cm-1,A
4000.0,0.002406459447985284
3999.0,0.0023835505288200207
3998.0,0.002378418598118135
3997.0,0.002393151345473362
3996.0,0.0024187761019568094
3995.0,0.0024425744807815165
3994.0,0.0024568749524970616
3993.0,0.0024612885232282427
3992.0,0.002460711392297874
3991.0,0.0024602625076845163
3990.0,0.002461116427628733
3989.0,0.002459421775541565
3988.0,0.0024501168247926634
3987.0,0.002433261245252772
3986.0,0.002416220653302042
3985.0,0.00240984449817779
3984.0,0.00241912819894845
3983.0,0.002437959570181063
3982.0,0.002453622830700725
3981.0,0.0024569399328867886
3980.0,0.002450032341595799
3979.0,0.0024425277978567025
3978.0,0.002442556686127183
3977.0,0.002450600738997984
3976.0,0.002460007573734908
3975.0,0.002463460693230681
3974.0,0.002457807751965184
3973.0,0.002445230028889178
3972.0,0.0024310608505250424
3971.0,0.0024211286158697413
3970.0,0.0024195066033547083
3969.0,0.00242589954398371
3968.0,0.002435279996217463
3967.0,0.002441075459156895
3966.0,0.0024401569161429477
3965.0,0.002434252910575227
3964.0,0.0024272472782809664
3963.0,0.0024220201114272645
3962.0,0.0024195083698376873
3961.0,0.00242055727236235
3960.0,0.002426700600697054
3959.0,0.0024379077906409464
3958.0,0.002450544806731938
3957.0,0.0024587992827430905
3956.0,0.0024585012418100703
3955.0,0.0024502331914876847
3954.0,0.002437590297539381
3953.0,0.0024229855586284516
3952.0,0.0024067011822956437
3951.0,0.0023896061651262233
3950.0,0.0023767800243756926
3949.0,0.0023761492067942806
3948.0,0.0023902716154548453
3947.0,0.00241066361179242
3946.0,0.0024229270931164504
3945.0,0.0024176942515531947
3944.0,0.002399576337349647
3943.0,0.0023857849347599233
3942.0,0.002390913377760144
3941.0,0.0024123405300175826
3940.0,0.002434009206728739
3939.0,0.0024431983709510153
3938.0,0.002439237451551806
3937.0,0.0024281429459714994
3936.0,0.002413982932651674
3935.0,0.0023974337531648335
3934.0,0.002382764136079466
3933.0,0.0023809364681783634
3932.0,0.002400503034523665
3931.0,0.0024350446394416966
3930.0,0.002466513608456296
3929.0,0.0024819613969172625
3928.0,0.0024801052245633877
3927.0,0.002468489615213133
3926.0,0.0024584858628201953
3925.0,0.0024566731233463014
3924.0,0.00245903248731084
3923.0,0.002455045671491886
3922.0,0.0024382046242716338
3921.0,0.002412658892765972
3920.0,0.0023903207274330266
3919.0,0.0023823740497032663
3918.0,0.002389759563721747
3917.0,0.0024037120163924366
3916.0,0.002416965572955717
3915.0,0.0024270703941316777
3914.0,0.002431297531213259
3913.0,0.002426490195282195
3912.0,0.002412988121106214
3911.0,0.0023975559534909303
3910.0,0.002389694989746569
3909.0,0.0023946683556632454
3908.0,0.0024097436395620446
3907.0,0.002425291134005729
3906.0,0.002429344984257861
3905.0,0.002414757943869004
3904.0,0.002392468185066856
3903.0,0.002388752362181208
3902.0,0.002413425478797823
3901.0,0.0024488655597177823
3900.0,0.0024724300157305213
3899.0,0.002479699751075321
3898.0,0.002480295853353607
3897.0,0.002476622169281981
3896.0,0.002463268319192454
3895.0,0.0024402995429360233
3894.0,0.0024203228772744405
3893.0,0.0024219847111885302
3892.0,0.002448767691655111
3891.0,0.002481147934069553
3890.0,0.0024988219041335146
3889.0,0.002491464668722014
3888.0,0.0024603676011393377
3887.0,0.0024238542645301283
3886.0,0.0024067120864898657
3885.0,0.002413749167919729
3884.0,0.0024232354707885402
3883.0,0.002416092567637953
3882.0,0.002399110663994365
3881.0,0.0023950882947071346
3880.0,0.002414551704485953
3879.0,0.00244642705222728
3878.0,0.0024678502860089177
3877.0,0.002462309669721328
3876.0,0.0024341281565016352
3875.0,0.0024027709494273547
3874.0,0.0023844869378403435
3873.0,0.0023799435416298823
3872.0,0.0023802940632091808
3871.0,0.0023823392013868515
3870.0,0.0023926836985891514
3869.0,0.0024148233431488626
3868.0,0.0024364300546779816
3867.0,0.0024394635303630393
3866.0,0.0024251030075321534
3865.0,0.002411169165786947
3864.0,0.0024048765580664336
3863.0,0.002397610313468649
3862.0,0.0023867767116604903
3861.0,0.0023788432981008637
3860.0,0.0023785846638630787
3859.0,0.0023873057910671555
3858.0,0.0024049254835182988
3857.0,0.0024299907122018165
3856.0,0.0024583489824573663
3855.0,0.0024900095601924537
3854.0,0.002529005528988028
3853.0,0.002556117713254414
3852.0,0.002559250075146893
3851.0,0.0025417989318158845
3850.0,0.0025059893527898417
3849.0,0.002471353662712541
3848.0,0.00245080507684794
3847.0,0.0024390815369744736
3846.0,0.002423233063167673
3845.0,0.0023978537754875146
3844.0,0.00237073141429485
3843.0,0.0023578260909407588
3842.0,0.002372005912230279
3841.0,0.002413243707963526
3840.0,0.0024627078874011697
3839.0,0.0024888353132879928
3838.0,0.002478363076637755
3837.0,0.0024531080156266092
3836.0,0.0024349491916010255
3835.0,0.002422538476283006
3834.0,0.002408445731079424
3833.0,0.0023926556174383414
3832.0,0.002382784596404083
3831.0,0.002385855922112278
3830.0,0.0023976792349535434
3829.0,0.0024060128592022553
3828.0,0.002404155756571361
3827.0,0.0023979434789130156
3826.0,0.002397767026618946
3825.0,0.002404644320001495
3824.0,0.002408615323941974
3823.0,0.002405133794442125
3822.0,0.0024025044689587804
3821.0,0.0024045830142491566
3820.0,0.002412166310356901
3819.0,0.0024240783374160375
3818.0,0.0024262917287389144
3817.0,0.0024161025848592017
3816.0,0.0024085026426162457
3815.0,0.00241955780168012
3814.0,0.002445344757264636
3813.0,0.0024674622620925292
3812.0,0.0024779321308293608
3811.0,0.0024784189206748172
3810.0,0.0024692522021883614
3809.0,0.002452068497962899
3808.0,0.0024363081804636188
3807.0,0.002432458339110345
3806.0,0.002435642525888109
3805.0,0.0024254110694230295
3804.0,0.0023880395647905214
3803.0,0.0023412510814098
3802.0,0.002330093782933954
3801.0,0.002375387373398076
3800.0,0.00244242215711119
3799.0,0.002479371276527834
3798.0,0.002465977678178433
3797.0,0.0024228155449108005
3796.0,0.0023861351699758443
3795.0,0.0023762122881864365
3794.0,0.002384883612418583
3793.0,0.002394814088120583
3792.0,0.002400154742770169
3791.0,0.0024055416931746823
3790.0,0.002416688018110435
3789.0,0.002435504991427498
3788.0,0.0024588685998187827
3787.0,0.0024796573253236904
3786.0,0.0024889380405469577
3785.0,0.0024813294944626488
3784.0,0.002462151069913772
3783.0,0.0024432272915506075
3782.0,0.0024307383794105984
3781.0,0.0024249818726609926
3780.0,0.0024215769364626955
3779.0,0.0024166316977525587
3778.0,0.0024155969305016045
3777.0,0.002423456878032286
3776.0,0.0024345787635876347
3775.0,0.002441381039728985
3774.0,0.0024415691694798063
3773.0,0.002436728723627788
3772.0,0.0024306455506595903
3771.0,0.002428235057107246
3770.0,0.0024309292366273385
3769.0,0.0024348919440232023
3768.0,0.0024353172968207965
3767.0,0.0024319073213655727
3766.0,0.002433877875479596
3765.0,0.0024491453273454934
3764.0,0.0024692906673566316
3763.0,0.002475470086432066
3762.0,0.002459804093774179
3761.0,0.0024379415856183254
3760.0,0.002435470677419535
3759.0,0.002456183875585087
3758.0,0.0024794517226802027
3757.0,0.002489648963189534
3756.0,0.002486555543706308
3755.0,0.002476722140168943
3754.0,0.0024692665641912305
3753.0,0.0024790052784042756
3752.0,0.002519057316760679
3751.0,0.002572912951188522
3750.0,0.0026125500775079566
3749.0,0.0026411615335669505
3748.0,0.0026562070560540996
3747.0,0.002638375722152691
3746.0,0.002577331057992991
3745.0,0.0024989491011202843
3744.0,0.0024677446537179357
3743.0,0.0024988347382692497
3742.0,0.0025361612168078905
3741.0,0.0025466831411629825
3740.0,0.0025438229420080213
3739.0,0.002547186819858143
3738.0,0.0025618574595112284
3737.0,0.002580078752559802
3736.0,0.0025831123261849673
3735.0,0.002558157339094383
3734.0,0.0025294984858898984
3733.0,0.002526244903207525
3732.0,0.0025471567209641556
3731.0,0.002576309799907521
3730.0,0.002598382929215671
3729.0,0.002606587973730181
3728.0,0.0026044142309535065
3727.0,0.00259974798014948
3726.0,0.0025972604958578232
3725.0,0.0025940747365500363
3724.0,0.0025836702984655775
3723.0,0.002565509651531863
3722.0,0.0025489403501541804
3721.0,0.0025441844448917056
3720.0,0.002552087408117217
3719.0,0.0025673337161994207
3718.0,0.0025863572529387507
3717.0,0.0026078760015543646
3716.0,0.0026277983225985275
3715.0,0.002641608840687826
3714.0,0.002652691331765957
3713.0,0.002674459169464038
3712.0,0.002710042962328332
3711.0,0.0027352007343759473
3710.0,0.0027428014005267875
3709.0,0.002756449412403165
3708.0,0.0027869281098411944
3707.0,0.002827889653180379
3706.0,0.0028720742165814547
3705.0,0.0029172846830489863
3704.0,0.002965964063000608
3703.0,0.003022010558483306
3702.0,0.0030867709228669608
3701.0,0.0031593856721550094
3700.0,0.0032361702063929496
3699.0,0.0033063992764871403
3698.0,0.003358571464860601
3697.0,0.0033918354370880126
3696.0,0.0034153136954299945
3695.0,0.003438702839993456
3694.0,0.0034636666656609055
3693.0,0.0034841319661193778
3692.0,0.0034884091930984336
3691.0,0.0034603407483672207
3690.0,0.003395368400939287
3689.0,0.003329761169688237
3688.0,0.003309294278753725
3687.0,0.003324612217641621
3686.0,0.0033421617119092865
3685.0,0.0033521027628640497
3684.0,0.003363533743306322
3683.0,0.0033816290556341498
3682.0,0.0034021818103245356
3681.0,0.0034208605846578104
3680.0,0.003439498943514892
3679.0,0.003460014926471783
3678.0,0.0034777228898105273
3677.0,0.0034860763535049357
3676.0,0.0034853692756558067
3675.0,0.003497022675058984
3674.0,0.003547157328847887
3673.0,0.003617120035112364
3672.0,0.003677893840393758
3671.0,0.0037230912821105064
3670.0,0.0037517986544341473
3669.0,0.003777150612922351
3668.0,0.003819919786155297
3667.0,0.0038720291117627804
3666.0,0.003918911343743661
3665.0,0.003959372728933033
3664.0,0.0040009476527519015
3663.0,0.004050930302856444
3662.0,0.004110004675655733
3661.0,0.004172130359292023
3660.0,0.004230241251235956
3659.0,0.004281667834363743
3658.0,0.004329866837360822
3657.0,0.004380404975694393
3656.0,0.004436115563087295
3655.0,0.004495262162961887
3654.0,0.0045520269456735705
3653.0,0.004607394620850187
3652.0,0.00468465293381701
3651.0,0.004819745483812759
3650.0,0.004989469975611815
3649.0,0.005059898067419376
3648.0,0.005009881859116941
3647.0,0.004973896994580773
3646.0,0.005011237709095331
3645.0,0.005097976311946472
3644.0,0.005196062121904372
3643.0,0.0052809318663522425
3642.0,0.005347314078181102
3641.0,0.005405638002563198
3640.0,0.005467958604876916
3639.0,0.005538134909260327
3638.0,0.005614292316302445
3637.0,0.005693481103972945
3636.0,0.005771844038917551
3635.0,0.005844876952173549
3634.0,0.005912752668850326
3633.0,0.00598335294750106
3632.0,0.006068653609732213
3631.0,0.0061795535657914345
3630.0,0.00631109179482355
3629.0,0.006414887019397016
3628.0,0.006465827789742721
3627.0,0.006515401849361285
3626.0,0.006587477633349352
3625.0,0.006679091337065037
3624.0,0.006789194362700656
3623.0,0.0069133058719141535
3622.0,0.007040966884712533
3621.0,0.007155470156944295
3620.0,0.00723655091083489
3619.0,0.0072857631363790615
3618.0,0.007344477853974593
3617.0,0.007441084138149192
3616.0,0.0075564503797780295
3615.0,0.007651399321409078
3614.0,0.00770056802725964
3613.0,0.007720341814880934
3612.0,0.007755597806456812
3611.0,0.007827833764842746
3610.0,0.007915411096034802
3609.0,0.007978682980600752
3608.0,0.008001944328927485
3607.0,0.00801867367204497
3606.0,0.008071659610048
3605.0,0.008167024537181907
3604.0,0.008283856491968427
3603.0,0.008398678195690923
3602.0,0.008497916683529096
3601.0,0.008580386910252391
3600.0,0.008652781104854453
3599.0,0.008722714918676402
3598.0,0.008794056004122445
3597.0,0.008865670794610722
3596.0,0.008932215515211561
3595.0,0.008990307733324637
3594.0,0.00904824754421997
3593.0,0.009124487211195692
3592.0,0.009232191572070165
3591.0,0.009371907687176472
3590.0,0.009530154172007043
3589.0,0.009664312586902049
3588.0,0.009703826706898783
3587.0,0.009646467573419134
3586.0,0.009604541965837184
3585.0,0.009654931744762757
3584.0,0.00978124521691435
3583.0,0.009934526855004424
3582.0,0.010074328066321449
3581.0,0.010180665204772935
3580.0,0.010257369727488315
3579.0,0.010325219937941455
3578.0,0.010405535505493895
3577.0,0.010504275691730668
3576.0,0.010610030423364976
3575.0,0.01070972809721871
3574.0,0.010805493947716035
3573.0,0.010913813514277521
3572.0,0.011048329274215379
3571.0,0.011209307996729199
3570.0,0.011384478400927987
3569.0,0.01154616479364842
3568.0,0.011641054216203971
3567.0,0.011627587769565744
3566.0,0.011562788815164784
3565.0,0.011544851730797577
3564.0,0.011600538872183035
3563.0,0.01170590666119371
3562.0,0.011831247357766571
3561.0,0.011954048308918613
3560.0,0.012063243144357907
3559.0,0.01216312567926478
3558.0,0.01226573863414149
3557.0,0.012376449850329454
3556.0,0.01248872544233059
3555.0,0.012590957638862586
3554.0,0.012675410137688458
3553.0,0.012743771847533029
3552.0,0.01280996179440273
3551.0,0.012894993714070178
3550.0,0.013012441653855095
3549.0,0.013157165002884573
3548.0,0.013302535132349693
3547.0,0.01341018475071802
3546.0,0.013461724177105922
3545.0,0.013483672332048504
3544.0,0.013520475001425144
3543.0,0.013591314877201104
3542.0,0.013689061808372519
3541.0,0.013801017646039025
3540.0,0.013917791163017059
3539.0,0.014030969351596234
3538.0,0.014130302682816242
3537.0,0.014208931099036964
3536.0,0.014275324016071497
3535.0,0.014352641351847502
3534.0,0.014459585639944532
3533.0,0.014595241178962829
3532.0,0.014742299989297773
3531.0,0.014880250467416131
3530.0,0.01499612232970209
3529.0,0.015087108024095151
3528.0,0.01516076625690661
3527.0,0.015233474817251298
3526.0,0.0153187496223567
3525.0,0.015411354967370013
3524.0,0.015490432878702293
3523.0,0.015548152491992717
3522.0,0.015606768216783602
3521.0,0.015693209553916957
3520.0,0.01580696245502474
3519.0,0.01592311814875715
3518.0,0.016020587421461608
3517.0,0.01610152318600717
3516.0,0.01618335645919171
3515.0,0.01628015101218254
3514.0,0.016394558377590872
3513.0,0.01651952020684204
3512.0,0.016639474996539706
3511.0,0.01673402875016226
3510.0,0.016793487460445716
3509.0,0.016835552124051252
3508.0,0.01689607008730932
3507.0,0.016997474052256344
3506.0,0.017129937923591965
3505.0,0.017255719347445932
3504.0,0.017331513859263403
3503.0,0.01734850266341004
3502.0,0.017351583478778774
3501.0,0.017395894105122826
3500.0,0.017497361486989976
3499.0,0.017633148403447266
3498.0,0.01776616234664864
3497.0,0.017868811397970995
3496.0,0.01793984195501311
3495.0,0.018003453861044967
3494.0,0.018087308349818663
3493.0,0.01819913550397313
3492.0,0.018324426237653506
3491.0,0.018441722399019665
3490.0,0.018535763380871106
3489.0,0.018600416701779976
3488.0,0.018641648376986668
3487.0,0.018681176348199248
3486.0,0.018746051467351532
3485.0,0.01884582565655919
3484.0,0.018961146069041594
3483.0,0.019058347595507202
3482.0,0.01912029166967929
3481.0,0.019163603367536322
3480.0,0.019221814710562207
3479.0,0.019314429673740148
3478.0,0.019433475905490185
3477.0,0.019552231463787886
3476.0,0.019646239988733574
3475.0,0.019714714452852722
3474.0,0.01978135001415084
3473.0,0.019866939186956117
3472.0,0.019966390749937682
3471.0,0.02005899391302133
3470.0,0.02013394009384106
3469.0,0.020197975301289153
3468.0,0.020262870711785785
3467.0,0.02033468286015762
3466.0,0.020414593490053874
3465.0,0.02050013410200971
3464.0,0.0205828320764206
3463.0,0.020652735264544034
3462.0,0.020710035535508257
3461.0,0.0207676737632427
3460.0,0.02083855058506646
3459.0,0.02092331857505104
3458.0,0.021011548273341125
3457.0,0.02109160906511628
3456.0,0.02116034783467675
3455.0,0.021225904604991658
3454.0,0.021300578752740225
3453.0,0.021389194384179917
3452.0,0.02148682416150657
3451.0,0.021588243552253614
3450.0,0.021691807490243856
3449.0,0.02178823058626397
3448.0,0.02185429162601012
3447.0,0.021876521883257144
3446.0,0.021878695026250512
3445.0,0.021900408126066258
3444.0,0.021953268792117623
3443.0,0.022017472253892008
3442.0,0.022074271158266344
3441.0,0.02212873447949477
3440.0,0.022197022679252942
3439.0,0.02228273010269101
3438.0,0.022375245826541906
3437.0,0.022463142895639332
3436.0,0.022540619254769818
3435.0,0.022605855136147067
3434.0,0.022661416875487114
3433.0,0.02271504193267702
3432.0,0.02277333864835691
3431.0,0.022833747397797317
3430.0,0.02288690527611607
3429.0,0.022927960177698003
3428.0,0.02296312564362127
3427.0,0.02300543855398184
3426.0,0.023065780582209667
3425.0,0.023145952829994418
3424.0,0.023235728293842246
3423.0,0.023315255064743533
3422.0,0.02336492022484388
3421.0,0.023379905847693363
3420.0,0.02337733522853239
3419.0,0.023384804563748533
3418.0,0.02341946103485083
3417.0,0.023476963181186736
3416.0,0.023538759020914284
3415.0,0.02359051093356413
3414.0,0.02363452854758153
3413.0,0.023682636616743195
3412.0,0.02373866795706116
3411.0,0.02379312243397107
3410.0,0.02383501191684836
3409.0,0.02386415824504894
3408.0,0.023889552040492378
3407.0,0.02391914824982338
3406.0,0.02395426052243778
3405.0,0.02399153453606722
3404.0,0.024027303957926974
3403.0,0.024061106428068607
3402.0,0.024096394868722226
3401.0,0.024136280480200487
3400.0,0.024178278253692183
3399.0,0.02421642696004095
3398.0,0.024250160713492806
3397.0,0.024287324962385268
3396.0,0.02433375318902062
3395.0,0.024381013724523896
3394.0,0.02440981685523016
3393.0,0.024409011923857235
3392.0,0.02439038710057666
3391.0,0.02437980680166181
3390.0,0.024393437102259274
3389.0,0.02442691095442556
3388.0,0.02446551308460754
3387.0,0.02449896419385536
3386.0,0.024524643463286002
3385.0,0.024541118395029926
3384.0,0.024546599546394668
3383.0,0.02454551267103842
3382.0,0.024549508686951552
3381.0,0.02456768415931665
3380.0,0.024599077506841545
3379.0,0.02463664344937847
3378.0,0.02467407130527595
3377.0,0.02470491898369021
3376.0,0.024720487987634918
3375.0,0.0247169164000245
3374.0,0.024703578981878718
3373.0,0.02469767660157745
3372.0,0.024709314027480743
3371.0,0.024735250116228794
3370.0,0.024765673737029634
3369.0,0.02479187576558324
3368.0,0.02480741698785355
3367.0,0.024808749197139515
3366.0,0.024798742846981428
3365.0,0.024786459316143632
3364.0,0.024780421134386672
3363.0,0.024783412163725198
3362.0,0.024794196819141207
3361.0,0.024811539672412158
3360.0,0.02483480490408921
3359.0,0.024861389744507762
3358.0,0.024884342460307893
3357.0,0.024893773041379793
3356.0,0.02488408676796544
3355.0,0.024861609506972287
3354.0,0.02484114386117296
3353.0,0.024831693052691693
3352.0,0.024828373105944202
3351.0,0.02482138629679355
3350.0,0.024809548450425024
3349.0,0.024799583616604195
3348.0,0.024794426863131606
3347.0,0.02478966642118518
3346.0,0.024782210966234453
3345.0,0.024775603184357512
3344.0,0.024774700534667207
3343.0,0.024780499489976678
3342.0,0.024792169347683784
3341.0,0.024808904909671966
3340.0,0.024826746223985223
3339.0,0.02483745489424733
3338.0,0.02483418301201041
3337.0,0.024816721109465683
3336.0,0.024789858116724354
3335.0,0.024759524418336835
3334.0,0.02473241703819905
3333.0,0.024715435265846887
3332.0,0.02471133512212391
3331.0,0.024715998418477804
3330.0,0.024721993184935447
3329.0,0.02472378045591313
3328.0,0.024719059362612383
3327.0,0.024708352806943962
3326.0,0.02469569376216397
3325.0,0.02468695893243897
3324.0,0.024684181828543678
3323.0,0.02468305921120854
3322.0,0.024678927712402474
3321.0,0.024673908177657643
3320.0,0.02467531255184667
3319.0,0.02468755121597072
3318.0,0.02470774899846467
3317.0,0.0247285881136651
3316.0,0.024743265705312815
3315.0,0.02474835793552008
3314.0,0.024744913717043925
3313.0,0.024737706428606985
3312.0,0.024731647977037703
3311.0,0.024728185954393807
3310.0,0.02472614411173978
3309.0,0.02472566599619783
3308.0,0.024729051569362632
3307.0,0.024736847405648528
3306.0,0.024745276784670284
3305.0,0.02474967111251631
3304.0,0.02474982525442119
3303.0,0.024750086033751756
3302.0,0.024753696814399623
3301.0,0.024758649427178658
3300.0,0.024760412687250554
3299.0,0.02475754227946099
3298.0,0.02475287738452405
3297.0,0.024749682878619877
3296.0,0.024748731547635003
3295.0,0.0247493867385632
3294.0,0.0247511952968495
3293.0,0.024753151317322343
3292.0,0.024752929795398216
3291.0,0.024748156704510416
3290.0,0.024737460284085754
3289.0,0.02472007967194279
3288.0,0.02469686043638573
3287.0,0.024672630996681752
3286.0,0.02465443161738063
3285.0,0.024644455140097162
3284.0,0.02463653926297969
3283.0,0.024623038268094737
3282.0,0.02460385731588487
3281.0,0.02458431023314297
3280.0,0.02456451740460307
3279.0,0.02453643605846118
3278.0,0.02449369093706008
3277.0,0.024440457263852886
3276.0,0.02438687085083399
3275.0,0.02433753462225788
3274.0,0.024288889062866043
3273.0,0.024237686501757207
3272.0,0.024187065257074317
3271.0,0.024141693185957422
3270.0,0.024100049096592517
3269.0,0.02405524798021351
3268.0,0.024003158691102675
3267.0,0.02394673380808743
3266.0,0.023891254521823137
3265.0,0.023837901896833335
3264.0,0.023784465337573207
3263.0,0.023730398438872247
3262.0,0.023676971578583873
3261.0,0.023622635434685155
3260.0,0.023562806370640777
3259.0,0.02349635069490326
3258.0,0.023428836976508848
3257.0,0.023366375326294177
3256.0,0.023308654373020737
3255.0,0.023251305360002313
3254.0,0.02319335467711385
3253.0,0.023137869562029505
3252.0,0.02308526843710768
3251.0,0.02303021051262133
3250.0,0.02296678700690745
3249.0,0.02289466815240036
3248.0,0.02281898125885455
3247.0,0.02274564727744713
3246.0,0.022677901642894956
3245.0,0.02261595948659525
3244.0,0.022558230432341585
3243.0,0.02250262491477834
3242.0,0.02244767378816429
3241.0,0.02239348894815964
3240.0,0.022341683534875856
3239.0,0.02229312968759822
3238.0,0.02224484755588884
3237.0,0.022190377829682473
3236.0,0.022125374386106803
3235.0,0.022052636486458655
3234.0,0.021979716393932182
3233.0,0.021911920591736404
3232.0,0.021850052851148653
3231.0,0.021794316619527278
3230.0,0.02174620677447285
3229.0,0.021704797075030452
3228.0,0.021664527277345923
3227.0,0.021619662027956676
3226.0,0.02156941364168724
3225.0,0.021516925238372044
3224.0,0.02146520093040462
3223.0,0.021415542390018992
3222.0,0.02136718927160821
3221.0,0.021316168670396853
3220.0,0.021257156434369484
3219.0,0.02118978441178901
3218.0,0.021120956006841836
3217.0,0.021057846066304432
3216.0,0.02100051923912454
3215.0,0.02094371548471147
3214.0,0.020883881978054526
3213.0,0.020821503262994857
3212.0,0.02075784703959984
3211.0,0.020693097825714917
3210.0,0.020627565596960655
3209.0,0.020562129397732536
3208.0,0.020497670211047987
3207.0,0.020435732802212947
3206.0,0.020378543037110904
3205.0,0.020326281034057835
3204.0,0.020275433135524358
3203.0,0.02022199788068632
3202.0,0.020165109376775302
3201.0,0.02010573095550127
3200.0,0.02004365800544552
3199.0,0.0199780331864311
3198.0,0.019908926408815815
3197.0,0.019836539566673073
3196.0,0.01976162321100042
3195.0,0.019688689912637978
3194.0,0.019624546184979767
3193.0,0.019569867454106278
3192.0,0.019516179238746094
3191.0,0.01945626308090914
3190.0,0.019394196064101674
3189.0,0.01933803968389482
3188.0,0.01928477350279953
3187.0,0.01922134333203567
3186.0,0.01914177148518941
3185.0,0.01905598284796738
3184.0,0.018978873703078016
3183.0,0.01891627558246158
3182.0,0.01886381204005067
3181.0,0.018812628753681632
3180.0,0.0187522532547885
3179.0,0.01867432166361533
3178.0,0.018580428543975284
3177.0,0.018484190656179185
3176.0,0.018400659688310655
3175.0,0.018334424131549468
3174.0,0.018279550354771582
3173.0,0.018227583887857106
3172.0,0.01817290354332679
3171.0,0.018112892087408832
3170.0,0.018046806400344523
3169.0,0.017975270791390944
3168.0,0.017900191643117045
3167.0,0.017825193139276007
3166.0,0.017754648354917007
3165.0,0.017689586881010765
3164.0,0.017624983245102907
3163.0,0.01755460848137669
3162.0,0.01747933046049864
3161.0,0.017407107929128394
3160.0,0.01734336476815371
3159.0,0.01728487103865522
3158.0,0.017225086654994212
3157.0,0.017161808658757695
3156.0,0.017096699883272257
3155.0,0.01703056775256518
3154.0,0.016963083993139106
3153.0,0.016895215826057852
3152.0,0.016827923632084293
3151.0,0.01675904659613832
3150.0,0.0166852196479332
3149.0,0.01660769937254575
3148.0,0.016533370908487055
3147.0,0.01646823554923416
3146.0,0.01641118099974629
3145.0,0.016355409777449426
3144.0,0.016295744606625584
3143.0,0.01623354801484365
3142.0,0.01617394737466556
3141.0,0.016119097382841834
3140.0,0.01606615441672853
3139.0,0.016012402838996912
3138.0,0.015959662197671712
3137.0,0.01591031367960923
3136.0,0.015860259130155735
3135.0,0.01580006872627275
3134.0,0.015724647567639916
3133.0,0.01564027818698383
3132.0,0.01556085573022098
3131.0,0.015497825190854065
3130.0,0.01545370655134718
3129.0,0.015421632833699312
3128.0,0.015389078398883704
3127.0,0.015345858710157898
3126.0,0.015291610056502314
3125.0,0.01523394646349054
3124.0,0.01517889380907874
3123.0,0.015125928780624524
3122.0,0.01507371563667383
3121.0,0.015026329267342955
3120.0,0.014988826850830791
3119.0,0.014958340130747625
3118.0,0.01492411995770903
3117.0,0.014877755511482588
3116.0,0.014821786492179204
3115.0,0.014767195714930865
3114.0,0.014723216195950756
3113.0,0.014689873083691553
3112.0,0.014659315221361432
3111.0,0.014623582872460975
3110.0,0.014581629511894185
3109.0,0.014539520885640249
3108.0,0.014503867696584367
3107.0,0.014475300633946073
3106.0,0.014448413667610545
3105.0,0.01441682911621124
3104.0,0.014377320593009215
3103.0,0.014330031037953649
3102.0,0.014276848341220921
3101.0,0.014221122080401822
3100.0,0.014168522780214996
3099.0,0.014125923902691562
3098.0,0.014097032180548889
3097.0,0.014078676725091136
3096.0,0.014062790916342646
3095.0,0.01404360266834264
3094.0,0.014021756389502146
3093.0,0.013999245753684912
3092.0,0.013973310284531979
3091.0,0.013939929794945495
3090.0,0.013902046149264331
3089.0,0.013868696298066962
3088.0,0.013843789627393011
3087.0,0.013819760656310577
3086.0,0.013787090120283927
3085.0,0.013747362735408114
3084.0,0.013711564580136552
3083.0,0.013686406822927717
3082.0,0.013666120539575216
3081.0,0.01363980254655392
3080.0,0.013603921506662248
3079.0,0.013564360212124293
3078.0,0.01352792523936472
3077.0,0.01349525635679982
3076.0,0.013462782375433692
3075.0,0.013429275957635168
3074.0,0.013398192805146567
3073.0,0.013373621824899127
3072.0,0.013355320544063071
3071.0,0.013338369942799048
3070.0,0.013317589534216816
3069.0,0.013291698305448227
3068.0,0.01326249666423974
3067.0,0.013230441598926015
3066.0,0.013192181513836596
3065.0,0.01314398241418725
3064.0,0.013087932731880492
3063.0,0.013032968655589908
3062.0,0.012988412161217327
3061.0,0.012956863506523784
3060.0,0.012933155056854653
3059.0,0.012908884303014425
3058.0,0.012877262256866862
3057.0,0.012835273642154497
3056.0,0.01278492617673865
3055.0,0.012733232883937098
3054.0,0.01268815042420271
3053.0,0.012651978547148885
3052.0,0.012619278277530479
3051.0,0.012582006867560372
3050.0,0.012536437436184988
3049.0,0.012485029170088664
3048.0,0.012432754179188682
3047.0,0.012383506300769663
3046.0,0.012339068607675134
3045.0,0.012298881982500651
3044.0,0.012259606016621028
3043.0,0.012216372049959312
3042.0,0.012166072149601746
3041.0,0.012110055681823906
3040.0,0.0120540372506625
3039.0,0.012005000953309856
3038.0,0.01196704696496238
3037.0,0.011938742082915302
3036.0,0.011914125277148715
3035.0,0.011886411981780023
3034.0,0.011851034338308713
3033.0,0.011806429694817315
3032.0,0.011754623999335695
3031.0,0.011701749717858171
3030.0,0.011655115047600976
3029.0,0.011616799748616053
3028.0,0.01158146539653073
3027.0,0.011541898274257154
3026.0,0.01149692804736751
3025.0,0.011452748482221007
3024.0,0.01141602816190633
3023.0,0.011386848087360369
3022.0,0.011358928196177091
3021.0,0.011326738509228666
3020.0,0.011291564844670464
3019.0,0.011259238141967061
3018.0,0.0112322047723782
3017.0,0.01120524924586794
3016.0,0.01117178408066192
3015.0,0.011132552395121174
3014.0,0.011095586581432733
3013.0,0.011067503684971312
3012.0,0.011047828986956573
3011.0,0.011031805828568239
3010.0,0.01101459254297903
3009.0,0.010992062378713927
3008.0,0.010961702772957422
3007.0,0.010925647490861966
3006.0,0.01089016329353684
3005.0,0.010859826522806397
3004.0,0.010833824476856048
3003.0,0.01080969019634798
3002.0,0.010787014196015953
3001.0,0.01076529218938891
3000.0,0.010741489777486003
2999.0,0.010714145555475653
2998.0,0.010687532498251887
2997.0,0.010667766585883389
2996.0,0.010655397120315163
2995.0,0.010645888994893906
2994.0,0.010636831510764696
2993.0,0.010632151315982358
2992.0,0.010638476141707693
2991.0,0.010659218780311331
2990.0,0.01069083966586543
2989.0,0.010722893494246906
2988.0,0.010744494482060654
2987.0,0.010753680004201958
2986.0,0.010760222455101111
2985.0,0.01077543258019852
2984.0,0.01080161982836392
2983.0,0.010833300649666984
2982.0,0.010866309194740804
2981.0,0.010901191300336123
2980.0,0.010939350607827133
2979.0,0.010981319893994422
2978.0,0.01102868824528604
2977.0,0.011082517934997614
2976.0,0.011139164669359778
2975.0,0.011192135300978477
2974.0,0.01124080780684427
2973.0,0.011293261344731255
2972.0,0.011358956157003747
2971.0,0.011440354731174319
2970.0,0.011534032375420555
2969.0,0.01163637991409772
2968.0,0.011746188215332609
2967.0,0.011862832051545135
2966.0,0.011984128749393587
2965.0,0.012105307564669467
2964.0,0.012219374503642912
2963.0,0.012319659611877741
2962.0,0.012403008710105311
2961.0,0.012470656261904392
2960.0,0.012525849470348818
2959.0,0.012571568264476725
2958.0,0.01260931587210539
2957.0,0.012637851313966188
2956.0,0.012652682573521682
2955.0,0.012649505371547342
2954.0,0.012630555388408498
2953.0,0.01260634586079118
2952.0,0.01259019417249339
2951.0,0.012590247148540124
2950.0,0.01260756946008192
2949.0,0.012640879500419006
2948.0,0.012693577923787922
2947.0,0.012775857919384794
2946.0,0.012899911740414306
2945.0,0.013071654882206237
2944.0,0.01328814065381265
2943.0,0.013542835709821451
2942.0,0.013832660127443422
2941.0,0.014158608808153174
2940.0,0.014521452168268514
2939.0,0.014919582705676771
2938.0,0.015351408908790772
2937.0,0.015817638702623815
2936.0,0.016320337345364852
2935.0,0.016860146853925707
2934.0,0.017434944852850097
2933.0,0.018041311944980813
2932.0,0.018678020507841165
2931.0,0.019348310399586212
2930.0,0.020059233914298914
2929.0,0.020818863628565693
2928.0,0.021633783028778514
2927.0,0.02250667766404432
2926.0,0.0234346549716612
2925.0,0.024411393865642984
2924.0,0.025432728050294014
2923.0,0.02649668428721898
2922.0,0.02759443594334219
2921.0,0.02869939175767232
2920.0,0.02976409675540752
2919.0,0.030720335091677257
2918.0,0.03147983087669015
2917.0,0.03194430794702263
2916.0,0.03203238584649341
2915.0,0.03171071525307585
2914.0,0.03100750048442526
2913.0,0.03000708319958307
2912.0,0.02882732659263145
2911.0,0.027589288711840756
2910.0,0.026391469059794455
2909.0,0.025292086844568788
2908.0,0.02431172606573754
2907.0,0.0234465563208592
2906.0,0.022685229886162884
2905.0,0.02201728676303403
2904.0,0.02143427180185336
2903.0,0.02092555989066926
2902.0,0.02047519215471892
2901.0,0.020063718399137915
2900.0,0.01967573920163646
2899.0,0.019305451731539178
2898.0,0.018953536170922224
2897.0,0.01861906794742454
2896.0,0.018295986579978097
2895.0,0.017977379875847806
2894.0,0.017659783861421037
2893.0,0.017341953919263325
2892.0,0.017022184351590107
2891.0,0.016699098544103546
2890.0,0.016373573560921686
2889.0,0.016048239728457207
2888.0,0.015725720128508796
2887.0,0.015408176438145734
2886.0,0.015097329771631522
2885.0,0.01479453613164838
2884.0,0.014502742335588915
2883.0,0.014228418473398443
2882.0,0.01397778393873621
2881.0,0.013749957969166893
2880.0,0.013537208760417252
2879.0,0.01333370591549319
2878.0,0.013141292736048289
2877.0,0.012964257909024217
2876.0,0.012803698672503968
2875.0,0.01266041282608387
2874.0,0.012538921709002086
2873.0,0.012442594555415775
2872.0,0.012366818785048535
2871.0,0.012302112282850141
2870.0,0.012243783176702031
2869.0,0.012194472565378487
2868.0,0.012161073394309333
2867.0,0.012155854124914982
2866.0,0.012200033105026318
2865.0,0.012316878968768348
2864.0,0.012518353576685655
2863.0,0.012801057125941175
2862.0,0.013158622594689537
2861.0,0.013595069959105205
2860.0,0.014125188821683518
2859.0,0.014766655013077362
2858.0,0.015534670716581468
2857.0,0.016443427391438892
2856.0,0.017508458755429484
2855.0,0.018743999771277248
2854.0,0.02015063697237236
2853.0,0.02169911073821922
2852.0,0.02330708752668372
2851.0,0.024823680499898946
2850.0,0.026028927945729325
2849.0,0.026688841741744837
2848.0,0.026649481318903566
2847.0,0.025917273602438836
2846.0,0.024647174790614852
2845.0,0.023068540725175574
2844.0,0.021394148816423656
2843.0,0.019778085710016564
2842.0,0.018309462719915025
2841.0,0.017026120518100128
2840.0,0.01592670746173539
2839.0,0.014991725043837865
2838.0,0.014197758481735497
2837.0,0.013524998448571421
2836.0,0.012952948852753601
2835.0,0.012462084833297696
2834.0,0.012038493864851757
2833.0,0.01167313078340685
2832.0,0.011355712800559392
2831.0,0.011074172186472355
2830.0,0.010820700208574395
2829.0,0.010592840959571068
2828.0,0.010387423573401347
2827.0,0.01019801883607108
2826.0,0.01001978355430177
2825.0,0.009852688062263078
2824.0,0.009698315515410462
2823.0,0.009556328011347563
2822.0,0.009424959070581712
2821.0,0.009301969375953144
2820.0,0.009184404651871446
2819.0,0.009070079769925283
2818.0,0.00896015171735411
2817.0,0.008857712804856347
2816.0,0.008763527756749172
2815.0,0.008674925684523572
2814.0,0.008588274269186404
2813.0,0.008500632183625245
2812.0,0.008410663257321172
2811.0,0.008321097874233983
2810.0,0.008238957405661412
2809.0,0.008168933955492766
2808.0,0.008107537059618242
2807.0,0.00804762510695335
2806.0,0.007987254766603015
2805.0,0.007929494555504547
2804.0,0.007874492949650773
2803.0,0.007817246517564921
2802.0,0.00775383397760133
2801.0,0.007685399390257329
2800.0,0.007615453551248404
2799.0,0.007547610350921967
2798.0,0.007486736127037761
2797.0,0.007436868066204354
2796.0,0.00739654544580632
2795.0,0.007359821147742763
2794.0,0.007322862985518427
2793.0,0.0072860056516046105
2792.0,0.0072487917281761245
2791.0,0.007207741164076716
2790.0,0.00716085632115959
2789.0,0.007110562149255085
2788.0,0.00706035517862545
2787.0,0.007011472350229916
2786.0,0.006964539528950228
2785.0,0.006921231483911814
2784.0,0.00688255872093634
2783.0,0.006847811820002686
2782.0,0.006816116180414037
2781.0,0.0067866565746620595
2780.0,0.006756824373908414
2779.0,0.006723206944370176
2778.0,0.006685426328939835
2777.0,0.006646574679990068
2776.0,0.006609441211411954
2775.0,0.006574645530518975
2774.0,0.006542614470276817
2773.0,0.006514256533747053
2772.0,0.006488978261553558
2771.0,0.006464956014304377
2770.0,0.0064419277233100985
2769.0,0.006421046206457495
2768.0,0.0064017717958292164
2767.0,0.006381701332814994
2766.0,0.006359520709781178
2765.0,0.006334993152093737
2764.0,0.006306405414799305
2763.0,0.006272260610964692
2762.0,0.006236272967448221
2761.0,0.0062063159418411
2760.0,0.0061863064450859645
2759.0,0.006171992749331013
2758.0,0.006156524136787611
2757.0,0.00613777330770245
2756.0,0.006118336254159901
2755.0,0.006100519758001269
2754.0,0.006083068756441052
2753.0,0.00606191677840854
2752.0,0.006033724823302669
2751.0,0.006000144945026144
2750.0,0.0059684727775908865
2749.0,0.005946378227040744
2748.0,0.005935733805852127
2747.0,0.005932568263221296
2746.0,0.0059314294081846235
2745.0,0.005927120088169634
2744.0,0.005914559071641179
2743.0,0.00589204850545188
2742.0,0.005864769070101485
2741.0,0.005841196923298493
2740.0,0.005824811015557828
2739.0,0.005812038789204135
2738.0,0.005798404910354096
2737.0,0.005783631846446036
2736.0,0.0057699121648173675
2735.0,0.005758521452981291
2734.0,0.005749287056121239
2733.0,0.005740791022517912
2732.0,0.005730249416486394
2731.0,0.005715408326091777
2730.0,0.005697231899719934
2729.0,0.0056787533342742905
2728.0,0.0056610394318745635
2727.0,0.005642294143848627
2726.0,0.005620868986034179
2725.0,0.005597114320410321
2724.0,0.0055725663980462845
2723.0,0.005549599514432661
2722.0,0.005531188605237878
2721.0,0.0055182805114048425
2720.0,0.005507608003742686
2719.0,0.005494744982136339
2718.0,0.005478797357975964
2717.0,0.005461575122792915
2716.0,0.005443159868881524
2715.0,0.00542176009090459
2714.0,0.005397674893101529
2713.0,0.005374155181308627
2712.0,0.005354255171092366
2711.0,0.005339361405827091
2710.0,0.005329876295338973
2709.0,0.005324138125096184
2708.0,0.005317663462493892
2707.0,0.00530728469073704
2706.0,0.005295211475122832
2705.0,0.005285379672041738
2704.0,0.0052767132946094876
2703.0,0.005264431035636412
2702.0,0.005247384573049565
2701.0,0.005229216510201712
2700.0,0.005212359720866715
2699.0,0.00519611311236688
2698.0,0.005181302673440977
2697.0,0.005171474214334217
2696.0,0.005167235061864463
2695.0,0.0051636284981554405
2694.0,0.005155402537166719
2693.0,0.005141736921214347
2692.0,0.0051245358800800665
2691.0,0.005105672017456888
2690.0,0.005087668949187966
2689.0,0.005073730591633462
2688.0,0.005064419907878197
2687.0,0.005056414609381942
2686.0,0.005046199400753102
2685.0,0.005033628191092905
2684.0,0.005021449905632614
2683.0,0.005013258455223699
2682.0,0.00501185504088143
2681.0,0.005016568838066111
2680.0,0.0050215438398855455
2679.0,0.005019612360844656
2678.0,0.005008706251636029
2677.0,0.004992603771559354
2676.0,0.004975600271104483
2675.0,0.00495945069079812
2674.0,0.004945513123457586
2673.0,0.004935884824148003
2672.0,0.004931186089303212
2671.0,0.004929826896247196
2670.0,0.004930403646079186
2669.0,0.004932352308277923
2668.0,0.004933891766496046
2667.0,0.004932513972666393
2666.0,0.004928281752775348
2665.0,0.004924200764098926
2664.0,0.004922757835895572
2663.0,0.004924677982826912
2662.0,0.004930806520746922
2661.0,0.0049412837936151375
2660.0,0.004952101332482549
2659.0,0.004956248937836489
2658.0,0.004950549882313925
2657.0,0.004938945488161986
2656.0,0.004927723523061427
2655.0,0.004919976387490067
2654.0,0.004915618851539591
2653.0,0.00491387929091807
2652.0,0.004913626760943556
2651.0,0.004913502437631976
2650.0,0.004913340721049286
2649.0,0.004914105911354599
2648.0,0.004915501806295028
2647.0,0.0049154679624401785
2646.0,0.004912759036060378
2645.0,0.004908401461509248
2644.0,0.004904283332711968
2643.0,0.004902108018702139
2642.0,0.004903547710663662
2641.0,0.004908708423782115
2640.0,0.004914116640691855
2639.0,0.004914741806230157
2638.0,0.0049088405855543405
2637.0,0.004899019810894314
2636.0,0.004888913642284143
2635.0,0.004880811307652584
2634.0,0.004875384412079497
2633.0,0.004870733375462753
2632.0,0.004862496946852805
2631.0,0.004848903247917203
2630.0,0.004835266055314931
2629.0,0.004829414135890291
2628.0,0.004832373524664403
2627.0,0.004837410417725368
2626.0,0.004838147624802051
2625.0,0.004833319109979969
2624.0,0.004823759569249874
2623.0,0.004810086613222478
2622.0,0.004794890255721744
2621.0,0.004782532606685323
2620.0,0.004774378425208587
2619.0,0.004767899698413218
2618.0,0.004762150059658246
2617.0,0.004760423165899344
2616.0,0.004765211504448527
2615.0,0.004773333308300084
2614.0,0.004778006572958329
2613.0,0.004774173038131785
2612.0,0.00476154585513617
2611.0,0.004744915813140309
2610.0,0.004731524506528943
2609.0,0.004724854788828873
2608.0,0.004720154226062871
2607.0,0.004709294813446648
2606.0,0.004690263582418261
2605.0,0.0046694191924359744
2604.0,0.004654755618883876
2603.0,0.004649894347061265
2602.0,0.004653662983386408
2601.0,0.004660720605294534
2600.0,0.004662429169345475
2599.0,0.00465212700416355
2598.0,0.004631210307999765
2597.0,0.0046077863362429285
2596.0,0.004589628535180627
2595.0,0.004580796158262724
2594.0,0.00458269773252848
2593.0,0.00459223399828373
2592.0,0.004599224483528248
2591.0,0.004592818446391262
2590.0,0.004572823467215215
2589.0,0.004550232636641958
2588.0,0.004535168696404559
2587.0,0.004528563358464985
2586.0,0.0045264785294185225
2585.0,0.0045271412432168435
2584.0,0.004530668736478969
2583.0,0.004535830059503341
2582.0,0.004540289132779949
2581.0,0.004541948329777226
2580.0,0.00453825761915931
2579.0,0.004526279295881757
2578.0,0.004505452461855615
2577.0,0.004479870048189324
2576.0,0.0044573831711863885
2575.0,0.004446018435779984
2574.0,0.0044486164920673355
2573.0,0.004458587774460145
2572.0,0.004463439165856086
2571.0,0.004456111657754344
2570.0,0.004441275484133218
2569.0,0.004427974403414564
2568.0,0.00441923903271865
2567.0,0.00441244793732536
2566.0,0.00440641236727724
2565.0,0.004402457500218381
2564.0,0.004400434559658254
2563.0,0.004399123508454622
2562.0,0.004399039231646769
2561.0,0.004399753998670292
2560.0,0.004396513073908599
2559.0,0.004385252001303037
2558.0,0.004369532424372984
2557.0,0.0043568033621577745
2556.0,0.004348906216763456
2555.0,0.004341566676408693
2554.0,0.00433204261608974
2553.0,0.0043217216705421614
2552.0,0.004312570612554566
2551.0,0.004306872706314654
2550.0,0.00430890902812271
2549.0,0.004320452746654299
2548.0,0.004335574436540514
2547.0,0.004346095283553164
2546.0,0.004351121808247246
2545.0,0.004355101878064621
2544.0,0.004358366561548186
2543.0,0.00435737808067865
2542.0,0.0043539483772925
2541.0,0.004356033133361443
2540.0,0.00436720476354053
2539.0,0.004381387620572894
2538.0,0.004389727017755405
2537.0,0.0043878881915808896
2536.0,0.004376383869311179
2535.0,0.0043593753736348734
2534.0,0.004344586303039551
2533.0,0.004339833573308485
2532.0,0.004347406609630855
2531.0,0.004363144360704115
2530.0,0.004379609423084618
2529.0,0.004388273969871511
2528.0,0.004383086484930952
2527.0,0.0043673632514138324
2526.0,0.004354103315044254
2525.0,0.004353181163820478
2524.0,0.0043602715259765945
2523.0,0.004364133128832962
2522.0,0.004361551852013887
2521.0,0.004357908121577467
2520.0,0.004355877425160636
2519.0,0.00435227350736952
2518.0,0.004345346587858085
2517.0,0.004337061745808038
2516.0,0.0043276293398906195
2515.0,0.004314817243848469
2514.0,0.004299232646403405
2513.0,0.004284121556285159
2512.0,0.004270052760600383
2511.0,0.00425576453548747
2510.0,0.004243569519606291
2509.0,0.004237519840857446
2508.0,0.004236547367589774
2507.0,0.004235489196175298
2506.0,0.004232152884449894
2505.0,0.004227273221892758
2504.0,0.004218997699030635
2503.0,0.004204665787128447
2502.0,0.00418712563210766
2501.0,0.004171889715900714
2500.0,0.0041587045253758635
2499.0,0.004143485604961136
2498.0,0.004127941984910777
2497.0,0.004118818211734125
2496.0,0.004116826824287411
2495.0,0.004114123367575081
2494.0,0.00410418376691882
2493.0,0.004087584767318474
2492.0,0.004067525629279614
2491.0,0.004046857602144841
2490.0,0.0040301930413722455
2489.0,0.0040210947627501116
2488.0,0.004015495042251923
2487.0,0.004005190977414106
2486.0,0.003989558135749222
2485.0,0.003976476947823881
2484.0,0.003969628181844168
2483.0,0.003962647193459138
2482.0,0.0039494630501542725
2481.0,0.003933489333089356
2480.0,0.0039213402178204125
2479.0,0.003912075879904585
2478.0,0.003898384528907786
2477.0,0.0038768274180641773
2476.0,0.0038528127940569675
2475.0,0.0038351138316984777
2474.0,0.00382706070053345
2473.0,0.003823680238862392
2472.0,0.003817776933464979
2471.0,0.0038081019926288233
2470.0,0.0037990483753137447
2469.0,0.0037925842587233577
2468.0,0.003785552449543334
2467.0,0.0037769590844415526
2466.0,0.003771846979870941
2465.0,0.003773184101514826
2464.0,0.003774991324227564
2463.0,0.0037694908897151587
2462.0,0.0037570703584342254
2461.0,0.0037432000425876967
2460.0,0.0037297356001925247
2459.0,0.0037165407636013384
2458.0,0.0037083364178920938
2457.0,0.0037114658797402795
2456.0,0.0037244751569272955
2455.0,0.0037380370401199235
2454.0,0.0037433577469466947
2453.0,0.0037364873786439306
2452.0,0.003718093370663599
2451.0,0.0036951526413184516
2450.0,0.0036792303251495535
2449.0,0.0036755014117193655
2448.0,0.003675546439932736
2447.0,0.0036675784568201315
2446.0,0.003650934241052126
2445.0,0.003633821006751606
2444.0,0.0036206385022295234
2443.0,0.0036097694886904038
2442.0,0.00360099801174251
2441.0,0.0035963562784692314
2440.0,0.00359503012775319
2439.0,0.0035946238256441
2438.0,0.0035952830464323583
2437.0,0.003596085912185008
2436.0,0.003591624144650268
2435.0,0.0035804593073241707
2434.0,0.003572408388795507
2433.0,0.003577083988018763
2432.0,0.003588105990151743
2431.0,0.0035895046065063446
2430.0,0.0035759426827033794
2429.0,0.0035561482948762383
2428.0,0.003538350263121535
2427.0,0.0035238130032225236
2426.0,0.003513803542798773
2425.0,0.003510350831463148
2424.0,0.00350851857155764
2423.0,0.0034994614045062477
2422.0,0.003484252813133377
2421.0,0.003474911215552847
2420.0,0.0034784615296882104
2419.0,0.0034884864467931865
2418.0,0.0034952884471294663
2417.0,0.0034962560476910712
2416.0,0.0034931065467049332
2415.0,0.0034862560364131434
2414.0,0.003476248654399207
2413.0,0.003466310766059801
2412.0,0.00346036396920776
2411.0,0.0034604857295572706
2410.0,0.0034656544311077175
2409.0,0.003469800068087457
2408.0,0.0034639257930150777
2407.0,0.0034457625157115496
2406.0,0.003424574010349687
2405.0,0.003410140733620644
2404.0,0.00340059616864605
2403.0,0.00338881030449629
2402.0,0.0033765967193083684
2401.0,0.003372144281918834
2400.0,0.0033749820697060355
2399.0,0.003374768353880254
2398.0,0.0033663269988404095
2397.0,0.0033560320899380055
2396.0,0.0033506608953556
2395.0,0.0033484834609374646
2394.0,0.003344838957882667
2393.0,0.00333940470151543
2392.0,0.003334659831589227
2391.0,0.003332169595069299
2390.0,0.0033322282945080057
2389.0,0.0033330219001590556
2388.0,0.003330225612699854
2387.0,0.003322788080787041
2386.0,0.003318418677913986
2385.0,0.0033260611017515646
2384.0,0.0033415599680202486
2383.0,0.003347771833125327
2382.0,0.0033320973938093107
2381.0,0.0032993110073937073
2380.0,0.0032642571223609716
2379.0,0.003236090230869131
2378.0,0.00321368048358087
2377.0,0.003191514320344885
2376.0,0.0031652314366166904
2375.0,0.003136254272588016
2374.0,0.0031143885644742595
2373.0,0.003112430289657409
2372.0,0.003132576360794066
2371.0,0.0031632526981432464
2370.0,0.0031909553593601854
2369.0,0.003207464219112999
2368.0,0.0032066439550464043
2367.0,0.0031912773890333964
2366.0,0.0031805089512739557
2365.0,0.0031879190242961723
2364.0,0.0031952013622333596
2363.0,0.003183283140577118
2362.0,0.0031707391787461165
2361.0,0.003180882211084983
2360.0,0.003198771732723915
2359.0,0.0031896853640941366
2358.0,0.003154144418245959
2357.0,0.0031286922773295996
2356.0,0.0031289304683837643
2355.0,0.0031471105620788312
2354.0,0.0031647743443162344
2353.0,0.0031613537420680064
2352.0,0.003122740196581181
2351.0,0.0030573258262808862
2350.0,0.003003053747311886
2349.0,0.002989056084634033
2348.0,0.0030181203344986887
2347.0,0.003071236966295526
2346.0,0.0031239604792806593
2345.0,0.003171989660202709
2344.0,0.003204771609954218
2343.0,0.0032209330353083674
2342.0,0.0032262995857892593
2341.0,0.0032273198627983985
2340.0,0.003221563575311883
2339.0,0.003201639871529686
2338.0,0.0031824188173537843
2337.0,0.0031785128752964977
2336.0,0.003188186483228679
2335.0,0.003194871279499055
2334.0,0.0032036755355871705
2333.0,0.0032197642275515526
2332.0,0.0032372175313266425
2331.0,0.0032297340116833714
2330.0,0.00320763122401693
2329.0,0.0031886318955382863
2328.0,0.003188248187559956
2327.0,0.003208119333825897
2326.0,0.003254656011633789
2325.0,0.0033275624022659363
2324.0,0.0033916160557198923
2323.0,0.003409086150131223
2322.0,0.0033802510726560694
2321.0,0.0033425884826488077
2320.0,0.0033243701739002133
2319.0,0.0033191836217596796
2318.0,0.00332285350845477
2317.0,0.0033322116634988378
2316.0,0.0033468512891404803
2315.0,0.003353488226391527
2314.0,0.003356963082630548
2313.0,0.0033637159182656395
2312.0,0.0033752810588190815
2311.0,0.0033734727468718102
2310.0,0.003354497682531972
2309.0,0.0033289500808971716
2308.0,0.0033153037527536536
2307.0,0.0033203145677073147
2306.0,0.0033463587544032935
2305.0,0.0033839623214929736
2304.0,0.0034155785031055423
2303.0,0.0034243999176834915
2302.0,0.0034186755575364726
2301.0,0.003418817773804035
2300.0,0.0034365037744970356
2299.0,0.00346058219568335
2298.0,0.0034798623967055233
2297.0,0.003491017934791139
2296.0,0.0034958157214006426
2295.0,0.0034929502037068356
2294.0,0.0034858782812532962
2293.0,0.0034820979399204253
2292.0,0.0034851528226088986
2291.0,0.0034932441049430104
2290.0,0.0035057136246381057
2289.0,0.003522784340958514
2288.0,0.003538568372484373
2287.0,0.0035485001437973564
2286.0,0.0035589893208288264
2285.0,0.0035787246692983114
2284.0,0.003598410492466916
2283.0,0.0035978808048225622
2282.0,0.003572511368629748
2281.0,0.0035399029866607827
2280.0,0.0035155860565158053
2279.0,0.003499579905799824
2278.0,0.0034901556807608826
2277.0,0.0034923332236775025
2276.0,0.0035051091171236256
2275.0,0.0035153965113912224
2274.0,0.0035159657888854624
2273.0,0.0035145157264067526
2272.0,0.003518660552148601
2271.0,0.0035241322598418036
2270.0,0.003526054057707938
2269.0,0.0035273569306245632
2268.0,0.0035285621149684365
2267.0,0.003522296253077274
2266.0,0.0035071328789155285
2265.0,0.0034950259137995136
2264.0,0.003496502025281878
2263.0,0.003507684250359498
2262.0,0.0035176642882624944
2261.0,0.0035208533313233993
2260.0,0.0035166269392197715
2259.0,0.003507135934617913
2258.0,0.003496882404426967
2257.0,0.0034868563128814096
2256.0,0.003469288608228529
2255.0,0.0034392591385900445
2254.0,0.0034102358950284495
2253.0,0.003402374543272847
2252.0,0.0034173104561805467
2251.0,0.003438114775508244
2250.0,0.0034541742265598377
2249.0,0.003468238575774949
2248.0,0.0034811449443651744
2247.0,0.0034875237526107907
2246.0,0.003489590972796921
2245.0,0.003497123980424299
2244.0,0.0035102945379461886
2243.0,0.003517676342550939
2242.0,0.003513465110773321
2241.0,0.0035017667534428527
2240.0,0.0034851908071698683
2239.0,0.003466183630231772
2238.0,0.003458341797869248
2237.0,0.0034758327822938086
2236.0,0.0035098610620384724
2235.0,0.0035350552144480037
2234.0,0.0035409060604246795
2233.0,0.0035379205910428544
2232.0,0.003533387341996974
2231.0,0.003523507472323071
2230.0,0.0035110092513032307
2229.0,0.003506907245742106
2228.0,0.003510314830741257
2227.0,0.003508264093599878
2226.0,0.0034995125982451875
2225.0,0.003496637610851852
2224.0,0.0035009037119265066
2223.0,0.0034981432017812363
2222.0,0.003484522283087814
2221.0,0.003474082140168061
2220.0,0.003474796601676046
2219.0,0.003478435755445032
2218.0,0.0034786451264979127
2217.0,0.0034772450121289033
2216.0,0.0034690555667496424
2215.0,0.003445205572765723
2214.0,0.0034175963465553506
2213.0,0.003415320313183882
2212.0,0.003446676143906766
2211.0,0.003484689060914064
2210.0,0.003499417222537709
2209.0,0.003487814162075233
2208.0,0.003467500594022758
2207.0,0.0034589438816487296
2206.0,0.0034755915171456055
2205.0,0.00351229438328591
2204.0,0.003541174133280534
2203.0,0.003538137982842574
2202.0,0.0035135882034150055
2201.0,0.0034962607948439755
2200.0,0.0034912669717265
2199.0,0.00348050188049858
2198.0,0.0034612734024950806
2197.0,0.0034535131833401483
2196.0,0.003465136325790845
2195.0,0.003481584901164662
2194.0,0.003496538880068127
2193.0,0.003523153947673244
2192.0,0.0035653872661448364
2191.0,0.003604731338479772
2190.0,0.0036252712074527566
2189.0,0.0036301509158557605
2188.0,0.003626688335608222
2187.0,0.0036168283313145425
2186.0,0.00360707948945778
2185.0,0.003604696418956742
2184.0,0.0035994583293447622
2183.0,0.003572195302550406
2182.0,0.0035251203443370407
2181.0,0.003480868398850115
2180.0,0.003450568513565424
2179.0,0.003427655902506818
2178.0,0.003411257840496314
2177.0,0.0034066046416748167
2176.0,0.003403984320642662
2175.0,0.0033873044255674526
2174.0,0.0033641385472908164
2173.0,0.0033597714221233164
2172.0,0.0033834022351422544
2171.0,0.0034270461849996606
2170.0,0.003489591892772094
2169.0,0.0035695794601963123
2168.0,0.0036408950578458096
2167.0,0.0036712387227695485
2166.0,0.003665270710988363
2165.0,0.00365882670200858
2164.0,0.0036714080832141597
2163.0,0.003693842794546905
2162.0,0.0037097412935493835
2161.0,0.0036868746017364607
2160.0,0.0035654398215323037
2159.0,0.003325264722715329
2158.0,0.0030627979371779966
2157.0,0.002919028171426424
2156.0,0.002929234337915176
2155.0,0.0030181889006063445
2154.0,0.003116713922427033
2153.0,0.0032084194872714885
2152.0,0.0032855092425314847
2151.0,0.0033263654313982513
2150.0,0.0033250253369361132
2149.0,0.0032993752193339106
2148.0,0.003260781373449107
2147.0,0.0032084218070082327
2146.0,0.0031552883938245533
2145.0,0.003124219456957651
2144.0,0.003115028422989704
2143.0,0.003109529941772445
2142.0,0.003108644692518786
2141.0,0.003129084680310441
2140.0,0.0031636612700668815
2139.0,0.0031804764921237925
2138.0,0.0031646752002164637
2137.0,0.0031298631953836594
2136.0,0.00308741897647846
2135.0,0.0030363449294101047
2134.0,0.002987461090443076
2133.0,0.0029649377847962254
2132.0,0.0029766145651906367
2131.0,0.0030063993052475138
2130.0,0.003038432620818664
2129.0,0.0030668646345537076
2128.0,0.003085461576847022
2127.0,0.003090367806346078
2126.0,0.003092965119287645
2125.0,0.0031084186955067546
2124.0,0.003131861962659691
2123.0,0.003145868836256095
2122.0,0.003149325509718838
2121.0,0.0031574346922232767
2120.0,0.003174929445720557
2119.0,0.0031922403701458335
2118.0,0.0032070635454453187
2117.0,0.0032261235102836613
2116.0,0.0032446114531423332
2115.0,0.003248441741914008
2114.0,0.003240815556121437
2113.0,0.0032435717802175596
2112.0,0.0032662504654129227
2111.0,0.0032939968909259415
2110.0,0.0033098150033893815
2109.0,0.003309624234991801
2108.0,0.0032931738821538456
2107.0,0.003261857534978457
2106.0,0.003230624267823314
2105.0,0.003221230740105659
2104.0,0.0032373643836837687
2103.0,0.003262250877509277
2102.0,0.003282469898430686
2101.0,0.0032955489417361857
2100.0,0.0032964221585863466
2099.0,0.0032785077962878793
2098.0,0.003249597810031553
2097.0,0.0032255614434233237
2096.0,0.003206683918468431
2095.0,0.0031819700408464817
2094.0,0.0031564659858312107
2093.0,0.0031499858065959945
2092.0,0.003167022371469392
2091.0,0.0031903621953892373
2090.0,0.00320501511605619
2089.0,0.003209506677891768
2088.0,0.0032047973765929063
2087.0,0.0031935884267815097
2086.0,0.0031890802035039957
2085.0,0.0032028460432665085
2084.0,0.0032251164619666014
2083.0,0.0032382222373189646
2082.0,0.00324524299627165
2081.0,0.003261379898508821
2080.0,0.0032830824728540243
2079.0,0.003294962179696534
2078.0,0.003303134499350382
2077.0,0.00332723636138286
2076.0,0.00335888426772086
2075.0,0.0033638008229533675
2074.0,0.003331185886622668
2073.0,0.00328815990037836
2072.0,0.003259096767301195
2071.0,0.003241230333791881
2070.0,0.0032285563348617044
2069.0,0.003227129253080251
2068.0,0.0032375740347154796
2067.0,0.003249938078359075
2066.0,0.0032617350737331355
2065.0,0.0032748854314623753
2064.0,0.0032749733598410207
2063.0,0.0032467354890759878
2062.0,0.0032086319684522975
2061.0,0.003196914353450218
2060.0,0.003216982475569173
2059.0,0.0032434589053018876
2058.0,0.003266742445569762
2057.0,0.0032974527602121317
2056.0,0.003326071942431261
2055.0,0.0033274180650061987
2054.0,0.0033136497996099205
2053.0,0.0033309490250760373
2052.0,0.00338681422428298
2051.0,0.003426722476098579
2050.0,0.003403383117824436
2049.0,0.0033339491823698953
2048.0,0.00326719022013145
2047.0,0.0032282489205831223
2046.0,0.0032239973365313116
2045.0,0.003261386339135477
2044.0,0.0033256517168502265
2043.0,0.0033754505537638836
2042.0,0.003386257315697144
2041.0,0.003372041963047907
2040.0,0.0033505434146208265
2039.0,0.003323960916653248
2038.0,0.0033074800006169807
2037.0,0.0033256192665637907
2036.0,0.003359439725160331
2035.0,0.003347193788147089
2034.0,0.003266812579243896
2033.0,0.003175470840078739
2032.0,0.003139094326042902
2031.0,0.0031638457606928297
2030.0,0.0032179920775775982
2029.0,0.003269477259895518
2028.0,0.0032847909911658596
2027.0,0.0032428948960790444
2026.0,0.003171333833860773
2025.0,0.003125717842971268
2024.0,0.0031184047630532343
2023.0,0.003111997845965233
2022.0,0.00309288664702042
2021.0,0.00309552385865055
2020.0,0.0031377787670503806
2019.0,0.0031834566050541278
2018.0,0.0031891155261389013
2017.0,0.0031502534185813605
2016.0,0.0030858635902569864
2015.0,0.0030161673955876257
2014.0,0.002973634738395516
2013.0,0.0029895997251587654
2012.0,0.003048511939292006
2011.0,0.0030945313689813804
2010.0,0.0030972706803057506
2009.0,0.003073213618760246
2008.0,0.003040036326051944
2007.0,0.002997010369132178
2006.0,0.0029574104634260967
2005.0,0.0029472572085981535
2004.0,0.0029622671783231225
2003.0,0.0029728317060382114
2002.0,0.0029735548780593685
2001.0,0.002982787986812555
2000.0,0.0029950859207080807
1999.0,0.0029857820434154463
1998.0,0.0029646262917017467
1997.0,0.0029711606721339145
1996.0,0.003009570160789604
1995.0,0.0030409862606308917
1994.0,0.0030453162123469913
1993.0,0.003043510867422511
1992.0,0.0030491931678096884
1991.0,0.0030457584520500484
1990.0,0.003033410663702956
1989.0,0.0030394669143436305
1988.0,0.003066327523976068
1987.0,0.0030824312335278933
1986.0,0.0030785776903623774
1985.0,0.0030832832023551687
1984.0,0.003108940948791443
1983.0,0.0031340278548855328
1982.0,0.003152308950408003
1981.0,0.0031855355016586658
1980.0,0.003223882851679374
1979.0,0.003209023430074054
1978.0,0.0031117117009069263
1977.0,0.002982467193451704
1976.0,0.0028861065142690157
1975.0,0.002833726709725196
1974.0,0.00281096692406188
1973.0,0.0028125181016142205
1972.0,0.002820486195568064
1971.0,0.002804943791712411
1970.0,0.002769618189331281
1969.0,0.0027522827216058467
1968.0,0.0027634437988024625
1967.0,0.0027675996521418496
1966.0,0.0027490025582491474
1965.0,0.0027360742052408953
1964.0,0.002740055387364902
1963.0,0.0027384271659645493
1962.0,0.0027260961814572853
1961.0,0.0027293763015074153
1960.0,0.0027536161418836792
1959.0,0.0027659420156207586
1958.0,0.0027503909749753675
1957.0,0.002732968974150397
1956.0,0.002735219841059195
1955.0,0.0027443905651307757
1954.0,0.0027450265076572316
1953.0,0.00274135738228225
1952.0,0.002734204515144027
1951.0,0.002713258199643387
1950.0,0.0026870983646485685
1949.0,0.002684873557766305
1948.0,0.0027121358919164587
1947.0,0.0027358116346636076
1946.0,0.0027291741702914997
1945.0,0.002704447141655093
1944.0,0.00268653227995102
1943.0,0.0026828544634589354
1942.0,0.002692271689953805
1941.0,0.0027129187737633706
1940.0,0.0027298416252961866
1939.0,0.002726678409173793
1938.0,0.002709583988501728
1937.0,0.0026993459666260233
1936.0,0.0026993839957267242
1935.0,0.002693535872758545
1934.0,0.0026775483422958298
1933.0,0.0026646592783835152
1932.0,0.0026581001846946446
1931.0,0.0026480393360504392
1930.0,0.002640191330769356
1929.0,0.002653060596025652
1928.0,0.002680901728350228
1927.0,0.0026924604535753563
1926.0,0.0026734359722827175
1925.0,0.002644079935056534
1924.0,0.0026248462234429596
1923.0,0.0026106242369396946
1922.0,0.002594113905882603
1921.0,0.0025862822003320865
1920.0,0.0025949791862291305
1919.0,0.002611758150701443
1918.0,0.0026250855323640015
1917.0,0.002632610314253535
1916.0,0.002630359008738117
1915.0,0.002614709928175066
1914.0,0.002597706925353182
1913.0,0.0025971845293172825
1912.0,0.002611480001457801
1911.0,0.0026204858951290894
1910.0,0.0026169394166232446
1909.0,0.0026159977150541085
1908.0,0.002624144236558203
1907.0,0.0026263683795462347
1906.0,0.0026143985043314156
1905.0,0.002601359494340222
1904.0,0.0025984112932833977
1903.0,0.002599767981985515
1902.0,0.0025982766055793996
1901.0,0.0025954843751419317
1900.0,0.0025904368964895148
1899.0,0.0025787647736192324
1898.0,0.002566416524549233
1897.0,0.002566566846382877
1896.0,0.0025760764505549896
1895.0,0.0025741366496069783
1894.0,0.0025543005001923305
1893.0,0.0025325175911584787
1892.0,0.002519624748330315
1891.0,0.0025133550653862282
1890.0,0.0025132213554267878
1889.0,0.0025230185056160856
1888.0,0.002533612526627826
1887.0,0.0025303830296309958
1886.0,0.0025191585256306953
1885.0,0.0025188586867406276
1884.0,0.0025310822910435925
1883.0,0.00253849848744849
1882.0,0.0025346876745988185
1881.0,0.002529792221663455
1880.0,0.002525788546422177
1879.0,0.002513142571613309
1878.0,0.0024940160483524643
1877.0,0.002485287205265718
1876.0,0.002492839408089935
1875.0,0.0025035254196947333
1874.0,0.002506751593808192
1873.0,0.0025038288993383707
1872.0,0.0024940564808843806
1871.0,0.0024716086508929824
1870.0,0.002442233737214769
1869.0,0.002427642631011971
1868.0,0.0024317454173169955
1867.0,0.002434656364351236
1866.0,0.002436225076977634
1865.0,0.002453240471019015
1864.0,0.0024850125556237818
1863.0,0.002512816279046116
1862.0,0.002525221575091863
1861.0,0.002525436142388673
1860.0,0.00251400749480792
1859.0,0.00248805676873848
1858.0,0.002460693065666035
1857.0,0.0024537388794272775
1856.0,0.0024651730744574634
1855.0,0.0024694573246247836
1854.0,0.0024558614577868585
1853.0,0.002440025734154668
1852.0,0.0024338821759763325
1851.0,0.002432577984705682
1850.0,0.002432044388364001
1849.0,0.0024361509052553496
1848.0,0.0024413315094498587
1847.0,0.002438451348390964
1846.0,0.0024360840199019363
1845.0,0.0024581302276315106
1844.0,0.002499224514472631
1843.0,0.002513082036177887
1842.0,0.0024844382667046504
1841.0,0.002445962828028626
1840.0,0.0024234849273014523
1839.0,0.002413942033103395
1838.0,0.002409101519547131
1837.0,0.002414182136979413
1836.0,0.002428712765833434
1835.0,0.0024357683543871304
1834.0,0.002425669891014693
1833.0,0.002407975241060113
1832.0,0.0023940620826078335
1831.0,0.0023847059767794607
1830.0,0.002377063801169258
1829.0,0.0023780444315526688
1828.0,0.002386574454607241
1827.0,0.0023928525115183975
1826.0,0.0024033123126387186
1825.0,0.002430878034987329
1824.0,0.002465457757500046
1823.0,0.0024825640791531255
1822.0,0.002482103844903314
1821.0,0.002482680698630954
1820.0,0.0024896513080217043
1819.0,0.0024910563666316467
1818.0,0.0024826638056395403
1817.0,0.0024786651682411954
1816.0,0.0024869495934448393
1815.0,0.0024972764594962445
1814.0,0.0025031814324354214
1813.0,0.0025121502383182504
1812.0,0.0025305667010720014
1811.0,0.0025525296264418905
1810.0,0.0025761836226643113
1809.0,0.002609630690813249
1808.0,0.0026495118072669827
1807.0,0.0026798057513699527
1806.0,0.0026950966860089394
1805.0,0.0027065045071083976
1804.0,0.00272137038226089
1803.0,0.0027316720373587807
1802.0,0.0027297362829735205
1801.0,0.0027223098717843023
1800.0,0.002721284609041881
1799.0,0.002725257447518259
1798.0,0.002727245268957765
1797.0,0.0027256944235657934
1796.0,0.00272082179450579
1795.0,0.0027137048446378206
1794.0,0.0027131983373765984
1793.0,0.0027286432343328537
1792.0,0.0027464152976283403
1791.0,0.002739074400909432
1790.0,0.002709482943378932
1789.0,0.002680572222933824
1788.0,0.0026649365168362085
1787.0,0.0026583653422451313
1786.0,0.0026519939583225086
1785.0,0.0026407588358355045
1784.0,0.0026167982004527846
1783.0,0.0025734779942701894
1782.0,0.0025244187539667775
1781.0,0.0024931294030374005
1780.0,0.0024849661870690004
1779.0,0.002478331548425191
1778.0,0.0024578163911050314
1777.0,0.002430246331781254
1776.0,0.0024060703974708433
1775.0,0.0023878750865145805
1774.0,0.0023779649675836493
1773.0,0.0023859239127934887
1772.0,0.00240867423306478
1771.0,0.0024232523951724597
1770.0,0.002428985772364104
1769.0,0.002442539000237026
1768.0,0.0024574760148661466
1767.0,0.0024483310375718365
1766.0,0.002412755222096387
1765.0,0.0023771556215611434
1764.0,0.002363285542562307
1763.0,0.0023675582977912752
1762.0,0.0023789980703449714
1761.0,0.002397274824672198
1760.0,0.002415774744857337
1759.0,0.0024250028013412623
1758.0,0.0024387352702278232
1757.0,0.002477962899452577
1756.0,0.002532620337438417
1755.0,0.002571153638136467
1754.0,0.002595715871827695
1753.0,0.002637583129065002
1752.0,0.0027078664585798505
1751.0,0.002776707659929588
1750.0,0.002817129360855125
1749.0,0.0028576487675741917
1748.0,0.0029194271555486387
1747.0,0.002975514795896202
1746.0,0.003009178120425079
1745.0,0.003032828293092013
1744.0,0.0030547665810936393
1743.0,0.0030654087104552644
1742.0,0.003068944704456318
1741.0,0.0030901514460761584
1740.0,0.003128901671083284
1739.0,0.003145551064429678
1738.0,0.003130345350488039
1737.0,0.0031257028716280286
1736.0,0.0031664991633655265
1735.0,0.0032380935314776206
1734.0,0.0033030357636080246
1733.0,0.00335523706198922
1732.0,0.0033728241690608863
1731.0,0.0033506780012072124
1730.0,0.003327137021555384
1729.0,0.003338703499470838
1728.0,0.003378270979652729
1727.0,0.003413669650795915
1726.0,0.0034363783368584625
1725.0,0.0034649725263499916
1724.0,0.00350990151641276
1723.0,0.003547599276746998
1722.0,0.0035600990403011974
1721.0,0.003569775222140297
1720.0,0.0036082394987273485
1719.0,0.003674797039795086
1718.0,0.003741331961892227
1717.0,0.0038097892541500067
1716.0,0.003896745833531194
1715.0,0.003965805606705865
1714.0,0.004013652951670813
1713.0,0.004072095508281678
1712.0,0.004145143524235861
1711.0,0.004211270748155858
1710.0,0.004260958667711234
1709.0,0.004308457664825392
1708.0,0.004371661990306032
1707.0,0.004456257665721974
1706.0,0.004559421891106854
1705.0,0.004678504831370687
1704.0,0.004798598857503418
1703.0,0.004908916083289235
1702.0,0.005028912824954933
1701.0,0.005205423399839759
1700.0,0.005445943851291866
1699.0,0.005625789939026755
1698.0,0.005728907243941223
1697.0,0.005908777377092827
1696.0,0.006223730730978443
1695.0,0.006524956681915226
1694.0,0.006703302220979578
1693.0,0.006822167455574339
1692.0,0.006971739808265164
1691.0,0.0071684640872963935
1690.0,0.007384215617377603
1689.0,0.007597530616378766
1688.0,0.007800225542404006
1687.0,0.007988646512316164
1686.0,0.008168828510799026
1685.0,0.008393721738321099
1684.0,0.008696061550214204
1683.0,0.008957273121200383
1682.0,0.009145309073438766
1681.0,0.009338986632249217
1680.0,0.00956241067965033
1679.0,0.009775924649782686
1678.0,0.009968062114963486
1677.0,0.010181767917772503
1676.0,0.010445924986723852
1675.0,0.010707673626343608
1674.0,0.010902672073788236
1673.0,0.011063359736650416
1672.0,0.011256021243595428
1671.0,0.011493725467578465
1670.0,0.011741956754474838
1669.0,0.011991411810871188
1668.0,0.012247181942726145
1667.0,0.012478657750844092
1666.0,0.01268756920567977
1665.0,0.012913821230719394
1664.0,0.01318048450896704
1663.0,0.013448303925753182
1662.0,0.013667519392642987
1661.0,0.013869407584258598
1660.0,0.014089550054359912
1659.0,0.014309489198536637
1658.0,0.014504086297404408
1657.0,0.014688095179223419
1656.0,0.01490847757594044
1655.0,0.015165563920913255
1654.0,0.015306320293040916
1653.0,0.01520421884380496
1652.0,0.015229635770525577
1651.0,0.015312080730723421
1650.0,0.015370361109925589
1649.0,0.015465739728621995
1648.0,0.015568823611595724
1647.0,0.015523670871047071
1646.0,0.015406190866747525
1645.0,0.015430697794170323
1644.0,0.015533756080168212
1643.0,0.015627617431059716
1642.0,0.01568893254813975
1641.0,0.015725056035737116
1640.0,0.015754900055912235
1639.0,0.015791188996260516
1638.0,0.01582146916234775
1637.0,0.015774286339557894
1636.0,0.015552205726851578
1635.0,0.015304926890214971
1634.0,0.015208649020073711
1633.0,0.015193683199497664
1632.0,0.015196737713753902
1631.0,0.015182891348314687
1630.0,0.015114768339347195
1629.0,0.014969979253627044
1628.0,0.014770511774237799
1627.0,0.014580736391600495
1626.0,0.014443090452902882
1625.0,0.014326680426831835
1624.0,0.014141467201442081
1623.0,0.013843654651013953
1622.0,0.013564505534965928
1621.0,0.01341591573586095
1620.0,0.013364468867526102
1619.0,0.01333248362795577
1618.0,0.013212258381622191
1617.0,0.01290827159577925
1616.0,0.012529981029874265
1615.0,0.012265345243599835
1614.0,0.012111825041433348
1613.0,0.0120083626113728
1612.0,0.011904901214521653
1611.0,0.011764987186610263
1610.0,0.011589569671723095
1609.0,0.01140774091182256
1608.0,0.011235647063759265
1607.0,0.011074964546255459
1606.0,0.010936045495336815
1605.0,0.01082145257736218
1604.0,0.010710424847557427
1603.0,0.010582208423113207
1602.0,0.010447185171787802
1601.0,0.010331929563492829
1600.0,0.010239738938677743
1599.0,0.010156434072103114
1598.0,0.010076934201741562
1597.0,0.010001881788594279
1596.0,0.009921864534524675
1595.0,0.009828581241476703
1594.0,0.009736566381226464
1593.0,0.00966523530402609
1592.0,0.009608649471578917
1591.0,0.009549677709946643
1590.0,0.009489202368652836
1589.0,0.009440237430830783
1588.0,0.009402873333763951
1587.0,0.009368231337252068
1586.0,0.00933846606209838
1585.0,0.009319896139528083
1584.0,0.00930427886346827
1583.0,0.00928339723046683
1582.0,0.009264523034066696
1581.0,0.009258094356263557
1580.0,0.009264118975937307
1579.0,0.009284518732189844
1578.0,0.009319432054302895
1577.0,0.009337383866484129
1576.0,0.009294042393600755
1575.0,0.009234598520860301
1574.0,0.009212261964795267
1573.0,0.009228286724867274
1572.0,0.009269621304527024
1571.0,0.009304865981637576
1570.0,0.00930934505284368
1569.0,0.009311064634039579
1568.0,0.009343400424318785
1567.0,0.009394919046753849
1566.0,0.009461679058542059
1565.0,0.009543942785541885
1564.0,0.009623904845585417
1563.0,0.009695636137532984
1562.0,0.009778942560100002
1561.0,0.009884357741973769
1560.0,0.010008847152835256
1559.0,0.010142885308995257
1558.0,0.01029809460778272
1557.0,0.010493767181903585
1556.0,0.010658361538860418
1555.0,0.010808550732329518
1554.0,0.010966417823636736
1553.0,0.011124470521392702
1552.0,0.011268845201686478
1551.0,0.011404117860974373
1550.0,0.011539732240928335
1549.0,0.011677860476855286
1548.0,0.011806664972951391
1547.0,0.011919942777697649
1546.0,0.01202573009394082
1545.0,0.012130366665937151
1544.0,0.012217283397756863
1543.0,0.012263890244805927
1542.0,0.012291528483798867
1541.0,0.01233688875962154
1540.0,0.012388609517161166
1539.0,0.012492398918465009
1538.0,0.012614835292927612
1537.0,0.0126968903424616
1536.0,0.012758896785953986
1535.0,0.012811420153956058
1534.0,0.012840222553921383
1533.0,0.012859857414355092
1532.0,0.012905970905590518
1531.0,0.01296492426079432
1530.0,0.013024044145841334
1529.0,0.01309163578510848
1528.0,0.01316347074418663
1527.0,0.013211397329658177
1526.0,0.013227993163862414
1525.0,0.013245619525724327
1524.0,0.013288081741312142
1523.0,0.013353400731826039
1522.0,0.013430459435764748
1521.0,0.0135110253849584
1520.0,0.013573178449680699
1519.0,0.013594943319857153
1518.0,0.013611138055447855
1517.0,0.013657697080161135
1516.0,0.01371934838997806
1515.0,0.013767686779633144
1514.0,0.013804346975198334
1513.0,0.013839276609238777
1512.0,0.013859285670534438
1511.0,0.01384124655104298
1510.0,0.013796810368618507
1509.0,0.013771253366971629
1508.0,0.013780711734391144
1507.0,0.013751020528620709
1506.0,0.013781796893542671
1505.0,0.013897019430548937
1504.0,0.01395334665564846
1503.0,0.013957275393544777
1502.0,0.01395744852841542
1501.0,0.013978329611878596
1500.0,0.014016966552413763
1499.0,0.01405876372183832
1498.0,0.014109405736925451
1497.0,0.01419829424301973
1496.0,0.014306623618923424
1495.0,0.014371493606592706
1494.0,0.014393368505161982
1493.0,0.014419110636302288
1492.0,0.014467231675261157
1491.0,0.014510994511795676
1490.0,0.014536037076695254
1489.0,0.014587292765780196
1488.0,0.014676410371721387
1487.0,0.01476275107953848
1486.0,0.014840694751123047
1485.0,0.014924623723996926
1484.0,0.015009017914845983
1483.0,0.015090318920143085
1482.0,0.015191796206956577
1481.0,0.01533712527957963
1480.0,0.015503970120902127
1479.0,0.01566966387714099
1478.0,0.015883838464486738
1477.0,0.01624843230050285
1476.0,0.016813829285929588
1475.0,0.017542346885541005
1474.0,0.018428924734159833
1473.0,0.01938889366969016
1472.0,0.02002713197524596
1471.0,0.020258747634208308
1470.0,0.020374346754413804
1469.0,0.020522162899607618
1468.0,0.020707907963614366
1467.0,0.020923624874608717
1466.0,0.021220782339535567
1465.0,0.021623548874758335
1464.0,0.02196651576343558
1463.0,0.022079818472354837
1462.0,0.021987326415408882
1461.0,0.02177641265444916
1460.0,0.021509842879829807
1459.0,0.02123122776311301
1458.0,0.020967412848576263
1457.0,0.020740126700107785
1456.0,0.02059627043441224
1455.0,0.02049268968027805
1454.0,0.02039095125612845
1453.0,0.020294066881896757
1452.0,0.020197444710143165
1451.0,0.0201049395812181
1450.0,0.020034460571753024
1449.0,0.01999237461749388
1448.0,0.019965875622213705
1447.0,0.01994920257858047
1446.0,0.019951927979922294
1445.0,0.01996918088760014
1444.0,0.019987750446110893
1443.0,0.020002574536979036
1442.0,0.020018289613143364
1441.0,0.020040279435052894
1440.0,0.020071273953635515
1439.0,0.020117624680690532
1438.0,0.020185088149044007
1437.0,0.02026565131737854
1436.0,0.020327984873010043
1435.0,0.020354862072415193
1434.0,0.02036697712982192
1433.0,0.020389802349775485
1432.0,0.020427268182698303
1431.0,0.020476927042260926
1430.0,0.02054936774192629
1429.0,0.020646741553995297
1428.0,0.020742512730914632
1427.0,0.020817915861344398
1426.0,0.02089302638661097
1425.0,0.020996920728518532
1424.0,0.021123504459300117
1423.0,0.021238327659208273
1422.0,0.02134030802782467
1421.0,0.02146029951668445
1420.0,0.021616437570851955
1419.0,0.02179234595822478
1418.0,0.021947044056093806
1417.0,0.022066278860472396
1416.0,0.022160590126101665
1415.0,0.02224499535844477
1414.0,0.022337085208006393
1413.0,0.022445120325249715
1412.0,0.022554539671044153
1411.0,0.022644070585755356
1410.0,0.022716588003090996
1409.0,0.022785164271521822
1408.0,0.022841197202249926
1407.0,0.022869340743914737
1406.0,0.022880054857960703
1405.0,0.022891973105256692
1404.0,0.022892390436582654
1403.0,0.02286229319367381
1402.0,0.022814323801325656
1401.0,0.022764288309499534
1400.0,0.022698074158761825
1399.0,0.022597161650653227
1398.0,0.022487006084129218
1397.0,0.022392966834670562
1396.0,0.02228879610767845
1395.0,0.02214880273840397
1394.0,0.02200685138876098
1393.0,0.021889312311718125
1392.0,0.021773157955350446
1391.0,0.021645890904187
1390.0,0.021521449942702622
1389.0,0.02140457638848681
1388.0,0.021270837388487625
1387.0,0.021107409108279636
1386.0,0.02095024148186681
1385.0,0.020821265933854447
1384.0,0.020702737932594455
1383.0,0.02058292997934744
1382.0,0.020472709948670943
1381.0,0.020379824025849265
1380.0,0.020286664373050375
1379.0,0.02017074742282541
1378.0,0.02003051217627684
1377.0,0.01986934040101007
1376.0,0.019671268310537737
1375.0,0.019423048332428427
1374.0,0.019164255665001743
1373.0,0.018957515749786588
1372.0,0.018800505557876417
1371.0,0.018655180969058757
1370.0,0.018502541413316437
1369.0,0.01833535225022891
1368.0,0.018151248823719216
1367.0,0.017963742785106127
1366.0,0.01779061936351045
1365.0,0.017628947706669
1364.0,0.017455071865725872
1363.0,0.017258037949979627
1362.0,0.017070826286656904
1361.0,0.01692295534341628
1360.0,0.01679562939401089
1359.0,0.016666208974465975
1358.0,0.016534194085185104
1357.0,0.01640308866214895
1356.0,0.01627021955180282
1355.0,0.01613894424287016
1354.0,0.01602082254370125
1353.0,0.015916241944696666
1352.0,0.015811376490393544
1351.0,0.015698762993126666
1350.0,0.015585697169733084
1349.0,0.015478262927824636
1348.0,0.015372833237602863
1347.0,0.015267315111267641
1346.0,0.015165642988912431
1345.0,0.01506760717472273
1344.0,0.014968169487579765
1343.0,0.0148681558413103
1342.0,0.014772081845374894
1341.0,0.014672615038720842
1340.0,0.014550418349045191
1339.0,0.014405863225550798
1338.0,0.014266612680062492
1337.0,0.014142468716820828
1336.0,0.014021229837292455
1335.0,0.01389942570500195
1334.0,0.013783857161977085
1333.0,0.013673283752218279
1332.0,0.013557187117605873
1331.0,0.01343257928047453
1330.0,0.01330816370698436
1329.0,0.013189899012456364
1328.0,0.013075966448569726
1327.0,0.012966348634188225
1326.0,0.012864128026973938
1325.0,0.012766883888373678
1324.0,0.012669627817752122
1323.0,0.012575350671810504
1322.0,0.012489974942966985
1321.0,0.012408198792003097
1320.0,0.012317554373691112
1319.0,0.012218071793034021
1318.0,0.01212439338604977
1317.0,0.012044002025790848
1316.0,0.011970137718757922
1315.0,0.011896663177350057
1314.0,0.011823029200841183
1313.0,0.011746911851730647
1312.0,0.011665896654792632
1311.0,0.011584579119741178
1310.0,0.011507960786828928
1309.0,0.01143188977879638
1308.0,0.011350695540723378
1307.0,0.011270112112504244
1306.0,0.011200598240964749
1305.0,0.011140262681062876
1304.0,0.011077763745842439
1303.0,0.011009346046902775
1302.0,0.010940912168180432
1301.0,0.01087527432861399
1300.0,0.010809465397452457
1299.0,0.010743479004710857
1298.0,0.010680020727467383
1297.0,0.010616480455576826
1296.0,0.010547797727080784
1295.0,0.01047631864922038
1294.0,0.010408740957976457
1293.0,0.010345430971766002
1292.0,0.010282378422172663
1291.0,0.010220424062470734
1290.0,0.01016267008606926
1289.0,0.01010563071607553
1288.0,0.010043596584621782
1287.0,0.009979604580322078
1286.0,0.009921371926471696
1285.0,0.009869323080067107
1284.0,0.009819022655319238
1283.0,0.009770951521232396
1282.0,0.009727845663826715
1281.0,0.009686434769117767
1280.0,0.009642215062071502
1279.0,0.009599387610739024
1278.0,0.009565691831869906
1277.0,0.009540126868477466
1276.0,0.009515579431797013
1275.0,0.009490562904640888
1274.0,0.00946881854326464
1273.0,0.009450101615656275
1272.0,0.009430856323344231
1271.0,0.009412185749803232
1270.0,0.009397768452961992
1269.0,0.009385702504736552
1268.0,0.00937195148551566
1267.0,0.009359074543904023
1266.0,0.009352338691581422
1265.0,0.009349856634730872
1264.0,0.009345736488265434
1263.0,0.009340464063350743
1262.0,0.0093394440339304
1261.0,0.009343843673505336
1260.0,0.009351338680595813
1259.0,0.00936340637593857
1258.0,0.009382626337163661
1257.0,0.009405214392233763
1256.0,0.009425137503132147
1255.0,0.009443301100358868
1254.0,0.00946498326998311
1253.0,0.009490344688988737
1252.0,0.009515531855362025
1251.0,0.009541230864707175
1250.0,0.009571447465915449
1249.0,0.009604836429635031
1248.0,0.009635514616580654
1247.0,0.009661932420260245
1246.0,0.009687482718335671
1245.0,0.009712968373672647
1244.0,0.009736069129224312
1243.0,0.00975782692616893
1242.0,0.009781719329537837
1241.0,0.00980604902872354
1240.0,0.009824634373976508
1239.0,0.009835368308939932
1238.0,0.00984178441805435
1237.0,0.009846104280670566
1236.0,0.009847406397274343
1235.0,0.009846915696768595
1234.0,0.009848367835502239
1233.0,0.00985279116516062
1232.0,0.009859316717362072
1231.0,0.009870769537987031
1230.0,0.009891256498603087
1229.0,0.009918034521765777
1228.0,0.009942959161107112
1227.0,0.00996269224507677
1226.0,0.009981401555172143
1225.0,0.010002812682217881
1224.0,0.010025375580101172
1223.0,0.010045431356752082
1222.0,0.010058706461016562
1221.0,0.010058474123634887
1220.0,0.010039698717235687
1219.0,0.010007519181859712
1218.0,0.009975790931086057
1217.0,0.00995443793938637
1216.0,0.009942905704260721
1215.0,0.00993615099206123
1214.0,0.00993028925093735
1213.0,0.009921416176434692
1212.0,0.009905691468681532
1211.0,0.009883358408500341
1210.0,0.009858350396404942
1209.0,0.009832889411186839
1208.0,0.009806785100031449
1207.0,0.009781459637033238
1206.0,0.009759344323105271
1205.0,0.009739888209012264
1204.0,0.009721786875089575
1203.0,0.00970831681967746
1202.0,0.009704343215783581
1201.0,0.009708553101372747
1200.0,0.00971458568307665
1199.0,0.009719295676040803
1198.0,0.009724522791148708
1197.0,0.009731417259176676
1196.0,0.009738769059645044
1195.0,0.009746548653974722
1194.0,0.009755667463560908
1193.0,0.009764756110402626
1192.0,0.009772275654229088
1191.0,0.0097805169825226
1190.0,0.009791636900418092
1189.0,0.009800988083795575
1188.0,0.009801076461022244
1187.0,0.009791858086791666
1186.0,0.009780738179344651
1185.0,0.009772399412039405
1184.0,0.009765533672155645
1183.0,0.009759735977273054
1182.0,0.009757953990321509
1181.0,0.009760711481005574
1180.0,0.009764488075935128
1179.0,0.009767490168113058
1178.0,0.009771246216379788
1177.0,0.009775257915347047
1176.0,0.009776211755329401
1175.0,0.009774215951804683
1174.0,0.009774209339175095
1173.0,0.009778807919941419
1172.0,0.00978437760448253
1171.0,0.009786116470563091
1170.0,0.00978302113512972
1169.0,0.009776946656512268
1168.0,0.009770704659525283
1167.0,0.009767806402703916
1166.0,0.009770161462334071
1165.0,0.009775481623402861
1164.0,0.009780416193145099
1163.0,0.00978523254726046
1162.0,0.009791108932866022
1161.0,0.009794660953333418
1160.0,0.00979124970717448
1159.0,0.009782920090664183
1158.0,0.009776635716830276
1157.0,0.00977462894799729
1156.0,0.009773016931832157
1155.0,0.009770101481736515
1154.0,0.009769049916881732
1153.0,0.009771508208383194
1152.0,0.00977551545191027
1151.0,0.009781203957342393
1150.0,0.00979180879638583
1149.0,0.009807137703280486
1148.0,0.009822422276878393
1147.0,0.009835768638659873
1146.0,0.009850992324688968
1145.0,0.00987081327352645
1144.0,0.009892498062514288
1143.0,0.00991239354270847
1142.0,0.009929830340338851
1141.0,0.009944656381039368
1140.0,0.009956054273409584
1139.0,0.009966027851439418
1138.0,0.009978933019653823
1137.0,0.009995145643346056
1136.0,0.01001012159751052
1135.0,0.010021824608294212
1134.0,0.010033713059024812
1133.0,0.010047980475628425
1132.0,0.010061788595442812
1131.0,0.01007357340189052
1130.0,0.010087824950799575
1129.0,0.010109538302691559
1128.0,0.010137940181677997
1127.0,0.010169206505152774
1126.0,0.010201479550149432
1125.0,0.010233806115864448
1124.0,0.010264192363544892
1123.0,0.010292822922095476
1122.0,0.010324084121839806
1121.0,0.010361484618843543
1120.0,0.010403158961901627
1119.0,0.010445569214566254
1118.0,0.010488866474469618
1117.0,0.010535527010577306
1116.0,0.010586344714332074
1115.0,0.010640720567618021
1114.0,0.010698160333901923
1113.0,0.010756423490021164
1112.0,0.010810730666744844
1111.0,0.010857927808271897
1110.0,0.01089940396887466
1109.0,0.010937568450918337
1108.0,0.010972871885256827
1107.0,0.011007053252952521
1106.0,0.011044669271124566
1105.0,0.011087413144263649
1104.0,0.01113113065166316
1103.0,0.011172756786606184
1102.0,0.01121602896466277
1101.0,0.011265359458271222
1100.0,0.011317725462640243
1099.0,0.011367593930400323
1098.0,0.011416463280087486
1097.0,0.01147165187952051
1096.0,0.011536725333592282
1095.0,0.011608847821191244
1094.0,0.011684352030035476
1093.0,0.011761608709390078
1092.0,0.011839249263155478
1091.0,0.011916555640586989
1090.0,0.01199486153386273
1089.0,0.012073870558919803
1088.0,0.012147527210162176
1087.0,0.012208219915171558
1086.0,0.012253910477231993
1085.0,0.012286315571522273
1084.0,0.012304312241849559
1083.0,0.012305576805235512
1082.0,0.01229302944657477
1081.0,0.012272788355070636
1080.0,0.012246649745654111
1079.0,0.012212289574778745
1078.0,0.012169335005868557
1077.0,0.01212000130031866
1076.0,0.012065790898396217
1075.0,0.012008340349373408
1074.0,0.011950651718818822
1073.0,0.011892861405952167
1072.0,0.011830572484131982
1071.0,0.011762282653839948
1070.0,0.011694415350130667
1069.0,0.011634117673041226
1068.0,0.011581582050114744
1067.0,0.011533901279859019
1066.0,0.011490774875340731
1065.0,0.011451106259172804
1064.0,0.011409503145154664
1063.0,0.01136241883884561
1062.0,0.011313655737900684
1061.0,0.011268452656464555
1060.0,0.011226759828493615
1059.0,0.011187807121483165
1058.0,0.01115583090237036
1057.0,0.011134693377592896
1056.0,0.011121640610072888
1055.0,0.011113232965534712
1054.0,0.011113593925274858
1053.0,0.011129729451277779
1052.0,0.011161376624024333
1051.0,0.011202674746968075
1050.0,0.011250725841284111
1049.0,0.01130294479355826
1048.0,0.011348530272312085
1047.0,0.011373402474546813
1046.0,0.011372265129787475
1045.0,0.011347716206763166
1044.0,0.011300784940192639
1043.0,0.011231213946110829
1042.0,0.011144815926433654
1041.0,0.011052042667495881
1040.0,0.010959218793071324
1039.0,0.010866936414536092
1038.0,0.010775555701779604
1037.0,0.010686338649595617
1036.0,0.010598213585527073
1035.0,0.010509145358235045
1034.0,0.010420756542652567
1033.0,0.010337271836374291
1032.0,0.010259756798152019
1031.0,0.010184433471308539
1030.0,0.010106213994101115
1029.0,0.010021870294961734
1028.0,0.009930952115292055
1027.0,0.009835389052514673
1026.0,0.009736678449181009
1025.0,0.009632758268877193
1024.0,0.00952059309893817
1023.0,0.009402501227377597
1022.0,0.009285704746542089
1021.0,0.009174337346320099
1020.0,0.009066761678671268
1019.0,0.008962370289840817
1018.0,0.008865144808347731
1017.0,0.008777498376791405
1016.0,0.008696171113426476
1015.0,0.008618050169917103
1014.0,0.008545601600990048
1013.0,0.008482665931404815
1012.0,0.008428558257093387
1011.0,0.008380205743015382
1010.0,0.00833717072320761
1009.0,0.008300648978974366
1008.0,0.008269073193524322
1007.0,0.008237836569854823
1006.0,0.008202679822134856
1005.0,0.008161661982153423
1004.0,0.008115043370290226
1003.0,0.008064683312109055
1002.0,0.008012014469795213
1001.0,0.007955473074900571
1000.0,0.007891832126380685
999.0,0.007820956903139798
998.0,0.007746881660127354
997.0,0.007673147772273141
996.0,0.007599550196156768
995.0,0.007524561246317087
994.0,0.007448567961650844
993.0,0.007373677796963218
992.0,0.0073024011179590505
991.0,0.007236803825823274
990.0,0.00717635372449054
989.0,0.007116678637458433
988.0,0.007053762884694337
987.0,0.006989738257448187
986.0,0.0069312419760537425
985.0,0.006881419494929394
984.0,0.006836598683347796
983.0,0.006791177022747291
982.0,0.006742537889212226
981.0,0.006690669569610024
980.0,0.00663641108086991
979.0,0.006581375023987741
978.0,0.006526895455825086
977.0,0.006472051816148669
976.0,0.0064150849258787
975.0,0.006357010105266578
974.0,0.006301029721286405
973.0,0.00624808362199643
972.0,0.0061958958904979305
971.0,0.0061427358820291544
970.0,0.006089290752810946
969.0,0.006036542860058197
968.0,0.005984639196658351
967.0,0.005934152948685751
966.0,0.005885535539863828
965.0,0.005836824867941643
964.0,0.005784597208791063
963.0,0.005727823741594333
962.0,0.005668727810519556
961.0,0.005609837897526551
960.0,0.005552280935304812
959.0,0.005496412878702852
958.0,0.005441649452403135
957.0,0.005386402144602898
956.0,0.005330894192396852
955.0,0.0052790923984202855
954.0,0.005234491977266564
953.0,0.005194451268521775
952.0,0.005152120581810412
951.0,0.005104047666953697
950.0,0.005053091048674542
949.0,0.005004244028938036
948.0,0.004960604885843782
947.0,0.004923095206454237
946.0,0.00489077639667322
945.0,0.004861125332812838
944.0,0.0048324695749371975
943.0,0.0048062914349336515
942.0,0.004785332688608612
941.0,0.0047700394503267535
940.0,0.004758875939102755
939.0,0.004751166261851241
938.0,0.004746999866244297
937.0,0.004744559554681714
936.0,0.004739522897092493
935.0,0.004727097173953057
934.0,0.004703958199359554
933.0,0.004669721341835256
932.0,0.004628078415622101
931.0,0.004584973785581861
930.0,0.004543537288253571
929.0,0.00450192335310159
928.0,0.004457824420007552
927.0,0.004413224167164501
926.0,0.004372586974802005
925.0,0.004338623771317723
924.0,0.004312544037321872
923.0,0.00429580728042254
922.0,0.004287596344414175
921.0,0.004282079445415532
920.0,0.0042721983108407165
919.0,0.004256021582845413
918.0,0.004237133307662072
917.0,0.0042198186699734875
916.0,0.004206321799414396
915.0,0.004197423956375681
914.0,0.004192344512364924
913.0,0.004188186083121513
912.0,0.004181523321522473
911.0,0.004169994007460399
910.0,0.004151191218124958
909.0,0.004122216488255224
908.0,0.00408306302338683
907.0,0.004038763588275066
906.0,0.003994967495429292
905.0,0.003952379855048596
904.0,0.003908220286407826
903.0,0.0038613787952187575
902.0,0.0038127197103456382
901.0,0.0037617532736011093
900.0,0.003707058218948512
899.0,0.0036497819313909127
898.0,0.0035931973410106297
897.0,0.0035390744601022147
896.0,0.0034871789234149015
895.0,0.0034380064945194215
894.0,0.003393249259454766
893.0,0.003354070019923383
892.0,0.003322008273363591
891.0,0.0033026186019818665
890.0,0.0033076868475272825
889.0,0.003354421878021885
888.0,0.0034617721277137633
887.0,0.0036433063497283242
886.0,0.0039009472993862997
885.0,0.004228117045838099
884.0,0.004620604612996786
883.0,0.0050824386723157715
882.0,0.0056213973468325
881.0,0.006241093393489029
880.0,0.0069354461715797535
879.0,0.007686426581228003
878.0,0.00846861530146213
877.0,0.00926136616161992
876.0,0.010059362848477147
875.0,0.010871764086270837
874.0,0.011702529023926626
873.0,0.012508763181439524
872.0,0.0131644933923673
871.0,0.013489827745931191
870.0,0.013358435034263715
869.0,0.012792041319409655
868.0,0.01194501228240555
867.0,0.011007521375492635
866.0,0.010119560297238995
865.0,0.009343703510910866
864.0,0.00868786891374773
863.0,0.008139687395106308
862.0,0.007683359905192042
861.0,0.007301284602401955
860.0,0.006976100520906567
859.0,0.0066952459014053105
858.0,0.006451076862063254
857.0,0.006237565719885678
856.0,0.006049484449090384
855.0,0.00588322280368371
854.0,0.005737174871764748
853.0,0.005615013632364236
852.0,0.005529443316883093
851.0,0.005493783130839692
850.0,0.005501186181308784
849.0,0.0055162275588751565
848.0,0.005496546761626935
847.0,0.005424895943995077
846.0,0.005317308436459736
845.0,0.005202486219488854
844.0,0.005099801716914163
843.0,0.005015408941551949
842.0,0.004948328378998888
841.0,0.004894338476948529
840.0,0.004848358623397151
839.0,0.0048080463246789875
838.0,0.004774853121949286
837.0,0.0047505239103717446
836.0,0.004733616254157774
835.0,0.004719655564630004
834.0,0.004703656782952032
833.0,0.004683264296728994
832.0,0.004661047133161907
831.0,0.004642828001775257
830.0,0.004631707067028263
829.0,0.004624537941136426
828.0,0.004616545929871435
827.0,0.004608045601666558
826.0,0.004603406871192325
825.0,0.004604839255255294
824.0,0.004611073993886858
823.0,0.004620491146508742
822.0,0.004630986153659941
821.0,0.004638242296149099
820.0,0.004638575674885796
819.0,0.004632759150788187
818.0,0.004624513689188082
817.0,0.004616883864947369
816.0,0.004612350626258193
815.0,0.004613960151943938
814.0,0.0046224033366991145
813.0,0.004633325630276945
812.0,0.004641500337931998
811.0,0.004647159234434943
810.0,0.004654947185841588
809.0,0.004667256541515971
808.0,0.004682078985882429
807.0,0.004696819509881364
806.0,0.00471049269339896
805.0,0.004722494519594281
804.0,0.00473324351356725
803.0,0.0047462820823767305
802.0,0.0047655209951633784
801.0,0.004789197775337589
800.0,0.004810211224741201
799.0,0.0048237894408168745
798.0,0.004831721562713639
797.0,0.0048376799325137625
796.0,0.004841938977081582
795.0,0.004843313244357994
794.0,0.004843136240355011
793.0,0.004843869035561391
792.0,0.004845603704810429
791.0,0.0048470939390070624
790.0,0.004849157368800878
789.0,0.004854112422208196
788.0,0.004861979611743089
787.0,0.004869201505364466
786.0,0.004871541694791103
785.0,0.00486818004205242
784.0,0.004863772924982691
783.0,0.004866322722754017
782.0,0.0048805408879134485
781.0,0.0049018290123463565
780.0,0.004918660853848492
779.0,0.004922589732015613
778.0,0.00491486292273023
777.0,0.004902632938282264
776.0,0.004891523666355016
775.0,0.00488425074692615
774.0,0.004883168374001482
773.0,0.004889134281041169
772.0,0.004898253993058506
771.0,0.0049039453760984265
770.0,0.004903355900976395
769.0,0.00489919006388199
768.0,0.004894723785586533
767.0,0.004890228652101582
766.0,0.004885475345199904
765.0,0.00488255054508699
764.0,0.0048837132048196764
763.0,0.004887980378190961
762.0,0.004891959149574563
761.0,0.004893520358646942
760.0,0.004893371167825688
759.0,0.004893841776453392
758.0,0.00489747551663029
757.0,0.004905914187133729
756.0,0.004918439206244584
755.0,0.004932040711482228
754.0,0.004944996186743456
753.0,0.004960769096859714
752.0,0.004986240952705735
751.0,0.00502437106199376
750.0,0.005069237931539818
749.0,0.00510998354135153
748.0,0.005140066199298295
747.0,0.00516162027810204
746.0,0.005180507234652654
745.0,0.00519903558951728
744.0,0.005215323017957425
743.0,0.00522833630971271
742.0,0.00523977021073449
741.0,0.005250171780143855
740.0,0.0052570124717467095
739.0,0.005259153565817874
738.0,0.005260862756923664
737.0,0.005270203196378116
736.0,0.005299468824935675
735.0,0.005373951354311074
734.0,0.005535175925988388
733.0,0.0058180310736107126
732.0,0.006208661946444271
731.0,0.006623191923894933
730.0,0.006943382705363344
729.0,0.007095070188555428
728.0,0.0071022279514263795
727.0,0.0070650896256549845
726.0,0.007087408141066271
725.0,0.007223266209246928
724.0,0.007483524383707352
723.0,0.00787372753133406
722.0,0.008398520131225358
721.0,0.00900901050684877
720.0,0.009559442796440687
719.0,0.009873396348266754
718.0,0.009877285350546806
717.0,0.009633084333410123
716.0,0.00925890576883797
715.0,0.008857271336206177
714.0,0.008491905063295854
713.0,0.008189046752790842
712.0,0.007948155435368899
711.0,0.007756184870794283
710.0,0.007597567642430159
709.0,0.007457501105946004
708.0,0.007324319575853937
707.0,0.007194397100861453
706.0,0.007073420844268763
705.0,0.006968515593289535
704.0,0.006879688680937277
703.0,0.006802215476896465
702.0,0.006734031066519212
701.0,0.006674238351715368
700.0,0.006616111166935026
699.0,0.006549543995670289
698.0,0.006473039789465444
697.0,0.006397248661729265
696.0,0.00633279788462175
695.0,0.006279237818182945
694.0,0.006229001608152951
693.0,0.0061778433316731045
692.0,0.006127577047891004
691.0,0.006081575392076426
690.0,0.006041680810461634
689.0,0.0060076373114383245
688.0,0.005976219895603874
687.0,0.005943190273913738
686.0,0.005908750353372089
685.0,0.0058782667360574945
684.0,0.005855675292089449
683.0,0.0058389088883025325
682.0,0.005823304118067911
681.0,0.005806028476607574
680.0,0.005784900777460347
679.0,0.00575679899370298
678.0,0.0057220229718931825
677.0,0.00568941571276106
676.0,0.005669098667613467
675.0,0.005663372772363291
674.0,0.005664656024368086
673.0,0.0056619524224361655
672.0,0.005648036202262318
671.0,0.005620288537692846
670.0,0.005574584051364559
669.0,0.00550102003610194
668.0,0.0054169628191938005
667.0,0.0053902778280606484
666.0,0.005412748811315614
665.0,0.005432677658719543
664.0,0.005436126867393172
663.0,0.0054305520978124005
662.0,0.005428220755800258
661.0,0.005431627487890212
660.0,0.005426900589795329
659.0,0.005398848505106397
658.0,0.005351560540602377
657.0,0.005306188951954357
656.0,0.005276813135455026
655.0,0.005261493726635496
654.0,0.00525019737869413
653.0,0.00523317224287256
652.0,0.005203869438454876
651.0,0.0051621825459307515
650.0,0.005117648565833289
649.0,0.0050823695668311235
648.0,0.005058675268329765
647.0,0.005039156953515587
646.0,0.005017739860368608
645.0,0.004995104567449745
644.0,0.004974307062231894
643.0,0.004955994554342985
642.0,0.004936647913606032
641.0,0.004907709634588418
640.0,0.0048598958481751095
639.0,0.004796792579377682
638.0,0.004742734753260432
637.0,0.0047237883499795215
636.0,0.004738742355831497
635.0,0.004755041988181174
634.0,0.004737609997468159
633.0,0.004680608255251271
632.0,0.004604749533984976
631.0,0.004535408045962719
630.0,0.004488055354914822
629.0,0.004464173138288124
628.0,0.004454880910077021
627.0,0.004445608409577376
626.0,0.004420292184435505
625.0,0.004368089390983154
624.0,0.004290007575888285
623.0,0.004200123222989227
622.0,0.004116439965537515
621.0,0.004047212985031147
620.0,0.003990468431305876
619.0,0.003944847891273608
618.0,0.003914474257825737
617.0,0.0039037878831869183
616.0,0.003913020262148689
615.0,0.0039396647051220595
614.0,0.003977648510542271
613.0,0.004014955588808124
612.0,0.004036740575451993
611.0,0.0040353069093667275
610.0,0.0040230312234691
609.0,0.004028213079118136
608.0,0.004070827708760571
607.0,0.0041427695056166025
606.0,0.00421030922814348
605.0,0.004240984657511145
604.0,0.004225087645792344
603.0,0.004174950592565528
602.0,0.004113376104115133
601.0,0.004059590755874489
600.0,0.004025323526652556
599.0,0.004017673552248222
598.0,0.004034497098363559
597.0,0.0040593701532650635
596.0,0.0040661103782952575
595.0,0.004031711969594343
594.0,0.003953241131925442
593.0,0.0038504113176164754
592.0,0.003751792195414945
591.0,0.0036787299956543536
590.0,0.003628380576643656
589.0,0.0035778272222312113
588.0,0.003514331710281096
587.0,0.003452786152897548
586.0,0.003414484577795602
585.0,0.0033882209769082
584.0,0.0033357718942844047
583.0,0.003240234550283722
582.0,0.0031294298552340463
581.0,0.0030383654021737096
580.0,0.0029682699395195376
579.0,0.002895407836471289
578.0,0.0027975780977892543
577.0,0.0026673231318531812
576.0,0.002526295178273451
575.0,0.0024302385524686276
574.0,0.002416135660818563
573.0,0.0024579804778130827
572.0,0.0025071633402512644
571.0,0.002541665312730948
570.0,0.0025747206977496766
569.0,0.0026298421883169795
568.0,0.0027075493939678523
567.0,0.0027722347019237883
566.0,0.0027796471966224263
565.0,0.0027177410619566404
564.0,0.002611939608958662
563.0,0.002508011465418513
562.0,0.0024465125990279233
561.0,0.0024381042644275553
560.0,0.0024690210689077693
559.0,0.002511185132845091
558.0,0.002523198557179253
557.0,0.0024742231878292845
556.0,0.0023794528801387655
555.0,0.002296270889400917
554.0,0.002270931989425873
553.0,0.0022997612699488116
552.0,0.002356563727148493
551.0,0.0024206322181695153
550.0,0.002459636467439662
