cm-1,A
4000.0,0.0029927155045055137
3999.0,0.0029971156862509596
3998.0,0.0030004597945002646
3997.0,0.0030023041555961513
3996.0,0.0030036154056526463
3995.0,0.00300680948102833
3994.0,0.0030130959821381663
3993.0,0.0030201215855764586
3992.0,0.0030237333322792655
3991.0,0.0030224503514354644
3990.0,0.003019275166129407
3989.0,0.003018829811321634
3988.0,0.003022551992807652
3987.0,0.0030273732184565106
3986.0,0.003029087865411029
3985.0,0.0030258998207739344
3984.0,0.003019249906102082
3983.0,0.0030118322694383075
3982.0,0.0030053268161724205
3981.0,0.0029997466670206507
3980.0,0.0029943729017146486
3979.0,0.002989173620068478
3978.0,0.002985376991476105
3977.0,0.0029844555223856716
3976.0,0.002986382978341592
3975.0,0.0029891974228885374
3974.0,0.0029904257236881993
3973.0,0.0029896018722758424
3972.0,0.002988706698962072
3971.0,0.0029898480871567252
3970.0,0.002992887736205552
3969.0,0.0029955477401481167
3968.0,0.002996186593958807
3967.0,0.0029958027077794467
3966.0,0.0029969581343471836
3965.0,0.00300064155689741
3964.0,0.0030044026527976516
3963.0,0.003004690415989269
3962.0,0.003000288756644821
3961.0,0.002993661183855894
3960.0,0.0029890051181332613
3959.0,0.0029880836533564704
3958.0,0.0029894621459997366
3957.0,0.0029908067360791303
3956.0,0.00299077742743163
3955.0,0.002989903234391237
3954.0,0.002989260918944894
3953.0,0.002989453307005642
3952.0,0.002991320812717254
3951.0,0.002995714573380978
3950.0,0.0030031448421091707
3949.0,0.0030120615597261716
3948.0,0.0030190327560038
3947.0,0.0030209311160600784
3946.0,0.003015853347976735
3945.0,0.003005720698894686
3944.0,0.0029958302061593107
3943.0,0.0029917963703660387
3942.0,0.00299672004437303
3941.0,0.003007781534461437
3940.0,0.003019332729653183
3939.0,0.0030280531143424896
3938.0,0.0030341489524628156
3937.0,0.003039737275984518
3936.0,0.003045786730639292
3935.0,0.003051771569118773
3934.0,0.003055573293919471
3933.0,0.003054960541830482
3932.0,0.0030494356292603024
3931.0,0.0030426202455994924
3930.0,0.003039609016440484
3929.0,0.003040362254741775
3928.0,0.0030407749854482174
3927.0,0.0030372934099447517
3926.0,0.003030885512867106
3925.0,0.0030248076274854412
3924.0,0.0030207276081245507
3923.0,0.0030190384530362317
3922.0,0.0030198183601059603
3921.0,0.003024339426999363
3920.0,0.0030317527994596413
3919.0,0.0030363224688303297
3918.0,0.0030326244525490063
3917.0,0.0030209138743980627
3916.0,0.003007659413527
3915.0,0.0029999427752723587
3914.0,0.003000286404180196
3913.0,0.003008324438102155
3912.0,0.003021175877761917
3911.0,0.0030330230113880165
3910.0,0.003038374315872918
3909.0,0.0030356225914826276
3908.0,0.0030280701277001004
3907.0,0.003023085344532798
3906.0,0.003029020130041144
3905.0,0.0030493807930849146
3904.0,0.0030770964008569887
3903.0,0.0030953697371390136
3902.0,0.0030911117721123807
3901.0,0.0030669347616205734
3900.0,0.0030371953169980896
3899.0,0.003015952383968944
3898.0,0.0030070793547768183
3897.0,0.0030060335296634034
3896.0,0.0030106085441227127
3895.0,0.0030213785825902303
3894.0,0.0030361131286689167
3893.0,0.003049142923062612
3892.0,0.003055061223998046
3891.0,0.0030556675502122948
3890.0,0.0030548536984968807
3889.0,0.003052265554152324
3888.0,0.003049558528578523
3887.0,0.003052340319486234
3886.0,0.003060214236901969
3885.0,0.003062189661568024
3884.0,0.0030473145159801472
3883.0,0.0030158613915228063
3882.0,0.00298223337434712
3881.0,0.0029660265627385832
3880.0,0.0029741575852010767
3879.0,0.0029925011411976853
3878.0,0.0030008535923240383
3877.0,0.002994376731289737
3876.0,0.0029847839461314392
3875.0,0.0029854648733195766
3874.0,0.0029973803231418796
3873.0,0.003009484377566829
3872.0,0.0030131744155530455
3871.0,0.003012216495129544
3870.0,0.003018700702087801
3869.0,0.00303571364921124
3868.0,0.0030510149531460034
3867.0,0.003054373413236184
3866.0,0.0030491452478798985
3865.0,0.003041825513828476
3864.0,0.0030337655325587912
3863.0,0.0030258187038211502
3862.0,0.003022716736307175
3861.0,0.003027592284592695
3860.0,0.003036923261362778
3859.0,0.003045848450159581
3858.0,0.0030518615818406897
3857.0,0.00305465431667759
3856.0,0.0030545525378682502
3855.0,0.0030499019174645287
3854.0,0.0030455575902855114
3853.0,0.0030454620013495096
3852.0,0.003041411268996359
3851.0,0.00302594327865938
3850.0,0.0030076259943493805
3849.0,0.0029988909968291077
3848.0,0.0029997157777200308
3847.0,0.003000397317893368
3846.0,0.002994415369937285
3845.0,0.002984145011285992
3844.0,0.0029783315163504596
3843.0,0.0029826618528949024
3842.0,0.0029940744482876303
3841.0,0.0030033431465261466
3840.0,0.0030025324794658243
3839.0,0.002992431119693893
3838.0,0.00298273154959006
3837.0,0.0029812614096800813
3836.0,0.0029859920278700255
3835.0,0.0029904483047267453
3834.0,0.0029938734348355645
3833.0,0.002999107863212251
3832.0,0.003006109110169827
3831.0,0.003011196703637002
3830.0,0.003010686050031199
3829.0,0.0030054307009756975
3828.0,0.0030012784385275403
3827.0,0.0030044228865177304
3826.0,0.0030148150804311883
3825.0,0.003025861678604899
3824.0,0.00303066131739941
3823.0,0.0030289625704883793
3822.0,0.0030293981157265906
3821.0,0.003037993685349589
3820.0,0.0030487222759827343
3819.0,0.0030493633499198624
3818.0,0.003038649781267196
3817.0,0.003028968902921045
3816.0,0.0030305821921359968
3815.0,0.0030392863407075416
3814.0,0.003044410942902199
3813.0,0.003043573353144093
3812.0,0.0030436600543585785
3811.0,0.0030478835254802022
3810.0,0.0030516237543380944
3809.0,0.003051167088060089
3808.0,0.0030496976874657715
3807.0,0.0030523798958828193
3806.0,0.0030549898379019537
3805.0,0.003047003337928656
3804.0,0.003029124954951624
3803.0,0.0030146768151260144
3802.0,0.0030137647749352084
3801.0,0.0030199348052182134
3800.0,0.003018362388337867
3799.0,0.0030049903426330408
3798.0,0.0029925219766078655
3797.0,0.002997396142507701
3796.0,0.0030190812308381956
3795.0,0.003041098650055379
3794.0,0.0030515157497278365
3793.0,0.003053246936028372
3792.0,0.003056655707839205
3791.0,0.0030658451441034984
3790.0,0.0030757513317476674
3789.0,0.0030792486236391626
3788.0,0.003073607757650032
3787.0,0.0030627062085129345
3786.0,0.0030539181070185243
3785.0,0.003051365705256058
3784.0,0.0030526191405573014
3783.0,0.0030518410352805897
3782.0,0.0030455288024602628
3781.0,0.0030366178414187994
3780.0,0.003031202410913773
3779.0,0.0030334972098585104
3778.0,0.0030426168307691216
3777.0,0.003054184485314906
3776.0,0.003065959456755191
3775.0,0.0030788194502078398
3774.0,0.0030931240886468746
3773.0,0.003107438529276336
3772.0,0.003120991390818879
3771.0,0.003134797904989455
3770.0,0.00314875189310607
3769.0,0.0031581086103071136
3768.0,0.0031573608031108726
3767.0,0.0031495311754948805
3766.0,0.003145115162096683
3765.0,0.003149781696609316
3764.0,0.003157856202394044
3763.0,0.0031604317103166987
3762.0,0.0031568992198591026
3761.0,0.0031540795445872856
3760.0,0.003155252009056359
3759.0,0.0031559334438793782
3758.0,0.003152035904946948
3757.0,0.0031472539748528443
3756.0,0.003147566451433155
3755.0,0.0031594088420401154
3754.0,0.0031875574839710435
3753.0,0.0032311982636928265
3752.0,0.00327567624304802
3751.0,0.0033010812444609254
3750.0,0.003306976248588306
3749.0,0.0033008173995944428
3748.0,0.0032825270020930154
3747.0,0.0032548866499990644
3746.0,0.00323408853621759
3745.0,0.0032422099770477667
3744.0,0.0032773774998874176
3743.0,0.00330217272218279
3742.0,0.003297631124055668
3741.0,0.003282496955597146
3740.0,0.00327721049858749
3739.0,0.003283483010625929
3738.0,0.0032909337691148276
3737.0,0.003290499184653934
3736.0,0.0032727129724450885
3735.0,0.0032338804701392294
3734.0,0.003194584900142429
3733.0,0.00318290515359376
3732.0,0.0032020556733300997
3731.0,0.003232962230154861
3730.0,0.003258697026919266
3729.0,0.0032774519436609036
3728.0,0.0032935694621724146
3727.0,0.0033041598980956145
3726.0,0.003299651612756716
3725.0,0.0032763313835843686
3724.0,0.0032427488125038803
3723.0,0.0032127178849785127
3722.0,0.003194743542894401
3721.0,0.0031873616146401986
3720.0,0.0031842275459331507
3719.0,0.00318402767064752
3718.0,0.003191297777713929
3717.0,0.0032104500260820325
3716.0,0.0032385660938677625
3715.0,0.0032697465641355885
3714.0,0.0033021110538562666
3713.0,0.0033364583029620665
3712.0,0.003366398078060031
3711.0,0.0033791409332965504
3710.0,0.0033743318940520307
3709.0,0.003362335680045633
3708.0,0.003350487233625633
3707.0,0.0033429623208579267
3706.0,0.0033405315196936066
3705.0,0.0033392582864401887
3704.0,0.0033344824379287503
3703.0,0.0033295914337784166
3702.0,0.0033371089511334178
3701.0,0.0033644406024309027
3700.0,0.003402253640825903
3699.0,0.003435133665791093
3698.0,0.0034570329976901697
3697.0,0.0034709287216465688
3696.0,0.0034803009346495613
3695.0,0.0034860452984437724
3694.0,0.0034872604262917795
3693.0,0.0034798106131107304
3692.0,0.0034559284519365564
3691.0,0.0034125188556532546
3690.0,0.0033663484507918022
3689.0,0.003348993443243675
3688.0,0.0033675503202021707
3687.0,0.0033937940460357476
3686.0,0.0034056082537952514
3685.0,0.0034063983779164366
3684.0,0.003409655701867449
3683.0,0.0034214931471275084
3682.0,0.0034383647426262896
3681.0,0.0034547282425951478
3680.0,0.003467255577820915
3679.0,0.003473199684685931
3678.0,0.003471628091053302
3677.0,0.003467702869984211
3676.0,0.0034711705330093276
3675.0,0.003485702069068684
3674.0,0.0034987351637954254
3673.0,0.0034951183185545683
3672.0,0.0034815837632757784
3671.0,0.0034760253112323834
3670.0,0.00348530025253865
3669.0,0.0035029581018632284
3668.0,0.003521141838965647
3667.0,0.003536116592728813
3666.0,0.0035526785397530366
3665.0,0.0035733996204820404
3664.0,0.0035943000095696905
3663.0,0.0036098172092853386
3662.0,0.0036198606058610635
3661.0,0.003629240660943855
3660.0,0.0036429041612329243
3659.0,0.003664665068536561
3658.0,0.0036981795230711266
3657.0,0.0037432808225339046
3656.0,0.0037888966778706267
3655.0,0.003818290098401551
3654.0,0.003825765226210599
3653.0,0.00382050114867377
3652.0,0.0038186230491855317
3651.0,0.0038315114491081683
3650.0,0.0038551387863675988
3649.0,0.0038752829790108965
3648.0,0.0038942906343697736
3647.0,0.003920893240115863
3646.0,0.00395310791639727
3645.0,0.003984490272540977
3644.0,0.004013659630962809
3643.0,0.004042446900845593
3642.0,0.004070546069650104
3641.0,0.004096458123393973
3640.0,0.0041196797611579876
3639.0,0.00414221762462895
3638.0,0.00416713081370381
3637.0,0.004197626163959869
3636.0,0.004237613032827572
3635.0,0.004289309727347444
3634.0,0.004348191317342089
3633.0,0.004404012258732367
3632.0,0.004450543318594977
3631.0,0.0044902539670135634
3630.0,0.004527641864872563
3629.0,0.004557009271075448
3628.0,0.004570631717130711
3627.0,0.004572361141640473
3626.0,0.00457247426243863
3625.0,0.004582563958644974
3624.0,0.0046032056795290545
3623.0,0.00462297922319176
3622.0,0.004632084124570145
3621.0,0.004634168938095667
3620.0,0.004646395419287153
3619.0,0.004683229070323583
3618.0,0.004739152513247263
3617.0,0.004794424039751532
3616.0,0.004836514036188266
3615.0,0.004867695363084588
3614.0,0.004898415096045246
3613.0,0.004937674216011641
3612.0,0.004985519937632978
3611.0,0.005035218861452885
3610.0,0.005082378914672233
3609.0,0.005123835421759402
3608.0,0.005154850796751295
3607.0,0.005174466668663851
3606.0,0.005189496480137674
3605.0,0.0052080914171682875
3604.0,0.0052338470017793985
3603.0,0.005266537673194412
3602.0,0.005303135293978071
3601.0,0.0053378619443189765
3600.0,0.0053659909075833455
3599.0,0.005388238587395411
3598.0,0.005411145967709183
3597.0,0.005442033184073342
3596.0,0.005482752862213419
3595.0,0.0055282787907390005
3594.0,0.005571424109004363
3593.0,0.00560723786043184
3592.0,0.005634618288764238
3591.0,0.005655555230485802
3590.0,0.005676022551237218
3589.0,0.005703508917161822
3588.0,0.005739129155748998
3587.0,0.005775870062203675
3586.0,0.005807797170826458
3585.0,0.005833077329782665
3584.0,0.005854424881927915
3583.0,0.005878489283842554
3582.0,0.005909404609211292
3581.0,0.005943809863968444
3580.0,0.00597538373556053
3579.0,0.006003215418574432
3578.0,0.006033962307321351
3577.0,0.006073741940902116
3576.0,0.006121384452798889
3575.0,0.006171300249971354
3574.0,0.006220012143258113
3573.0,0.006266468693480852
3572.0,0.006307476062969858
3571.0,0.006339255564994034
3570.0,0.006363767472850737
3569.0,0.006391089756722762
3568.0,0.006428034782341514
3567.0,0.006466167907009846
3566.0,0.006495722487775333
3565.0,0.00652040975683469
3564.0,0.0065479498007192955
3563.0,0.006581794165500475
3562.0,0.006620557109712348
3561.0,0.0066604255073242045
3560.0,0.006697830182002222
3559.0,0.006732134986575692
3558.0,0.006765012358337243
3557.0,0.006797796518744197
3556.0,0.006831006735738608
3555.0,0.006866211428131092
3554.0,0.006905857879835454
3553.0,0.006949626372849816
3552.0,0.006993107643340917
3551.0,0.0070329856371308674
3550.0,0.007071403515375427
3549.0,0.007114172951065071
3548.0,0.0071642781101192345
3547.0,0.00721722825986258
3546.0,0.0072645160981715026
3545.0,0.007300830991390877
3544.0,0.007326204150739781
3543.0,0.007342917855535291
3542.0,0.007355055731843691
3541.0,0.0073696542721759
3540.0,0.007393818490240837
3539.0,0.007430408014116603
3538.0,0.007475439097272192
3537.0,0.007519124897593292
3536.0,0.007552586901503488
3535.0,0.00757572153752949
3534.0,0.007596764711902456
3533.0,0.00762390981317489
3532.0,0.007659046977950591
3531.0,0.007698612776233155
3530.0,0.007739642211728801
3529.0,0.007782034869176687
3528.0,0.00782565851935442
3527.0,0.007868783785520798
3526.0,0.007910013586161977
3525.0,0.00794881258933521
3524.0,0.007983422917694948
3523.0,0.008011743750277474
3522.0,0.008034978112224228
3521.0,0.008057479801139392
3520.0,0.008082815946091605
3519.0,0.008112352609109457
3518.0,0.008146117451263056
3517.0,0.008182632959556792
3516.0,0.008218238170464881
3515.0,0.008249323548911832
3514.0,0.008276321634785627
3513.0,0.008303524795561798
3512.0,0.00833454835560907
3511.0,0.00836876717799479
3510.0,0.008402958751024427
3509.0,0.008434843927029626
3508.0,0.008464602952162175
3507.0,0.008494689300570128
3506.0,0.00852933254994597
3505.0,0.008571850063044093
3504.0,0.008620286684793737
3503.0,0.008667227304177858
3502.0,0.00870663927378727
3501.0,0.008738263591082793
3500.0,0.008764526197700032
3499.0,0.0087877312192194
3498.0,0.008810236058548429
3497.0,0.008834150213846419
3496.0,0.008860507407995512
3495.0,0.008889865764604505
3494.0,0.008923843669076012
3493.0,0.008964198126093115
3492.0,0.009009584261567363
3491.0,0.009054914961743673
3490.0,0.009095074588781985
3489.0,0.00912824683206282
3488.0,0.009155664164045814
3487.0,0.009179401226247458
3486.0,0.009200849024719977
3485.0,0.00922127888234793
3484.0,0.009243522116091932
3483.0,0.00927199079932282
3482.0,0.00930932569974044
3481.0,0.00935203434725741
3480.0,0.009391977170532103
3479.0,0.009424440856835865
3478.0,0.009452949785600444
3477.0,0.00948402612091533
3476.0,0.009519013187546846
3475.0,0.009553755352142613
3474.0,0.009585616876701824
3473.0,0.009617124700293996
3472.0,0.009651681983780892
3471.0,0.009689010081315869
3470.0,0.009726456686095323
3469.0,0.009762207151917078
3468.0,0.009795692631529096
3467.0,0.0098267117055459
3466.0,0.00985581799806638
3465.0,0.00988512128351602
3464.0,0.009917342908463214
3463.0,0.009953339030544626
3462.0,0.009990412991369243
3461.0,0.010023547216486265
3460.0,0.010049557633813651
3459.0,0.010070605604047995
3458.0,0.010092621798798359
3457.0,0.01011972770454402
3456.0,0.010151233968042682
3455.0,0.0101842643694415
3454.0,0.010217217214075954
3453.0,0.010249074876201109
3452.0,0.010278587321421862
3451.0,0.010306735076150887
3450.0,0.010338745293511819
3449.0,0.01037977668261579
3448.0,0.010427761719400583
3447.0,0.010473793587870437
3446.0,0.010511188976130815
3445.0,0.010540620671069133
3444.0,0.010566043097183262
3443.0,0.010590687327029159
3442.0,0.010617110923673866
3441.0,0.010647040021764032
3440.0,0.010679659592808562
3439.0,0.010712414772864285
3438.0,0.010744687035867416
3437.0,0.010778267294285607
3436.0,0.010812841007634636
3435.0,0.010844126272287254
3434.0,0.010869634953962625
3433.0,0.010893949177823355
3432.0,0.010924992551041143
3431.0,0.01096495276590842
3430.0,0.011007833093531535
3429.0,0.011046213679332534
3428.0,0.0110783047807876
3427.0,0.011107751009359441
3426.0,0.011138389806258316
3425.0,0.011170932802921843
3424.0,0.01120385836504181
3423.0,0.011236084429485186
3422.0,0.011268219784936313
3421.0,0.011301308875409652
3420.0,0.011334992695038315
3419.0,0.011367693304021858
3418.0,0.011398779558002201
3417.0,0.011429485017786482
3416.0,0.011461192742862994
3415.0,0.011493532637374609
3414.0,0.011525000061365618
3413.0,0.011555137389067653
3412.0,0.01158528614022356
3411.0,0.011617362584927127
3410.0,0.011652292140044778
3409.0,0.01168920427969065
3408.0,0.011725369801640888
3407.0,0.011756963128026928
3406.0,0.011780853556006663
3405.0,0.011797015601967914
3404.0,0.011809426050026665
3403.0,0.011823441284501562
3402.0,0.011841126228573655
3401.0,0.011859496153038078
3400.0,0.011874823807245014
3399.0,0.01188782540354218
3398.0,0.011902464318689826
3397.0,0.01191978241921516
3396.0,0.011936132591139537
3395.0,0.01194895030360899
3394.0,0.011961190948470911
3393.0,0.011977205247928578
3392.0,0.011996169735503357
3391.0,0.012013161584350212
3390.0,0.012025673615452358
3389.0,0.012035695633461106
3388.0,0.012045863890171345
3387.0,0.012056922470322532
3386.0,0.012069586625368705
3385.0,0.012085957054728036
3384.0,0.012107147037605794
3383.0,0.012131032666858409
3382.0,0.012154290563362266
3381.0,0.012175875579532936
3380.0,0.012197632374173251
3379.0,0.012221686867890219
3378.0,0.012248014998223497
3377.0,0.012274718685631392
3376.0,0.012300610559350252
3375.0,0.012326997704987068
3374.0,0.012355963887027427
3373.0,0.012387091045616255
3372.0,0.01241720543535271
3371.0,0.012443844262787626
3370.0,0.012467574736621547
3369.0,0.012490222669048172
3368.0,0.012512267245124576
3367.0,0.012533360811807044
3366.0,0.012554071917926478
3365.0,0.01257537244032895
3364.0,0.01259713038244848
3363.0,0.012618520573791765
3362.0,0.012639313821716522
3361.0,0.012659797137930435
3360.0,0.012680357672598758
3359.0,0.01270221760565979
3358.0,0.012727463236786933
3357.0,0.012756898019676438
3356.0,0.012788690615923099
3355.0,0.012820351655203885
3354.0,0.012850887466411033
3353.0,0.0128797469732393
3352.0,0.012905140746058431
3351.0,0.012925445619121718
3350.0,0.012941455321535424
3349.0,0.01295537254604584
3348.0,0.012968157729637213
3347.0,0.012979877464497646
3346.0,0.012992011049013173
3345.0,0.013006896780943472
3344.0,0.013024750462854003
3343.0,0.01304308945130682
3342.0,0.013059680435032722
3341.0,0.013074536401442424
3340.0,0.013088342919041426
3339.0,0.01309961619109009
3338.0,0.013104152772211183
3337.0,0.013097832900954105
3336.0,0.013080867961200511
3335.0,0.013059288620736104
3334.0,0.013040672958925982
3333.0,0.013027422138991681
3332.0,0.013014981632474538
3331.0,0.012997091705762815
3330.0,0.012971805552468872
3329.0,0.012942142962712105
3328.0,0.012912731084915512
3327.0,0.012887052278945314
3326.0,0.012866285491076442
3325.0,0.012848672743412958
3324.0,0.012830764541466028
3323.0,0.012810963302548111
3322.0,0.012791525695386656
3321.0,0.012775814742899542
3320.0,0.012764316408234928
3319.0,0.012754626830211927
3318.0,0.012744575651185907
3317.0,0.01273407161353868
3316.0,0.012724926854830152
3315.0,0.012720248778677943
3314.0,0.012722966255215806
3313.0,0.012733093704921821
3312.0,0.012746897374648068
3311.0,0.012759986992653792
3310.0,0.012770513870143373
3309.0,0.012778389723331078
3308.0,0.01278309847502623
3307.0,0.012784314943047867
3306.0,0.012783525320030005
3305.0,0.01278275374719705
3304.0,0.012782176590578944
3303.0,0.012780883952185334
3302.0,0.012779375662914113
3301.0,0.012779208890718223
3300.0,0.012780495013831914
3299.0,0.012781637012252848
3298.0,0.012781496820713133
3297.0,0.012780192164355785
3296.0,0.012778207946819073
3295.0,0.012776165874519142
3294.0,0.012774865674760482
3293.0,0.012773638916300265
3292.0,0.012769118202994529
3291.0,0.01275791421848377
3290.0,0.012740753887422384
3289.0,0.01272230554808349
3288.0,0.012706913881196
3287.0,0.01269595813359757
3286.0,0.012689018507745608
3285.0,0.012685377550581843
3284.0,0.012683651823943097
3283.0,0.012681429279312612
3282.0,0.012676156939656806
3281.0,0.012666197663281318
3280.0,0.01265151513768893
3279.0,0.012634511075543245
3278.0,0.012619417453430775
3277.0,0.012608744370432287
3276.0,0.012600125143207299
3275.0,0.012588301801881653
3274.0,0.012570669990404765
3273.0,0.012549497359164384
3272.0,0.012528320924217396
3271.0,0.012507566165201442
3270.0,0.012484423561965817
3269.0,0.012456145267071577
3268.0,0.012423037661710089
3267.0,0.012388658770510857
3266.0,0.012357012700416295
3265.0,0.012328953382184269
3264.0,0.012301536844904096
3263.0,0.012271207550509155
3262.0,0.012236767207688315
3261.0,0.012198845080629848
3260.0,0.012157958376506604
3259.0,0.012115108786143344
3258.0,0.01207347945547939
3257.0,0.012037177780381868
3256.0,0.012007343129392233
3255.0,0.011980267803757463
3254.0,0.011949967810795452
3253.0,0.011912895112608839
3252.0,0.01187106168551676
3251.0,0.0118308509364396
3250.0,0.011797668846837556
3249.0,0.011770352138861077
3248.0,0.011741695854837371
3247.0,0.01170610148371848
3246.0,0.011666128681127095
3245.0,0.011629819732061897
3244.0,0.01160191884543409
3243.0,0.011579778084859922
3242.0,0.011557896012220141
3241.0,0.011533928477352412
3240.0,0.01150921929142318
3239.0,0.011485360901884135
3238.0,0.01146211020243903
3237.0,0.011438653285017716
3236.0,0.011415492976209904
3235.0,0.011394062371129325
3234.0,0.011374478733040455
3233.0,0.01135458535552357
3232.0,0.011332048428921965
3231.0,0.011306822628438167
3230.0,0.011280765984410884
3229.0,0.01125526794218742
3228.0,0.011230452766832115
3227.0,0.011206396437308657
3226.0,0.011183530294273113
3225.0,0.011161811431731573
3224.0,0.011141049609863469
3223.0,0.011122038305295519
3222.0,0.011105698596056151
3221.0,0.011091050308119195
3220.0,0.011075834951010421
3219.0,0.011059199704725275
3218.0,0.011041434224580314
3217.0,0.011021377212535557
3216.0,0.010997338643011244
3215.0,0.010971362811426145
3214.0,0.010948952172696131
3213.0,0.010932591537447203
3212.0,0.010918456936595185
3211.0,0.010901493229463754
3210.0,0.010880944963940375
3209.0,0.010858865684783964
3208.0,0.01083616558866687
3207.0,0.010813068678649928
3206.0,0.010790913571571243
3205.0,0.010770096845191084
3204.0,0.01074807556554499
3203.0,0.010722930901559517
3202.0,0.010697182720715813
3201.0,0.010674430415385124
3200.0,0.010653584063084972
3199.0,0.010630682245418601
3198.0,0.010605508671080103
3197.0,0.010581661042065265
3196.0,0.010559372174996874
3195.0,0.010533016962658884
3194.0,0.01049782951578226
3193.0,0.010456119085385922
3192.0,0.010415050011070664
3191.0,0.010380190221205232
3190.0,0.010352434379799937
3189.0,0.0103290306885878
3188.0,0.010305599809191112
3187.0,0.01027840069618104
3186.0,0.010246731083742345
3185.0,0.010213348086384038
3184.0,0.010181593664554369
3183.0,0.010152288849782
3182.0,0.010123336666409804
3181.0,0.010091584463571647
3180.0,0.010054915521852397
3179.0,0.010013887855893083
3178.0,0.00997221701412719
3177.0,0.00993474233587446
3176.0,0.009903655143518543
3175.0,0.009876617317797133
3174.0,0.00984902249724632
3173.0,0.00981827882920219
3172.0,0.009786045165563315
3171.0,0.009756352519615718
3170.0,0.009731480231169994
3169.0,0.009709442677112212
3168.0,0.009685572381156289
3167.0,0.009656536595172852
3166.0,0.009622736197052492
3165.0,0.009587428846738636
3164.0,0.009554151309866659
3163.0,0.009524658920119746
3162.0,0.009498257361521937
3161.0,0.009473037487713975
3160.0,0.009448313773516523
3159.0,0.009425513245660074
3158.0,0.00940579389542023
3157.0,0.009387468973597966
3156.0,0.009367468935126263
3155.0,0.009345050809650304
3154.0,0.00932195474605576
3153.0,0.009298906986420396
3152.0,0.00927441865962279
3151.0,0.00924769121304686
3150.0,0.009220305610719997
3149.0,0.009193546747161496
3148.0,0.00916624597837229
3147.0,0.009137326884274292
3146.0,0.009108753110915146
3145.0,0.009083753747290675
3144.0,0.009063140570259452
3143.0,0.009045078864694802
3142.0,0.009027207168460312
3141.0,0.00900701279611505
3140.0,0.00898144259081314
3139.0,0.008948940872706972
3138.0,0.00891199256581263
3137.0,0.008875347733197302
3136.0,0.008841500083061614
3135.0,0.008809367121656897
3134.0,0.008777167055434281
3133.0,0.008745092464290189
3132.0,0.00871502305739897
3131.0,0.008688564042285412
3130.0,0.00866559361565148
3129.0,0.008643932354960557
3128.0,0.008620508604408461
3127.0,0.00859363634839286
3126.0,0.008564176971150318
3125.0,0.00853438217526617
3124.0,0.008506284510600396
3123.0,0.008481259418994625
3122.0,0.008459604409268275
3121.0,0.0084393700010638
3120.0,0.00841689207634697
3119.0,0.008390090357121453
3118.0,0.008360526156921639
3117.0,0.008330843169175463
3116.0,0.008301165219890196
3115.0,0.008269896933165856
3114.0,0.008237684600466165
3113.0,0.008208257922644265
3112.0,0.008184645058051674
3111.0,0.008165941178592435
3110.0,0.008148376805184463
3109.0,0.008128652392456312
3108.0,0.0081058358526349
3107.0,0.008080491560075601
3106.0,0.008053158176814913
3105.0,0.008024182889271078
3104.0,0.007994656948278181
3103.0,0.007966816105189291
3102.0,0.007942708413253086
3101.0,0.007922407692720318
3100.0,0.007903830298094262
3099.0,0.007884606111264776
3098.0,0.007863745165452716
3097.0,0.00784189311941327
3096.0,0.007820771841549008
3095.0,0.007802190586534004
3094.0,0.007786450448911138
3093.0,0.007771320578319625
3092.0,0.0077537840530386235
3091.0,0.007733339908508954
3090.0,0.0077127335343169165
3089.0,0.0076949014737130155
3088.0,0.007679856691363876
3087.0,0.007664827442713563
3086.0,0.0076468503555701395
3085.0,0.007625013446590185
3084.0,0.007601257180150152
3083.0,0.007579359619499576
3082.0,0.007561903138564334
3081.0,0.007547829560955836
3080.0,0.007534071179641368
3079.0,0.007519483956812293
3078.0,0.007505206589945634
3077.0,0.00749105326029338
3076.0,0.007474136717277629
3075.0,0.007452512264957203
3074.0,0.007428148942597032
3073.0,0.007404346192047674
3072.0,0.007382206124034523
3071.0,0.0073613584655316255
3070.0,0.007342810034042182
3069.0,0.007328376095872259
3068.0,0.007317548743695989
3067.0,0.007307258910641042
3066.0,0.0072948597765552185
3065.0,0.0072803482864868905
3064.0,0.007265655636595
3063.0,0.007252951394155627
3062.0,0.007243145640609771
3061.0,0.007234902816815084
3060.0,0.007225359149940226
3059.0,0.007212789571044154
3058.0,0.007198037289730187
3057.0,0.007182384593406133
3056.0,0.007165455135601727
3055.0,0.007146429499554465
3054.0,0.007126500987594103
3053.0,0.0071077656557648125
3052.0,0.0070903974476385166
3051.0,0.0070729746696897005
3050.0,0.007055449458007521
3049.0,0.007039904898771361
3048.0,0.007027438060594736
3047.0,0.0070160682610352285
3046.0,0.007002956946760229
3045.0,0.006987977757064454
3044.0,0.006974024817646262
3043.0,0.006963210669473703
3042.0,0.006953338502224774
3041.0,0.006939379196954167
3040.0,0.006919270357947935
3039.0,0.006897618934355148
3038.0,0.006881641425177441
3037.0,0.006873747755541726
3036.0,0.006869827686016712
3035.0,0.0068646583116837075
3034.0,0.00685678739017539
3033.0,0.006847158559242807
3032.0,0.006836345708192514
3031.0,0.006825124248377423
3030.0,0.0068160473400014875
3029.0,0.0068115697335416996
3028.0,0.00681165688836338
3027.0,0.006814726843793962
3026.0,0.006819969897078776
3025.0,0.006827345347534182
3024.0,0.006836111795822993
3023.0,0.00684498501074832
3022.0,0.006853095639721248
3021.0,0.006859934492819197
3020.0,0.006865370811657022
3019.0,0.006870796812255983
3018.0,0.006879226393046932
3017.0,0.00689311679325715
3016.0,0.006912866421251761
3015.0,0.006937989568095736
3014.0,0.006967908544632979
3013.0,0.007000715643487775
3012.0,0.007033369166435127
3011.0,0.0070649762206327765
3010.0,0.0070981430301859366
3009.0,0.007135702046092771
3008.0,0.007177910741420204
3007.0,0.0072245062894097725
3006.0,0.007276698180934158
3005.0,0.0073347773045459655
3004.0,0.007396005197584989
3003.0,0.007458659106796682
3002.0,0.0075266975327421114
3001.0,0.007606853515559755
3000.0,0.00770089924666946
2999.0,0.007804788048178211
2998.0,0.007915190763566449
2997.0,0.008034487872286215
2996.0,0.008167706809283389
2995.0,0.008317241671003147
2994.0,0.008482040551644459
2993.0,0.008660989654276483
2992.0,0.008855864565513764
2991.0,0.009071405767365573
2990.0,0.009313729313765276
2989.0,0.009588316285373832
2988.0,0.009898954853028025
2987.0,0.010247805878551718
2986.0,0.010636207933493977
2985.0,0.011066327281645624
2984.0,0.011544073624278903
2983.0,0.012081074537680201
2982.0,0.012692190277409135
2981.0,0.013390191351575799
2980.0,0.014184661765223207
2979.0,0.015086277183717262
2978.0,0.016110212354439893
2977.0,0.017275054864761163
2976.0,0.018601688332741048
2975.0,0.020114088392398574
2974.0,0.021838544680301716
2973.0,0.02379931737151046
2972.0,0.026013912073510243
2971.0,0.02849299658532455
2970.0,0.031242245519529567
2969.0,0.03426172353178998
2968.0,0.03754310718742158
2967.0,0.04106416130100381
2966.0,0.044777686245292665
2965.0,0.0485936685773061
2964.0,0.05236945181414456
2963.0,0.055920638490057975
2962.0,0.0590519888780627
2961.0,0.06161460448672808
2960.0,0.06356108240005329
2959.0,0.06497036375787128
2958.0,0.06602816527410907
2957.0,0.06697853258938427
2956.0,0.06806259431531189
2955.0,0.06944696822548692
2954.0,0.07115734201465711
2953.0,0.07304156182188565
2952.0,0.07478043560344962
2951.0,0.07595652115625304
2950.0,0.07615793340331355
2949.0,0.07508222629721639
2948.0,0.07263121883249718
2947.0,0.06894152985965789
2946.0,0.0643579956323269
2945.0,0.059351322735764066
2944.0,0.05441337293426982
2943.0,0.04996066607368985
2942.0,0.0462720495291779
2941.0,0.04348470452737369
2940.0,0.041615741320763844
2939.0,0.04060563448101016
2938.0,0.04036285053286805
2937.0,0.04079546100290016
2936.0,0.04183243389718708
2935.0,0.04342169318089505
2934.0,0.045511692813603954
2933.0,0.048038105048287975
2932.0,0.050924713456500625
2931.0,0.054087003555568204
2930.0,0.05742901442291525
2929.0,0.06083824949751207
2928.0,0.06419872606803168
2927.0,0.0674185948281971
2926.0,0.07045430419129177
2925.0,0.07331962407604754
2924.0,0.07607609407197993
2923.0,0.07879107767616911
2922.0,0.0814839195871442
2921.0,0.08407956066054298
2920.0,0.08640215690401444
2919.0,0.08819888450801357
2918.0,0.08920638851017615
2917.0,0.08924507058488985
2916.0,0.08830327023443645
2915.0,0.0865500604974807
2914.0,0.08426218019887015
2913.0,0.08173785844750493
2912.0,0.07922395990289531
2911.0,0.07687440843941208
2910.0,0.0747389978554281
2909.0,0.07278540210234927
2908.0,0.07093759767782302
2907.0,0.06910924458615066
2906.0,0.06722591924980628
2905.0,0.06524124322903345
2904.0,0.0631492397331819
2903.0,0.06097569558375836
2902.0,0.05875997335768566
2901.0,0.05654080783440004
2900.0,0.054357406257208946
2899.0,0.052251623397602344
2898.0,0.05026507221082012
2897.0,0.04843674824608999
2896.0,0.04680147697637888
2895.0,0.045386153749912145
2894.0,0.04420401634150975
2893.0,0.04325490481161829
2892.0,0.04253138746875499
2891.0,0.04202260427908325
2890.0,0.0417126538460472
2889.0,0.041578215454732635
2888.0,0.041593425643412105
2887.0,0.04173834578691052
2886.0,0.04200396887876478
2885.0,0.04239160368309987
2884.0,0.0429091332807047
2883.0,0.04356123825913194
2882.0,0.044334798677704235
2881.0,0.04518110409444842
2880.0,0.04601043172858451
2879.0,0.04670164713617887
2878.0,0.04713915250581473
2877.0,0.04726367489134992
2876.0,0.047114566910422484
2875.0,0.046824919631716234
2874.0,0.04656914407429791
2873.0,0.04649772523477025
2872.0,0.046689329171297096
2871.0,0.04713344824667537
2870.0,0.047733466365603335
2869.0,0.04831288028405491
2868.0,0.048630845559632915
2867.0,0.0484164462910968
2866.0,0.047431229261221945
2865.0,0.045561406790861826
2864.0,0.042885868406879094
2863.0,0.03966820683231486
2862.0,0.03626325142212307
2861.0,0.033004253045546855
2860.0,0.030124804501546063
2859.0,0.02773993156368006
2858.0,0.02586999132443579
2857.0,0.02447751182982751
2856.0,0.02350362393449663
2855.0,0.0228935614520215
2854.0,0.022606998855281044
2853.0,0.022617951274552815
2852.0,0.022913495995410694
2851.0,0.023492984115013174
2850.0,0.02436362162746672
2849.0,0.025531986348929378
2848.0,0.027001478913756424
2847.0,0.028774964939715184
2846.0,0.030851985792317974
2845.0,0.033213481450904456
2844.0,0.03580750845708099
2843.0,0.03853867351045922
2842.0,0.041265777134862215
2841.0,0.04379788555200019
2840.0,0.04590356619358499
2839.0,0.047330747670839404
2838.0,0.0478462601818882
2837.0,0.04729145420310446
2836.0,0.045644341996805435
2835.0,0.04305113274064429
2834.0,0.03980378048270293
2833.0,0.036266677628082555
2832.0,0.032781198778895224
2831.0,0.029594574283812212
2830.0,0.026834031744788576
2829.0,0.02452310377209904
2828.0,0.02262324219863666
2827.0,0.021067943836985428
2826.0,0.01979007336325854
2825.0,0.018729746755338596
2824.0,0.017836930151638977
2823.0,0.017071829529825028
2822.0,0.016406772410456388
2821.0,0.01582342322443384
2820.0,0.015309405594165767
2819.0,0.014855475980498155
2818.0,0.014455067354783944
2817.0,0.014101058113387773
2816.0,0.013784065004260954
2815.0,0.01349497889955853
2814.0,0.013229142282617788
2813.0,0.01298444042945207
2812.0,0.012756450777912662
2811.0,0.012537709895910158
2810.0,0.012321790778712231
2809.0,0.012103979633123702
2808.0,0.011877864237167055
2807.0,0.0116356671788046
2806.0,0.011375110980872448
2805.0,0.011104012724647252
2804.0,0.010836515175026307
2803.0,0.010584909044466736
2802.0,0.010356392460321655
2801.0,0.01015434178140392
2800.0,0.009979690818200127
2799.0,0.009830833620783063
2798.0,0.00970313454170126
2797.0,0.009589275328516026
2796.0,0.009480290642115387
2795.0,0.009368280038398954
2794.0,0.00924884297998604
2793.0,0.009121332154441495
2792.0,0.00898704905254367
2791.0,0.008847782313454093
2790.0,0.008705349815711992
2789.0,0.008561141019229427
2788.0,0.008416274819159126
2787.0,0.00827309107624826
2786.0,0.008135773988732177
2785.0,0.008007857894621809
2784.0,0.007889718752252615
2783.0,0.007780054033916446
2782.0,0.007679083006498494
2781.0,0.007588047357748092
2780.0,0.0075056990342199995
2779.0,0.007427871351531414
2778.0,0.007351515063239784
2777.0,0.007277731792898699
2776.0,0.0072101179297295506
2775.0,0.007150935067163477
2774.0,0.007099340006518552
2773.0,0.007052350950224218
2772.0,0.007007269392683032
2771.0,0.006963687656323965
2770.0,0.006923176257171067
2769.0,0.006886646981137315
2768.0,0.006852738601887358
2767.0,0.0068192782925379615
2766.0,0.006785202565151674
2765.0,0.006750004377075096
2764.0,0.006712860612754249
2763.0,0.006674064470259852
2762.0,0.006636124607745998
2761.0,0.006601327157042675
2760.0,0.006568768278489837
2759.0,0.006535814904308611
2758.0,0.006502087138499201
2757.0,0.006470192417021774
2756.0,0.006442757686062069
2755.0,0.0064201473485874785
2754.0,0.006400818970126556
2753.0,0.006382656948598209
2752.0,0.006364598436738975
2751.0,0.006348247935833769
2750.0,0.006336933766006442
2749.0,0.006331638632478574
2748.0,0.006329160986550776
2747.0,0.006326142950819443
2746.0,0.00632395853385156
2745.0,0.006327385628161941
2744.0,0.006339541288345237
2743.0,0.0063603435581839314
2742.0,0.00638889898487307
2741.0,0.006424186978966384
2740.0,0.006463674227364109
2739.0,0.006504117070790118
2738.0,0.006544117274653963
2737.0,0.006584115187210652
2736.0,0.006624201952485299
2735.0,0.006664166858996459
2734.0,0.006705686584321612
2733.0,0.006752129419909776
2732.0,0.006805824198508938
2731.0,0.006867449881497054
2730.0,0.006938162499794331
2729.0,0.007019877115611278
2728.0,0.007112555538548846
2727.0,0.007211887912733982
2726.0,0.007309387926704469
2725.0,0.007393578912519686
2724.0,0.007451770784612819
2723.0,0.007473216661976829
2722.0,0.007452589935684746
2721.0,0.0073909577599926245
2720.0,0.007294851068987732
2719.0,0.007175380059518255
2718.0,0.007046441145528085
2717.0,0.006919881678160996
2716.0,0.006801705459372474
2715.0,0.0066932911329013805
2714.0,0.006595253209452911
2713.0,0.0065083145739074
2712.0,0.006430898011161214
2711.0,0.00635896811756662
2710.0,0.006289178394299574
2709.0,0.006220883316284428
2708.0,0.00615523043894651
2707.0,0.006093938872771886
2706.0,0.006038648617527074
2705.0,0.005989367057516553
2704.0,0.005943518481959206
2703.0,0.0058984333501218515
2702.0,0.005854705511651805
2701.0,0.005815210292924267
2700.0,0.005780939531114712
2699.0,0.005750171080370272
2698.0,0.005721947040828112
2697.0,0.005697982500474936
2696.0,0.005680121768996215
2695.0,0.00566770756980543
2694.0,0.005658245619157997
2693.0,0.005649405017960372
2692.0,0.005639886964919644
2691.0,0.005629725842193499
2690.0,0.005620295963079861
2689.0,0.005612981269488585
2688.0,0.00560743420144583
2687.0,0.005601929892109926
2686.0,0.005595348538046122
2685.0,0.005587867352643074
2684.0,0.0055801187530416
2683.0,0.005573027092938421
2682.0,0.005568234121579509
2681.0,0.005566988137016622
2680.0,0.005568159556313598
2679.0,0.005568495851740707
2678.0,0.005565142412146123
2677.0,0.005557388544990596
2676.0,0.005546355769368886
2675.0,0.005533758662049193
2674.0,0.005520654099133289
2673.0,0.005506479474436259
2672.0,0.005489971898158027
2671.0,0.005471943408109917
2670.0,0.005456223977133926
2669.0,0.005446644424459542
2668.0,0.005443729991459657
2667.0,0.005445724046364778
2666.0,0.0054519031908202755
2665.0,0.005463126250738019
2664.0,0.00547969476366528
2663.0,0.005500235052214554
2662.0,0.005522080534804118
2661.0,0.0055413475882048965
2660.0,0.005553594530662171
2659.0,0.005556569054930079
2658.0,0.005552334720551906
2657.0,0.005545144225831489
2656.0,0.005537438809758746
2655.0,0.005529085473554613
2654.0,0.005519331720560777
2653.0,0.005507560678586593
2652.0,0.0054928383172118045
2651.0,0.0054753038789982405
2650.0,0.00545790895117419
2649.0,0.005444712954151725
2648.0,0.005436966165468097
2647.0,0.005432390279753998
2646.0,0.0054278595531562805
2645.0,0.005421297894719342
2644.0,0.0054116375038458205
2643.0,0.005399152338378623
2642.0,0.005385945238938522
2641.0,0.005374186200796749
2640.0,0.005363815990409709
2639.0,0.005353423159939392
2638.0,0.00534304976352837
2637.0,0.005334534948312989
2636.0,0.005329507947173628
2635.0,0.005328620496940693
2634.0,0.005332063738308131
2633.0,0.005339049653014921
2632.0,0.005347430207184016
2631.0,0.005355947120276671
2630.0,0.005366336637550255
2629.0,0.005381260903728935
2628.0,0.0054004994627671644
2627.0,0.005420821730341819
2626.0,0.005438899537260112
2625.0,0.005452842425038185
2624.0,0.005462340185054232
2623.0,0.005469393813436921
2622.0,0.005477680260186099
2621.0,0.0054888770487118675
2620.0,0.005500494663528711
2619.0,0.005509463250309417
2618.0,0.00551609217949109
2617.0,0.0055219802393465
2616.0,0.005526120800014234
2615.0,0.0055264921030953144
2614.0,0.005523814508134111
2613.0,0.005519410698051078
2612.0,0.005510441126501162
2611.0,0.005491999856792285
2610.0,0.005464191769443244
2609.0,0.005433285940191834
2608.0,0.005405186966858073
2607.0,0.005381024182461822
2606.0,0.005359421834638967
2605.0,0.0053393472614555945
2604.0,0.005320107406765363
2603.0,0.005301829916576604
2602.0,0.005286818068805158
2601.0,0.005277794857003711
2600.0,0.005274222526587618
2599.0,0.005272836432145517
2598.0,0.005271776765199251
2597.0,0.005271549746154961
2596.0,0.0052724370931715395
2595.0,0.0052744230627088315
2594.0,0.005279822030243617
2593.0,0.0052923987271355395
2592.0,0.005313059820649389
2591.0,0.005339112414198033
2590.0,0.005368112164427558
2589.0,0.005399585251583543
2588.0,0.005432755788901889
2587.0,0.005465799116981765
2586.0,0.005497786650159176
2585.0,0.005528319180149347
2584.0,0.005554568170605234
2583.0,0.005571543689813236
2582.0,0.005576320344235708
2581.0,0.005569937836505307
2580.0,0.005554708967760717
2579.0,0.005532134696751082
2578.0,0.0055039384774921065
2577.0,0.005472498090863893
2576.0,0.00543913544772369
2575.0,0.0054036312068411006
2574.0,0.0053659199918041625
2573.0,0.005326772635710181
2572.0,0.005287066389858534
2571.0,0.0052485175222569
2570.0,0.005214850120504261
2569.0,0.00518954417499413
2568.0,0.00517190385265872
2567.0,0.005157409985933968
2566.0,0.005142512546888143
2565.0,0.005127537007970629
2564.0,0.005114892351187342
2563.0,0.005106103018593751
2562.0,0.005100400851386325
2561.0,0.005094601310281755
2560.0,0.005085013450078866
2559.0,0.005071291124506539
2558.0,0.005057715822619741
2557.0,0.0050489061560038285
2556.0,0.00504502788666913
2555.0,0.005042839132714537
2554.0,0.005040018988911928
2553.0,0.0050358804439440555
2552.0,0.005029047307764826
2551.0,0.005017761957646088
2550.0,0.005002639752025756
2549.0,0.004987078147962052
2548.0,0.004974905832185236
2547.0,0.004968508245745165
2546.0,0.004967728161801218
2545.0,0.0049687726948606575
2544.0,0.004965907982889897
2543.0,0.004956740397375199
2542.0,0.004944814748489093
2541.0,0.0049352967433865
2540.0,0.004929960628336143
2539.0,0.004928335226477531
2538.0,0.004930758951778413
2537.0,0.004936831120051178
2536.0,0.004943067769184832
2535.0,0.004945884279060195
2534.0,0.004945363153938802
2533.0,0.004942721421328784
2532.0,0.004936192558143808
2531.0,0.0049239731841023366
2530.0,0.004910022764988306
2529.0,0.004901977081281215
2528.0,0.004902797732608865
2527.0,0.004907814619361659
2526.0,0.004910186702226744
2525.0,0.004906377526883207
2524.0,0.004896555482098309
2523.0,0.0048829266912057065
2522.0,0.004868294893758648
2521.0,0.004854245268385857
2520.0,0.0048406077729037525
2519.0,0.004827577605347595
2518.0,0.004816438259798738
2517.0,0.004806156246532147
2516.0,0.004791781484905133
2515.0,0.00476981734262252
2514.0,0.004743660784853588
2513.0,0.004720298220250531
2512.0,0.004702960886514595
2511.0,0.004690357221557801
2510.0,0.004681261774191736
2509.0,0.004675207007378236
2508.0,0.0046692295809083635
2507.0,0.004658810177666413
2506.0,0.004643252311487612
2505.0,0.00462699884492058
2504.0,0.004614468431001144
2503.0,0.004605606812764804
2502.0,0.004597077561120344
2501.0,0.004586322487023815
2500.0,0.004574363903854836
2499.0,0.00456540512466783
2498.0,0.004562745390506399
2497.0,0.0045641013892154724
2496.0,0.004562894564209919
2495.0,0.0045554267933429066
2494.0,0.0045444952877234145
2493.0,0.004534158201163783
2492.0,0.0045238848664955495
2491.0,0.004510809850211779
2490.0,0.004495147086030025
2489.0,0.0044796024142883745
2488.0,0.004464956948488582
2487.0,0.004449727742025868
2486.0,0.004433331853985981
2485.0,0.004416852274384398
2484.0,0.004401544713198371
2483.0,0.004388530170848619
2482.0,0.004378371605143219
2481.0,0.004369057797584321
2480.0,0.004356563926290964
2479.0,0.004339567404659858
2478.0,0.004321252203193205
2477.0,0.004304382680587415
2476.0,0.004287697988662418
2475.0,0.004269851338898388
2474.0,0.004253263746855654
2473.0,0.004240194291930192
2472.0,0.004228183896701634
2471.0,0.004214005676895391
2470.0,0.004199777972118577
2469.0,0.00419049451619928
2468.0,0.004187113825122231
2467.0,0.004186366381283545
2466.0,0.004185985672669932
2465.0,0.004186043726599615
2464.0,0.0041863008082448265
2463.0,0.004186070941795092
2462.0,0.00418585320416083
2461.0,0.0041859952605405966
2460.0,0.004185024278478838
2459.0,0.004182160611327078
2458.0,0.004179705320586995
2457.0,0.004179916025182511
2456.0,0.00418143198125143
2455.0,0.004181834976374883
2454.0,0.00418155650592361
2453.0,0.004181899316731039
2452.0,0.004181377290274095
2451.0,0.004177598893381504
2450.0,0.004170842997827884
2449.0,0.004162471746940492
2448.0,0.004152104817190387
2447.0,0.004139919392657249
2446.0,0.004129330923101747
2445.0,0.0041234444947603815
2444.0,0.004120838669324832
2443.0,0.004118464127124006
2442.0,0.0041165546916625525
2441.0,0.004117126058860488
2440.0,0.004119928958517198
2439.0,0.004123375558618808
2438.0,0.004126934089583877
2437.0,0.0041292458718294655
2436.0,0.004127099700997092
2435.0,0.004120266247875803
2434.0,0.004114086353940276
2433.0,0.004112877368530732
2432.0,0.00411393244473382
2431.0,0.004112700545262399
2430.0,0.004110321812376173
2429.0,0.004110257557270616
2428.0,0.004110378897336262
2427.0,0.004104866932389587
2426.0,0.004092482446790253
2425.0,0.004077340970820258
2424.0,0.0040628246127319915
2423.0,0.004049935577828888
2422.0,0.004040118388566194
2421.0,0.004033962588550925
2420.0,0.004027949195630276
2419.0,0.0040178500864014415
2418.0,0.004004927137427099
2417.0,0.003994328010509816
2416.0,0.003988241885439353
2415.0,0.003984789098275045
2414.0,0.003982320930857911
2413.0,0.003980245087640538
2412.0,0.003976809344227065
2411.0,0.003970695934988822
2410.0,0.003963712609108659
2409.0,0.003957274192621569
2408.0,0.0039474108200768365
2407.0,0.003928677802182912
2406.0,0.003902843822248029
2405.0,0.0038788428312155256
2404.0,0.003863847405850355
2403.0,0.0038580547076000936
2402.0,0.0038574975926534477
2401.0,0.003857893724165221
2400.0,0.003856089086895653
2399.0,0.0038515710280185352
2398.0,0.003846739040609202
2397.0,0.003843192703393402
2396.0,0.0038388119558157375
2395.0,0.0038313778532045335
2394.0,0.003823263426538258
2393.0,0.003818743647930024
2392.0,0.0038181965904339338
2391.0,0.0038188455453526376
2390.0,0.0038202549373791443
2389.0,0.003825460601011292
2388.0,0.0038373056795421648
2387.0,0.0038565527632919904
2386.0,0.003881963318469508
2385.0,0.0039082024069172746
2384.0,0.003924405431444876
2383.0,0.0039187386037322375
2382.0,0.0038847896838514586
2381.0,0.003822322448119546
2380.0,0.003734999369091916
2379.0,0.003632491024870374
2378.0,0.0035328429618212967
2377.0,0.0034554103957727027
2376.0,0.0034109793782760695
2375.0,0.0034023016023328467
2374.0,0.003428545626811083
2373.0,0.003479900762313303
2372.0,0.0035315551580624178
2371.0,0.003559552541030387
2370.0,0.0035641751658735885
2369.0,0.003563129753880176
2368.0,0.0035623230695778973
2367.0,0.00355235597255927
2366.0,0.0035327733194851557
2365.0,0.0035178777992030856
2364.0,0.003515354505446584
2363.0,0.0035212884624833806
2362.0,0.0035327476674934166
2361.0,0.003549002380763883
2360.0,0.0035693617644823846
2359.0,0.0035898600094524764
2358.0,0.0035939999912545867
2357.0,0.00355543061520923
2356.0,0.003464331893867906
2355.0,0.0033564620851193718
2354.0,0.003273495749018045
2353.0,0.0032359072418582943
2352.0,0.0032500363731051037
2351.0,0.0033128289926720737
2350.0,0.0034007031339471057
2349.0,0.0034704670315790923
2348.0,0.003495819456546953
2347.0,0.0034867190265845654
2346.0,0.003480762268590713
2345.0,0.003506725165443052
2344.0,0.0035486580110261406
2343.0,0.0035784852305913812
2342.0,0.0035672603895165987
2341.0,0.003515689601411255
2340.0,0.003461442770871969
2339.0,0.0034429706390941826
2338.0,0.0034635565670142207
2337.0,0.003489016784200275
2336.0,0.0034950618156005643
2335.0,0.003482342082306556
2334.0,0.0034662868084708847
2333.0,0.0034487478729984256
2332.0,0.003436056116758128
2331.0,0.00343538036379395
2330.0,0.003469625285570403
2329.0,0.0035426158478298357
2328.0,0.003656333936135058
2327.0,0.00379850556236394
2326.0,0.0039482234994373
2325.0,0.004066180598454416
2324.0,0.004109902802366276
2323.0,0.0040694990169785035
2322.0,0.003981142208347742
2321.0,0.003899303787932672
2320.0,0.003854824296643942
2319.0,0.0038413458459992406
2318.0,0.0038453694207244244
2317.0,0.0038514867837545477
2316.0,0.0038555991997037834
2315.0,0.0038538594965082237
2314.0,0.003856589489226782
2313.0,0.003866442334471416
2312.0,0.0038846077431837272
2311.0,0.0039036107217533525
2310.0,0.003926248172157021
2309.0,0.003950901734185884
2308.0,0.003973083878077713
2307.0,0.00398346718080136
2306.0,0.003986154884271326
2305.0,0.003990779856472311
2304.0,0.004005475935500976
2303.0,0.004026862333802249
2302.0,0.004051158372095581
2301.0,0.004072933061803192
2300.0,0.004090246921767601
2299.0,0.004100250835389956
2298.0,0.004106524856379652
2297.0,0.004110365960867342
2296.0,0.004112400084710707
2295.0,0.004112564061931695
2294.0,0.004117177036933887
2293.0,0.004130790814723875
2292.0,0.004150940363108114
2291.0,0.004170687045168874
2290.0,0.004186982638589964
2289.0,0.0042006099010667534
2288.0,0.004211070487284295
2287.0,0.004217717531946602
2286.0,0.004221055453466277
2285.0,0.004220367992765997
2284.0,0.004211610997116768
2283.0,0.004195769606005348
2282.0,0.0041819395992920404
2281.0,0.004176710948274231
2280.0,0.004173820893544215
2279.0,0.004164254750637862
2278.0,0.004150784294410772
2277.0,0.0041426370449743925
2276.0,0.004140346867209301
2275.0,0.004136509268738292
2274.0,0.0041300568288402785
2273.0,0.0041272668074229055
2272.0,0.004131322900753606
2271.0,0.004139170787439023
2270.0,0.004148011494373921
2269.0,0.004154551143389704
2268.0,0.004150990783926734
2267.0,0.00413164653084969
2266.0,0.004103224126894506
2265.0,0.004079629777025321
2264.0,0.004068198128730336
2263.0,0.004068468769732537
2262.0,0.004080278494053147
2261.0,0.004103651340403067
2260.0,0.004132374379860253
2259.0,0.004157888094772932
2258.0,0.0041759233993020175
2257.0,0.0041825960390799175
2256.0,0.004169490463516156
2255.0,0.004134002676089217
2254.0,0.004091293526370457
2253.0,0.004063114018700401
2252.0,0.004056948077804926
2251.0,0.004063441874830683
2250.0,0.004072020842326496
2249.0,0.004077642016682896
2248.0,0.004077868604927849
2247.0,0.004072916539423638
2246.0,0.00406793973064169
2245.0,0.004066276969719586
2244.0,0.004064883767061834
2243.0,0.0040631651843593755
2242.0,0.004068471472583813
2241.0,0.004082776863854997
2240.0,0.004092655847191146
2239.0,0.004086144287078902
2238.0,0.004072148325727566
2237.0,0.004069120214404508
2236.0,0.004080326367101971
2235.0,0.00409485841410362
2234.0,0.0041075214957583565
2233.0,0.004121251498085192
2232.0,0.004133875354200455
2231.0,0.0041387311110988685
2230.0,0.00413698521793053
2229.0,0.004135330840093612
2228.0,0.004133637796671116
2227.0,0.004127236235781445
2226.0,0.0041182285119303694
2225.0,0.004111869882805938
2224.0,0.004106025967844774
2223.0,0.0040973144569404945
2222.0,0.00409273763159618
2221.0,0.00410096990188955
2220.0,0.0041160818613617915
2219.0,0.0041245138488681075
2218.0,0.0041245852060009984
2217.0,0.004125133236999897
2216.0,0.004128820993126011
2215.0,0.004129891129901807
2214.0,0.004124614905648159
2213.0,0.004112321869624295
2212.0,0.004091725548596722
2211.0,0.004068050601224833
2210.0,0.004055793182119395
2209.0,0.00406123459707236
2208.0,0.004071590613459988
2207.0,0.004075929670209128
2206.0,0.004085711273597253
2205.0,0.0041166781188867844
2204.0,0.004160348925023844
2203.0,0.004193955730550896
2202.0,0.0042103783485437475
2201.0,0.004217246387214391
2200.0,0.00421550868314523
2199.0,0.004201046979458999
2198.0,0.004182772327335336
2197.0,0.0041770760163172636
2196.0,0.004185443630462319
2195.0,0.004196365883374384
2194.0,0.00420619685645329
2193.0,0.004220322456503168
2192.0,0.004238392634701127
2191.0,0.0042564295846290985
2190.0,0.004277971014260948
2189.0,0.00430482245914731
2188.0,0.004323830818126933
2187.0,0.004322752554490266
2186.0,0.004311280442517807
2185.0,0.004304603962075307
2184.0,0.004293119100722096
2183.0,0.004254634613301306
2182.0,0.004194399707947983
2181.0,0.004146834349058664
2180.0,0.004135415351565263
2179.0,0.004151880902446308
2178.0,0.004174506537261932
2177.0,0.004186420813964322
2176.0,0.004179439045453894
2175.0,0.004160184634764879
2174.0,0.004150755993935975
2173.0,0.0041680198230649125
2172.0,0.004206817833828715
2171.0,0.004256207683135272
2170.0,0.004319419112940715
2169.0,0.00440004617338278
2168.0,0.004481056660892914
2167.0,0.004538913425799402
2166.0,0.004572133086812544
2165.0,0.0045987077059857235
2164.0,0.00463232067920122
2163.0,0.004671719696412364
2162.0,0.00469132803988106
2161.0,0.004623412739981407
2160.0,0.004387752719373206
2159.0,0.003994754019508987
2158.0,0.0035944975188598937
2157.0,0.003352342313717439
2156.0,0.0032953047920585873
2155.0,0.0033352099274291318
2154.0,0.0033953086496920967
2153.0,0.003455795651070413
2152.0,0.0035147764217255215
2151.0,0.003562423448731839
2150.0,0.003592935822135454
2149.0,0.0036084001385064133
2148.0,0.0036074327674948687
2147.0,0.003589856612886524
2146.0,0.0035682054222272545
2145.0,0.0035552851249197547
2144.0,0.00354678153562616
2143.0,0.0035338319833736376
2142.0,0.003522438482814992
2141.0,0.0035215280913518865
2140.0,0.0035234515935934764
2139.0,0.0035161921125570527
2138.0,0.0035025002950363235
2137.0,0.0034859221979226924
2136.0,0.0034517566340007072
2135.0,0.00338775396067071
2134.0,0.0033149605800219684
2133.0,0.003271504091723877
2132.0,0.003271024810123651
2131.0,0.003297214533753626
2130.0,0.0033318252809537065
2129.0,0.0033658975069787585
2128.0,0.003392216861544115
2127.0,0.0034074353021768347
2126.0,0.0034191530756758856
2125.0,0.0034347970110980355
2124.0,0.003447806146974478
2123.0,0.003449692374187591
2122.0,0.003449547160274759
2121.0,0.0034646900361301742
2120.0,0.0034957595322382107
2119.0,0.0035283860387939443
2118.0,0.0035557319534214064
2117.0,0.0035831030436637937
2116.0,0.0036122291101742003
2115.0,0.0036374751645301432
2114.0,0.0036567484839782434
2113.0,0.003671789358940296
2112.0,0.0036785011824519943
2111.0,0.003670633977013214
2110.0,0.003652579675196548
2109.0,0.003636264893923949
2108.0,0.003626343341153104
2107.0,0.0036194674535676916
2106.0,0.0036145414513919813
2105.0,0.0036119927730310984
2104.0,0.0036075333610150217
2103.0,0.0035994189541440585
2102.0,0.003596274324658474
2101.0,0.003604334953683268
2100.0,0.003612807921318642
2099.0,0.003605879488323031
2098.0,0.003582183874361024
2097.0,0.003549011584862369
2096.0,0.003507157992304183
2095.0,0.0034598813868819975
2094.0,0.0034275668842414127
2093.0,0.0034303798480182736
2092.0,0.003461074840309589
2091.0,0.0034939437946120977
2090.0,0.003515812344132718
2089.0,0.0035315001344583203
2088.0,0.003545178936114771
2087.0,0.0035561130204396934
2086.0,0.003568632390248502
2085.0,0.0035869816314911536
2084.0,0.0036027304594212035
2083.0,0.003605672781594224
2082.0,0.0036039489648007034
2081.0,0.0036144230780305073
2080.0,0.0036355294675288587
2079.0,0.003649361572344169
2078.0,0.0036492758635074418
2077.0,0.0036451931891242316
2076.0,0.003643206706065291
2075.0,0.0036393038626558348
2074.0,0.0036335110694892423
2073.0,0.0036307345654844935
2072.0,0.0036278763194423622
2071.0,0.003618296982775096
2070.0,0.0036074047632549257
2069.0,0.0036056671988747664
2068.0,0.0036089061603654655
2067.0,0.003605390608431304
2066.0,0.003598644865236099
2065.0,0.003601735362642567
2064.0,0.003611541319784117
2063.0,0.003611369747841656
2062.0,0.0035969350221353715
2061.0,0.0035785781131786754
2060.0,0.003563648951915615
2059.0,0.0035570707320983965
2058.0,0.0035711164301701044
2057.0,0.0036086838589220434
2056.0,0.003644969637001317
2055.0,0.0036576520290814486
2054.0,0.0036713382029860027
2053.0,0.003734507480322968
2052.0,0.00384886734523823
2051.0,0.003954544141984457
2050.0,0.003992527706946
2049.0,0.003959667630856315
2048.0,0.003896370273544149
2047.0,0.0038418108576315857
2046.0,0.0038152862483214157
2045.0,0.003817370891023599
2044.0,0.003828994759887864
2043.0,0.003827287210683882
2042.0,0.0038143214214134075
2041.0,0.003815500246685254
2040.0,0.0038445232536126993
2039.0,0.0038882825215100503
2038.0,0.003927226743452315
2037.0,0.003946353316829046
2036.0,0.003929423028086074
2035.0,0.0038711396274884622
2034.0,0.003797673650427741
2033.0,0.0037488271194736703
2032.0,0.003734692949912841
2031.0,0.0037344377182393826
2030.0,0.0037340913673261427
2029.0,0.003734650868571813
2028.0,0.003728695828548161
2027.0,0.0037045810866151944
2026.0,0.003675215045721314
2025.0,0.0036694104633166955
2024.0,0.003690194797961715
2023.0,0.0037109421877067933
2022.0,0.0037147826833231552
2021.0,0.0037102237050401737
2020.0,0.0037060882646952776
2019.0,0.00369671934880338
2018.0,0.003676035170793979
2017.0,0.00364670310217689
2016.0,0.0036147742454688382
2015.0,0.003590761321785206
2014.0,0.003590811274615494
2013.0,0.0036191341707586693
2012.0,0.0036552366001375114
2011.0,0.003675503770137832
2010.0,0.003675149823956217
2009.0,0.0036514615572264693
2008.0,0.0035882116864652982
2007.0,0.0034862168899227023
2006.0,0.0033902858948129887
2005.0,0.003349974866440818
2004.0,0.0033645762079725595
2003.0,0.0033976773680170157
2002.0,0.003428306773402445
2001.0,0.0034571370823890855
2000.0,0.0034801050469024375
1999.0,0.0034910004078924704
1998.0,0.003502131175623759
1997.0,0.003530748114845707
1996.0,0.0035695564375889635
1995.0,0.0035968360846017904
1994.0,0.0036086294224500115
1993.0,0.003617023899221417
1992.0,0.0036255492627810322
1991.0,0.0036328870390157433
1990.0,0.0036507718300516955
1989.0,0.0036881200198754277
1988.0,0.0037286160409946687
1987.0,0.0037503078308916402
1986.0,0.0037579199074360067
1985.0,0.0037713698964324223
1984.0,0.0037962929434999255
1983.0,0.003833693149037763
1982.0,0.003898463108450565
1981.0,0.003988488551730147
1980.0,0.004047613457754105
1979.0,0.004006947736939276
1978.0,0.003869162405422775
1977.0,0.003713086370100113
1976.0,0.003604922361218518
1975.0,0.003548355127763844
1974.0,0.0035232574599152154
1973.0,0.003515380034324641
1972.0,0.003505636292530077
1971.0,0.0034792723426307066
1970.0,0.0034494928199344994
1969.0,0.003437558977819722
1968.0,0.0034331359843298654
1967.0,0.003411150605505595
1966.0,0.003383448476385193
1965.0,0.003385471079677818
1964.0,0.0034159294324855485
1963.0,0.003435664614927851
1962.0,0.0034200351516418493
1961.0,0.003379422417777353
1960.0,0.0033317670208545245
1959.0,0.003286590411653715
1958.0,0.003255937463082388
1957.0,0.003248669769441012
1956.0,0.0032524502610524722
1955.0,0.0032470771608660064
1954.0,0.003232820629058401
1953.0,0.003222583417104205
1952.0,0.0032146036498760682
1951.0,0.003199168869213543
1950.0,0.0031835682009646845
1949.0,0.0031832000662539435
1948.0,0.00319357583007978
1947.0,0.003197255415799943
1946.0,0.0031931815629208226
1945.0,0.003193651442208995
1944.0,0.0031975713429118285
1943.0,0.00319283144693445
1942.0,0.0031835212438999566
1941.0,0.0031847749427954537
1940.0,0.0031910447612589214
1939.0,0.003184193034780034
1938.0,0.0031659293753913487
1937.0,0.003154261731601895
1936.0,0.003152822069028192
1935.0,0.0031480980783739868
1934.0,0.003135743369344645
1933.0,0.00312563256282002
1932.0,0.003121808483574732
1931.0,0.0031188604325070785
1930.0,0.003116282426819615
1929.0,0.0031179512840706827
1928.0,0.0031196499280526646
1927.0,0.003115120359220934
1926.0,0.0031090735442209434
1925.0,0.0031084434000072034
1924.0,0.003107546007515875
1923.0,0.00309895917236914
1922.0,0.0030950519480399848
1921.0,0.00311200710655181
1920.0,0.003139746430930637
1919.0,0.003151989577121084
1918.0,0.003139061865591747
1917.0,0.0031186340082330114
1916.0,0.0031077974437442504
1915.0,0.0031053723847906936
1914.0,0.0031089690230558745
1913.0,0.0031199559267477543
1912.0,0.003131478367523575
1911.0,0.0031324095986869443
1910.0,0.00312340707422065
1909.0,0.003115083455295704
1908.0,0.003110906128729736
1907.0,0.0031069257064992727
1906.0,0.003104562636416946
1905.0,0.0031081617892183624
1904.0,0.003113797226072878
1903.0,0.0031143869255910203
1902.0,0.003112436131789252
1901.0,0.003114079916117645
1900.0,0.0031153540768322193
1899.0,0.003109526339208341
1898.0,0.0031022598871856856
1897.0,0.0031033525205741326
1896.0,0.0031083049662783036
1895.0,0.00310448753923716
1894.0,0.003093516428771531
1893.0,0.00308697078182875
1892.0,0.0030842814302379467
1891.0,0.0030749000636538836
1890.0,0.00305716449994016
1889.0,0.0030417763865303233
1888.0,0.003034996155757243
1887.0,0.003031538730707672
1886.0,0.0030287166781625477
1885.0,0.0030302803620770287
1884.0,0.0030342963256801557
1883.0,0.003034162344635559
1882.0,0.0030307710337946926
1881.0,0.0030301648743049723
1880.0,0.0030304221091337125
1879.0,0.003024853581344959
1878.0,0.003015553600811284
1877.0,0.0030100499871532982
1876.0,0.003008158282596914
1875.0,0.0030058359468577156
1874.0,0.003006921180648716
1873.0,0.0030171989721318195
1872.0,0.003031369773044753
1871.0,0.00303900051348366
1870.0,0.0030371459469278137
1869.0,0.0030271921163295377
1868.0,0.003009593929876338
1867.0,0.0029909772429969348
1866.0,0.002982090006838285
1865.0,0.0029873528562601843
1864.0,0.0029996184255977358
1863.0,0.0030079071527513122
1862.0,0.003009595859672562
1861.0,0.0030078470136188245
1860.0,0.003001413248198765
1859.0,0.002989402640825928
1858.0,0.00298084720632809
1857.0,0.0029847806980398206
1856.0,0.0029952713141529917
1855.0,0.0029999111534972523
1854.0,0.002998561840789014
1853.0,0.0030006963127492156
1852.0,0.0030069696784794067
1851.0,0.0030093295806113743
1850.0,0.0030069128196816676
1849.0,0.0030048309617555376
1848.0,0.0030014562510043263
1847.0,0.0029923411159633634
1846.0,0.00298381175565813
1845.0,0.002984704980136403
1844.0,0.0029876944189373656
1843.0,0.002983818184377004
1842.0,0.0029807361706364077
1841.0,0.0029865357354937577
1840.0,0.002998443708374192
1839.0,0.0030066394796241427
1838.0,0.0030064502295062195
1837.0,0.0030025076940396918
1836.0,0.0029989605442830177
1835.0,0.0029954493749482277
1834.0,0.002994283547193728
1833.0,0.0029992997031721294
1832.0,0.0030071561610364905
1831.0,0.0030086934586567517
1830.0,0.0030004332061303357
1829.0,0.002991975817975576
1828.0,0.0029891916403950564
1827.0,0.0029849035459687534
1826.0,0.0029804288311369655
1825.0,0.002985235148723779
1824.0,0.0029978958533364106
1823.0,0.003010004781354546
1822.0,0.0030194414232229375
1821.0,0.0030277952012225545
1820.0,0.0030287795844452636
1819.0,0.0030146267935567744
1818.0,0.0029932659196298885
1817.0,0.002983793077280421
1816.0,0.0029951204679790656
1815.0,0.0030213751996724728
1814.0,0.0030564877249954973
1813.0,0.00309723356269306
1812.0,0.0031338242792089644
1811.0,0.0031559436128079164
1810.0,0.003168333416600704
1809.0,0.0031830795967481658
1808.0,0.0032017428140531943
1807.0,0.003220181745382913
1806.0,0.0032405574367767795
1805.0,0.0032659404493844777
1804.0,0.003291019023349128
1803.0,0.0033080242024039024
1802.0,0.0033183812558614722
1801.0,0.00332809839281965
1800.0,0.0033378706887343206
1799.0,0.003348046130837028
1798.0,0.003361553185458882
1797.0,0.0033765912818300788
1796.0,0.0033835708662556655
1795.0,0.0033762483976386855
1794.0,0.0033615750882579902
1793.0,0.003348120029399833
1792.0,0.0033305825365445582
1791.0,0.00330768177073272
1790.0,0.0032930182919995526
1789.0,0.003290167887900623
1788.0,0.00328865643337532
1787.0,0.0032789925454662725
1786.0,0.0032634581821933905
1785.0,0.003251204873857627
1784.0,0.0032440394490826896
1783.0,0.003233797890593932
1782.0,0.0032162534732674514
1781.0,0.0031948366959695103
1780.0,0.0031716502325572697
1779.0,0.0031489658719095733
1778.0,0.003131474159520296
1777.0,0.003121388746668596
1776.0,0.0031140971786736337
1775.0,0.003104596784495703
1774.0,0.003098897141960424
1773.0,0.0031028446550496937
1772.0,0.003101249606644975
1771.0,0.0030828281953079583
1770.0,0.0030611600858297377
1769.0,0.003049516363302828
1768.0,0.003050033260891388
1767.0,0.003055819690261401
1766.0,0.0030627102114037133
1765.0,0.0030698471015216215
1764.0,0.003076933245560448
1763.0,0.003083341241277696
1762.0,0.00309088126945503
1761.0,0.0031064114831922934
1760.0,0.003128397273298987
1759.0,0.0031452166773986026
1758.0,0.0031571190590351022
1757.0,0.0031758914264096963
1756.0,0.003203847995698386
1755.0,0.003232408278523585
1754.0,0.0032583544528516054
1753.0,0.0032917769126565607
1752.0,0.003339199387579635
1751.0,0.0033875280269569474
1750.0,0.0034261211294085575
1749.0,0.003462478002560042
1748.0,0.0034971198467143366
1747.0,0.003522655735498176
1746.0,0.0035439828763703914
1745.0,0.0035690707735843183
1744.0,0.003591854962154609
1743.0,0.003601569921903055
1742.0,0.0036064797327344505
1741.0,0.0036262931023770496
1740.0,0.0036606040503964093
1739.0,0.00368692452973433
1738.0,0.003695678530067063
1737.0,0.003697663620742004
1736.0,0.0037094463001566013
1735.0,0.003737705192499887
1734.0,0.003763728139464876
1733.0,0.0037830297677733304
1732.0,0.003801772568281277
1731.0,0.0038041010517516683
1730.0,0.0038001144335461866
1729.0,0.0038126345950334787
1728.0,0.0038438086439588513
1727.0,0.003876464414698042
1726.0,0.003902983075131588
1725.0,0.00392630866915875
1724.0,0.003940480981522202
1723.0,0.003932839849002444
1722.0,0.0039042274505480612
1721.0,0.0038684939880447196
1720.0,0.003837704164303783
1719.0,0.0038180424787448613
1718.0,0.0038083550982384966
1717.0,0.0038030891677146997
1716.0,0.0037986581023461852
1715.0,0.003790134777157515
1714.0,0.003785720718258396
1713.0,0.003798871594883139
1712.0,0.003822629026344046
1711.0,0.0038412130033264923
1710.0,0.0038542153741315307
1709.0,0.0038724691006267855
1708.0,0.003896081851737737
1707.0,0.0039178142506580615
1706.0,0.003938633335222119
1705.0,0.0039618757412943125
1704.0,0.00397807158845339
1703.0,0.003975757732871561
1702.0,0.003976218281413716
1701.0,0.004026065482680231
1700.0,0.0041166378899374165
1699.0,0.00418336419312972
1698.0,0.004210232181780869
1697.0,0.004223308125128256
1696.0,0.004250087178162677
1695.0,0.004294499880737135
1694.0,0.00434770479839037
1693.0,0.004391312217774628
1692.0,0.004427654400771264
1691.0,0.004467159310901815
1690.0,0.004510394523392227
1689.0,0.004550809542423645
1688.0,0.004579368477087406
1687.0,0.004595286395249509
1686.0,0.004619562236745923
1685.0,0.004676695131973379
1684.0,0.004734489730724097
1683.0,0.004766643600493276
1682.0,0.0048041402332754226
1681.0,0.004844641038457658
1680.0,0.004885677139911588
1679.0,0.004919915252253082
1678.0,0.004948640551717614
1677.0,0.0049863153167316624
1676.0,0.0050438387686388446
1675.0,0.005105916707645733
1674.0,0.005157233790288789
1673.0,0.005200363114648202
1672.0,0.00523761767934937
1671.0,0.005272556743697744
1670.0,0.005307565033421112
1669.0,0.005348739919437291
1668.0,0.005397576048383648
1667.0,0.005440635139915836
1666.0,0.005474282619491871
1665.0,0.005512904967739896
1664.0,0.005564627714898352
1663.0,0.005614437269157352
1662.0,0.005649910421059003
1661.0,0.005685056048144571
1660.0,0.0057259972924868395
1659.0,0.005764462894436494
1658.0,0.005795101745494697
1657.0,0.005816519960505779
1656.0,0.005827367980757847
1655.0,0.005839183944670527
1654.0,0.005860476397121616
1653.0,0.005873275195874494
1652.0,0.005915166404251901
1651.0,0.005969363496089057
1650.0,0.005974797427493653
1649.0,0.005972155313683874
1648.0,0.005982458509360016
1647.0,0.005973837636638159
1646.0,0.0059398786392643385
1645.0,0.0059359622646329826
1644.0,0.005953075288005373
1643.0,0.005960494712012419
1642.0,0.0059619120715912405
1641.0,0.005972902594493932
1640.0,0.005991473857381241
1639.0,0.00600404299587825
1638.0,0.006012640725159293
1637.0,0.0060336211749555295
1636.0,0.006054543592274671
1635.0,0.006053569881382533
1634.0,0.006055428830126604
1633.0,0.006059232874028061
1632.0,0.006046669181779629
1631.0,0.006013348326953237
1630.0,0.005962217840390183
1629.0,0.005897344575203477
1628.0,0.005819616811873562
1627.0,0.005735711249697427
1626.0,0.00566097961151505
1625.0,0.005601645428009221
1624.0,0.005542612052164643
1623.0,0.005467816848896122
1622.0,0.005396857768736629
1621.0,0.005352981871429758
1620.0,0.00532419476764589
1619.0,0.005297363923632425
1618.0,0.005277297244741295
1617.0,0.005265489140062372
1616.0,0.005246428833201145
1615.0,0.00521471194489658
1614.0,0.005179172564068979
1613.0,0.005149679624539794
1612.0,0.005125479210507018
1611.0,0.005095224742588598
1610.0,0.005057446355623533
1609.0,0.005021972256642515
1608.0,0.0049900285774892245
1607.0,0.004955863978676456
1606.0,0.004925921093921713
1605.0,0.004909634251020329
1604.0,0.004898451574551053
1603.0,0.0048772043713760154
1602.0,0.0048483689182740415
1601.0,0.004824805607340205
1600.0,0.004805665740639123
1599.0,0.0047825812147929605
1598.0,0.0047597057833305804
1597.0,0.00474566093993387
1596.0,0.004734831092061908
1595.0,0.0047174764773273824
1594.0,0.004700359768496746
1593.0,0.004695131692933006
1592.0,0.004696012920414582
1591.0,0.00469185361135419
1590.0,0.004688310954976493
1589.0,0.0046969388430622054
1588.0,0.004712100611992417
1587.0,0.004720381395041381
1586.0,0.0047226973166027125
1585.0,0.004728092893023606
1584.0,0.004733619679329372
1583.0,0.00473355307060549
1582.0,0.0047380286684040865
1581.0,0.0047569683072922475
1580.0,0.004779061563524871
1579.0,0.0047914085297970045
1578.0,0.0048075632905972
1577.0,0.004848187082742244
1576.0,0.004896488090002263
1575.0,0.0049273835453766636
1574.0,0.004950345304648589
1573.0,0.004974171942903196
1572.0,0.005003482673273253
1571.0,0.005043304017598321
1570.0,0.005097779189318367
1569.0,0.005162537771507661
1568.0,0.005224738278011654
1567.0,0.005278531275087803
1566.0,0.0053416262951917455
1565.0,0.005430539256899795
1564.0,0.005522131539553835
1563.0,0.005583259821741784
1562.0,0.005622114941171704
1561.0,0.005693381323028817
1560.0,0.005872230819889796
1559.0,0.006107623126919946
1558.0,0.0062576567076685465
1557.0,0.006407993291012112
1556.0,0.006548496455446709
1555.0,0.006676891982731638
1554.0,0.006819144158018178
1553.0,0.006980646629075726
1552.0,0.0071365125708785304
1551.0,0.00728009909855585
1550.0,0.007432545114924702
1549.0,0.007600913874080231
1548.0,0.007762227306880986
1547.0,0.007904335399582537
1546.0,0.008056501533349506
1545.0,0.008247941836047558
1544.0,0.008446577526730187
1543.0,0.008603898368092172
1542.0,0.008753989083047278
1541.0,0.008971213500794698
1540.0,0.009209386790686478
1539.0,0.009370537708096047
1538.0,0.009497704971818587
1537.0,0.009616636168449178
1536.0,0.009730263020059582
1535.0,0.009860119188742793
1534.0,0.010034442065125276
1533.0,0.010236042533093912
1532.0,0.010409896497492374
1531.0,0.010545037431792517
1530.0,0.01067490366061879
1529.0,0.010832286993157818
1528.0,0.011011615897328443
1527.0,0.011183646092860563
1526.0,0.011344364505568652
1525.0,0.011508229684435399
1524.0,0.011667130921940971
1523.0,0.011817864806784201
1522.0,0.011988437920060439
1521.0,0.012180318906058382
1520.0,0.012344940239621613
1519.0,0.012471398237984937
1518.0,0.012609896767216756
1517.0,0.012797391918128459
1516.0,0.012982712821453071
1515.0,0.013119111697161824
1514.0,0.013242273671547594
1513.0,0.013397153999587842
1512.0,0.01357059253558445
1511.0,0.013715533075012143
1510.0,0.013833877886286629
1509.0,0.013987412633208738
1508.0,0.014211679251663062
1507.0,0.014414529616349887
1506.0,0.0145571754237957
1505.0,0.014741717313752971
1504.0,0.014915218552074156
1503.0,0.015040015599907865
1502.0,0.015160324412185585
1501.0,0.015318419992311627
1500.0,0.015499343268172067
1499.0,0.015660558831112167
1498.0,0.015822309879114017
1497.0,0.016040635888489155
1496.0,0.016274740453483198
1495.0,0.016443643474995717
1494.0,0.016575360874372617
1493.0,0.01673854703931602
1492.0,0.016943296572664683
1491.0,0.017153986541038984
1490.0,0.017366031755810033
1489.0,0.017607634197800287
1488.0,0.017857863062557218
1487.0,0.01808843444029897
1486.0,0.018329773674446503
1485.0,0.018610638373163905
1484.0,0.018905769036072377
1483.0,0.01918906878079439
1482.0,0.0194856438436186
1481.0,0.019819256377667183
1480.0,0.02015464923670855
1479.0,0.02047130498647403
1478.0,0.020836703598784766
1477.0,0.021328322598325265
1476.0,0.02191408794242296
1475.0,0.02254298777338767
1474.0,0.02336247950680076
1473.0,0.024599630922106073
1472.0,0.02610299538685153
1471.0,0.027513714930584
1470.0,0.02883558102133944
1469.0,0.03023224313309724
1468.0,0.0317627267168349
1467.0,0.03346570526109293
1466.0,0.03547254674106945
1465.0,0.03776274126644528
1464.0,0.039869330141038245
1463.0,0.041394222177540574
1462.0,0.04244879904493032
1461.0,0.04327223404207939
1460.0,0.043944611921626506
1459.0,0.04447997720028856
1458.0,0.04497728688412418
1457.0,0.04546665547245325
1456.0,0.04575352489146423
1455.0,0.04583173473851112
1454.0,0.045837987766104184
1453.0,0.04577214544325219
1452.0,0.04551212336583445
1451.0,0.04497360308495571
1450.0,0.04411812932711875
1449.0,0.042827105505923245
1448.0,0.04103865289744162
1447.0,0.03903332892679728
1446.0,0.03719910229278882
1445.0,0.03563433620871548
1444.0,0.03426638813159244
1443.0,0.033095308876036844
1442.0,0.032190291319780094
1441.0,0.03156717663091249
1440.0,0.031179997951105327
1439.0,0.03100504943151336
1438.0,0.031044777451024116
1437.0,0.031185772354488585
1436.0,0.03113665028635393
1435.0,0.03074988845867134
1434.0,0.03011495915570344
1433.0,0.029324063603176045
1432.0,0.02846157791681916
1431.0,0.027659005495667913
1430.0,0.027025848249254636
1429.0,0.02657306337824329
1428.0,0.02626821220378206
1427.0,0.026085274202630286
1426.0,0.025982442891449485
1425.0,0.02590281671271691
1424.0,0.025817854357916233
1423.0,0.02574892051289305
1422.0,0.025713758503345455
1421.0,0.02569479717883044
1420.0,0.025671583638092795
1419.0,0.025640716827505395
1418.0,0.02560689526924893
1417.0,0.025569509040445398
1416.0,0.025530632211448683
1415.0,0.02550284665230231
1414.0,0.025483281480819478
1413.0,0.025447467510864817
1412.0,0.025383585432382838
1411.0,0.02530844273374425
1410.0,0.02523470931111762
1409.0,0.02514938000905743
1408.0,0.02504277759408825
1407.0,0.024924728463293053
1406.0,0.024793858922453872
1405.0,0.02462504728810663
1404.0,0.024422269431234357
1403.0,0.024234399104962757
1402.0,0.024076833648030718
1401.0,0.023908641825918158
1400.0,0.023696131128858367
1399.0,0.023462721337967823
1398.0,0.023248038007903475
1397.0,0.023040773400214407
1396.0,0.022815235192736597
1395.0,0.022586518110479653
1394.0,0.022384029313626097
1393.0,0.02221073280531404
1392.0,0.02206772998281824
1391.0,0.021974078637997458
1390.0,0.021941225765620253
1389.0,0.02197808661619646
1388.0,0.022147541454030823
1387.0,0.02255885015691329
1386.0,0.02327229969195011
1385.0,0.024332724030181496
1384.0,0.025889741973761232
1383.0,0.02814465180093713
1382.0,0.031208033234804207
1381.0,0.035117932873473014
1380.0,0.039893186267600744
1379.0,0.04527050755286625
1378.0,0.05041177053922866
1377.0,0.05414891465304074
1376.0,0.05540642100850346
1375.0,0.053482579806479594
1374.0,0.04877525469819852
1373.0,0.04299989485756498
1372.0,0.03767029512204652
1371.0,0.03317045722153821
1370.0,0.02938121754782788
1369.0,0.02627786114747003
1368.0,0.023940706515580685
1367.0,0.022349318552658065
1366.0,0.02134951907847294
1365.0,0.020770877721590947
1364.0,0.02049966406461422
1363.0,0.02047609186264027
1362.0,0.02064646734639982
1361.0,0.02090274946057269
1360.0,0.02108487466856972
1359.0,0.021042447384944103
1358.0,0.020688072924969048
1357.0,0.020015363301500635
1356.0,0.01909008328430634
1355.0,0.018033800294823196
1354.0,0.016991353320031228
1353.0,0.01606601681483472
1352.0,0.015279357023278463
1351.0,0.014606188522660253
1350.0,0.014025334485617375
1349.0,0.013526383568873234
1348.0,0.01309422496992751
1347.0,0.012712772219817167
1346.0,0.012375512232715902
1345.0,0.012080045147393779
1344.0,0.011821271577810204
1343.0,0.011595246871903645
1342.0,0.011398821872669853
1341.0,0.011220829837849276
1340.0,0.011045761453625753
1339.0,0.010875814118076697
1338.0,0.010732954629414808
1337.0,0.010627779953956477
1336.0,0.010551287448338425
1335.0,0.010496313478873726
1334.0,0.010463684606154352
1333.0,0.010448083311265573
1332.0,0.01043190347256543
1331.0,0.01039478177503017
1330.0,0.010322038423703455
1329.0,0.010206259300789652
1328.0,0.010050787747168192
1327.0,0.009871703381689759
1326.0,0.009686968614685263
1325.0,0.009504626876070973
1324.0,0.009328321168819825
1323.0,0.009168279224710764
1322.0,0.009035040437580537
1321.0,0.008925710669982415
1320.0,0.008827659768366948
1319.0,0.008733198814246099
1318.0,0.008641725908849828
1317.0,0.008551137507563544
1316.0,0.008458174221735568
1315.0,0.008364737309463128
1314.0,0.008274918088603587
1313.0,0.008189596003891927
1312.0,0.008112480006234215
1311.0,0.008057541723996212
1310.0,0.008043145203218593
1309.0,0.008083545877698268
1308.0,0.008186062201451414
1307.0,0.008341087963930831
1306.0,0.00850533306868469
1305.0,0.008609530633951118
1304.0,0.008601369180667836
1303.0,0.008484632372131139
1302.0,0.008312651822592028
1301.0,0.008145083841356716
1300.0,0.008015779227062514
1299.0,0.007930486060337694
1298.0,0.007874956647876769
1297.0,0.007823786258984094
1296.0,0.007754659227306915
1295.0,0.007659474806825484
1294.0,0.007541002096562098
1293.0,0.007404124581916418
1292.0,0.007256338116463999
1291.0,0.007110071441790412
1290.0,0.006975177732088963
1289.0,0.006852457957412878
1288.0,0.006740791137835836
1287.0,0.0066442754440726925
1286.0,0.006565395862721816
1285.0,0.00649851908506804
1284.0,0.00643762668002684
1283.0,0.006383397470715912
1282.0,0.006335873007276085
1281.0,0.006287512269187652
1280.0,0.00623147155384457
1279.0,0.006170682928086959
1278.0,0.006111725971610727
1277.0,0.0060556608035572754
1276.0,0.006001362841939221
1275.0,0.005951001656633053
1274.0,0.005905244332655787
1273.0,0.005859559176224111
1272.0,0.0058121441673847215
1271.0,0.005769770598794592
1270.0,0.005739446365475337
1269.0,0.0057204073550226105
1268.0,0.005710053311028168
1267.0,0.005710199212531951
1266.0,0.0057218457608461636
1265.0,0.005741469336804845
1264.0,0.005768678525094205
1263.0,0.005810810424774433
1262.0,0.005874864458544858
1261.0,0.005961845490436741
1260.0,0.006072669565948631
1259.0,0.006208566856811596
1258.0,0.006356623622055778
1257.0,0.006481325182369858
1256.0,0.006539460563891128
1255.0,0.006505604642713546
1254.0,0.0063857431208224
1253.0,0.0062120464417728645
1252.0,0.006027206251512724
1251.0,0.005866131886075526
1250.0,0.005741563914917716
1249.0,0.005646113884155732
1248.0,0.005569474460209907
1247.0,0.005508318448697662
1246.0,0.005459887366377725
1245.0,0.005417409703411554
1244.0,0.005377545903622333
1243.0,0.005344166575745039
1242.0,0.005319669343642241
1241.0,0.005300337553635236
1240.0,0.005284507918887234
1239.0,0.005276598352495525
1238.0,0.005278081806072562
1237.0,0.005282788949544682
1236.0,0.005286438451479494
1235.0,0.005292733177522226
1234.0,0.005304705941908559
1233.0,0.005317954284354959
1232.0,0.005328276352732649
1231.0,0.005338961710343429
1230.0,0.005355071572355595
1229.0,0.005376955817553179
1228.0,0.005404459264523887
1227.0,0.005441232952604435
1226.0,0.005490136460886362
1225.0,0.005549982111763394
1224.0,0.005620060222517127
1223.0,0.0057009433535360685
1222.0,0.005787022884039599
1221.0,0.0058649782950067
1220.0,0.005923762705414597
1219.0,0.005961325197219149
1218.0,0.0059801787091919726
1217.0,0.005983507625538268
1216.0,0.005978595661814965
1215.0,0.0059766477558973324
1214.0,0.0059845630017516666
1213.0,0.006002380461687761
1212.0,0.006031373689607091
1211.0,0.006077109847135057
1210.0,0.006140683162016064
1209.0,0.006214419121692508
1208.0,0.006290411779247347
1207.0,0.006366893549956422
1206.0,0.006443474254927404
1205.0,0.006517310710147125
1204.0,0.00658777277282677
1203.0,0.006658592032439162
1202.0,0.006731686884582111
1201.0,0.006804107642780993
1200.0,0.0068734764054597195
1199.0,0.006940700039310332
1198.0,0.007005403190265687
1197.0,0.007065049862188286
1196.0,0.007121136759995598
1195.0,0.0071801011716142865
1194.0,0.007245222554311448
1193.0,0.00731331136481397
1192.0,0.007381886192449888
1191.0,0.007453269440102999
1190.0,0.007528707661473221
1189.0,0.007604766533644719
1188.0,0.007679521648602404
1187.0,0.0077573413774102585
1186.0,0.007844030213154524
1185.0,0.00794137063221617
1184.0,0.008049303813348516
1183.0,0.008169385669292257
1182.0,0.00830359065286486
1181.0,0.008453767187244865
1180.0,0.008624604389132394
1179.0,0.008823930741637068
1178.0,0.009059496323027562
1177.0,0.009339979814151696
1176.0,0.009679821203139495
1175.0,0.01009822320147923
1174.0,0.010611317000002372
1173.0,0.01122577653468674
1172.0,0.01193238136090506
1171.0,0.012693506825810115
1170.0,0.013434722643578104
1169.0,0.014059167306778312
1168.0,0.014481350599492843
1167.0,0.014663791724490236
1166.0,0.014633052094545077
1165.0,0.014460907295859323
1164.0,0.014224387338298563
1163.0,0.013978789671502935
1162.0,0.013754466534636018
1161.0,0.013563479932343225
1160.0,0.013406804694745362
1159.0,0.013281100834769938
1158.0,0.013183499180589885
1157.0,0.013112160737767012
1156.0,0.013064086341112693
1155.0,0.013032624094847239
1154.0,0.013005194088080969
1153.0,0.012963074897790096
1152.0,0.012887072656227166
1151.0,0.01276747345986162
1150.0,0.012609411215386996
1149.0,0.01242714181344761
1148.0,0.01223444737729363
1147.0,0.012040819821201587
1146.0,0.011852428225389094
1145.0,0.011673255643931615
1144.0,0.011506285955662922
1143.0,0.01135452900088346
1142.0,0.01121960626065699
1141.0,0.011100301658570223
1140.0,0.010995082097239636
1139.0,0.010905260038167101
1138.0,0.010833057275854098
1137.0,0.010777472264769366
1136.0,0.010734684550735533
1135.0,0.0107013791209149
1134.0,0.01067505841490248
1133.0,0.010652493707714901
1132.0,0.01063121990672052
1131.0,0.01061234889751172
1130.0,0.010599298669781775
1129.0,0.010593774620182015
1128.0,0.010594836764932478
1127.0,0.010601119435886213
1126.0,0.010611485601494577
1125.0,0.010623769584437302
1124.0,0.010635337651164135
1123.0,0.010645504646621782
1122.0,0.010656295300036622
1121.0,0.01067088064025657
1120.0,0.01069229657161732
1119.0,0.010723194438533855
1118.0,0.010765279350746377
1117.0,0.010818674018539493
1116.0,0.010882008339713355
1115.0,0.010952321037418849
1114.0,0.011024590606203677
1113.0,0.011092914513515722
1112.0,0.011153850093790257
1111.0,0.011209133783875492
1110.0,0.011265123534782274
1109.0,0.011329695407399224
1108.0,0.011408928968090166
1107.0,0.011504143797776391
1106.0,0.011608634351285228
1105.0,0.011705954693241961
1104.0,0.011772840866481392
1103.0,0.011787228770668814
1102.0,0.011737582287958483
1101.0,0.011627350718595242
1100.0,0.011472305459415435
1099.0,0.011294944759317601
1098.0,0.011115954412449128
1097.0,0.010947222444552814
1096.0,0.010791951799453508
1095.0,0.01065013024673032
1094.0,0.010521418187426466
1093.0,0.010404624487643593
1092.0,0.010298683617336681
1091.0,0.010204086659372771
1090.0,0.010120321877284604
1089.0,0.010042629217067516
1088.0,0.00996476617770206
1087.0,0.009885017835653818
1086.0,0.009806572937727203
1085.0,0.009731468321184052
1084.0,0.00965625826793845
1083.0,0.009573895058521811
1082.0,0.009478786732941525
1081.0,0.009370896860246721
1080.0,0.009256222016772076
1079.0,0.009142153094176361
1078.0,0.009030987334296298
1077.0,0.008919624660956516
1076.0,0.00880659908247676
1075.0,0.008696097891076067
1074.0,0.008592916483129332
1073.0,0.00849705229627316
1072.0,0.008406393469202219
1071.0,0.008321573548809733
1070.0,0.00824518687650476
1069.0,0.008179241072784593
1068.0,0.008126138381570102
1067.0,0.008089049552770655
1066.0,0.0080686993000211
1065.0,0.008062469387698465
1064.0,0.008068046167654788
1063.0,0.008084356315452877
1062.0,0.008107682302089065
1061.0,0.008131009911519509
1060.0,0.00814929783517374
1059.0,0.008162384687997635
1058.0,0.00817172731980521
1057.0,0.008177821569985184
1056.0,0.00818207626183626
1055.0,0.008187463520044009
1054.0,0.00819523409243264
1053.0,0.00820381314660336
1052.0,0.008212903810718358
1051.0,0.008226002810388744
1050.0,0.008246852757268094
1049.0,0.008275811922676323
1048.0,0.008310279372823297
1047.0,0.008344551205558376
1046.0,0.008368548867144408
1045.0,0.00837127547359911
1044.0,0.00834783469363556
1043.0,0.008302716710174763
1042.0,0.008247122717506893
1041.0,0.008194627859737342
1040.0,0.008157361689329165
1039.0,0.008140990818186322
1038.0,0.008141130589380397
1037.0,0.008147351379160242
1036.0,0.00815133336362562
1035.0,0.008148904369981991
1034.0,0.008136273123320154
1033.0,0.008109807209452785
1032.0,0.00807020558674364
1031.0,0.008022120880473433
1030.0,0.007968342901649871
1029.0,0.007908169298563207
1028.0,0.007842134730916836
1027.0,0.007773615061399895
1026.0,0.0077044450894515025
1025.0,0.007633776775660028
1024.0,0.007563051081438867
1023.0,0.007497310546709728
1022.0,0.007439260709857237
1021.0,0.007386407312890858
1020.0,0.007336467780557304
1019.0,0.00729123874515843
1018.0,0.007252725308216372
1017.0,0.007219950593138213
1016.0,0.007192449979972268
1015.0,0.007172885514392154
1014.0,0.007163432353096865
1013.0,0.007163020183227436
1012.0,0.007170622901542901
1011.0,0.007188486967131771
1010.0,0.0072207500148961
1009.0,0.007272025799209093
1008.0,0.007348597053407834
1007.0,0.007458148647360096
1006.0,0.007608567716635355
1005.0,0.007812280970832173
1004.0,0.008094164637511189
1003.0,0.00849015234469214
1002.0,0.009028276265546038
1001.0,0.009696210199566471
1000.0,0.010408841371530753
999.0,0.011003677424382876
998.0,0.011295340844970898
997.0,0.011172853437232079
996.0,0.010665707276522326
995.0,0.00992392469407066
994.0,0.009130521510839625
993.0,0.008417119387718974
992.0,0.007838555495329053
991.0,0.007396952376644634
990.0,0.0070714251397150495
989.0,0.006836426517531236
988.0,0.0066732215592767334
987.0,0.006571961655770357
986.0,0.00652409053737383
985.0,0.006519107597671904
984.0,0.006552828851912432
983.0,0.006634217132289311
982.0,0.006781320561443839
981.0,0.007015490813713787
980.0,0.007360546450188176
979.0,0.00783744180076389
978.0,0.00845015437029446
977.0,0.009173831613737797
976.0,0.00994833208582535
975.0,0.01067001248725006
974.0,0.011193127134002003
973.0,0.011366378504508638
972.0,0.011104089645061826
971.0,0.010448285441281189
970.0,0.009562582624963142
969.0,0.00864886270838003
968.0,0.007855379910541194
967.0,0.0072417310309139445
966.0,0.006797629829692156
965.0,0.006480865543691409
964.0,0.006249084058119668
963.0,0.0060735917651182705
962.0,0.005937418759474749
961.0,0.0058298696755600165
960.0,0.0057450113992009045
959.0,0.005680178452750278
958.0,0.005631803781813715
957.0,0.005594509867275998
956.0,0.00556553576946929
955.0,0.00554626946356332
954.0,0.005537127686563561
953.0,0.0055345736330631905
952.0,0.005535785952409602
951.0,0.005542719322889859
950.0,0.005558631097206129
949.0,0.005583627689974393
948.0,0.005616364998671062
947.0,0.005657449927267212
946.0,0.005708827111145811
945.0,0.005771996861778175
944.0,0.0058476451611251265
943.0,0.005932834128748978
942.0,0.0060159268392316
941.0,0.0060775995542595
940.0,0.006100646155476811
939.0,0.006079615961328235
938.0,0.0060221172228596565
937.0,0.005943984961173156
936.0,0.0058638536075562376
935.0,0.005797279784136545
934.0,0.005750321717423447
933.0,0.005718539542133979
932.0,0.005694019826872068
931.0,0.005672304464602101
930.0,0.005652375673533779
929.0,0.005633642788731554
928.0,0.005615576767898802
927.0,0.005598281539778263
926.0,0.005581250717357767
925.0,0.0055628440804207455
924.0,0.005542057977668005
923.0,0.005519196844299695
922.0,0.005494370875522672
921.0,0.005467613045904829
920.0,0.0054408410554607324
919.0,0.005416889210757342
918.0,0.005395883143057895
917.0,0.005375278588855363
916.0,0.005353897175304378
915.0,0.005332816709931274
914.0,0.005311897584017689
913.0,0.005289113777329492
912.0,0.005264454550022404
911.0,0.005241331434586224
910.0,0.0052234323425697
909.0,0.005213941073970319
908.0,0.005219267173579519
907.0,0.005250590506127721
906.0,0.005321222804197139
905.0,0.005444944440403017
904.0,0.0056334604623480495
903.0,0.005885029171587177
902.0,0.006169654743823091
901.0,0.006428499838432862
900.0,0.006592540852046008
899.0,0.006608776195320766
898.0,0.006461637921982597
897.0,0.006180492246986751
896.0,0.005828128128278139
895.0,0.005474330241533548
894.0,0.005168172005048988
893.0,0.004927290258113097
892.0,0.004749318736725455
891.0,0.004628821573458505
890.0,0.004564591183945495
889.0,0.004560432747601264
888.0,0.0046251105524274475
887.0,0.004768233215006876
886.0,0.004993533655690575
885.0,0.0052995077216451275
884.0,0.005686792592956146
883.0,0.0061598018884385375
882.0,0.006720505851784884
881.0,0.007363862724436981
880.0,0.008076316354114701
879.0,0.008833522548754347
878.0,0.009604180711063249
877.0,0.010363889110724672
876.0,0.01110268507341243
875.0,0.011809632247898383
874.0,0.012438945017158047
873.0,0.012880083316213495
872.0,0.012968484292740145
871.0,0.01256766263332773
870.0,0.011682591768940712
869.0,0.01049291638573462
868.0,0.009258133201745407
867.0,0.00818307125142487
866.0,0.0073491922604578905
865.0,0.006738586160830185
864.0,0.006300011823684101
863.0,0.005988893979806503
862.0,0.005768994938193746
861.0,0.005609311021587759
860.0,0.005489963464642864
859.0,0.005400134052450891
858.0,0.005326790742956924
857.0,0.0052538057417153726
856.0,0.00517230241621732
855.0,0.005082595591105056
854.0,0.004987338982832092
853.0,0.004893486921818138
852.0,0.004819060059769801
851.0,0.004783164782504282
850.0,0.004785872637611854
849.0,0.004810447940525705
848.0,0.004851707869140655
847.0,0.004938820056378149
846.0,0.005134309908049482
845.0,0.005512146566471756
844.0,0.006105182535564076
843.0,0.006825143460607834
842.0,0.007431423498750067
841.0,0.007641813760357949
840.0,0.007333099970812376
839.0,0.0066414581996543645
838.0,0.005852511522117246
837.0,0.005195927304476288
836.0,0.00474385911309819
835.0,0.004456513049937832
834.0,0.00426837229233818
833.0,0.004131693617782031
832.0,0.00402169626069878
831.0,0.003931240202390341
830.0,0.003860296405371817
829.0,0.003804120207086933
828.0,0.003753967087240303
827.0,0.0037074010099762108
826.0,0.003668631376334059
825.0,0.0036386733502904445
824.0,0.0036147865686934682
823.0,0.0035987927073420573
822.0,0.0035955606323105323
821.0,0.0036045821118926734
820.0,0.0036221523505171075
819.0,0.0036499121052275107
818.0,0.00369539995262653
817.0,0.0037678358540551016
816.0,0.0038784716863009584
815.0,0.004040632774041464
814.0,0.004261548603251747
813.0,0.0045323487771885594
812.0,0.00482578147838951
811.0,0.005099983630086129
810.0,0.005305546753078531
809.0,0.005398788976273103
808.0,0.00535907417528891
807.0,0.005199358467645371
806.0,0.00496030569452628
805.0,0.004692172850887363
804.0,0.0044385805541243524
803.0,0.004227403430134047
802.0,0.004066007546655064
801.0,0.003944452246160423
800.0,0.0038482114753454703
799.0,0.0037679997378241006
798.0,0.0036983973698307545
797.0,0.003634534109730937
796.0,0.0035749791528735964
795.0,0.00352301688520148
794.0,0.003480148249046738
793.0,0.003441939211698902
792.0,0.0034038548084904755
791.0,0.003366562464489001
790.0,0.0033315330781853655
789.0,0.0032958864123759273
788.0,0.0032559689432070773
787.0,0.003212599986382512
786.0,0.0031692965254975615
785.0,0.0031287607230369684
784.0,0.0030938415469955183
783.0,0.003067636123897867
782.0,0.0030494484499905272
781.0,0.0030346232036546792
780.0,0.00302091512770706
779.0,0.0030106201988573467
778.0,0.0030044356580257725
777.0,0.0029985703083875038
776.0,0.002990759964293519
775.0,0.002984154637638556
774.0,0.002982238861892217
773.0,0.0029842235533627387
772.0,0.002987788457041953
771.0,0.002991859903074356
770.0,0.0029949648316919255
769.0,0.002995896233686691
768.0,0.0029976997349326273
767.0,0.0030056141463693483
766.0,0.0030194087207968436
765.0,0.003033320973066499
764.0,0.0030446211439884296
763.0,0.0030557232113794987
762.0,0.0030667638509101593
761.0,0.0030738648875124905
760.0,0.0030775889937743
759.0,0.003085798076271588
758.0,0.0031042574823236654
757.0,0.003130177467076313
756.0,0.0031578097976514936
755.0,0.0031840439271500903
754.0,0.0032056917207070653
753.0,0.0032184033244448745
752.0,0.0032223888328865528
751.0,0.003223650345086499
750.0,0.0032264276821481197
749.0,0.00322968854662993
748.0,0.0032330865172110687
747.0,0.0032396442952747264
746.0,0.0032494069705902738
745.0,0.003257293136676858
744.0,0.0032610623880520006
743.0,0.0032648815573596366
742.0,0.0032712254330824293
741.0,0.0032760759847042667
740.0,0.003276687466806252
739.0,0.003277543901821175
738.0,0.003283705218806229
737.0,0.0032942888400923284
736.0,0.0033073756012466926
735.0,0.003325648464111032
734.0,0.0033521327363314713
733.0,0.0033852890230259627
732.0,0.0034230634724125557
731.0,0.003467587554867568
730.0,0.003521963084266804
729.0,0.0035869676212617147
728.0,0.0036631795387814152
727.0,0.003751440363866072
726.0,0.003849036397539372
725.0,0.003949832035146604
724.0,0.0040513231051504525
723.0,0.004156866655515433
722.0,0.004267220822118858
721.0,0.004373034352010091
720.0,0.004459921453965048
719.0,0.004520643429062313
718.0,0.00455791880549645
717.0,0.0045781654590868045
716.0,0.004589187069421955
715.0,0.004598228149031672
714.0,0.004604310381122579
713.0,0.004596351975875445
712.0,0.004564569795880463
711.0,0.004511030581672701
710.0,0.004445332438280946
709.0,0.0043749777273377095
708.0,0.0043045983534557835
707.0,0.004238862993707909
706.0,0.004180839102982197
705.0,0.00412973054667571
704.0,0.0040848552669302375
703.0,0.004049751223377833
702.0,0.0040265063112655255
701.0,0.004008943334469669
700.0,0.003987443011056027
699.0,0.0039568992242116725
698.0,0.0039177990522291685
697.0,0.0038726630410789087
696.0,0.0038246890215888297
695.0,0.0037782643486047743
694.0,0.0037354416827026678
693.0,0.0036954505373957454
692.0,0.003660650008815859
691.0,0.003635871858804004
690.0,0.0036200978778554247
689.0,0.0036041204556264235
688.0,0.003581755052298445
687.0,0.0035587655944140668
686.0,0.0035425431724834784
685.0,0.003531489845348644
684.0,0.003522297059318829
683.0,0.003517624493147048
682.0,0.0035202594249090138
681.0,0.0035266347429630043
680.0,0.0035323871283272088
679.0,0.0035385180644306336
678.0,0.003546780467162899
677.0,0.0035568413860410323
676.0,0.003566440112050012
675.0,0.0035787187896702917
674.0,0.0035973574503031062
673.0,0.0036142536192629374
672.0,0.003607369442986532
671.0,0.003553962553887343
670.0,0.003442885386461824
669.0,0.0032917074958725622
668.0,0.00320079961531189
667.0,0.003303450939257221
666.0,0.0034898999886709874
665.0,0.003608743882354962
664.0,0.0036524235434640647
663.0,0.0036558693316298286
662.0,0.0036457292000774333
661.0,0.003631242073936717
660.0,0.003613070894676341
659.0,0.0035954930495544456
658.0,0.0035814437853623057
657.0,0.0035666194260111665
656.0,0.003543555844008407
655.0,0.0035146330394131634
654.0,0.0034883275873604756
653.0,0.0034658256779042454
652.0,0.003443511976412226
651.0,0.0034251603845789373
650.0,0.0034175628676410942
649.0,0.0034181472059168884
648.0,0.003419069376578504
647.0,0.0034205022982697836
646.0,0.0034280671866131667
645.0,0.003438641650271853
644.0,0.0034420679890785613
643.0,0.0034338225336240273
642.0,0.0034157741714020582
641.0,0.0033899637383997703
640.0,0.003361820018109889
639.0,0.003344338691982629
638.0,0.0033467169885403334
637.0,0.0033623914637245468
636.0,0.003378463775833583
635.0,0.003389613136233813
634.0,0.003394361191573045
633.0,0.0033903929924042403
632.0,0.003384596795834866
631.0,0.003393100058975744
630.0,0.003416298545098848
629.0,0.0034276526990672162
628.0,0.0034040551455258167
627.0,0.0033557134438892515
626.0,0.003310927111171775
625.0,0.003276967078172696
624.0,0.0032417973358383227
623.0,0.003207299077896109
622.0,0.0031890965124079613
621.0,0.00318915282991455
620.0,0.0031981859216819227
619.0,0.0032143874233168555
618.0,0.0032328521374943627
617.0,0.0032335325433504713
616.0,0.00320950652018636
615.0,0.0031905293827682634
614.0,0.0032063854158669034
613.0,0.0032457924275395064
612.0,0.0032814706822684916
611.0,0.0033094925716517076
610.0,0.0033399917424555194
609.0,0.0033684997854999694
608.0,0.003385996700486456
607.0,0.003404323783108976
606.0,0.003440771545789998
605.0,0.0034843717999118815
604.0,0.0035088472628105726
603.0,0.0035104174722788576
602.0,0.003508464031697309
601.0,0.0035156311091687235
600.0,0.0035329154097627326
599.0,0.0035665969158596277
598.0,0.003621536500052188
597.0,0.0036794718734079416
596.0,0.003705925118158795
595.0,0.0036830756016015534
594.0,0.0036273380255172653
593.0,0.003568417075251915
592.0,0.00352542108403589
591.0,0.0035071943592165583
590.0,0.003513209194750719
589.0,0.0035296076889417957
588.0,0.003537995442533937
587.0,0.003527721287226059
586.0,0.003495882874961974
585.0,0.0034427532941648364
584.0,0.0033776471877169784
583.0,0.0033229151333474287
582.0,0.0032921068655659986
581.0,0.0032701504816943427
580.0,0.0032387335633690915
579.0,0.0032060759343452384
578.0,0.0031856499374963865
577.0,0.003165335784315844
576.0,0.00313198872953027
575.0,0.003105730626706468
574.0,0.0031118092169073975
573.0,0.003138688267039675
572.0,0.0031614275288837698
571.0,0.0031759075424860296
570.0,0.0031859383488721882
569.0,0.003182393103147675
568.0,0.0031660082389848862
567.0,0.0031688676194089422
566.0,0.0032146893229355704
565.0,0.0032776973551927957
564.0,0.003316309657183605
563.0,0.0033169174778107467
562.0,0.003288345439075787
561.0,0.0032399397041244817
560.0,0.0031922288706153117
559.0,0.0031889172815014718
558.0,0.0032535049439435856
557.0,0.003346146265665563
556.0,0.003402247560113124
555.0,0.0033899443277440027
554.0,0.0033185438594610745
553.0,0.0032054516879645514
552.0,0.0030665477107015733
551.0,0.002945697898528047
550.0,0.0028938559681679077
