cm-1,A
4000.0,0.0044744491375877105
3999.0,0.0044779419935088195
3998.0,0.00449000357774142
3997.0,0.00450282675986637
3996.0,0.004510313992930589
3995.0,0.0045128322960367095
3994.0,0.00451451744615386
3993.0,0.004516878984573398
3992.0,0.004517568221866189
3991.0,0.004515173313137837
3990.0,0.004511646509277639
3989.0,0.004509286355880001
3988.0,0.004507290819364099
3987.0,0.004503120012581859
3986.0,0.004496637505489633
3985.0,0.004490820401465091
3984.0,0.004488010011748166
3983.0,0.004487433544814883
3982.0,0.004486911796331141
3981.0,0.0044859756511869825
3980.0,0.004486482677379738
3979.0,0.0044899082667267795
3978.0,0.0044952599544640995
3977.0,0.004499994719686903
3976.0,0.004502211683556929
3975.0,0.004501578979710793
3974.0,0.004498382362666179
3973.0,0.004492475610957777
3972.0,0.0044839125995196835
3971.0,0.0044745284776416755
3970.0,0.004468029881001701
3969.0,0.0044675899991634006
3968.0,0.004472786517992186
3967.0,0.004479756189133382
3966.0,0.004484497780247451
3965.0,0.004485301534644271
3964.0,0.004482955893822477
3963.0,0.0044796715707884965
3962.0,0.0044782144301173665
3961.0,0.004480615612173176
3960.0,0.0044862848877595205
3959.0,0.004492210714619301
3958.0,0.004495494052877912
3957.0,0.004495818816357867
3956.0,0.0044945194830862826
3955.0,0.00449225935820338
3954.0,0.004488411657647376
3953.0,0.004482411102835737
3952.0,0.004475103655430168
3951.0,0.004468846386726758
3950.0,0.004466216945522297
3949.0,0.004468671312727705
3948.0,0.004476749357218127
3947.0,0.004490099442386915
3946.0,0.004505977033832095
3945.0,0.0045178303730292035
3944.0,0.0045202627482344784
3943.0,0.004515899111371123
3942.0,0.00451275276287628
3941.0,0.004515001178730065
3940.0,0.004518948045287794
3939.0,0.004518446312783275
3938.0,0.004512457385073732
3937.0,0.004505546238227955
3936.0,0.004501167972094721
3935.0,0.004498017485166541
3934.0,0.00449432646960713
3933.0,0.004491992513226597
3932.0,0.0044934009587182565
3931.0,0.004496057722098621
3930.0,0.004495543642397074
3929.0,0.00449243089969289
3928.0,0.004490689878251761
3927.0,0.004491818394711127
3926.0,0.004494490957602301
3925.0,0.004498869111578133
3924.0,0.004506542467944703
3923.0,0.0045151980590805805
3922.0,0.004519397800512935
3921.0,0.0045173295871985646
3920.0,0.00451386636823612
3919.0,0.004514861297997424
3918.0,0.004518433508566829
3917.0,0.0045172870983563335
3916.0,0.004509053916407531
3915.0,0.004497160178872405
3914.0,0.004484864495296859
3913.0,0.004473433637431253
3912.0,0.004464552845792516
3911.0,0.004461204932298382
3910.0,0.004464168781636703
3909.0,0.004472574179629843
3908.0,0.004485006948740275
3907.0,0.004499203388763366
3906.0,0.004511388392973458
3905.0,0.004520952942406817
3904.0,0.004533738373586774
3903.0,0.00455522951170676
3902.0,0.004581149125762135
3901.0,0.004595889537890585
3900.0,0.004586073972804442
3899.0,0.0045553732274940615
3898.0,0.004521151482828911
3897.0,0.004497733577151977
3896.0,0.004489691713230847
3895.0,0.004495411094085815
3894.0,0.00450969048696849
3893.0,0.004522451807106791
3892.0,0.004521888219927955
3891.0,0.004508214080762387
3890.0,0.004496584092660904
3889.0,0.004498984477192221
3888.0,0.004504862339093378
3887.0,0.004494998485084819
3886.0,0.004476734089060678
3885.0,0.004478235774133392
3884.0,0.00450733883079134
3883.0,0.004542983405594724
3882.0,0.004556492183179828
3881.0,0.00453949257386079
3880.0,0.004512229182608831
3879.0,0.004498832942434386
3878.0,0.004504734546886512
3877.0,0.004514442577352401
3876.0,0.004506214510015035
3875.0,0.004479951582602448
3874.0,0.004463413187826157
3873.0,0.004478863228834978
3872.0,0.004512057731767479
3871.0,0.004527532136186545
3870.0,0.004515920953998131
3869.0,0.004502861835805169
3868.0,0.004508117765044442
3867.0,0.004519603469707318
3866.0,0.004514227948578996
3865.0,0.004494446635243815
3864.0,0.004481960599132552
3863.0,0.004481325330773982
3862.0,0.0044803804466876035
3861.0,0.004473697358906613
3860.0,0.004465863845019594
3859.0,0.004465011446078152
3858.0,0.004476252122703716
3857.0,0.004497721588135851
3856.0,0.004509462181430458
3855.0,0.004486702400967147
3854.0,0.004456157004942141
3853.0,0.00446154713967452
3852.0,0.004488485437327717
3851.0,0.00450898099059424
3850.0,0.004513600359134703
3849.0,0.004503730923674744
3848.0,0.004487424250736858
3847.0,0.004471524416740647
3846.0,0.0044594573656777025
3845.0,0.004454798934250515
3844.0,0.004460750127881035
3843.0,0.00447616242755493
3842.0,0.0044957357374294715
3841.0,0.004510653806649487
3840.0,0.004512934982119378
3839.0,0.004505627875945505
3838.0,0.004499816667913689
3837.0,0.004501897059271042
3836.0,0.0045082970413836175
3835.0,0.0045122602894011885
3834.0,0.004508773101424477
3833.0,0.004497148786625489
3832.0,0.004484504910877561
3831.0,0.004481319124989416
3830.0,0.004491150528879992
3829.0,0.004506026609526635
3828.0,0.004511651761677759
3827.0,0.004503317501604968
3826.0,0.0044950681832716605
3825.0,0.004503315750749892
3824.0,0.004521275616580663
3823.0,0.004520541202699224
3822.0,0.004492829961045885
3821.0,0.004472503931994394
3820.0,0.00448503160744321
3819.0,0.004519514494547605
3818.0,0.00454292433569613
3817.0,0.004526477399365555
3816.0,0.004484251206992575
3815.0,0.00445744611019859
3814.0,0.004460985362843952
3813.0,0.0044771286565530215
3812.0,0.004488037009071421
3811.0,0.00449345558263213
3810.0,0.004498572658313603
3809.0,0.004494657206844672
3808.0,0.004471246269222615
3807.0,0.00444499453251007
3806.0,0.004446458826143745
3805.0,0.0044814797887514565
3804.0,0.004521097341612554
3803.0,0.0045254654872929605
3802.0,0.0044936168888901635
3801.0,0.004469941166645295
3800.0,0.0044812998401414315
3799.0,0.00451225830408832
3798.0,0.004533250619494469
3797.0,0.004531091688351353
3796.0,0.004517687264155083
3795.0,0.0045094787778243856
3794.0,0.0045086057141872846
3793.0,0.004506676981314112
3792.0,0.0044992202204996
3791.0,0.004490464063181955
3790.0,0.004486852363377916
3789.0,0.0044901438407098145
3788.0,0.004496838260608385
3787.0,0.004501485810991328
3786.0,0.0045008562835091095
3785.0,0.004497266815721276
3784.0,0.004497729200003558
3783.0,0.0045064462612309855
3782.0,0.004518359757501135
3781.0,0.004523295032818831
3780.0,0.004519060429999112
3779.0,0.00451558901085396
3778.0,0.004522538524412542
3777.0,0.004537798431363479
3776.0,0.004549444586886434
3775.0,0.004550570709421603
3774.0,0.004548032941509621
3773.0,0.004551259612998811
3772.0,0.0045583045594675695
3771.0,0.004563311240974416
3770.0,0.004570308287045392
3769.0,0.00458515573678847
3768.0,0.004601656723587011
3767.0,0.0046048301694010035
3766.0,0.004588493209270113
3765.0,0.004566524819597781
3764.0,0.004558948405636517
3763.0,0.004569048996992233
3762.0,0.004582372601970342
3761.0,0.004588219041689807
3760.0,0.004592731598730112
3759.0,0.004602629143684122
3758.0,0.004611985348251609
3757.0,0.0046165416746329745
3756.0,0.004620723773004241
3755.0,0.004625987863959271
3754.0,0.004625691157817923
3753.0,0.004617547630215075
3752.0,0.004614414192501402
3751.0,0.0046215363080898625
3750.0,0.004624097900176316
3749.0,0.004623945208400292
3748.0,0.004643872430984823
3747.0,0.00468538247728421
3746.0,0.00470892990230823
3745.0,0.0046874472477154115
3744.0,0.004652380596344103
3743.0,0.004642261702254802
3742.0,0.004658529774192545
3741.0,0.004682041273911618
3740.0,0.004701073644340046
3739.0,0.004716965353634973
3738.0,0.004726518807959318
3737.0,0.0047245313110500274
3736.0,0.004720425854232679
3735.0,0.0047247023429011605
3734.0,0.004729633527137572
3733.0,0.004721306884803362
3732.0,0.004701156285096516
3731.0,0.004686118248698206
3730.0,0.004689538577460947
3729.0,0.004706270593099904
3728.0,0.004719007831664647
3727.0,0.004722034656898407
3726.0,0.0047289813398990405
3725.0,0.004750215327199157
3724.0,0.004779184455016288
3723.0,0.004805196410441406
3722.0,0.004827512814341608
3721.0,0.0048501969559425675
3720.0,0.004872097669408194
3719.0,0.004889252579983452
3718.0,0.004904192532728275
3717.0,0.004929248197090305
3716.0,0.004972647024698795
3715.0,0.005026821451970758
3714.0,0.005076895207518121
3713.0,0.005120994316884403
3712.0,0.005173542088932139
3711.0,0.005239590406575669
3710.0,0.005308346036553586
3709.0,0.005373293163515408
3708.0,0.005436317775474879
3707.0,0.005502836451628681
3706.0,0.005578154934659527
3705.0,0.005663640968046053
3704.0,0.005757281481725146
3703.0,0.00585919581961029
3702.0,0.00597039493690077
3701.0,0.006082860118279172
3700.0,0.0061813805021072475
3699.0,0.006253744441357174
3698.0,0.006292706597564576
3697.0,0.006300064477880981
3696.0,0.006288631597302758
3695.0,0.006270297804214514
3694.0,0.006246648754564771
3693.0,0.006213692605629508
3692.0,0.006170906724776584
3691.0,0.006123195673659453
3690.0,0.006077390875026241
3689.0,0.006040049730584794
3688.0,0.006016276627968242
3687.0,0.006009158942157208
3686.0,0.0060156765191421826
3685.0,0.006027567536895752
3684.0,0.006041419903056604
3683.0,0.0060631281626000585
3682.0,0.006096785726650758
3681.0,0.006137831978809477
3680.0,0.006183201894996754
3679.0,0.0062396188439036646
3678.0,0.006310657745388319
3677.0,0.0063852422814124985
3676.0,0.006453287944726911
3675.0,0.00650736992851701
3674.0,0.006550237628848186
3673.0,0.0065988630733057356
3672.0,0.006653725876957761
3671.0,0.006710948704175069
3670.0,0.00678126446727766
3669.0,0.006858591974776053
3668.0,0.006924556958812054
3667.0,0.0069785877602594
3666.0,0.007031156257946483
3665.0,0.007090642544702639
3664.0,0.007158364257714883
3663.0,0.007230330046251054
3662.0,0.007303955077681444
3661.0,0.0073821786685343335
3660.0,0.0074696351900313766
3659.0,0.007566717601262747
3658.0,0.007670283837359678
3657.0,0.007776862192679727
3656.0,0.007881807407158794
3655.0,0.007980121356223942
3654.0,0.008073356912850502
3653.0,0.008162603349901749
3652.0,0.00824544748608534
3651.0,0.00833813255499748
3650.0,0.008472506913700184
3649.0,0.008637285888449347
3648.0,0.008776373005110806
3647.0,0.008863864353229695
3646.0,0.008920813665860571
3645.0,0.008977085681322602
3644.0,0.009048468355348878
3643.0,0.009137305085948615
3642.0,0.00924061756613997
3641.0,0.00935455038272933
3640.0,0.009473223226259288
3639.0,0.009590795222260947
3638.0,0.009706686058426384
3637.0,0.009825819058015451
3636.0,0.009952890163805135
3635.0,0.010087807978647305
3634.0,0.010228786034362605
3633.0,0.01037349766201218
3632.0,0.010518984244099517
3631.0,0.010663414151176144
3630.0,0.01082369818419281
3629.0,0.011020337574597758
3628.0,0.0112199702066828
3627.0,0.011385781398297176
3626.0,0.011529406767929004
3625.0,0.011669927306612052
3624.0,0.011814464320071879
3623.0,0.011962896277198551
3622.0,0.01211294336875003
3621.0,0.012264497931091347
3620.0,0.012418286935200208
3619.0,0.012563865998356674
3618.0,0.012685819354960283
3617.0,0.012788516365690873
3616.0,0.012890866698806068
3615.0,0.013007058716118965
3614.0,0.013140390190928462
3613.0,0.013281422440365709
3612.0,0.01341454175093564
3611.0,0.013533824616497728
3610.0,0.013648795575605941
3609.0,0.013773835158774238
3608.0,0.0139111460660867
3607.0,0.014048019072778455
3606.0,0.014174729475016936
3605.0,0.014292462934135528
3604.0,0.014406611105965871
3603.0,0.014525325816560653
3602.0,0.014659327188518402
3601.0,0.014813335180079327
3600.0,0.014977571043777671
3599.0,0.015135727355558395
3598.0,0.015283044172227818
3597.0,0.015429445895447036
3596.0,0.015584818379462233
3595.0,0.015746122674515035
3594.0,0.015900949875579586
3593.0,0.016040287791573293
3592.0,0.01616634258563348
3591.0,0.01629062116884489
3590.0,0.016429148248756784
3589.0,0.016599036660037945
3588.0,0.016799434045027793
3587.0,0.016994175125799187
3586.0,0.017148842555550155
3585.0,0.017267543679147915
3584.0,0.017372234420830166
3583.0,0.017480447608514003
3582.0,0.017603996789566045
3581.0,0.017746531922789646
3580.0,0.01790018415520025
3579.0,0.018051376074125755
3578.0,0.01819400964746088
3577.0,0.018332488293604038
3576.0,0.018472783498892958
3575.0,0.018615681852660652
3574.0,0.018758519273789635
3573.0,0.01889838496091583
3572.0,0.0190337185246344
3571.0,0.019168217003939236
3570.0,0.019313713906645255
3569.0,0.01948779088924122
3568.0,0.0196974394497027
3567.0,0.019912575794530468
3566.0,0.020086780502477686
3565.0,0.020212212364768375
3564.0,0.020315877692424482
3563.0,0.020423430710397195
3562.0,0.020546824063609102
3561.0,0.020685387207865672
3560.0,0.02082971865808068
3559.0,0.020970502018642576
3558.0,0.02110561839446518
3557.0,0.021237186318229972
3556.0,0.021367375105966216
3555.0,0.021501404914979486
3554.0,0.021648863155310803
3553.0,0.021812375235377265
3552.0,0.021975664484094604
3551.0,0.022117465821809592
3550.0,0.02223634047139274
3549.0,0.022351483993597578
3548.0,0.022483480940784308
3547.0,0.02263705534206422
3546.0,0.022798870291860028
3545.0,0.02295124866535683
3544.0,0.023086886014167522
3543.0,0.02321040789444383
3542.0,0.02333028817478202
3541.0,0.023451601856665994
3540.0,0.023574653175723197
3539.0,0.023699916822425476
3538.0,0.023832258136709528
3537.0,0.023975523192081096
3536.0,0.024122419394067184
3535.0,0.02425798783616704
3534.0,0.02437606966425304
3533.0,0.024486145779435618
3532.0,0.024603999552968596
3531.0,0.024738707077641836
3530.0,0.024887689672585152
3529.0,0.025040198121033086
3528.0,0.02518498927676394
3527.0,0.025318624947249634
3526.0,0.025447267531525257
3525.0,0.025578698989563057
3524.0,0.025712314827795995
3523.0,0.02583933281590518
3522.0,0.025953851887101333
3521.0,0.02605962568621057
3520.0,0.026164742723977955
3519.0,0.02627429716565767
3518.0,0.026389026962112615
3517.0,0.026507423695409166
3516.0,0.02662734657281026
3515.0,0.026747374757613386
3514.0,0.026867820015225922
3513.0,0.026989523368139506
3512.0,0.02711243002558867
3511.0,0.02723600441545861
3510.0,0.02735894895819958
3509.0,0.027477779880183045
3508.0,0.027589408975457516
3507.0,0.02769692741110449
3506.0,0.02780964908714531
3505.0,0.027935100314002745
3504.0,0.02807071901168189
3503.0,0.028204486646496784
3502.0,0.02832525661710488
3501.0,0.02843082490526539
3500.0,0.028526075054606956
3499.0,0.028618683218969078
3498.0,0.028716410691460612
3497.0,0.028822815383152747
3496.0,0.02893480274434179
3495.0,0.02904679224519042
3494.0,0.029156005000961088
3493.0,0.029261620621497755
3492.0,0.029362537663107105
3491.0,0.029460648569473252
3490.0,0.029563510465636354
3489.0,0.0296774171563361
3488.0,0.02979810992194712
3487.0,0.029913916230771703
3486.0,0.03001873796109913
3485.0,0.030117589777934703
3484.0,0.030219657809810462
3483.0,0.030329086114352227
3482.0,0.03044152828824677
3481.0,0.030547857359071034
3480.0,0.03064265642321666
3479.0,0.030730332710253213
3478.0,0.03082117380689392
3477.0,0.0309206670893014
3476.0,0.031024843224708193
3475.0,0.031126884460877732
3474.0,0.031224866107639554
3473.0,0.0313204907912562
3472.0,0.0314145039492984
3471.0,0.03150817544331034
3470.0,0.031605614260625615
3469.0,0.031708301562882776
3468.0,0.03180960582041545
3467.0,0.03190138907689844
3466.0,0.031985058141438386
3465.0,0.03207005012314302
3464.0,0.03216211599183809
3463.0,0.03225800188093708
3462.0,0.032351092192672286
3461.0,0.032438103973709075
3460.0,0.03252016075894402
3459.0,0.03260151815285739
3458.0,0.032687711453513124
3457.0,0.03278144038264315
3456.0,0.03287980679020188
3455.0,0.03297702826976893
3454.0,0.03306834015440676
3453.0,0.03315030900647803
3452.0,0.03322150473214265
3451.0,0.03328595253395125
3450.0,0.03335281301355897
3449.0,0.033428504362532876
3448.0,0.03351008549611447
3447.0,0.033589703439332215
3446.0,0.03366471570816268
3445.0,0.033739318736601895
3444.0,0.03381727320233241
3443.0,0.03389764565691971
3442.0,0.033976180801132475
3441.0,0.034047894887874394
3440.0,0.0341110892281764
3439.0,0.034171504767998004
3438.0,0.03423933420108825
3437.0,0.0343184528699084
3436.0,0.034400883233819374
3435.0,0.03447544103927141
3434.0,0.034539161517189
3433.0,0.03459672126927086
3432.0,0.034652561631852034
3431.0,0.03470850651444406
3430.0,0.03476621096047261
3429.0,0.034825982663007064
3428.0,0.034884240530166685
3427.0,0.03493729324309016
3426.0,0.03498726583738187
3425.0,0.03504034439573661
3424.0,0.035099574864345874
3423.0,0.03516259297193547
3422.0,0.035225784520552576
3421.0,0.035287588137377895
3420.0,0.035348040831626196
3419.0,0.03540803241424004
3418.0,0.03546891877727091
3417.0,0.035530667386252636
3416.0,0.035590928103142024
3415.0,0.03564740261764407
3414.0,0.035700040215529465
3413.0,0.0357497506033717
3412.0,0.035796946920889326
3411.0,0.035842853701300824
3410.0,0.035889814405725216
3409.0,0.03593838164737276
3408.0,0.03598615587741595
3407.0,0.03603091779943579
3406.0,0.03607236674500507
3405.0,0.03610982868946758
3404.0,0.03614234293217064
3403.0,0.03617354463042447
3402.0,0.03621231052392612
3401.0,0.03626424864788133
3400.0,0.03632488397079077
3399.0,0.036384333576311934
3398.0,0.03643620603693502
3397.0,0.03647983502469616
3396.0,0.03651794285407814
3395.0,0.03655551151313419
3394.0,0.03659702638138875
3393.0,0.03664036752617909
3392.0,0.03667670938228388
3391.0,0.036701303263485086
3390.0,0.03672092299520966
3389.0,0.0367461701242644
3388.0,0.036779963773453744
3387.0,0.036818083483144845
3386.0,0.03685792173134479
3385.0,0.03690062176075715
3384.0,0.03694535123270875
3383.0,0.03698729877031316
3382.0,0.03702176942445439
3381.0,0.037046587951195996
3380.0,0.03706214008680259
3379.0,0.037073441361347555
3378.0,0.037090381604739986
3377.0,0.0371200742493326
3376.0,0.03715848651870216
3375.0,0.03719374530655367
3374.0,0.037217874986430644
3373.0,0.03723239183284392
3372.0,0.03724399827097495
3371.0,0.03725918331087462
3370.0,0.03728203085973219
3369.0,0.03731207797271428
3368.0,0.03734306281926926
3367.0,0.037367228751987766
3366.0,0.037382155891703406
3365.0,0.03739140750674059
3364.0,0.03739895596765071
3363.0,0.03740576905498244
3362.0,0.03741154705785017
3361.0,0.03741701873277802
3360.0,0.03742409027125751
3359.0,0.03743509047360552
3358.0,0.03745111923883382
3357.0,0.037469534844300184
3356.0,0.03748428831904347
3355.0,0.037490840739699834
3354.0,0.03748993268019336
3353.0,0.03748545121115509
3352.0,0.037480727040116915
3351.0,0.03747843230142771
3350.0,0.03748110653037014
3349.0,0.03748855472125195
3348.0,0.03749652341723104
3347.0,0.037501029282893686
3346.0,0.03750270701424018
3345.0,0.037504463873687076
3344.0,0.03750660423066922
3343.0,0.037506857930983614
3342.0,0.03750341877426748
3341.0,0.037495374233539526
3340.0,0.0374822384967954
3339.0,0.03746622439035085
3338.0,0.037453291599048213
3337.0,0.03744826738460237
3336.0,0.03744947967260749
3335.0,0.03745094978469231
3334.0,0.03744879292472231
3333.0,0.03744284427424242
3332.0,0.03743382338275349
3331.0,0.03742232690924403
3330.0,0.03740966392182635
3329.0,0.037397086587655136
3328.0,0.03738506043035918
3327.0,0.037374985846519874
3326.0,0.03736960050589652
3325.0,0.03736897501597932
3324.0,0.037367908200827415
3323.0,0.037360458199281306
3322.0,0.03734597604964596
3321.0,0.037328204770339636
3320.0,0.037310343031216886
3319.0,0.03729417252526041
3318.0,0.03728201705259222
3317.0,0.037275150085774866
3316.0,0.03727070445469232
3315.0,0.03726398270219683
3314.0,0.03725421309572917
3313.0,0.03724518465947196
3312.0,0.03723970094557349
3311.0,0.03723573474860382
3310.0,0.0372287549880598
3309.0,0.037216257102585096
3308.0,0.0371996053542051
3307.0,0.037182642301841755
3306.0,0.03716899766515927
3305.0,0.03716023772234417
3304.0,0.03715615190723784
3303.0,0.03715607489643801
3302.0,0.03715879336446669
3301.0,0.03716166464554014
3300.0,0.03716193576016417
3299.0,0.037159162158866305
3298.0,0.03715426324319374
3297.0,0.037146154656443046
3296.0,0.037132139109151106
3295.0,0.0371123347271338
3294.0,0.03709117746927394
3293.0,0.037073803666407286
3292.0,0.037063172975749584
3291.0,0.03706036183742636
3290.0,0.03706354295459668
3289.0,0.03706606668581883
3288.0,0.037060575653238295
3287.0,0.0370473726213138
3286.0,0.03703461305502429
3285.0,0.03702779921326854
3284.0,0.03702338304515061
3283.0,0.037015828442244846
3282.0,0.03700629891593018
3281.0,0.03699928150674502
3280.0,0.036994064720164616
3279.0,0.036985726297864924
3278.0,0.03697328065295236
3277.0,0.036961452625539105
3276.0,0.036953970692910204
3275.0,0.03694869665801687
3274.0,0.0369400768627469
3273.0,0.03692448053462269
3272.0,0.036903587558782855
3271.0,0.036884141329161145
3270.0,0.03687302539396187
3269.0,0.03687058771685486
3268.0,0.03686999780456587
3267.0,0.03686457091048298
3266.0,0.03685379129964088
3265.0,0.036840639593654335
3264.0,0.03682599469446333
3263.0,0.03680872734499677
3262.0,0.03678902085161561
3261.0,0.0367680181574027
3260.0,0.03674578188940375
3259.0,0.03672302484053681
3258.0,0.03670335809663539
3257.0,0.036690323297285485
3256.0,0.036682986463541546
3255.0,0.03667724344591788
3254.0,0.03667053138459496
3253.0,0.03666242585522341
3252.0,0.036651443675154556
3251.0,0.03663453149659799
3250.0,0.03661023087417145
3249.0,0.03658084125668582
3248.0,0.0365516221693062
3247.0,0.036528132273994526
3246.0,0.036512264768918744
3245.0,0.0364994797604884
3244.0,0.0364822804974262
3243.0,0.0364583689626859
3242.0,0.03643303878418192
3241.0,0.03641189498831911
3240.0,0.03639426096748283
3239.0,0.0363761858673305
3238.0,0.03635679328825304
3237.0,0.03633774977053874
3236.0,0.03631834670125743
3235.0,0.036295248135864565
3234.0,0.036266660805102637
3233.0,0.03623410652675547
3232.0,0.03620108170597638
3231.0,0.03617231100626672
3230.0,0.03615235071331431
3229.0,0.03614109377573635
3228.0,0.03613136900683697
3227.0,0.03611442247062911
3226.0,0.03608793742250068
3225.0,0.03605676646370787
3224.0,0.03602673261022212
3223.0,0.03600004148379473
3222.0,0.035975597466493564
3221.0,0.035950718678469405
3220.0,0.035922739183680025
3219.0,0.03589140548170792
3218.0,0.035859617052491626
3217.0,0.03583006367838936
3216.0,0.03580169080461944
3215.0,0.03577088546150075
3214.0,0.03573517048750011
3213.0,0.035694483802775144
3212.0,0.03565051844684882
3211.0,0.035606851218485495
3210.0,0.03556805325130489
3209.0,0.035535801884524154
3208.0,0.03550643341643335
3207.0,0.03547423387131918
3206.0,0.035436310822850654
3205.0,0.035393151548074396
3204.0,0.03534675984703258
3203.0,0.03530068457377629
3202.0,0.03525978044714541
3201.0,0.03522638023415191
3200.0,0.03519706158392898
3199.0,0.03516535188244427
3198.0,0.03512690349438046
3197.0,0.035080552826590554
3196.0,0.03502650325360269
3195.0,0.03496664928987966
3194.0,0.03490543617539445
3193.0,0.034847233200054444
3192.0,0.03479325461244237
3191.0,0.03474308668308784
3190.0,0.034697746560312444
3189.0,0.03465779838528386
3188.0,0.03461898776752299
3187.0,0.03457362379011883
3186.0,0.034517540893263934
3185.0,0.034453742942589426
3184.0,0.034388907469935795
3183.0,0.03432804294866428
3182.0,0.03427204654226864
3181.0,0.03421795337825982
3180.0,0.03416121637891257
3179.0,0.03409968979555943
3178.0,0.03403580863152265
3177.0,0.033973810319556846
3176.0,0.0339155388591537
3175.0,0.03386034565896671
3174.0,0.033807526811429754
3173.0,0.033755979689330064
3172.0,0.03370211759380943
3171.0,0.033641603620522376
3170.0,0.03357428867837349
3169.0,0.033505470275351903
3168.0,0.03344118462948536
3167.0,0.0333831321233521
3166.0,0.033328114355717274
3165.0,0.03327096259095898
3164.0,0.03320817609455511
3163.0,0.03314052408591152
3162.0,0.033072620348611866
3161.0,0.03300896505570922
3160.0,0.03295005411748571
3159.0,0.032892716046782594
3158.0,0.03283361442065184
3157.0,0.032771597109064333
3156.0,0.03270770278774935
3155.0,0.03264440401492387
3154.0,0.032584148082146006
3153.0,0.03252705580987634
3152.0,0.032470459322321545
3151.0,0.03241207627023206
3150.0,0.03235311599902432
3149.0,0.03229644649777731
3148.0,0.03224192782897932
3147.0,0.032185695716942686
3146.0,0.03212449815150694
3145.0,0.0320591734062368
3144.0,0.031993282172470223
3143.0,0.03192937544361098
3142.0,0.0318671728193395
3141.0,0.03180451241996461
3140.0,0.031739190957522534
3139.0,0.03167032474125317
3138.0,0.031598939505118086
3137.0,0.03152770605086168
3136.0,0.03145983889619612
3135.0,0.03139718412454367
3134.0,0.031338226159081654
3133.0,0.03127823257358049
3132.0,0.03121285963772389
3131.0,0.031141928215305488
3130.0,0.031068479204816396
3129.0,0.03099452726560658
3128.0,0.030920155588625986
3127.0,0.030847089737224494
3126.0,0.03077959643044466
3125.0,0.03071928835022667
3124.0,0.03066094842894626
3123.0,0.03059653410115492
3122.0,0.03052343435581507
3121.0,0.03044656206504177
3120.0,0.030372254599254325
3119.0,0.030302493402981336
3118.0,0.030235265607396877
3117.0,0.030168273984523736
3116.0,0.03010112485889755
3115.0,0.030035065759923797
3114.0,0.029971861095625465
3113.0,0.029912505246529678
3112.0,0.029856096013382984
3111.0,0.02979998304270772
3110.0,0.029741535981235162
3109.0,0.029680058136310115
3108.0,0.029616917184973255
3107.0,0.029553616769775526
3106.0,0.029489982993981485
3105.0,0.029424871067045808
3104.0,0.029358528060723046
3103.0,0.029292846366777904
3102.0,0.02922870542274203
3101.0,0.029164441060666308
3100.0,0.02909835211184845
3099.0,0.029031798662275628
3098.0,0.028967796447115054
3097.0,0.02890714364178709
3096.0,0.02884754973333486
3095.0,0.02878617025548962
3094.0,0.028721649784990682
3093.0,0.02865408805181932
3092.0,0.028585245265607136
3091.0,0.02851878853714152
3090.0,0.028457896167454477
3089.0,0.028402101041363207
3088.0,0.02834811330152926
3087.0,0.02829407739103456
3086.0,0.028240882266158396
3085.0,0.028188693653524517
3084.0,0.02813470058013927
3083.0,0.028075391918713034
3082.0,0.028009861607918643
3081.0,0.027940154993297113
3080.0,0.027869627382388646
3079.0,0.027801487773112827
3078.0,0.02773706761817908
3077.0,0.02767465790908718
3076.0,0.027611225616403532
3075.0,0.027545781659952483
3074.0,0.027479618138097735
3073.0,0.027413408681520663
3072.0,0.0273464227915641
3071.0,0.027278873226923493
3070.0,0.027212732184298323
3069.0,0.02714903491292556
3068.0,0.027086643634565026
3067.0,0.02702481224759474
3066.0,0.026964717011857528
3065.0,0.026907019765514347
3064.0,0.02684973969240913
3063.0,0.026790471235775937
3062.0,0.0267291652574229
3061.0,0.0266672917808284
3060.0,0.02660552567695524
3059.0,0.026543242425299342
3058.0,0.0264790351183371
3057.0,0.026410975755252804
3056.0,0.026338082236948394
3055.0,0.026262466896954852
3054.0,0.026188113063050213
3053.0,0.02611633084990911
3052.0,0.026044663672995398
3051.0,0.02597135838789808
3050.0,0.025898857801760527
3049.0,0.025831039996249847
3048.0,0.025768397055290874
3047.0,0.02570805839370344
3046.0,0.025647024640735896
3045.0,0.025583571475362436
3044.0,0.025517206341401595
3043.0,0.025449687785469577
3042.0,0.025385144632757917
3041.0,0.02532685828816839
3040.0,0.025274032487526667
3039.0,0.02522325974195023
3038.0,0.025172419444803442
3037.0,0.02512159606428785
3036.0,0.02507128158442554
3035.0,0.02502172775762647
3034.0,0.024974080822852483
3033.0,0.024930140556874814
3032.0,0.02489028789440033
3031.0,0.024852362120438107
3030.0,0.02481289532803763
3029.0,0.024769468365174074
3028.0,0.024722028731495784
3027.0,0.02467218305031339
3026.0,0.024620550593286425
3025.0,0.024565110255237693
3024.0,0.024503698975089576
3023.0,0.024437894871070356
3022.0,0.024372616381521287
3021.0,0.024311490228814268
3020.0,0.024254692307511906
3019.0,0.024201601783594765
3018.0,0.024152672621604167
3017.0,0.02410746464506516
3016.0,0.024063561118335883
3015.0,0.024019625207986183
3014.0,0.02397796398504041
3013.0,0.02394246501543803
3012.0,0.023915142576902748
3011.0,0.023895286020098872
3010.0,0.02387962375328371
3009.0,0.02386252371584578
3008.0,0.023839647177293647
3007.0,0.02381359026133943
3006.0,0.023793519921221033
3005.0,0.0237862446564373
3004.0,0.02378941616405324
3003.0,0.0237964140142908
3002.0,0.023805418289514765
3001.0,0.023820420155275506
3000.0,0.023844745666491834
2999.0,0.023878078287024308
2998.0,0.02391967079218278
2997.0,0.023970678919340724
2996.0,0.02403223167299772
2995.0,0.024103569519435843
2994.0,0.024183596133060627
2993.0,0.024273225053231127
2992.0,0.024375503668728243
2991.0,0.024494217004703608
2990.0,0.02463302943060236
2989.0,0.024795713019065947
2988.0,0.024986930369044414
2987.0,0.025212089457547236
2986.0,0.025474900518292747
2985.0,0.02577521951660251
2984.0,0.026111958293754033
2983.0,0.026489824790029128
2982.0,0.026921616629247733
2981.0,0.027422024055230046
2980.0,0.028001044189340116
2979.0,0.02866524532151686
2978.0,0.029424199862117813
2977.0,0.030293865539653714
2976.0,0.03129475587670144
2975.0,0.03244796453548009
2974.0,0.03377242675567198
2973.0,0.03528461040249749
2972.0,0.03699939160293523
2971.0,0.03893032321948159
2970.0,0.04108644980239845
2969.0,0.04346761219639815
2968.0,0.04606415551594657
2967.0,0.04885915324323736
2966.0,0.05182397293490795
2965.0,0.05490016386601476
2964.0,0.05798186820009043
2963.0,0.06091616491754716
2962.0,0.06352781855229234
2961.0,0.06567161413093925
2960.0,0.06728512028223582
2959.0,0.06841199047223624
2958.0,0.06918742811537877
2957.0,0.06979836261147425
2956.0,0.07043273602694809
2955.0,0.07121902126435549
2954.0,0.07217415559641589
2953.0,0.07318588786179855
2952.0,0.07403790891793431
2951.0,0.0744741539493972
2950.0,0.07427009483022264
2949.0,0.0732944038188947
2948.0,0.07155363361992893
2947.0,0.06919286201903126
2946.0,0.06645842403792857
2945.0,0.06363632452890415
2944.0,0.06099640841623787
2943.0,0.05875302819576533
2942.0,0.057044639997251706
2941.0,0.05593722539805034
2940.0,0.05543638166213164
2939.0,0.05551028301181798
2938.0,0.0561115625247574
2937.0,0.0571897341074209
2936.0,0.058700136475169744
2935.0,0.060605208937543745
2934.0,0.06286805804615231
2933.0,0.06544716635189575
2932.0,0.06829592530862581
2931.0,0.07136157741315882
2930.0,0.0745798602487057
2929.0,0.07787238363591054
2928.0,0.08115550234214057
2927.0,0.08435413481500893
2926.0,0.08740855361987307
2925.0,0.0902797878339472
2924.0,0.09295373960066994
2923.0,0.09542795183877345
2922.0,0.09767689366746725
2921.0,0.09961683327023867
2920.0,0.10109815995421675
2919.0,0.10192675637938331
2918.0,0.10192001308584545
2917.0,0.10098366772892736
2916.0,0.09917441222482819
2915.0,0.09669773449382456
2914.0,0.0938379203119218
2913.0,0.09088194213060391
2912.0,0.08805921801377585
2911.0,0.0855056132194045
2910.0,0.08325754832855616
2909.0,0.08127611752669793
2908.0,0.0794841518523384
2907.0,0.07779541215860426
2906.0,0.07613163225222018
2905.0,0.07443567874283061
2904.0,0.07268326998297914
2903.0,0.07087843471924224
2902.0,0.06903931893912378
2901.0,0.06718762571392894
2900.0,0.065347682347523
2899.0,0.06354671350698501
2898.0,0.061810024339714435
2897.0,0.06015955101247517
2896.0,0.05861608433673777
2895.0,0.057199477831018024
2894.0,0.055924416062365354
2893.0,0.05479763141900056
2892.0,0.05381919315257489
2891.0,0.05298359483451121
2890.0,0.052279588414402944
2889.0,0.05169228269561736
2888.0,0.051209889759890916
2887.0,0.05082877458273486
2886.0,0.050551447211960095
2885.0,0.050381738086871186
2884.0,0.05032272596800379
2883.0,0.0503759852501657
2882.0,0.05053546823322108
2881.0,0.05077673094933991
2880.0,0.05105131161835595
2879.0,0.0512932774500487
2878.0,0.051440880159563995
2877.0,0.051464568053066304
2876.0,0.05138699904132079
2875.0,0.05127792019894077
2874.0,0.051224282766746634
2873.0,0.05129596905022623
2872.0,0.05152444703089144
2871.0,0.05189965822766036
2870.0,0.05237486483415006
2869.0,0.05286606378814254
2868.0,0.05325215796358703
2867.0,0.053388509143607016
2866.0,0.053144797955859184
2865.0,0.05246412740170662
2864.0,0.051407137640929454
2863.0,0.0501451768979588
2862.0,0.04890081580163995
2861.0,0.04787616772411935
2860.0,0.04720633354385178
2859.0,0.046947236868366674
2858.0,0.04708813924434416
2857.0,0.047570258285260375
2856.0,0.04830817919368943
2855.0,0.04920393454726735
2854.0,0.05014605079752576
2853.0,0.05100105662792386
2852.0,0.05161578864656416
2851.0,0.05185072846177336
2850.0,0.05163616013986942
2849.0,0.05102553432320211
2848.0,0.05019760821908829
2847.0,0.049398681420934426
2846.0,0.048850029572138506
2845.0,0.04868208007643727
2844.0,0.04891715601286419
2843.0,0.049485866322769176
2842.0,0.05025740066126901
2841.0,0.051062277070422324
2840.0,0.05171142164319461
2839.0,0.052015348719930445
2838.0,0.05180884171804718
2837.0,0.050982011121536365
2836.0,0.04951235986669561
2835.0,0.04748068262039571
2834.0,0.04505919689816527
2833.0,0.04246964448597942
2832.0,0.03992299433000891
2831.0,0.03757241843301986
2830.0,0.03549710388417012
2829.0,0.03371552134428897
2828.0,0.03220891369700698
2827.0,0.03093783067641427
2826.0,0.02985672699294638
2825.0,0.028924569390158122
2824.0,0.028110540098475703
2823.0,0.027392936448634577
2822.0,0.026754820493045735
2821.0,0.026181929546180958
2820.0,0.02566319212139273
2819.0,0.025191099665338584
2818.0,0.024760513602450594
2817.0,0.024367068525058665
2816.0,0.024006976841791622
2815.0,0.02367711533363133
2814.0,0.023373378407153464
2813.0,0.023088881015186972
2812.0,0.022815679682493997
2811.0,0.02254923287784935
2810.0,0.022289640410982296
2809.0,0.022037073354014693
2808.0,0.021787541027248378
2807.0,0.021534743854965302
2806.0,0.021274912207159144
2805.0,0.021008769121651682
2804.0,0.020740408406205682
2803.0,0.02047649908104555
2802.0,0.0202256389501623
2801.0,0.019994658143122183
2800.0,0.01978492509508934
2799.0,0.019593559126735712
2798.0,0.01941779409251595
2797.0,0.019256217575887736
2796.0,0.019105495431742524
2795.0,0.01895856252007576
2794.0,0.01880729597781898
2793.0,0.01864666835826592
2792.0,0.018476410152476804
2791.0,0.018299959020123095
2790.0,0.018121999701946046
2789.0,0.017945493458931056
2788.0,0.017770778376193362
2787.0,0.017597825261854962
2786.0,0.017428515406748165
2785.0,0.01726561967478092
2784.0,0.017110179086595918
2783.0,0.01696130266048799
2782.0,0.016818162845868307
2781.0,0.016681012120831968
2780.0,0.016550663818309858
2779.0,0.01642787723220232
2778.0,0.016312434597355683
2777.0,0.016201672917846726
2776.0,0.01609137789294841
2775.0,0.01598014009735068
2774.0,0.015871867765084927
2773.0,0.015772003566533285
2772.0,0.01568182771483771
2771.0,0.015598328098790182
2770.0,0.015518409302168044
2769.0,0.015440648316047786
2768.0,0.015363778337131847
2767.0,0.015286440841206794
2766.0,0.015208980678544027
2765.0,0.015133347459949114
2764.0,0.015060593653270253
2763.0,0.014989920286499162
2762.0,0.014920160509996946
2761.0,0.014850607318381266
2760.0,0.014780477043557056
2759.0,0.01470925075993606
2758.0,0.014637813514210063
2757.0,0.01456828643660837
2756.0,0.014502878661319222
2755.0,0.014443261774583008
2754.0,0.014389739326993816
2753.0,0.014339550228042104
2752.0,0.014287443090173232
2751.0,0.014230501429274256
2750.0,0.014171922041846724
2749.0,0.014118071166927653
2748.0,0.014072154902807959
2747.0,0.014032659710511434
2746.0,0.013997131440906575
2745.0,0.013964789414063908
2744.0,0.013935733741680388
2743.0,0.013910089527394443
2742.0,0.013888574264418915
2741.0,0.013872132604430043
2740.0,0.01386034156465087
2739.0,0.01385124078663399
2738.0,0.013842846698927486
2737.0,0.013834105284296825
2736.0,0.013824651328305492
2735.0,0.01381473683451098
2734.0,0.01380535153493183
2733.0,0.01379790136475154
2732.0,0.013794242703912711
2731.0,0.01379712640424417
2730.0,0.013808987920672089
2729.0,0.01382929501905909
2728.0,0.013854742881909137
2727.0,0.013882806353350556
2726.0,0.013912444959395517
2725.0,0.013939236712617925
2724.0,0.013952284062904576
2723.0,0.01393939024793044
2722.0,0.013895167496771697
2721.0,0.013822271912700208
2720.0,0.013726525290537826
2719.0,0.013614413023442972
2718.0,0.013494337626084554
2717.0,0.013375600495670928
2716.0,0.013264164311100602
2715.0,0.013160515356557113
2714.0,0.01306219973326765
2713.0,0.012967308406208581
2712.0,0.01287543768145482
2711.0,0.01278718999491945
2710.0,0.012703419932399571
2709.0,0.012624199785947325
2708.0,0.012548430235985194
2707.0,0.012475128289185212
2706.0,0.012404519613308716
2705.0,0.012337087485458262
2704.0,0.01227242877136736
2703.0,0.012210060004612552
2702.0,0.012150448913402969
2701.0,0.012094160455307658
2700.0,0.012040969184832847
2699.0,0.011990857516037231
2698.0,0.011944604222879334
2697.0,0.011902177955793295
2696.0,0.011862055462510126
2695.0,0.011823487615565688
2694.0,0.011787906827710982
2693.0,0.011756521933091171
2692.0,0.011728128065902142
2691.0,0.011700796791745424
2690.0,0.011673709876566934
2689.0,0.011645508105692409
2688.0,0.011613290816459645
2687.0,0.011576153125840942
2686.0,0.011538066397068827
2685.0,0.011504179450627896
2684.0,0.011475172547768281
2683.0,0.01144761355914695
2682.0,0.011418588365162694
2681.0,0.011387391124599052
2680.0,0.011354095093462729
2679.0,0.01131971126882509
2678.0,0.011286818282833726
2677.0,0.011256828449651755
2676.0,0.011226880135468863
2675.0,0.011192389297366606
2674.0,0.011152687965469513
2673.0,0.011111765090103186
2672.0,0.011073501104127585
2671.0,0.011038427457909021
2670.0,0.01100516279560219
2669.0,0.010972985465091695
2668.0,0.01094285243127806
2667.0,0.010917410662223967
2666.0,0.010899795917704257
2665.0,0.010890874861269204
2664.0,0.010887851928304146
2663.0,0.010886510209997076
2662.0,0.010883905975584144
2661.0,0.010878262206983135
2660.0,0.010868073336676682
2659.0,0.010853118383786425
2658.0,0.010834828183905413
2657.0,0.010813768787910573
2656.0,0.010788315142238183
2655.0,0.010757673617079222
2654.0,0.01072430828804166
2653.0,0.010691148009180846
2652.0,0.010658233315410383
2651.0,0.010624733584530454
2650.0,0.01059231573245171
2649.0,0.010563223008897449
2648.0,0.010536328489569816
2647.0,0.010508378433601374
2646.0,0.010478268791175412
2645.0,0.01044738773947043
2644.0,0.010416773522465186
2643.0,0.010386603233613541
2642.0,0.010357344577098903
2641.0,0.010328702860850938
2640.0,0.010298867739730388
2639.0,0.010267624507883981
2638.0,0.010238466530034384
2637.0,0.010214375627541562
2636.0,0.010193060253020733
2635.0,0.010169800765722863
2634.0,0.010143761297588155
2633.0,0.010117999212040454
2632.0,0.010094803947533185
2631.0,0.010074656518311251
2630.0,0.010058310018227962
2629.0,0.010045876561313567
2628.0,0.01003472538654443
2627.0,0.010022175065301484
2626.0,0.01000930648725214
2625.0,0.00999854573585688
2624.0,0.009988679903901445
2623.0,0.009976241216880068
2622.0,0.009960758191668377
2621.0,0.009944548464635026
2620.0,0.009927968502100488
2619.0,0.009908779576734078
2618.0,0.009885829755243715
2617.0,0.009860019497261964
2616.0,0.00983240430095821
2615.0,0.009804452672180589
2614.0,0.009778898704472882
2613.0,0.009756692928125813
2612.0,0.009734245245867128
2611.0,0.00970705200210297
2610.0,0.00967463189206308
2609.0,0.009638882284034117
2608.0,0.009599895335925418
2607.0,0.009557554971618433
2606.0,0.009515260198599862
2605.0,0.009477520045617211
2604.0,0.009445097843842025
2603.0,0.009416238649127962
2602.0,0.009390490678674195
2601.0,0.009367039401336008
2600.0,0.009342077083416792
2599.0,0.009313303137530092
2598.0,0.009285174636323766
2597.0,0.009264424059501196
2596.0,0.009251637363626516
2595.0,0.009241934863298783
2594.0,0.009232182609607292
2593.0,0.009222520363827005
2592.0,0.009213181017327097
2591.0,0.009205365257764353
2590.0,0.00920300598018957
2589.0,0.00920778098037386
2588.0,0.009214296187816558
2587.0,0.009216533196971197
2586.0,0.009217039507214536
2585.0,0.009222600041785796
2584.0,0.009231870693667259
2583.0,0.009234662261603748
2582.0,0.009223941504346557
2581.0,0.009202540869821958
2580.0,0.009177013207190759
2579.0,0.00915022650979841
2578.0,0.00912099808276176
2577.0,0.009086842445637342
2576.0,0.009046757871981212
2575.0,0.009004065575297216
2574.0,0.00896511717902063
2573.0,0.00893202681073328
2572.0,0.008899236560877927
2571.0,0.008861334927338666
2570.0,0.008820741613026272
2569.0,0.008782503192323649
2568.0,0.008745760696738603
2567.0,0.008707394644425577
2566.0,0.008670932375481617
2565.0,0.00864338095849566
2564.0,0.008624515882362687
2563.0,0.008607303650586354
2562.0,0.008588320844174446
2561.0,0.008570513562526602
2560.0,0.00855619477273298
2559.0,0.00854428988290463
2558.0,0.008534192652730064
2557.0,0.008525249013452136
2556.0,0.008512460517339398
2555.0,0.008489848970044393
2554.0,0.008459199904054606
2553.0,0.008429788875375512
2552.0,0.008408817512059236
2551.0,0.008396698076261436
2550.0,0.00839027860126429
2549.0,0.008384580177478515
2548.0,0.008372548156121644
2547.0,0.008350089912953142
2546.0,0.008321786669724609
2545.0,0.008296306349901885
2544.0,0.008276682385609907
2543.0,0.008260285299733605
2542.0,0.008246586223261597
2541.0,0.008237895805266432
2540.0,0.00823279014246368
2539.0,0.008225869140761295
2538.0,0.008214576790389142
2537.0,0.0082005108247337
2536.0,0.00818426890982504
2535.0,0.00816488916618566
2534.0,0.008144270328752496
2533.0,0.008126303952215754
2532.0,0.008111362688071876
2531.0,0.008096697803578396
2530.0,0.008081742982072156
2529.0,0.008067832002438708
2528.0,0.008053712954399155
2527.0,0.008037106623866112
2526.0,0.008020147479708683
2525.0,0.008007645342674565
2524.0,0.008000387878018439
2523.0,0.007995229063742237
2522.0,0.007990428965133346
2521.0,0.007985219332818915
2520.0,0.007975599351221753
2519.0,0.007957122057242636
2518.0,0.00793173813869196
2517.0,0.007906683973526866
2516.0,0.007887267017522267
2515.0,0.00787531458916785
2514.0,0.007872114517886499
2513.0,0.007876083758380727
2512.0,0.007879091803098806
2511.0,0.007872275822512865
2510.0,0.007855466982086994
2509.0,0.007835677311062744
2508.0,0.007817700431089359
2507.0,0.007801835915737286
2506.0,0.0077885340143789995
2505.0,0.0077778724779975356
2504.0,0.0077656637705071745
2503.0,0.007747854098071789
2502.0,0.007728650262826266
2501.0,0.007717136567266889
2500.0,0.007715591224447371
2499.0,0.0077175794199311355
2498.0,0.007717414831440637
2497.0,0.0077148131811711484
2496.0,0.00771009484996109
2495.0,0.00770184749090274
2494.0,0.007690762583721004
2493.0,0.007680106110639956
2492.0,0.007671008162837641
2491.0,0.007661802753812889
2490.0,0.007652348197337009
2489.0,0.007644408735940558
2488.0,0.00763783317742133
2487.0,0.0076309145264646695
2486.0,0.007624137093506888
2485.0,0.007618999159526182
2484.0,0.0076137285035576974
2483.0,0.007604723309163984
2482.0,0.007591677031277062
2481.0,0.007577357638273031
2480.0,0.0075636719396429295
2479.0,0.007551917579323625
2478.0,0.007544614005597962
2477.0,0.007541984944408077
2476.0,0.007538527078550938
2475.0,0.0075283884183607805
2474.0,0.007512643640631751
2473.0,0.007496659506290615
2472.0,0.007482865222050571
2471.0,0.007471477072121051
2470.0,0.007465292123587023
2469.0,0.007466871111768049
2468.0,0.007472601275885127
2467.0,0.007475900272544111
2466.0,0.007474952299429648
2465.0,0.007471750756312962
2464.0,0.007466057500815418
2463.0,0.007457181097359148
2462.0,0.007449809811913971
2461.0,0.007450414927244396
2460.0,0.007458124402888986
2459.0,0.007465671431781842
2458.0,0.007469121274169384
2457.0,0.007470783093450844
2456.0,0.007473188402013239
2455.0,0.007476191668351331
2454.0,0.007479651647653783
2453.0,0.0074832099468406105
2452.0,0.007483514640449534
2451.0,0.0074768911164870885
2450.0,0.0074646942834731
2449.0,0.007451678645593823
2448.0,0.007439998848479207
2447.0,0.007429141398014472
2446.0,0.0074201022334691715
2445.0,0.007414567565966213
2444.0,0.007411112087268852
2443.0,0.007406660036830526
2442.0,0.007400424473979388
2441.0,0.007392980814392458
2440.0,0.007384237402135298
2439.0,0.007376112806945718
2438.0,0.007373299628455218
2437.0,0.007376468619303274
2436.0,0.007378756201602105
2435.0,0.007374478972265998
2434.0,0.007367073330800394
2433.0,0.0073624295643701446
2432.0,0.007359121695674377
2431.0,0.007352701121469307
2430.0,0.007345406019275684
2429.0,0.007342818917310427
2428.0,0.007343413389473786
2427.0,0.007339810164782934
2426.0,0.007328903552708317
2425.0,0.007313435920584296
2424.0,0.007295375876729054
2423.0,0.007275203452521039
2422.0,0.007256432422937614
2421.0,0.007243558583485845
2420.0,0.007236046148671387
2419.0,0.007229923337474282
2418.0,0.00722350661912285
2417.0,0.007216355596212963
2416.0,0.007205966069223513
2415.0,0.007191960771516187
2414.0,0.007180495372651615
2413.0,0.007177628598494366
2412.0,0.007180750370311192
2411.0,0.007182599404822005
2410.0,0.007180020974682853
2409.0,0.007171881309152347
2408.0,0.007153242188313635
2407.0,0.007121628899277501
2406.0,0.007086489214993341
2405.0,0.007062124719624723
2404.0,0.007051731772171762
2403.0,0.007046604735512624
2402.0,0.007039574882148043
2401.0,0.007030858225840597
2400.0,0.007021840486887532
2399.0,0.007012110939848118
2398.0,0.007003298158535459
2397.0,0.006998190616051401
2396.0,0.006994909977464229
2395.0,0.006988135913740285
2394.0,0.006976460276823162
2393.0,0.006963020254711132
2392.0,0.006949661126046545
2391.0,0.006936100873569371
2390.0,0.006923644905275795
2389.0,0.006913787849655749
2388.0,0.006903987725745931
2387.0,0.006890442301877001
2386.0,0.006873767105316504
2385.0,0.006856031192648017
2384.0,0.006833554380319978
2383.0,0.006799194949451338
2382.0,0.006751498729356175
2381.0,0.0066958540411655035
2380.0,0.006637362863514096
2379.0,0.006579807202965293
2378.0,0.006531435425677445
2377.0,0.006501778027407061
2376.0,0.006490626645257251
2375.0,0.006489706014785927
2374.0,0.006496324843003071
2373.0,0.00651265638386716
2372.0,0.006529696988996662
2371.0,0.006529504007928049
2370.0,0.006509925255621065
2369.0,0.006487796367889969
2368.0,0.006471722015563572
2367.0,0.0064546968568855966
2366.0,0.006438533742934223
2365.0,0.0064361098505013176
2364.0,0.00644272774296929
2363.0,0.006439481517647099
2362.0,0.006429689119401638
2361.0,0.00643350203292619
2360.0,0.006446618525657502
2359.0,0.006444994889989736
2358.0,0.006426448995888982
2357.0,0.006411214608431079
2356.0,0.006407326962669539
2355.0,0.006407253173076499
2354.0,0.006406340663006888
2353.0,0.00640484664544459
2352.0,0.0064015123009176925
2351.0,0.006397849975959765
2350.0,0.0064002490140337345
2349.0,0.006411774172812715
2348.0,0.006425070978621433
2347.0,0.0064290968727530535
2346.0,0.006427555485441416
2345.0,0.006438068717897091
2344.0,0.00646311037607845
2343.0,0.006482937982954914
2342.0,0.006485545307950168
2341.0,0.006480301331107783
2340.0,0.006480042571416236
2339.0,0.006489351986355603
2338.0,0.006507857996095547
2337.0,0.006529060626208166
2336.0,0.006538366207504038
2335.0,0.006526549256562262
2334.0,0.006501698731163923
2333.0,0.006479992441690317
2332.0,0.006469000252057071
2331.0,0.006468386576968567
2330.0,0.006483940725530751
2329.0,0.006528325574992878
2328.0,0.006610695098665684
2327.0,0.006731896138982167
2326.0,0.00687901217537026
2325.0,0.0070141317057632185
2324.0,0.007084499154920939
2323.0,0.007064488143568818
2322.0,0.006988126517802788
2321.0,0.006914872005789975
2320.0,0.006871672429369352
2319.0,0.006846554805335334
2318.0,0.0068255279330264405
2317.0,0.00680554754529265
2316.0,0.006781665984776597
2315.0,0.0067481510723454855
2314.0,0.006713440030212747
2313.0,0.00669534671706613
2312.0,0.006697705040797031
2311.0,0.006706068283528894
2310.0,0.006707770121655873
2309.0,0.006703594081577456
2308.0,0.0066981773341252574
2307.0,0.006694430023132271
2306.0,0.006697749090057534
2305.0,0.006713722110608461
2304.0,0.0067382225573825475
2303.0,0.006759733921414836
2302.0,0.006772726235507711
2301.0,0.006781619275450198
2300.0,0.006791253539215214
2299.0,0.006802114216648853
2298.0,0.006815144847740239
2297.0,0.00683188800496185
2296.0,0.006850056198044544
2295.0,0.006866413498269747
2294.0,0.0068844083629613735
2293.0,0.006910245413326224
2292.0,0.006942943491468717
2291.0,0.006975969057794049
2290.0,0.007007663259242164
2289.0,0.0070404157590444934
2288.0,0.007070227930721683
2287.0,0.007086895486539318
2286.0,0.007085696707282941
2285.0,0.007071011078516833
2284.0,0.0070482858769934644
2283.0,0.007020558096761322
2282.0,0.006992599567735571
2281.0,0.0069696521051880456
2280.0,0.006951467948320783
2279.0,0.0069350436513660055
2278.0,0.006921461322979286
2277.0,0.006911834646409966
2276.0,0.006900062493536139
2275.0,0.006880388095219692
2274.0,0.00685966190315824
2273.0,0.006850116415050656
2272.0,0.006852293402488822
2271.0,0.006855424451970454
2270.0,0.006852224899195311
2269.0,0.006841639722928519
2268.0,0.00682208325338754
2267.0,0.006794789830879612
2266.0,0.006770140319406443
2265.0,0.0067568190534754635
2264.0,0.006748607660893365
2263.0,0.006735456219365135
2262.0,0.006722621028570181
2261.0,0.0067232907148357
2260.0,0.006737092820946591
2259.0,0.0067513260873887935
2258.0,0.0067589997532337895
2257.0,0.0067588589786549995
2256.0,0.006743352811434413
2255.0,0.0067058253766958155
2254.0,0.0066571209363638995
2253.0,0.006616313408703189
2252.0,0.006587458875735453
2251.0,0.006562864016967083
2250.0,0.006545249210855586
2249.0,0.00654531165948571
2248.0,0.006560113214743534
2247.0,0.006573603251039445
2246.0,0.006579122744237512
2245.0,0.006582969818236049
2244.0,0.006586545363606095
2243.0,0.006583963764300116
2242.0,0.006576776444022206
2241.0,0.006572787520449544
2240.0,0.006571315717692449
2239.0,0.006566773197007768
2238.0,0.006563716633983332
2237.0,0.006569922983583674
2236.0,0.006578185533586128
2235.0,0.006575048313936774
2234.0,0.006563612292301219
2233.0,0.0065564875045933885
2232.0,0.006550125159254793
2231.0,0.006530400140813739
2230.0,0.006501230322782942
2229.0,0.0064820672776690815
2228.0,0.006477117563154922
2227.0,0.006471264301525461
2226.0,0.006457866316051556
2225.0,0.006446606616755175
2224.0,0.006442277724549021
2223.0,0.006439553030283503
2222.0,0.0064405243397945965
2221.0,0.006453988329763865
2220.0,0.00647364347784743
2219.0,0.006478753567896591
2218.0,0.006460543073926142
2217.0,0.006429810050677808
2216.0,0.006398486953869177
2215.0,0.006371555460768291
2214.0,0.0063556115455156255
2213.0,0.006354396633430427
2212.0,0.006357588742051098
2211.0,0.006353463004594507
2210.0,0.006348574529833114
2209.0,0.0063549954307929235
2208.0,0.0063651610282524215
2207.0,0.006362936621736845
2206.0,0.0063527231306160946
2205.0,0.0063516634103969296
2204.0,0.0063587118519129945
2203.0,0.006358632207317701
2202.0,0.006350816546313566
2201.0,0.006346140093394141
2200.0,0.006341944316649017
2199.0,0.006329925204570385
2198.0,0.00632282302014963
2197.0,0.006341092329006049
2196.0,0.006376136831294021
2195.0,0.006399829122983222
2194.0,0.006407708965200446
2193.0,0.006419076143768159
2192.0,0.006436406886470922
2191.0,0.006440786842821186
2190.0,0.00642976781510569
2189.0,0.006425050494903229
2188.0,0.0064372361966372705
2187.0,0.0064532863651685585
2186.0,0.00646240020891839
2185.0,0.006462804216408554
2184.0,0.0064408700029994865
2183.0,0.006378357197545232
2182.0,0.006288303631187979
2181.0,0.006212903515866199
2180.0,0.006176343620049529
2179.0,0.006164723400072062
2178.0,0.006154228472346751
2177.0,0.006132314368937129
2176.0,0.006095562811212489
2175.0,0.006056546506519987
2174.0,0.006049066758000451
2173.0,0.006096299967348781
2172.0,0.006177620182628099
2171.0,0.006255818115168555
2170.0,0.0063268656402800175
2169.0,0.006410054807522736
2168.0,0.006499171573055014
2167.0,0.006562051551973086
2166.0,0.006589681969921243
2165.0,0.006610964204182532
2164.0,0.006651338871129916
2163.0,0.006699196369262175
2162.0,0.006705126210175741
2161.0,0.006588856783320251
2160.0,0.006277086861957018
2159.0,0.005797721780245284
2158.0,0.005320576705372443
2157.0,0.005026528122868868
2156.0,0.0049482478022585125
2155.0,0.004995358883166337
2154.0,0.005085094581133849
2153.0,0.0051841575223614276
2152.0,0.005271662531843073
2151.0,0.005329869955111591
2150.0,0.005363257636470928
2149.0,0.005382444506576507
2148.0,0.005375107818608785
2147.0,0.005328989736059499
2146.0,0.005271534368212045
2145.0,0.005246013651500974
2144.0,0.005256059347515053
2143.0,0.005270702446996743
2142.0,0.00527477736057971
2141.0,0.005276594225838389
2140.0,0.0052756046379709935
2139.0,0.005259598101054325
2138.0,0.005227991901810746
2137.0,0.005185972918171946
2136.0,0.005124479976749218
2135.0,0.0050393536226708046
2134.0,0.004961387223768223
2133.0,0.004930794575620007
2132.0,0.00494859219277538
2131.0,0.004983508859855164
2130.0,0.005018052045317293
2129.0,0.005056100942425571
2128.0,0.005096418765404184
2127.0,0.005130121006250447
2126.0,0.005160238774611218
2125.0,0.005195923727360864
2124.0,0.005230617900195376
2123.0,0.005251150921033784
2122.0,0.005263446036505672
2121.0,0.00528399186310681
2120.0,0.005310390578869118
2119.0,0.005327459096904261
2118.0,0.005338718797612305
2117.0,0.005364229142661919
2116.0,0.0054068979423983156
2115.0,0.005446551991074685
2114.0,0.005468754342607829
2113.0,0.005476289466256493
2112.0,0.00547266949947564
2111.0,0.005457671831314861
2110.0,0.005440371027701786
2109.0,0.005433294014100504
2108.0,0.00543227947022848
2107.0,0.005422892378729138
2106.0,0.005405616877005488
2105.0,0.005393201857716334
2104.0,0.00538650056257779
2103.0,0.005376225140117693
2102.0,0.005364863601019341
2101.0,0.0053616267839958
2100.0,0.005359256354197503
2099.0,0.005341063745489039
2098.0,0.005307536611959011
2097.0,0.005270999222388737
2096.0,0.005230147163644327
2095.0,0.005179600797100175
2094.0,0.005138878463973222
2093.0,0.005137853346709956
2092.0,0.0051747453083159775
2091.0,0.005218335898362455
2090.0,0.005248645699688081
2089.0,0.005267699155582778
2088.0,0.00527468924799896
2087.0,0.005263668617979641
2086.0,0.0052465456877714015
2085.0,0.005247125936863627
2084.0,0.005267656116281221
2083.0,0.00528748043111732
2082.0,0.005296949777534404
2081.0,0.005305043671382322
2080.0,0.005313287146924867
2079.0,0.005311652207390079
2078.0,0.005303858116013869
2077.0,0.005306685151780269
2076.0,0.005319807291382879
2075.0,0.00532352051526779
2074.0,0.005309225415203097
2073.0,0.005285911025521074
2072.0,0.005257140796999847
2071.0,0.0052206917854414414
2070.0,0.005190692274670628
2069.0,0.0051877513397321304
2068.0,0.005204513595257374
2067.0,0.005211966400781406
2066.0,0.0052001446893766125
2065.0,0.005182959932857244
2064.0,0.005165680684493054
2063.0,0.005142552483069577
2062.0,0.005124657760091615
2061.0,0.005131566114547219
2060.0,0.005157257131816384
2059.0,0.005178436533410308
2058.0,0.005191976505463479
2057.0,0.005207206347626697
2056.0,0.0052124034616106915
2055.0,0.005196625856124097
2054.0,0.005198736312881849
2053.0,0.005276276678517198
2052.0,0.00541830866602175
2051.0,0.005540084070550882
2050.0,0.005574781397065789
2049.0,0.0055318919049589885
2048.0,0.005456176486294917
2047.0,0.005374336666875084
2046.0,0.0053046928551172675
2045.0,0.00526902365757356
2044.0,0.005263237360957012
2043.0,0.0052582641185457265
2042.0,0.005249987063949483
2041.0,0.005266818187003868
2040.0,0.0053140575502639755
2039.0,0.005359116815858853
2038.0,0.005383960553655219
2037.0,0.005399146533394046
2036.0,0.005398470826183843
2035.0,0.005354635778862036
2034.0,0.005275163801694097
2033.0,0.005208668878813558
2032.0,0.005176642877511581
2031.0,0.00515303830151216
2030.0,0.005123006762631844
2029.0,0.005103144911581535
2028.0,0.005093504930024682
2027.0,0.005069533731592696
2026.0,0.00503377721832782
2025.0,0.005018032463504009
2024.0,0.005024090745633032
2023.0,0.005020089781167813
2022.0,0.005002980944841789
2021.0,0.005005736538320979
2020.0,0.005035075958640397
2019.0,0.005059211578129054
2018.0,0.005064445422014727
2017.0,0.005067080396423667
2016.0,0.00506285196977428
2015.0,0.005028963094216991
2014.0,0.004982526304323139
2013.0,0.004972763498877805
2012.0,0.0050069846849752605
2011.0,0.005038447114552641
2010.0,0.005034371255779847
2009.0,0.005001558654504462
2008.0,0.004942982500290885
2007.0,0.0048517563425784695
2006.0,0.004757021489868905
2005.0,0.004713037561182673
2004.0,0.0047288159145481195
2003.0,0.004762797056718139
2002.0,0.004789628971883047
2001.0,0.004819020108969228
2000.0,0.00485217970130232
1999.0,0.004872666379783546
1998.0,0.004885507368702253
1997.0,0.004915785108465899
1996.0,0.0049620789001013224
1995.0,0.004996593093644101
1994.0,0.005013574735267644
1993.0,0.0050348795360939365
1992.0,0.005063675308607026
1991.0,0.00507896446952854
1990.0,0.0050837457570468815
1989.0,0.005102871456619994
1988.0,0.0051322585127401635
1987.0,0.005144301933011888
1986.0,0.005144453718096923
1985.0,0.005170225764660664
1984.0,0.005232101138415204
1983.0,0.005307354842570638
1982.0,0.005389990850557978
1981.0,0.0054847791079347214
1980.0,0.005548001581864749
1979.0,0.0055020519685791604
1978.0,0.005336479528502999
1977.0,0.005137476548586451
1976.0,0.004984125988336291
1975.0,0.00487976320423539
1974.0,0.004809656099240933
1973.0,0.004783742319351459
1972.0,0.004796743304940526
1971.0,0.004815702853331902
1970.0,0.00482759001258961
1969.0,0.00484418685492477
1968.0,0.004851728617379717
1967.0,0.0048159051471232985
1966.0,0.004749669753516729
1965.0,0.004707519038000606
1964.0,0.004702320749282087
1963.0,0.0046927455557177955
1962.0,0.004653230670692995
1961.0,0.004604016312226771
1960.0,0.004567779408422296
1959.0,0.004547382086019708
1958.0,0.004552592093149954
1957.0,0.004594541436882346
1956.0,0.004648232508591649
1955.0,0.004670347899398241
1954.0,0.0046576097580446636
1953.0,0.004643723816590678
1952.0,0.004640148554485798
1951.0,0.004630011412199446
1950.0,0.004616637515547509
1949.0,0.0046241891381234934
1948.0,0.00464900631729917
1947.0,0.0046612208054035474
1946.0,0.004658650124352244
1945.0,0.00466834409605608
1944.0,0.004687957421472215
1943.0,0.004678511099282412
1942.0,0.004632733702446609
1941.0,0.004592486011532335
1940.0,0.004579356419117136
1939.0,0.004573825248278443
1938.0,0.004564455717733231
1937.0,0.0045654472976372675
1936.0,0.004579885050060054
1935.0,0.004586690798902929
1934.0,0.004576804920402925
1933.0,0.004565819185505837
1932.0,0.004558994052397052
1931.0,0.004542649131749128
1930.0,0.00451771421204357
1929.0,0.004503600543167334
1928.0,0.004504864518495278
1927.0,0.004506620814400397
1926.0,0.004509381294889827
1925.0,0.004529816560206197
1924.0,0.0045626558420648715
1923.0,0.004579241941095379
1922.0,0.004573672473190437
1921.0,0.004570106562492315
1920.0,0.004578015253260209
1919.0,0.004579388157852944
1918.0,0.0045664372106674535
1917.0,0.0045571819438634175
1916.0,0.004558037813986158
1915.0,0.0045549291239018715
1914.0,0.004547609976902907
1913.0,0.004554225276518649
1912.0,0.004576506273840765
1911.0,0.004590682808588036
1910.0,0.004582778912697495
1909.0,0.004565079904469874
1908.0,0.0045488203498432155
1907.0,0.004529678454402905
1906.0,0.004511796265337208
1905.0,0.004509597802378073
1904.0,0.004519562263146617
1903.0,0.004522285716169557
1902.0,0.004515656750961134
1901.0,0.004517706729279606
1900.0,0.004533893266772965
1899.0,0.004548976045144943
1898.0,0.004556757641087441
1897.0,0.0045662680516968465
1896.0,0.004575201461317241
1895.0,0.004569045246842255
1894.0,0.004553339971514735
1893.0,0.004552017179733825
1892.0,0.004568313851260143
1891.0,0.004577655176244585
1890.0,0.0045641956991266195
1889.0,0.004542956691614242
1888.0,0.004528259329870511
1887.0,0.0045138197208183925
1886.0,0.004497822580494914
1885.0,0.004491672064554218
1884.0,0.004495685451487118
1883.0,0.004494915805199053
1882.0,0.004485993491481022
1881.0,0.004482603765724739
1880.0,0.0044885726732461825
1879.0,0.004490362230916055
1878.0,0.004483079116434842
1877.0,0.004478588529494401
1876.0,0.004480675984850097
1875.0,0.004479386059328655
1874.0,0.00447531140662887
1873.0,0.004482393623169172
1872.0,0.00450276963914322
1871.0,0.00452212631033657
1870.0,0.004531606087473208
1869.0,0.004535336237871818
1868.0,0.004531185618466951
1867.0,0.004511167469093913
1866.0,0.004486729132965681
1865.0,0.00447877163447459
1864.0,0.004486336287333397
1863.0,0.004490294908257057
1862.0,0.004485675837607088
1861.0,0.004487184527822952
1860.0,0.00449771866773928
1859.0,0.004500114098117452
1858.0,0.004488282721619281
1857.0,0.004477016498726301
1856.0,0.004474209504219699
1855.0,0.004469619231558235
1854.0,0.00446019721218376
1853.0,0.004458308282095576
1852.0,0.004470089522984838
1851.0,0.004485204334212135
1850.0,0.004497360596769634
1849.0,0.00451209014712231
1848.0,0.004526247813405251
1847.0,0.004524732409268797
1846.0,0.004507289738244816
1845.0,0.004496974554460683
1844.0,0.004503490968079915
1843.0,0.004506001296998481
1842.0,0.004495346325240434
1841.0,0.004486130656433336
1840.0,0.004485828878253626
1839.0,0.004485093478935884
1838.0,0.004479510544300599
1837.0,0.004478664886633991
1836.0,0.004485626633549191
1835.0,0.004489337598105757
1834.0,0.004485989158443049
1833.0,0.0044865164476627015
1832.0,0.004497520439034792
1831.0,0.00450661617403756
1830.0,0.004503902723674912
1829.0,0.004507902555459494
1828.0,0.004530454743756062
1827.0,0.0045544741887283266
1826.0,0.004564800476096852
1825.0,0.004565510732402167
1824.0,0.004561377939078719
1823.0,0.0045467553977125855
1822.0,0.004525113404545354
1821.0,0.0045111821915466985
1820.0,0.004505651414496497
1819.0,0.0044897557094221545
1818.0,0.004458109235411262
1817.0,0.00443325245594162
1816.0,0.004433758115020388
1815.0,0.004453026569342339
1814.0,0.004478536178010037
1813.0,0.004508058096126421
1812.0,0.004535366884568872
1811.0,0.004546005219653946
1810.0,0.004542674871439319
1809.0,0.004544678958912468
1808.0,0.004555448978590666
1807.0,0.004562913283272778
1806.0,0.004570888367298887
1805.0,0.004599467970876363
1804.0,0.004649019432218871
1803.0,0.004689593613871682
1802.0,0.004695406443851372
1801.0,0.004678875366891874
1800.0,0.004669383817868311
1799.0,0.004677388000607958
1798.0,0.004697937202118251
1797.0,0.004722367220361953
1796.0,0.004737229912471854
1795.0,0.004733896791271788
1794.0,0.004726325836880885
1793.0,0.004742105415123143
1792.0,0.004775918724825308
1791.0,0.004791500060228268
1790.0,0.004784330280094002
1789.0,0.004782845144971018
1788.0,0.00480017082092251
1787.0,0.004822579187293907
1786.0,0.004835681570110991
1785.0,0.004845324816643629
1784.0,0.004861781809767332
1783.0,0.004882474428998129
1782.0,0.004900616687737095
1781.0,0.004917978037973579
1780.0,0.004934721717772309
1779.0,0.004944320600728149
1778.0,0.004950453807324131
1777.0,0.00496606349764293
1776.0,0.00499105655839111
1775.0,0.005006583124695664
1774.0,0.0050060998588047955
1773.0,0.0050184742806822615
1772.0,0.005066905115085178
1771.0,0.00513204703136524
1770.0,0.005196421935236655
1769.0,0.005262432929569568
1768.0,0.005323745025714349
1767.0,0.005366740772012671
1766.0,0.005397953986035628
1765.0,0.005444853458169692
1764.0,0.005523818698028413
1763.0,0.005629507183794223
1762.0,0.005751696305083556
1761.0,0.005891705106684649
1760.0,0.006045618595501065
1759.0,0.006204825532940825
1758.0,0.006379113987437359
1757.0,0.0065886405659664115
1756.0,0.006823432809788652
1755.0,0.007050316001052467
1754.0,0.007274101634190501
1753.0,0.007534708156847257
1752.0,0.00785248721153526
1751.0,0.008185691537768767
1750.0,0.00848027879770602
1749.0,0.008743149905843284
1748.0,0.008989043706699399
1747.0,0.009196592305068415
1746.0,0.009359249657419865
1745.0,0.009496291518557394
1744.0,0.009600628039462964
1743.0,0.009640293029668826
1742.0,0.009623939479762502
1741.0,0.009606950548942915
1740.0,0.009612497210153483
1739.0,0.009608450565232567
1738.0,0.009582932737705442
1737.0,0.009563181059319376
1736.0,0.009562131405298933
1735.0,0.009568339190184955
1734.0,0.009570052437745655
1733.0,0.009582133762931905
1732.0,0.009601525972799464
1731.0,0.009608486840104026
1730.0,0.009606284419794418
1729.0,0.009616567090337669
1728.0,0.009648846463348227
1727.0,0.009693898841937795
1726.0,0.00975051142907362
1725.0,0.009831570763846414
1724.0,0.009929534280466432
1723.0,0.010009973987070523
1722.0,0.010059948727080558
1721.0,0.010109899255799174
1720.0,0.010196137631217066
1719.0,0.010323087173272249
1718.0,0.010462352052251333
1717.0,0.010587940224491825
1716.0,0.010679149289947358
1715.0,0.010728727173516932
1714.0,0.010764763927426677
1713.0,0.010819731786668278
1712.0,0.010892809166172477
1711.0,0.010962990812354866
1710.0,0.011022053222382838
1709.0,0.011081134294515314
1708.0,0.011153739381645007
1707.0,0.011244391924682748
1706.0,0.011354453640921604
1705.0,0.011475376889988965
1704.0,0.011571733080203072
1703.0,0.011613216413020367
1702.0,0.011631372306805913
1701.0,0.011762767714381723
1700.0,0.012047978065140755
1699.0,0.012311998521874349
1698.0,0.012492523706350655
1697.0,0.012670135756441612
1696.0,0.012885768890949677
1695.0,0.01308522583344199
1694.0,0.013230098708122886
1693.0,0.013370812209914852
1692.0,0.013553609314076846
1691.0,0.013778852225628411
1690.0,0.014026388476321303
1689.0,0.014271768010499885
1688.0,0.014485319601626436
1687.0,0.014647753558326213
1686.0,0.014802223049204477
1685.0,0.015090305726887923
1684.0,0.015523226625245693
1683.0,0.015876656305333275
1682.0,0.01610846074576799
1681.0,0.01632347589829879
1680.0,0.01654082704999596
1679.0,0.01672075619205784
1678.0,0.016858532479184327
1677.0,0.017020950290713502
1676.0,0.0172810264624736
1675.0,0.01760560905640861
1674.0,0.017880886774802568
1673.0,0.018084106023350283
1672.0,0.018270499852773226
1671.0,0.018485501488167286
1670.0,0.018746577601496076
1669.0,0.019030736115858586
1668.0,0.019278786425749563
1667.0,0.01944951583085036
1666.0,0.01956068438785424
1665.0,0.019671364316928314
1664.0,0.019834456907951676
1663.0,0.020043855512997737
1662.0,0.020242264512803483
1661.0,0.02040520286328223
1660.0,0.020545325964660608
1659.0,0.020661307544454523
1658.0,0.020748075913594354
1657.0,0.020816271829569594
1656.0,0.020874606556503587
1655.0,0.020922931846419652
1654.0,0.02100910304801951
1653.0,0.02118460778855524
1652.0,0.021338629919137472
1651.0,0.02138375001418012
1650.0,0.021379022246708335
1649.0,0.02140064884124754
1648.0,0.021467708322026095
1647.0,0.021528024531992363
1646.0,0.02154005896183338
1645.0,0.021534599894765874
1644.0,0.021529936754489554
1643.0,0.02151212990016438
1642.0,0.021473438570004656
1641.0,0.021421551827352923
1640.0,0.021366175519234563
1639.0,0.02130038461557546
1638.0,0.02121064645463323
1637.0,0.021098273113069575
1636.0,0.020979094492714304
1635.0,0.02087716004187971
1634.0,0.020806194988617865
1633.0,0.020755389433338604
1632.0,0.020700947213800957
1631.0,0.02062324935788193
1630.0,0.020521666950352627
1629.0,0.02041422311442387
1628.0,0.020311582067936828
1627.0,0.02020786113394371
1626.0,0.020099433567701653
1625.0,0.01999694306127482
1624.0,0.01990664744023385
1623.0,0.019816242420204872
1622.0,0.019721595160179763
1621.0,0.019634695510676915
1620.0,0.019556637393526744
1619.0,0.019470532442500223
1618.0,0.019362569315954647
1617.0,0.019245384153887712
1616.0,0.019146099019379748
1615.0,0.01906668800579004
1614.0,0.018996160288970217
1613.0,0.018932479317734306
1612.0,0.018872720333240174
1611.0,0.01881056224284474
1610.0,0.018743972129253727
1609.0,0.01867867357603297
1608.0,0.018617457941510606
1607.0,0.018555688914687892
1606.0,0.018491660261317124
1605.0,0.01843157102468325
1604.0,0.018376913954563118
1603.0,0.018316485624539414
1602.0,0.018241361998096717
1601.0,0.0181553669314009
1600.0,0.01806306727921316
1599.0,0.017962238637110238
1598.0,0.0178548764011967
1597.0,0.01775114856295346
1596.0,0.017654645008481417
1595.0,0.017558217927364884
1594.0,0.017460617703369517
1593.0,0.01737249515600165
1592.0,0.01729948315013395
1591.0,0.017234524856748333
1590.0,0.017171831054818232
1589.0,0.01711654766276244
1588.0,0.017075374698249466
1587.0,0.017047054936267927
1586.0,0.017028187287294574
1585.0,0.017017290436819852
1584.0,0.017013792840700794
1583.0,0.017014993314137253
1582.0,0.017019349753233583
1581.0,0.017029573753773494
1580.0,0.017047537238433212
1579.0,0.01706921776063855
1578.0,0.017090279495958573
1577.0,0.017118902274252865
1576.0,0.01715382036335382
1575.0,0.01716476666367329
1574.0,0.017141173189247527
1573.0,0.017105249885181615
1572.0,0.017074591628914157
1571.0,0.017062092865490763
1570.0,0.01707482450280891
1569.0,0.017103470450603002
1568.0,0.017132075897083304
1567.0,0.017146911575151604
1566.0,0.01715026909782303
1565.0,0.017155873276556325
1564.0,0.01716909063196448
1563.0,0.01716557796130942
1562.0,0.017120334854606085
1561.0,0.017033443557772227
1560.0,0.01699176003556991
1559.0,0.0169691107454054
1558.0,0.01691686554125321
1557.0,0.016895199592697432
1556.0,0.01688900503885323
1555.0,0.016838365439531523
1554.0,0.016732322966453644
1553.0,0.01661582381797651
1552.0,0.01651745973150686
1551.0,0.01639537000046087
1550.0,0.01620339066721306
1549.0,0.015973138324587396
1548.0,0.015769797287402947
1547.0,0.01559929926484695
1546.0,0.015418284422561483
1545.0,0.01518714677184237
1544.0,0.01490896238948012
1543.0,0.014606690972216507
1542.0,0.014282905145289057
1541.0,0.013892506209904912
1540.0,0.013406699335731836
1539.0,0.01295598186797687
1538.0,0.012635943446082735
1537.0,0.012399467509972827
1536.0,0.012182141732219882
1535.0,0.011917791118823743
1534.0,0.01155767376658866
1533.0,0.011167751919185743
1532.0,0.01086236504708556
1531.0,0.01063416425919199
1530.0,0.010428708855520111
1529.0,0.010235103572032753
1528.0,0.010046261949454181
1527.0,0.009833517655869461
1526.0,0.00959802050189631
1525.0,0.009396242639245789
1524.0,0.00925791996709276
1523.0,0.00913805763862233
1522.0,0.008974240244155189
1521.0,0.008793561228330122
1520.0,0.008662311294918186
1519.0,0.008570400913643587
1518.0,0.00848848843407383
1517.0,0.008407495857539317
1516.0,0.008323212234811136
1515.0,0.00823453829532102
1514.0,0.008153149345926617
1513.0,0.008101541270581455
1512.0,0.008080822156681851
1511.0,0.008068548522230781
1510.0,0.008056741798612963
1509.0,0.008052690651175075
1508.0,0.008016795782389638
1507.0,0.007845777891916891
1506.0,0.007645518031368082
1505.0,0.00758213278652901
1504.0,0.007597210808740429
1503.0,0.007606332556091841
1502.0,0.007596521682855916
1501.0,0.007588617348343273
1500.0,0.0076037540782395024
1499.0,0.007635813687314667
1498.0,0.00769104028140472
1497.0,0.007802117339457465
1496.0,0.007940043262220796
1495.0,0.00802428847748914
1494.0,0.008058288431264786
1493.0,0.008102920841326348
1492.0,0.008171281477244573
1491.0,0.008216702766446605
1490.0,0.008217629218696452
1489.0,0.00822730661125107
1488.0,0.008263330232158776
1487.0,0.008298939373202557
1486.0,0.00835515110800726
1485.0,0.008465028147984584
1484.0,0.008618078926537126
1483.0,0.008790198328889798
1482.0,0.008995054957382117
1481.0,0.009254836882915207
1480.0,0.009544178219617581
1479.0,0.009844445109513256
1478.0,0.010225194446614997
1477.0,0.010782111488748828
1476.0,0.011502983997220042
1475.0,0.012321820628452261
1474.0,0.013345783211230462
1473.0,0.014762216243408444
1472.0,0.016358865783148647
1471.0,0.017743251499958743
1470.0,0.01894257259401223
1469.0,0.020145428824890278
1468.0,0.021397603928926513
1467.0,0.022712626096281115
1466.0,0.024195240305064702
1465.0,0.025857052942042984
1464.0,0.027359234164522076
1463.0,0.028396224621267323
1462.0,0.02905809834340875
1461.0,0.029543370707004767
1460.0,0.02994246729954607
1459.0,0.030293777715552445
1458.0,0.030703976435796698
1457.0,0.031176773411795214
1456.0,0.031462387477525194
1455.0,0.03150454866813971
1454.0,0.03146064168264601
1453.0,0.03135459830882403
1452.0,0.03109820910014298
1451.0,0.03063855480348255
1450.0,0.029960146936959316
1449.0,0.028969351058598956
1448.0,0.027599028574164613
1447.0,0.026045733885377318
1446.0,0.02459426961302069
1445.0,0.023317120909456545
1444.0,0.02216473883849421
1443.0,0.021145835200821497
1442.0,0.020317136346578425
1441.0,0.01969285151161797
1440.0,0.019247154447766066
1439.0,0.018964100350071723
1438.0,0.01883045354007375
1437.0,0.018747157466269076
1436.0,0.018530327556587085
1435.0,0.018109916828298066
1434.0,0.017541020717709768
1433.0,0.016858766596704013
1432.0,0.016105802396408152
1431.0,0.015382480693950002
1430.0,0.01477733381730333
1429.0,0.014306834038929486
1428.0,0.013963178515842164
1427.0,0.01374097675439392
1426.0,0.01359821632961121
1425.0,0.013466011497228838
1424.0,0.013318745399260985
1423.0,0.013192555696544348
1422.0,0.013109187172809362
1421.0,0.013045593634780034
1420.0,0.012983772156338719
1419.0,0.01292086729381525
1418.0,0.01283931723438947
1417.0,0.012718940423683033
1416.0,0.012576695932597446
1415.0,0.01244492596139803
1414.0,0.012325879619021533
1413.0,0.012194800248348923
1412.0,0.01204004692242933
1411.0,0.011874940108506746
1410.0,0.0117038488982108
1409.0,0.011517067465348066
1408.0,0.011323369896791731
1407.0,0.011144783424555528
1406.0,0.010968719547766861
1405.0,0.010755350291376977
1404.0,0.010518998559770749
1403.0,0.010321479019958207
1402.0,0.010175036367370072
1401.0,0.010037811778981413
1400.0,0.009887854641628568
1399.0,0.009748633741945465
1398.0,0.009631941060706176
1397.0,0.009510343491336252
1396.0,0.009377422880632211
1395.0,0.009264692603568717
1394.0,0.009179476717566618
1393.0,0.009103589354757071
1392.0,0.009055020471128538
1391.0,0.00907287760335885
1390.0,0.00916448658702189
1389.0,0.00932144244936476
1388.0,0.009584791220552088
1387.0,0.010027382363780209
1386.0,0.010666087238367131
1385.0,0.011522096669279717
1384.0,0.012730225956854099
1383.0,0.014460525529004137
1382.0,0.016792026426962283
1381.0,0.019752513125772902
1380.0,0.02337646795077753
1379.0,0.0274778576291588
1378.0,0.03141206884563765
1377.0,0.03429599499300213
1376.0,0.035364170067077275
1375.0,0.03413949823144062
1374.0,0.030938388784797773
1373.0,0.027028470503614996
1372.0,0.023508639422441552
1371.0,0.02061868459131961
1370.0,0.018225055241301358
1369.0,0.016277980833532164
1368.0,0.014824560705210543
1367.0,0.013854186850927281
1366.0,0.01326887372803058
1365.0,0.012967341359725854
1364.0,0.012881107806455107
1363.0,0.012960726954282548
1362.0,0.0131513795485096
1361.0,0.013377641063143129
1360.0,0.013550688448731127
1359.0,0.013587517424504494
1358.0,0.013433212701320994
1357.0,0.013079792653048244
1356.0,0.012565263109443713
1355.0,0.01196056002144602
1354.0,0.011352981962364974
1353.0,0.010812979023425293
1352.0,0.010361578389360263
1351.0,0.00998192372542508
1350.0,0.00965378636700007
1349.0,0.009368467334070587
1348.0,0.009121704155597361
1347.0,0.00890763732598593
1346.0,0.008722670924381115
1345.0,0.008567632892304722
1344.0,0.00844631062235847
1343.0,0.008364127221596775
1342.0,0.008323264655989997
1341.0,0.008312645770033036
1340.0,0.008307386720252614
1339.0,0.008289557918593494
1338.0,0.008266947243025567
1337.0,0.008262172981899827
1336.0,0.008291438884423076
1335.0,0.008360312162069651
1334.0,0.00846954447452392
1333.0,0.008615428960569636
1332.0,0.0087847651377672
1331.0,0.008955410651587658
1330.0,0.009105775395444738
1329.0,0.009224290595772672
1328.0,0.00930942981255738
1327.0,0.00936514215696312
1326.0,0.009396996710107124
1325.0,0.009410351685497375
1324.0,0.009410415845776404
1323.0,0.009402198591485953
1322.0,0.009388835104419888
1321.0,0.009367637629067973
1320.0,0.00932845189866274
1319.0,0.009258923323167013
1318.0,0.009154195369940093
1317.0,0.009020147319856127
1316.0,0.008866509610749798
1315.0,0.008699630434197662
1314.0,0.008522632805405796
1313.0,0.008341368875443348
1312.0,0.008168874877894708
1311.0,0.008023242607369639
1310.0,0.00792235706256948
1309.0,0.00788233972410744
1308.0,0.007913900081239975
1307.0,0.00800809774265471
1306.0,0.008120887556257733
1305.0,0.008183160788138757
1304.0,0.008139686130393285
1303.0,0.007985444013323071
1302.0,0.007766952067693915
1301.0,0.007546745294557405
1300.0,0.00736609928750614
1299.0,0.007233771142519829
1298.0,0.007135737315949742
1297.0,0.007050544307075777
1296.0,0.006961981107761679
1295.0,0.006864406038254969
1294.0,0.006759727219511
1293.0,0.006652219010300924
1292.0,0.00654695237940049
1291.0,0.006449104812957183
1290.0,0.00636071537876853
1289.0,0.006279674612876006
1288.0,0.006204707525432238
1287.0,0.006139063743171896
1286.0,0.00608632026771099
1285.0,0.00604534562226337
1284.0,0.0060123313326923295
1283.0,0.0059853419511291805
1282.0,0.005964655045149217
1281.0,0.005950154804488499
1280.0,0.0059403403575001255
1279.0,0.0059324705561982615
1278.0,0.005922997946668255
1277.0,0.00590998751025335
1276.0,0.005896024509416915
1275.0,0.0058865516233341745
1274.0,0.005884027441736293
1273.0,0.0058858806289337606
1272.0,0.00588891783362765
1271.0,0.005893174178155686
1270.0,0.005900429969880681
1269.0,0.0059117822501177746
1268.0,0.005928400588837214
1267.0,0.005952137330180516
1266.0,0.005984430010994865
1265.0,0.006027027554241131
1264.0,0.006083937229120338
1263.0,0.006160124663379039
1262.0,0.006258886346297498
1261.0,0.006383475836713526
1260.0,0.006539971208399725
1259.0,0.00673131503594656
1258.0,0.0069442256977828055
1257.0,0.007143874281226885
1256.0,0.007285010429764363
1255.0,0.007335282258942054
1254.0,0.007296171308519584
1253.0,0.007202808814463247
1252.0,0.0071013046979693396
1251.0,0.007023885370579196
1250.0,0.006979786742344479
1249.0,0.006963392123808407
1248.0,0.00696722991446384
1247.0,0.006986771491600494
1246.0,0.007017601487304735
1245.0,0.007054027975678397
1244.0,0.007091612649378626
1243.0,0.00712894312830898
1242.0,0.0071665248268182845
1241.0,0.007205249120843372
1240.0,0.007245665080066759
1239.0,0.007287136690937479
1238.0,0.007327432950651025
1237.0,0.007364106143339417
1236.0,0.007396538724851553
1235.0,0.007426499780729836
1234.0,0.007457016523277234
1233.0,0.007490540695622676
1232.0,0.007527145744746807
1231.0,0.007564176544467591
1230.0,0.00759895317423275
1229.0,0.007632476214169213
1228.0,0.007669339178893869
1227.0,0.007713597931431096
1226.0,0.007765819908494986
1225.0,0.007824312099244083
1224.0,0.007887407908822587
1223.0,0.007953395378256707
1222.0,0.008019515205441233
1221.0,0.00808222306951289
1220.0,0.008138062056411564
1219.0,0.008184440901972513
1218.0,0.008220942744642697
1217.0,0.008250072174187445
1216.0,0.008275567251681926
1215.0,0.008300047226116505
1214.0,0.008325112540631894
1213.0,0.008353116692050291
1212.0,0.008387093483688005
1211.0,0.008428745768278725
1210.0,0.008477909843473526
1209.0,0.008534077823480061
1208.0,0.008597137515095448
1207.0,0.008666827085221441
1206.0,0.008743179547956533
1205.0,0.008827397957989522
1204.0,0.008920645427900458
1203.0,0.009021973574256879
1202.0,0.009128750817409477
1201.0,0.00923886842425916
1200.0,0.009351708325055833
1199.0,0.00946825302730816
1198.0,0.009591500802356132
1197.0,0.009724857193879857
1196.0,0.009868199893769124
1195.0,0.010017660888415594
1194.0,0.010171322605894371
1193.0,0.010332429339384277
1192.0,0.01050435991356253
1191.0,0.010685425324497868
1190.0,0.01087193153454893
1189.0,0.011063485334625825
1188.0,0.011261850311527597
1187.0,0.011467698858024756
1186.0,0.011682026717436723
1185.0,0.011907274454479637
1184.0,0.012143624285135855
1183.0,0.012388424319980555
1182.0,0.012643006917659502
1181.0,0.012915294283756134
1180.0,0.013211798404182556
1179.0,0.013533256114191216
1178.0,0.013883696079200883
1177.0,0.014277942396466632
1176.0,0.014735018463327348
1175.0,0.015270740314236218
1174.0,0.015901626990151897
1173.0,0.01664479752070776
1172.0,0.01749969261556319
1171.0,0.018428755006148215
1170.0,0.019360910350399083
1169.0,0.02021051742089104
1168.0,0.020894780787826594
1167.0,0.02136073713096899
1166.0,0.021618935376420068
1165.0,0.021740093540866583
1164.0,0.021804916322456715
1163.0,0.021866210935102444
1162.0,0.021955467697485378
1161.0,0.022094581177556513
1160.0,0.02228733259021875
1159.0,0.02251929615435933
1158.0,0.022780723207930807
1157.0,0.02307637188936861
1156.0,0.02340552348390268
1155.0,0.023751368428562732
1154.0,0.0240999021177994
1153.0,0.02445001583388109
1152.0,0.024795554911324815
1151.0,0.02511963766768524
1150.0,0.025418465035626885
1149.0,0.02570860671163044
1148.0,0.026000059782544285
1147.0,0.026285205329807538
1146.0,0.02656343388218083
1145.0,0.02685049265814316
1144.0,0.027152227443865334
1143.0,0.027455202039954982
1142.0,0.027755110359964398
1141.0,0.02806780558962478
1140.0,0.02839976850931395
1139.0,0.02873553423852729
1138.0,0.02906758409599832
1137.0,0.029409969307218897
1136.0,0.029768775693991598
1135.0,0.030129263975453194
1134.0,0.030486611352306764
1133.0,0.030858125665997473
1132.0,0.031250086236279395
1131.0,0.03164411720240207
1130.0,0.0320315144938894
1129.0,0.03242859296181285
1128.0,0.03284234051420873
1127.0,0.033255083517927685
1126.0,0.03366009204370608
1125.0,0.034076564797957024
1124.0,0.03451178475217014
1123.0,0.03494583360117593
1122.0,0.035371586854174804
1121.0,0.03581053234245658
1120.0,0.03627068772782871
1119.0,0.03672990271604126
1118.0,0.037179280358703104
1117.0,0.037640082689051446
1116.0,0.038117719726139525
1115.0,0.03858363286888287
1114.0,0.039024994834239296
1113.0,0.03946720372766616
1112.0,0.03992492199238817
1111.0,0.04037894101899871
1110.0,0.04082374385863371
1109.0,0.04128701197192614
1108.0,0.041777921224522174
1107.0,0.04226760169574738
1106.0,0.04274383704308578
1105.0,0.043230222950402256
1104.0,0.04372699675287606
1103.0,0.044190040759933234
1102.0,0.044594404479453884
1101.0,0.04496338641092264
1100.0,0.045310379930570126
1099.0,0.04561382454139306
1098.0,0.04587577048385397
1097.0,0.04613972446915073
1096.0,0.04642258446126304
1095.0,0.046691082129296194
1094.0,0.04693064965994651
1093.0,0.04717180990039487
1092.0,0.04742342055992963
1091.0,0.04764858112585363
1090.0,0.04783488572476453
1089.0,0.04802165393407453
1088.0,0.048228986080481755
1087.0,0.04842592042705454
1086.0,0.04859650139586731
1085.0,0.04876900753574763
1084.0,0.04895107805171615
1083.0,0.049105334147247895
1082.0,0.04921806516933525
1081.0,0.04932335904660576
1080.0,0.049432914795964907
1079.0,0.049511974601436984
1078.0,0.04954953407228818
1077.0,0.04958141451500329
1076.0,0.04961984883506533
1075.0,0.04963199865374725
1074.0,0.04961117794802075
1073.0,0.04959550448334541
1072.0,0.04959274252273571
1071.0,0.04956125380627725
1070.0,0.049488463472808636
1069.0,0.04941349953673888
1068.0,0.04935028440748077
1067.0,0.04926377813604537
1066.0,0.04914393529971814
1065.0,0.04902844400941799
1064.0,0.04893004346534017
1063.0,0.048813410963570565
1062.0,0.048666185550416685
1061.0,0.048523165643877236
1060.0,0.048397599599787414
1059.0,0.04825747404088183
1058.0,0.04809271956266774
1057.0,0.04793799479587717
1056.0,0.047806610256340344
1055.0,0.047667899389319805
1054.0,0.04751275536443743
1053.0,0.047377455475733785
1052.0,0.047275265709750276
1051.0,0.0471696984866024
1050.0,0.04704835062243443
1049.0,0.04695022423297515
1048.0,0.046887207412212986
1047.0,0.04681672855370397
1046.0,0.04671392622539628
1045.0,0.04659501105298514
1044.0,0.0464577696352694
1043.0,0.04627102470288904
1042.0,0.04603700960516772
1041.0,0.04580087149740355
1040.0,0.0455831400185994
1039.0,0.04536081496168354
1038.0,0.045127082360459585
1037.0,0.044909738131886576
1036.0,0.044715368079510875
1035.0,0.04451260795520765
1034.0,0.04428802203540051
1033.0,0.04406466065924324
1032.0,0.04384909022354644
1031.0,0.043614016175871476
1030.0,0.0433498194567933
1029.0,0.04308062229328164
1028.0,0.042813795095567375
1027.0,0.042525145576704566
1026.0,0.042209086693251886
1025.0,0.04189366702481698
1024.0,0.04159153881840401
1023.0,0.04128305381388346
1022.0,0.040961044792164
1021.0,0.04064629482334304
1020.0,0.04034442106945055
1019.0,0.040032100013637946
1018.0,0.03970039021570289
1017.0,0.039368792992950215
1016.0,0.03904381031836499
1015.0,0.0387062208869468
1014.0,0.038351385447056414
1013.0,0.0380004025542746
1012.0,0.03765916473394912
1011.0,0.03730611944354428
1010.0,0.03693250027899254
1009.0,0.036557503893238044
1008.0,0.03619279353253601
1007.0,0.03582921695717876
1006.0,0.035472323390358856
1005.0,0.03515893962276247
1004.0,0.034929557940679486
1003.0,0.03481655318759389
1002.0,0.03486029976851244
1001.0,0.03508371654117806
1000.0,0.03541549108193484
999.0,0.03566036917698293
998.0,0.035581739715872744
997.0,0.03502702980234619
996.0,0.0339933455838364
995.0,0.032617727968779896
994.0,0.03111286149748753
993.0,0.02966577595486182
992.0,0.028363845091951
991.0,0.0272081812697538
990.0,0.026176097815550976
989.0,0.025251525127051585
988.0,0.02441544950529522
987.0,0.023646302469678814
986.0,0.02293815352102895
985.0,0.0223001610802753
984.0,0.021737512784497592
983.0,0.02125092922188014
982.0,0.020855481392759605
981.0,0.020582466510393024
980.0,0.020459583240691935
979.0,0.02050158429370574
978.0,0.020718084877497687
977.0,0.021108060026715298
976.0,0.021629149729863354
975.0,0.022171080276437216
974.0,0.022563062613208732
973.0,0.022616778343614478
972.0,0.02219749253132695
971.0,0.021306365383733514
970.0,0.020108262805985606
969.0,0.018846995087915045
968.0,0.017712674984224488
967.0,0.016781038546271738
966.0,0.01604444492038436
965.0,0.01546507424775172
964.0,0.015001632479613568
963.0,0.014618004225676887
962.0,0.014290316631875168
961.0,0.014006213902566369
960.0,0.013755309884425661
959.0,0.013526665354968343
958.0,0.013315906845982387
957.0,0.01312519739795736
956.0,0.012953159237759315
955.0,0.012792155176758923
954.0,0.012637142328335186
953.0,0.012489534579956552
952.0,0.012350650248557634
951.0,0.012218849550567273
950.0,0.012094396169015455
949.0,0.0119794324071207
948.0,0.011871978906090395
947.0,0.011767673108060778
946.0,0.011668546189293805
945.0,0.011582210603078145
944.0,0.011510659786727807
943.0,0.011446282546171357
942.0,0.011378952316288493
941.0,0.011299471148720923
940.0,0.011196437940477713
939.0,0.011060353444357688
938.0,0.01089454247316354
937.0,0.010714697599253028
936.0,0.010535692149535425
935.0,0.010365431549287984
934.0,0.010210574043013898
933.0,0.01007771345127155
932.0,0.009965779539422548
931.0,0.009865197216899251
930.0,0.009768514245359015
929.0,0.009676518108798587
928.0,0.009591884116390602
927.0,0.009513367090118725
926.0,0.009439323136350906
925.0,0.009371287712945752
924.0,0.009310812338337691
923.0,0.009257155473864203
922.0,0.009210092541432863
921.0,0.009170312682000204
920.0,0.00913555438746125
919.0,0.009101533864239989
918.0,0.009068199816529864
917.0,0.009039479434171653
916.0,0.009015150304788536
915.0,0.00898903323635851
914.0,0.00895758654799343
913.0,0.00892408759404827
912.0,0.00889113545523054
911.0,0.008855058624754672
910.0,0.008812038807586775
909.0,0.008765397406646924
908.0,0.00872387055019343
907.0,0.00869798787745644
906.0,0.008701878869977581
905.0,0.008753592685991211
904.0,0.008867254784726917
903.0,0.009042458418528973
902.0,0.009257693901835149
901.0,0.009468425723560677
900.0,0.009613427777495558
899.0,0.009637635731145627
898.0,0.009523012644000756
897.0,0.009297694634854893
896.0,0.009013756461506183
895.0,0.00872065975439484
894.0,0.008454798098133385
893.0,0.008237127401298183
892.0,0.008070334116206123
891.0,0.007942047827750931
890.0,0.007837311824805971
889.0,0.007748624977178674
888.0,0.007674226760840192
887.0,0.007612301857405003
886.0,0.007561032001161072
885.0,0.007520763511374323
884.0,0.0074921074564003425
883.0,0.0074746595356502046
882.0,0.007470756840279652
881.0,0.0074864546483121765
880.0,0.0075234239845741995
879.0,0.00757162635053669
878.0,0.007614638168729138
877.0,0.007641221756861705
876.0,0.007648230610219088
875.0,0.00763441123160534
874.0,0.007594841484249392
873.0,0.0075193506686450865
872.0,0.007395595088928186
871.0,0.007219832041569594
870.0,0.007008408068369304
869.0,0.00679349643373863
868.0,0.006603208827999672
867.0,0.006447360233823704
866.0,0.0063214056132319466
865.0,0.00621802244978948
864.0,0.006131358253259741
863.0,0.006054601982100007
862.0,0.00598082118145829
861.0,0.005907318573064707
860.0,0.00583565512920004
859.0,0.005767173384342288
858.0,0.005701442577322103
857.0,0.005638590392932102
856.0,0.005579395799974584
855.0,0.0055229802150745435
854.0,0.0054685622465715095
853.0,0.005420467039265717
852.0,0.005387502655051215
851.0,0.005376185956688687
850.0,0.0053888168121490245
849.0,0.005430370126741942
848.0,0.005515414282281887
847.0,0.005672959619652392
846.0,0.005956602314542396
845.0,0.006443153211961605
844.0,0.007178161191500545
843.0,0.008073302217880387
842.0,0.008859022487923314
841.0,0.009202835846025232
840.0,0.008938859787337772
839.0,0.008198821208319176
838.0,0.0073058729143527165
837.0,0.006538413808825661
836.0,0.005994705039327638
835.0,0.005635731471920242
834.0,0.00539176987051803
833.0,0.00521549084952351
832.0,0.005078009100016658
831.0,0.004960726953501334
830.0,0.004858186455486066
829.0,0.004772830782541893
828.0,0.0047027642940801456
827.0,0.0046414312174975075
826.0,0.004586213736045442
825.0,0.004537972189230462
824.0,0.004495283996742826
823.0,0.00445829843463362
822.0,0.004433319690900063
821.0,0.004424529468958844
820.0,0.0044272896030956264
819.0,0.00443763480695402
818.0,0.004462830565866148
817.0,0.004516317652734718
816.0,0.004607241955693774
815.0,0.004740141791903428
814.0,0.004918017327144739
813.0,0.005135435961145818
812.0,0.005369548895094851
811.0,0.005585848871466849
810.0,0.0057534769772850745
809.0,0.005850227843732165
808.0,0.005858792033668974
807.0,0.0057743070403639876
806.0,0.005618944868358686
805.0,0.0054363836367066105
804.0,0.005266367793279809
803.0,0.005128539853243181
802.0,0.0050262016011585215
801.0,0.0049541914314047905
800.0,0.00490224110952219
799.0,0.004860655929893225
798.0,0.0048272108989921205
797.0,0.00480396510731374
796.0,0.004787273326077399
795.0,0.004768231856767719
794.0,0.0047440855936923005
793.0,0.004721393632502435
792.0,0.004705459012681037
791.0,0.004693594524201993
790.0,0.004681405990662059
789.0,0.004668998378574618
788.0,0.004657246908940893
787.0,0.004643235709567943
786.0,0.004623572813531802
785.0,0.004599009478833278
784.0,0.004573146530520758
783.0,0.004549127545169869
782.0,0.004528819440794488
781.0,0.0045124635706934625
780.0,0.00449843729046177
779.0,0.00448587092975875
778.0,0.004477000026066696
777.0,0.0044737589374475775
776.0,0.004473168846874652
775.0,0.004470475393638668
774.0,0.00446633622805423
773.0,0.004466362934326715
772.0,0.0044738775803802085
771.0,0.004487546660043687
770.0,0.004505552306231623
769.0,0.004527175621763977
768.0,0.00455024457249744
767.0,0.0045718301885545876
766.0,0.004592158176128614
765.0,0.00461421927580829
764.0,0.0046399063563578105
763.0,0.004669883663848136
762.0,0.004705352183462783
761.0,0.004745479078285512
760.0,0.004785141353056908
759.0,0.004820156213448407
758.0,0.004852291576301184
757.0,0.00488355800778335
756.0,0.004908905512045531
755.0,0.004922169515206982
754.0,0.004926805331576727
753.0,0.004932337498368092
752.0,0.004941815101884616
751.0,0.004951121208497677
750.0,0.004958834957033489
749.0,0.004967501168902979
748.0,0.0049759318616051686
747.0,0.004979220932058321
746.0,0.00497638808815345
745.0,0.004970164828902666
744.0,0.00496066514874321
743.0,0.004948218536810597
742.0,0.0049405269125015715
741.0,0.004946288895905026
740.0,0.004962575977054521
739.0,0.0049795066406254414
738.0,0.004996579851550087
737.0,0.005023577252030276
736.0,0.005068301615768038
735.0,0.005137661463382936
734.0,0.005248005062057769
733.0,0.005412363145306642
732.0,0.005608298335531146
731.0,0.005774833620983143
730.0,0.005857707763289097
729.0,0.00585494749831897
728.0,0.005811723561807168
727.0,0.005779449260988017
726.0,0.005787325358148066
725.0,0.0058411115068069275
724.0,0.005934889652299696
723.0,0.006062537837931868
722.0,0.006216957264679027
721.0,0.006371585416246777
720.0,0.006469468855459652
719.0,0.006457524476847857
718.0,0.006336408052634995
717.0,0.006155935825248289
716.0,0.005967798323181596
715.0,0.005798067681199597
714.0,0.005654137460593846
713.0,0.005538017574949986
712.0,0.00544771580090298
711.0,0.005378599000137367
710.0,0.0053331675768785
709.0,0.005324035249680576
708.0,0.005362141310937478
707.0,0.0054477521774348656
706.0,0.005577206207792482
705.0,0.005749898063950397
704.0,0.005961497232824192
703.0,0.006197429257356588
702.0,0.006438718284570101
701.0,0.006666635029956583
700.0,0.006855755995176677
699.0,0.006971113638969096
698.0,0.006981580987809981
697.0,0.006873807313927435
696.0,0.006655047230050367
695.0,0.0063559373400145
694.0,0.006031484000035328
693.0,0.005741229917969753
692.0,0.005516111618107597
691.0,0.005349464726646264
690.0,0.005222995533079006
689.0,0.005129760555726609
688.0,0.005067356762967249
687.0,0.005025338874925038
686.0,0.004992490208862952
685.0,0.00496592304573708
684.0,0.004944138792057956
683.0,0.004922356060901302
682.0,0.004900598484733419
681.0,0.004884041050933718
680.0,0.004871144116834071
679.0,0.00485308463309138
678.0,0.004830278777386798
677.0,0.0048151940125676414
676.0,0.004812319009114198
675.0,0.00481487346157319
674.0,0.004819156175625351
673.0,0.004824975873530445
672.0,0.00482586462766434
671.0,0.004814344091349242
670.0,0.004794443377826939
669.0,0.004780991388708758
668.0,0.0047905124137868
667.0,0.004801825341587221
666.0,0.004770438433862375
665.0,0.004709017200740575
664.0,0.004654094010912286
663.0,0.004612087853353361
662.0,0.004581145343590498
661.0,0.004566347232236784
660.0,0.004565152774025411
659.0,0.004558554447381794
658.0,0.004537504568170994
657.0,0.0045179176206560125
656.0,0.004510202798256877
655.0,0.004500436305216009
654.0,0.004476810477760131
653.0,0.00445206300684455
652.0,0.004442593743789552
651.0,0.004444424619009237
650.0,0.0044479741996832495
649.0,0.004458754751887412
648.0,0.004482749386898547
647.0,0.004506753305287022
646.0,0.0045142513319740615
645.0,0.004505523892613557
644.0,0.004487178271274777
643.0,0.004462514966420273
642.0,0.0044436633068655924
641.0,0.004449652158737867
640.0,0.0044776939212714684
639.0,0.004497761185395957
638.0,0.004495586934435655
637.0,0.004497378438343991
636.0,0.004530443619012961
635.0,0.0045868831455877414
634.0,0.004647027934206216
633.0,0.004710619739328072
632.0,0.004778544544548024
631.0,0.0048333655538257535
630.0,0.004867572836633211
629.0,0.004902654671737438
628.0,0.004951998242908099
627.0,0.004992309263609775
626.0,0.004999209055073901
625.0,0.004983593497171715
624.0,0.004965388781457254
623.0,0.0049472217494091406
622.0,0.004939095828244155
621.0,0.00496228874607081
620.0,0.005005281779828898
619.0,0.00503218758317445
618.0,0.005060315113843998
617.0,0.0051522728369441
616.0,0.005292448811763387
615.0,0.005373570070103164
614.0,0.005358599156233006
613.0,0.005345090447605198
612.0,0.0054211664422292305
611.0,0.005559415431553845
610.0,0.005700439283179743
609.0,0.0058538892320878465
608.0,0.006041212535259683
607.0,0.006218157580989489
606.0,0.0063403007574787725
605.0,0.006434751337095814
604.0,0.006531346547457358
603.0,0.0066025505079022415
602.0,0.006634139282562046
601.0,0.006672985400899214
600.0,0.006747692728739813
599.0,0.006817376059502103
598.0,0.006847251983112094
597.0,0.006858267749421984
596.0,0.006854735687530122
595.0,0.006791634545322086
594.0,0.00666621458477038
593.0,0.006550966889501127
592.0,0.006481929819996549
591.0,0.006409997120995704
590.0,0.006315586834519625
589.0,0.00625981965835504
588.0,0.006264552716779557
587.0,0.006251240392492587
586.0,0.0061595805898686865
585.0,0.00603531375112552
584.0,0.005924054444387351
583.0,0.005781452641810677
582.0,0.0055734428065623825
581.0,0.005358063699811049
580.0,0.005184481543509199
579.0,0.0050209706108965725
578.0,0.004850814495548271
577.0,0.0047256760459719795
576.0,0.0046590093670731345
575.0,0.004587173739187846
574.0,0.004505819282519382
573.0,0.004508687995557306
572.0,0.004629484407560103
571.0,0.004772580542994056
570.0,0.00486039855415063
569.0,0.0049440981374046025
568.0,0.005073508529289353
567.0,0.0051909760504779325
566.0,0.005258586859952917
565.0,0.005339902269461535
564.0,0.005454004732287394
563.0,0.005502402282461009
562.0,0.0054339854736666915
561.0,0.005329512940353422
560.0,0.005239920006169265
559.0,0.005120369791155394
558.0,0.004983314022443631
557.0,0.004925421795380037
556.0,0.0049380454038038275
555.0,0.0048820253679082975
554.0,0.004729599097389587
553.0,0.004630821970691175
552.0,0.004642966135101812
551.0,0.004600931897688471
550.0,0.004368072348406828
