cm-1,A
4000.0,0.0014423106933763585
3999.0,0.0014375661223361908
3998.0,0.0014367465375342107
3997.0,0.0014406047325934257
3996.0,0.0014476849077931808
3995.0,0.0014556233434611385
3994.0,0.0014634050127737116
3993.0,0.0014711438628021646
3992.0,0.0014786276022885337
3991.0,0.0014836349486449893
3990.0,0.0014825991090250989
3989.0,0.0014737550905379025
3988.0,0.0014591828148214979
3987.0,0.0014447115870196005
3986.0,0.0014363558028026803
3985.0,0.0014368510583568869
3984.0,0.0014449218891591574
3983.0,0.0014571868369657125
3982.0,0.0014713826656454058
3981.0,0.0014860138174310577
3980.0,0.0014989363704622028
3979.0,0.0015073663383803593
3978.0,0.0015091597109565505
3977.0,0.0015045263908109521
3976.0,0.0014960152324913047
3975.0,0.0014878039721107268
3974.0,0.0014839288048045113
3973.0,0.0014855218277529027
3972.0,0.0014895705539009236
3971.0,0.001490432509496284
3970.0,0.0014847053424727951
3969.0,0.0014744906211928515
3968.0,0.0014648311225830249
3967.0,0.0014589989790141377
3966.0,0.0014564896583867607
3965.0,0.0014557497172195115
3964.0,0.0014572952453398651
3963.0,0.0014626236658937656
3962.0,0.0014695279298130627
3961.0,0.0014716750645627928
3960.0,0.0014643215088758477
3959.0,0.0014492549498295074
3958.0,0.0014346926207035216
3957.0,0.0014284451491297855
3956.0,0.0014316985933664971
3955.0,0.0014396039079074593
3954.0,0.0014459863250766004
3953.0,0.001448270280326632
3952.0,0.0014484409683870533
3951.0,0.0014496420163652912
3950.0,0.0014543318843502934
3949.0,0.001461968345273626
3948.0,0.0014694955478708061
3947.0,0.0014731641580276377
3946.0,0.0014681626186205216
3945.0,0.0014551060065089603
3944.0,0.0014409809266400897
3943.0,0.0014321450839890376
3942.0,0.001430938263988406
3941.0,0.0014340491196472135
3940.0,0.0014390910270197122
3939.0,0.0014483535197871
3938.0,0.0014642568031676183
3937.0,0.0014845668690358002
3936.0,0.0015012104739760637
3935.0,0.001509155390684023
3934.0,0.0015101178067145331
3933.0,0.0015092946362709337
3932.0,0.0015080730428826015
3931.0,0.001505472746655062
3930.0,0.0015026546136301517
3929.0,0.0014987095301109276
3928.0,0.001491339076744514
3927.0,0.0014803395303546046
3926.0,0.0014723007935909718
3925.0,0.0014744968431300172
3924.0,0.001486751859413892
3923.0,0.0015036637820564278
3922.0,0.0015191001584091664
3921.0,0.001532370799314684
3920.0,0.0015457667536391618
3919.0,0.001558142304640303
3918.0,0.0015661103369874504
3917.0,0.0015661331030920073
3916.0,0.0015585450299684777
3915.0,0.0015468536705603153
3914.0,0.0015340343148120327
3913.0,0.001524746625549168
3912.0,0.001523225641356417
3911.0,0.0015291547724856417
3910.0,0.001538828937651302
3909.0,0.001548301200491628
3908.0,0.0015556781258354848
3907.0,0.001562598978015036
3906.0,0.0015732244306844152
3905.0,0.001589090538762516
3904.0,0.0016048652121497112
3903.0,0.0016090969504505787
3902.0,0.0015930270324245345
3901.0,0.0015612477786428065
3900.0,0.001529951078576891
3899.0,0.001517986066497761
3898.0,0.0015317944658320265
3897.0,0.001559630689011277
3896.0,0.0015872920622695594
3895.0,0.0016048237849011374
3894.0,0.0016048775266248433
3893.0,0.0015863716069391587
3892.0,0.0015581078434595737
3891.0,0.0015395522355242009
3890.0,0.0015417012870654618
3889.0,0.0015544858801847972
3888.0,0.0015657131859134242
3887.0,0.0015772929956019595
3886.0,0.0015923744375215085
3885.0,0.0016014166690236755
3884.0,0.0015927648051436874
3883.0,0.0015632337771178905
3882.0,0.0015249812173925967
3881.0,0.0015004520026063123
3880.0,0.0015028245255660777
3879.0,0.0015242727430413979
3878.0,0.0015412560822050103
3877.0,0.001538454815671183
3876.0,0.0015246869430678945
3875.0,0.0015226877208155964
3874.0,0.0015431750677071664
3873.0,0.0015723863667600044
3872.0,0.001589261041539487
3871.0,0.001587343314637672
3870.0,0.0015780989753569502
3869.0,0.0015731025898655317
3868.0,0.0015674227479190173
3867.0,0.0015501663057516267
3866.0,0.0015277496275992127
3865.0,0.00151265734374155
3864.0,0.0015054772411201957
3863.0,0.001500534473046436
3862.0,0.0014992347694012921
3861.0,0.001505097497263947
3860.0,0.0015158421727334381
3859.0,0.0015315242004061006
3858.0,0.001554730053960026
3857.0,0.0015833515600285652
3856.0,0.0016080317770504867
3855.0,0.0016140672205705669
3854.0,0.0016031692793399106
3853.0,0.001577568784241167
3852.0,0.0015437716187375237
3851.0,0.0015122759864466939
3850.0,0.0014897966652621414
3849.0,0.0014821951382642088
3848.0,0.0014868275021885319
3847.0,0.0014941364445380041
3846.0,0.00149884566353498
3845.0,0.0015008592426348094
3844.0,0.001504127690098716
3843.0,0.0015117402261745146
3842.0,0.0015220371717376004
3841.0,0.001528928774104702
3840.0,0.0015259220489384085
3839.0,0.0015139698364700594
3838.0,0.001502690481178423
3837.0,0.0015008315581964964
3836.0,0.0015062923971283532
3835.0,0.001510125020731009
3834.0,0.0015102842177453682
3833.0,0.0015105728729383988
3832.0,0.0015130836453858523
3831.0,0.0015159449387161
3830.0,0.0015152856016456251
3829.0,0.0015099744782797369
3828.0,0.001506084587152127
3827.0,0.0015146213694765657
3826.0,0.001538905302185406
3825.0,0.0015670711346443239
3824.0,0.00157871926042304
3823.0,0.0015636969032346766
3822.0,0.001539789877083899
3821.0,0.0015321282355950905
3820.0,0.0015437573931660442
3819.0,0.0015537992387091753
3818.0,0.0015459592696913922
3817.0,0.0015301153898018584
3816.0,0.0015276660641322262
3815.0,0.00154129594054164
3814.0,0.001554532658427907
3813.0,0.0015576620794849887
3812.0,0.0015593108124777064
3811.0,0.0015675404261035726
3810.0,0.0015769551706410795
3809.0,0.0015784448312933614
3808.0,0.0015734895038750838
3807.0,0.0015722418105936665
3806.0,0.001574848168591797
3805.0,0.0015663796683473002
3804.0,0.0015387668437506564
3803.0,0.00150381195526903
3802.0,0.0014823448883281983
3801.0,0.0014801923924719336
3800.0,0.001481751879442239
3799.0,0.0014697221281375328
3798.0,0.0014467795583151155
3797.0,0.001433863108548003
3796.0,0.001443979991931466
3795.0,0.0014665513284364935
3794.0,0.0014824321164861377
3793.0,0.0014844550704396374
3792.0,0.0014799944094570935
3791.0,0.0014767308292259946
3790.0,0.0014750742218292273
3789.0,0.0014702453715615827
3788.0,0.001457877207674748
3787.0,0.0014399110425280055
3786.0,0.0014257435829366702
3785.0,0.0014242971628542237
3784.0,0.0014348172166824588
3783.0,0.0014469177249166276
3782.0,0.0014500189650144706
3781.0,0.0014450844417118207
3780.0,0.0014410694291305348
3779.0,0.0014440392211799602
3778.0,0.001452183050818697
3777.0,0.0014599805383473908
3776.0,0.0014658865674779702
3775.0,0.0014723140446314688
3774.0,0.0014783944383985315
3773.0,0.0014792349664727944
3772.0,0.0014745780101185627
3771.0,0.0014732903569944014
3770.0,0.0014827147461317703
3769.0,0.0014960963092006078
3768.0,0.0015001921247017466
3767.0,0.0014941021850793507
3766.0,0.0014896130101922512
3765.0,0.0014948462392730337
3764.0,0.0015048420225274317
3763.0,0.0015082598326971982
3762.0,0.0015023806693425733
3761.0,0.0014942590256138268
3760.0,0.0014861414850724142
3759.0,0.0014756489233051639
3758.0,0.0014690439071791935
3757.0,0.0014794043277603483
3756.0,0.0015036836121473393
3755.0,0.001528846695757364
3754.0,0.001550310751888881
3753.0,0.0015815125801540168
3752.0,0.001634889705589159
3751.0,0.0016963154353012504
3750.0,0.0017419390715039534
3749.0,0.0017624255191387639
3748.0,0.0017557228891647769
3747.0,0.0017237140041879112
3746.0,0.0016870496307888388
3745.0,0.0016824272654467967
3744.0,0.0017191766735653346
3743.0,0.0017538926405629718
3742.0,0.0017588578122710815
3741.0,0.0017529979439224045
3740.0,0.001759642309851197
3739.0,0.0017783324297618347
3738.0,0.001793777933894852
3737.0,0.0017975556391853567
3736.0,0.001777854785818025
3735.0,0.0017249583180951613
3734.0,0.0016689883134551671
3733.0,0.0016534924633864801
3732.0,0.0016823127084664093
3731.0,0.0017304321227504756
3730.0,0.0017776021621550364
3729.0,0.0018203495678242106
3728.0,0.0018607802571624634
3727.0,0.0018912830813597222
3726.0,0.0018972764443070257
3725.0,0.0018742190850409347
3724.0,0.0018342406413323607
3723.0,0.0017954053796631214
3722.0,0.001769308615047251
3721.0,0.0017569097864780466
3720.0,0.0017539640642179589
3719.0,0.0017617214787448105
3718.0,0.0017861222734897096
3717.0,0.0018286054409851254
3716.0,0.0018779537538725255
3715.0,0.0019244493757567132
3714.0,0.0019781315136090305
3713.0,0.002062934144910641
3712.0,0.00217833247723288
3711.0,0.0022808344705475456
3710.0,0.0023432006414839833
3709.0,0.0023816415782807205
3708.0,0.002418425085515468
3707.0,0.0024652623110913074
3706.0,0.002522460311308874
3705.0,0.002583042399898707
3704.0,0.002642540559911129
3703.0,0.0027091581906000715
3702.0,0.002796693566362825
3701.0,0.0029033989221470893
3700.0,0.003006802893687155
3699.0,0.0030822607347832745
3698.0,0.003120088261464673
3697.0,0.003125415967543464
3696.0,0.0031081661102422753
3695.0,0.00307654187517809
3694.0,0.003033572282762979
3693.0,0.002973064206603596
3692.0,0.002882163222671707
3691.0,0.0027541236070237622
3690.0,0.0026121490643961844
3689.0,0.002510513620935422
3688.0,0.0024804050109135814
3687.0,0.002493887642816387
3686.0,0.0025088312169566436
3685.0,0.0025113391427606774
3684.0,0.002508915510033543
3683.0,0.0025082669265061933
3682.0,0.002509205759282791
3681.0,0.002514457201647295
3680.0,0.0025320155396541355
3679.0,0.0025612047977654198
3678.0,0.0025886856474311563
3677.0,0.002601017461253484
3676.0,0.0025975175490262365
3675.0,0.002594874738691909
3674.0,0.002609608736705102
3673.0,0.002627791998298971
3672.0,0.002639822946371361
3671.0,0.002653185243409883
3670.0,0.002671051767370025
3669.0,0.0026905645722326314
3668.0,0.002714508756172124
3667.0,0.00273946636776156
3666.0,0.002764819537829144
3665.0,0.0027901051231183226
3664.0,0.002813785794851534
3663.0,0.0028362108651636174
3662.0,0.0028628496388950772
3661.0,0.002897925849762348
3660.0,0.0029372926462468063
3659.0,0.0029727819490532755
3658.0,0.0030036428156811554
3657.0,0.00303982541898501
3656.0,0.003087034444853856
3655.0,0.003135424910442962
3654.0,0.003171855910475929
3653.0,0.003193983752656166
3652.0,0.0032155483895023665
3651.0,0.0032523567370260093
3650.0,0.0032953680261168044
3649.0,0.0033123217297976073
3648.0,0.0033133183224279333
3647.0,0.0033316740722378006
3646.0,0.003371069531293789
3645.0,0.003414875622153511
3644.0,0.0034545837861022725
3643.0,0.0034919768513784937
3642.0,0.0035276585087644845
3641.0,0.0035589346350527427
3640.0,0.003584016733396127
3639.0,0.003607774694669944
3638.0,0.003636570761579055
3637.0,0.0036718388504849812
3636.0,0.0037138573121091156
3635.0,0.0037661472702552354
3634.0,0.0038289673656305995
3633.0,0.0038909003837685682
3632.0,0.003939628717017217
3631.0,0.003981026916999612
3630.0,0.004042029814074265
3629.0,0.0041272976302097
3628.0,0.004201828408522868
3627.0,0.004249424407764921
3626.0,0.004280947981927488
3625.0,0.004313598953568927
3624.0,0.004349884585468483
3623.0,0.00437556392922554
3622.0,0.004378695263724045
3621.0,0.004368894757634249
3620.0,0.004375477469045389
3619.0,0.004418322879149628
3618.0,0.004486803088924395
3617.0,0.0045545314283769785
3616.0,0.004607759529342027
3615.0,0.00465461839799072
3614.0,0.004713355142722508
3613.0,0.004793036984712953
3612.0,0.004884707696050364
3611.0,0.004973721317967857
3610.0,0.005055692282237994
3609.0,0.005126931832602286
3608.0,0.00517420337033251
3607.0,0.0051895042429348105
3606.0,0.0051854309899854465
3605.0,0.005181340924648397
3604.0,0.005187926106387193
3603.0,0.005207850013995964
3602.0,0.005235239029020573
3601.0,0.005254031907039072
3600.0,0.0052482047865408665
3599.0,0.005216903558847362
3598.0,0.005177209965924171
3597.0,0.005150401629242051
3596.0,0.005145167857595551
3595.0,0.005153421937710723
3594.0,0.0051630859275996616
3593.0,0.005170375704403173
3592.0,0.005177950173643773
3591.0,0.005185189723670125
3590.0,0.005191743359885872
3589.0,0.005200799094079711
3588.0,0.005211137339153991
3587.0,0.005218675840728389
3586.0,0.005229052672830282
3585.0,0.005245866587501314
3584.0,0.005265991241528411
3583.0,0.0052908877582990765
3582.0,0.005325551971175871
3581.0,0.005369880970699723
3580.0,0.005417859152406398
3579.0,0.005462369577985116
3578.0,0.005500464883874144
3577.0,0.005532621198271985
3576.0,0.0055610586365262326
3575.0,0.005589035340431344
3574.0,0.005619626896246069
3573.0,0.005652322151140029
3572.0,0.0056817502555891125
3571.0,0.005703523211442666
3570.0,0.005722867247614374
3569.0,0.005757014177256049
3568.0,0.005813665069336633
3567.0,0.005869766966045788
3566.0,0.00590493961036657
3565.0,0.005929138997547691
3564.0,0.005955587760121025
3563.0,0.005987297477587712
3562.0,0.00602256009850258
3561.0,0.0060576126610921875
3560.0,0.006086860688974554
3559.0,0.006108431384656832
3558.0,0.006127553987555221
3557.0,0.006152065201872246
3556.0,0.006185632938981697
3555.0,0.006226579995092252
3554.0,0.006271044150529154
3553.0,0.006315989335157555
3552.0,0.006360536286697263
3551.0,0.006405067107506271
3550.0,0.006448482316704099
3549.0,0.006489481545316898
3548.0,0.006527727247955339
3547.0,0.006561077804324738
3546.0,0.006585984930421998
3545.0,0.006602959700328935
3544.0,0.006618251556387646
3543.0,0.006636926632825632
3542.0,0.006660047284181116
3541.0,0.006688017658680757
3540.0,0.006722257818067745
3539.0,0.006764786635649157
3538.0,0.006815153982160392
3537.0,0.006867693550236612
3536.0,0.00691475473192907
3535.0,0.0069538363026594675
3534.0,0.006988192770295718
3533.0,0.007020977746519626
3532.0,0.007052786611695023
3531.0,0.007083663158403656
3530.0,0.007117074281916436
3529.0,0.007157611771416022
3528.0,0.007205213872961542
3527.0,0.007253931180294288
3526.0,0.007296569178145483
3525.0,0.007328199225395271
3524.0,0.007347217287243021
3523.0,0.0073575543796768105
3522.0,0.007368403116327807
3521.0,0.007387576142088527
3520.0,0.007415419500860789
3519.0,0.007447051338968272
3518.0,0.007477543356730055
3517.0,0.007504607043352614
3516.0,0.007528724319315728
3515.0,0.007552895920433875
3514.0,0.007581511538100134
3513.0,0.007616923477790908
3512.0,0.007657098905538648
3511.0,0.007696630653450431
3510.0,0.007731181322684713
3509.0,0.007760722908718428
3508.0,0.007789221825478939
3507.0,0.007821561749776646
3506.0,0.007860800896500136
3505.0,0.007905558670095634
3504.0,0.007947825183374422
3503.0,0.007977024384015218
3502.0,0.007991432739299613
3501.0,0.008001227216918688
3500.0,0.00801906197157834
3499.0,0.008052177481082756
3498.0,0.008098442778230703
3497.0,0.008146126202396485
3496.0,0.008182188653799848
3495.0,0.008203414200836163
3494.0,0.008217594463556027
3493.0,0.008233443630651443
3492.0,0.008252588788978187
3491.0,0.008272649009405568
3490.0,0.008293838487084046
3489.0,0.008318155151340717
3488.0,0.008345237260329602
3487.0,0.008373264019233195
3486.0,0.008402410528945746
3485.0,0.008434769076399933
3484.0,0.008471411597257866
3483.0,0.008510561572665016
3482.0,0.008548508987075513
3481.0,0.008581520904540483
3480.0,0.008608661665734142
3479.0,0.008633856133612769
3478.0,0.00866309328339685
3477.0,0.008697707825805107
3476.0,0.008732339525981932
3475.0,0.008761321237852214
3474.0,0.008785209006571157
3473.0,0.008808506555290418
3472.0,0.008833179198192046
3471.0,0.008858282635915956
3470.0,0.008884043591978027
3469.0,0.008911584589517447
3468.0,0.00893965207228335
3467.0,0.008965537050986508
3466.0,0.008988548708039132
3465.0,0.00900985829284918
3464.0,0.009029887168783056
3463.0,0.009048648493572349
3462.0,0.009067767616578693
3461.0,0.00908915004077347
3460.0,0.009112074143572305
3459.0,0.009134226176414748
3458.0,0.009155156949903076
3457.0,0.009176753665682746
3456.0,0.009200277900611065
3455.0,0.009224627800515358
3454.0,0.009247387435825663
3453.0,0.009265972367174621
3452.0,0.009279675311333543
3451.0,0.009291365702402058
3450.0,0.009306643327706615
3449.0,0.009328710754747544
3448.0,0.009353812052148575
3447.0,0.009375052934911839
3446.0,0.009391877738558365
3445.0,0.009410734152222605
3444.0,0.009435918462479032
3443.0,0.009464593590695286
3442.0,0.00949004460675408
3441.0,0.009508248916757694
3440.0,0.009521001998284134
3439.0,0.009532867674001798
3438.0,0.009545851652235024
3437.0,0.009557492726805583
3436.0,0.009564072887174434
3435.0,0.009566239253093488
3434.0,0.009570375849863757
3433.0,0.009582168678822105
3432.0,0.009600042886519035
3431.0,0.009615978765819632
3430.0,0.009623375445054708
3429.0,0.009622594316728785
3428.0,0.0096190773591832
3427.0,0.009618166411959098
3426.0,0.009622200982519986
3425.0,0.009630858102242679
3424.0,0.009642535376838925
3423.0,0.009655743728664292
3422.0,0.009669331574914482
3421.0,0.00968158294941985
3420.0,0.009690452108474253
3419.0,0.009695558314803086
3418.0,0.009699246039208203
3417.0,0.00970433473032453
3416.0,0.009711483792582496
3415.0,0.009719849093444382
3414.0,0.009729473186604885
3413.0,0.009740863899993665
3412.0,0.009752378197297497
3411.0,0.009760417867341078
3410.0,0.009762663893468918
3409.0,0.009759854098136608
3408.0,0.009754808711027928
3407.0,0.009751689526456941
3406.0,0.00975529607676598
3405.0,0.009768041192733053
3404.0,0.009786455481935713
3403.0,0.009803154028363613
3402.0,0.009813897260273619
3401.0,0.009821119554525184
3400.0,0.009829684027022922
3399.0,0.009840654979844935
3398.0,0.009851036284572394
3397.0,0.009858434305968047
3396.0,0.009864445742436116
3395.0,0.009873027617846121
3394.0,0.009885836012214967
3393.0,0.00989997260278198
3392.0,0.00991116078527213
3391.0,0.009918745274748366
3390.0,0.009925754676599284
3389.0,0.009934421337946404
3388.0,0.0099432368670939
3387.0,0.009948705337926697
3386.0,0.009948699021577313
3385.0,0.009943923250415192
3384.0,0.009937670299044202
3383.0,0.009934689674879843
3382.0,0.009938469767494996
3381.0,0.009948185167947944
3380.0,0.009959600277540533
3379.0,0.00996918408809074
3378.0,0.009975928473266824
3377.0,0.009979116155779816
3376.0,0.00997779083847108
3375.0,0.009973870349542606
3374.0,0.009972293919553725
3373.0,0.009975695337302951
3372.0,0.009981333585646944
3371.0,0.009985361539545767
3370.0,0.009987534350719795
3369.0,0.009989400572383813
3368.0,0.009990074038734413
3367.0,0.009987129204946285
3366.0,0.009980323762967652
3365.0,0.009971647385854423
3364.0,0.009962724421737446
3363.0,0.009954513517226446
3362.0,0.00994833361868737
3361.0,0.009944872340263727
3360.0,0.009942906951588538
3359.0,0.009940724369599948
3358.0,0.009937912471633783
3357.0,0.009934436129913068
3356.0,0.009929510549656463
3355.0,0.009922896175161176
3354.0,0.009915501439131611
3353.0,0.009907192567626486
3352.0,0.009896075509013212
3351.0,0.009881885426926577
3350.0,0.009868051866574403
3349.0,0.009858065054236509
3348.0,0.00985125691337726
3347.0,0.00984475804358238
3346.0,0.009837908229176755
3345.0,0.009831870538554688
3344.0,0.00982632925100333
3343.0,0.009819533450984607
3342.0,0.00981132158358731
3341.0,0.00980357286623206
3340.0,0.009798016797908813
3339.0,0.009795124749346153
3338.0,0.009794307008997031
3337.0,0.009793433256228464
3336.0,0.00978915696082914
3335.0,0.009779748619967206
3334.0,0.009767053468514504
3333.0,0.009754356239113068
3332.0,0.009743369151824258
3331.0,0.009734233197973669
3330.0,0.009726562976660542
3329.0,0.009718860922181041
3328.0,0.009708705615216216
3327.0,0.009695777279940254
3326.0,0.009683409101176549
3325.0,0.009674883646523259
3324.0,0.009669413061647737
3323.0,0.009663743327614424
3322.0,0.009656506289685916
3321.0,0.009648603563427744
3320.0,0.009640695216102375
3319.0,0.009633048208315512
3318.0,0.009626965613200837
3317.0,0.009623440065083935
3316.0,0.009620751386765984
3315.0,0.009615785789234449
3314.0,0.009607858899759857
3313.0,0.009599295061002218
3312.0,0.009592089554349198
3311.0,0.009585559110130063
3310.0,0.009577719772243653
3309.0,0.009568124942328511
3308.0,0.009559153109721712
3307.0,0.009554297736732009
3306.0,0.009554256743181815
3305.0,0.009554880120834218
3304.0,0.009550692426529585
3303.0,0.009540987650375428
3302.0,0.009530333415616711
3301.0,0.00952222548027057
3300.0,0.009514954240659346
3299.0,0.009505314846324798
3298.0,0.00949370182216354
3297.0,0.009482911243332729
3296.0,0.009474265907319512
3295.0,0.00946758755956596
3294.0,0.009463155646577091
3293.0,0.009460402590865518
3292.0,0.009455845480231002
3291.0,0.009445745660400426
3290.0,0.009430721728704404
3289.0,0.009415290702203557
3288.0,0.00940311370118004
3287.0,0.009394527435146459
3286.0,0.009388004273349675
3285.0,0.00938175966953999
3284.0,0.009374428476599668
3283.0,0.009366337445114625
3282.0,0.009359748738968407
3281.0,0.009356125414428373
3280.0,0.009353646204809128
3279.0,0.009349351487651382
3278.0,0.009342881056585366
3277.0,0.009336007708157347
3276.0,0.009329392275468477
3275.0,0.009322245354780313
3274.0,0.009314792471204309
3273.0,0.00930834950545629
3272.0,0.009302590798199447
3271.0,0.009294996887247003
3270.0,0.009283820925433724
3269.0,0.009270207868791427
3268.0,0.009256994138680691
3267.0,0.009246256535145953
3266.0,0.009238032380744643
3265.0,0.009230412788253711
3264.0,0.009221048806196034
3263.0,0.009209290159619063
3262.0,0.009196549671795073
3261.0,0.009184395072985612
3260.0,0.009172893205043612
3259.0,0.009161290074747185
3258.0,0.009148866962049943
3257.0,0.009134707164435242
3256.0,0.00911818570681068
3255.0,0.009100628020687472
3254.0,0.009084747337456412
3253.0,0.009071209356920443
3252.0,0.009057681885574705
3251.0,0.009042734204776135
3250.0,0.009029066408938358
3249.0,0.009020310601552225
3248.0,0.009015334483611075
3247.0,0.00900786769134676
3246.0,0.008992119457410512
3245.0,0.008968044805583613
3244.0,0.008941315676720754
3243.0,0.00891864427158915
3242.0,0.00890293490994869
3241.0,0.008892308773669222
3240.0,0.008883156376671192
3239.0,0.008873373442527555
3238.0,0.008862128087672345
3237.0,0.008848250900583759
3236.0,0.008831345983716274
3235.0,0.008814242740348706
3234.0,0.008801262509967931
3233.0,0.008792962857477958
3232.0,0.008784634621478573
3231.0,0.008770746886336623
3230.0,0.00874980511590853
3229.0,0.008724888439670588
3228.0,0.008701343441315951
3227.0,0.008683622437364197
3226.0,0.008671499259439431
3225.0,0.0086591149080119
3224.0,0.008640691695103238
3223.0,0.008617682652195292
3222.0,0.008597456734575038
3221.0,0.008584224785571963
3220.0,0.008574428358260985
3219.0,0.008562270672019257
3218.0,0.008546137850883633
3217.0,0.008527837463422139
3216.0,0.008508853030869708
3215.0,0.008489937942544174
3214.0,0.008471965919255144
3213.0,0.008454852440794948
3212.0,0.008437061925980302
3211.0,0.00841760519118796
3210.0,0.008397195015340315
3209.0,0.008376712456608796
3208.0,0.008356340647134737
3207.0,0.008336723180026847
3206.0,0.008318581738563029
3205.0,0.008300624049900585
3204.0,0.008280619161059885
3203.0,0.008259567892047154
3202.0,0.008241700303260253
3201.0,0.008228974713932897
3200.0,0.008218129479864379
3199.0,0.008204543668695082
3198.0,0.008186178702416403
3197.0,0.008162659649356764
3196.0,0.008133591820832686
3195.0,0.008100103158101214
3194.0,0.008065855307885884
3193.0,0.008034781952535661
3192.0,0.008009239711383495
3191.0,0.007990406695331145
3190.0,0.007977582996475947
3189.0,0.007966191831798147
3188.0,0.007950305341045141
3187.0,0.007929203146751121
3186.0,0.007908329389393051
3185.0,0.007891827495642509
3184.0,0.00787697452922544
3183.0,0.007858483434691343
3182.0,0.007835187440816425
3181.0,0.007809988999196047
3180.0,0.0077856374440513736
3179.0,0.0077629447413455985
3178.0,0.007741174224491453
3177.0,0.007718188804023078
3176.0,0.007691938118760662
3175.0,0.007663492132595652
3174.0,0.007636871484967991
3173.0,0.007614403501694101
3172.0,0.007594027154521361
3171.0,0.007572385532909251
3170.0,0.007548465487027029
3169.0,0.007522941305242047
3168.0,0.007496730061407359
3167.0,0.007471733799480953
3166.0,0.007450124700087442
3165.0,0.007431260545549553
3164.0,0.007411844479023918
3163.0,0.0073908210438035655
3162.0,0.007371270543264413
3161.0,0.007355377635842778
3160.0,0.0073400900821216615
3159.0,0.00732040179106683
3158.0,0.007295008605285479
3157.0,0.007266553835036699
3156.0,0.007238434028253506
3155.0,0.007213591606874727
3154.0,0.007194082355156212
3153.0,0.007178841005460135
3152.0,0.0071631287774334826
3151.0,0.007142831367312719
3150.0,0.007118997519297368
3149.0,0.007096246787389087
3148.0,0.007077179444663813
3147.0,0.007059931317791566
3146.0,0.007040695974689565
3145.0,0.007017516804543651
3144.0,0.0069921028767970204
3143.0,0.006968398403585721
3142.0,0.0069487134199879
3141.0,0.006931531604356238
3140.0,0.006914444192989897
3139.0,0.006898341376295614
3138.0,0.006885829298369894
3137.0,0.0068754784175247005
3136.0,0.006861639814866745
3135.0,0.00684102665515895
3134.0,0.006816345711589513
3133.0,0.006792301254639557
3132.0,0.006770973616101027
3131.0,0.006752416628689469
3130.0,0.00673668566980578
3129.0,0.006723069109871832
3128.0,0.006709720711820821
3127.0,0.006695667486311477
3126.0,0.00668137820297376
3125.0,0.006666940165616919
3124.0,0.00665204082928053
3123.0,0.00663804759230144
3122.0,0.006626936140430252
3121.0,0.006617293155945183
3120.0,0.006605295723477114
3119.0,0.0065910770343136265
3118.0,0.006579952316075193
3117.0,0.006575101601770593
3116.0,0.006572746840274491
3115.0,0.006567366462896874
3114.0,0.006558627980951642
3113.0,0.006549965149410277
3112.0,0.006543204198435788
3111.0,0.006537859734949984
3110.0,0.0065335335867821
3109.0,0.006530341180666976
3108.0,0.006528485969965262
3107.0,0.00652923908800401
3106.0,0.006534786472816425
3105.0,0.0065448247264689435
3104.0,0.006555041895060651
3103.0,0.00656137912836422
3102.0,0.006564544395324183
3101.0,0.006568728956806644
3100.0,0.0065769106288304565
3099.0,0.006589400110581137
3098.0,0.006605011185284958
3097.0,0.006621233629990174
3096.0,0.006634804337984081
3095.0,0.006644866748739465
3094.0,0.006654790223107817
3093.0,0.006668194337924361
3092.0,0.006684027994559288
3091.0,0.006697493146745927
3090.0,0.0067050217582372415
3089.0,0.0067069898472991015
3088.0,0.0067064750359176134
3087.0,0.006706521471171116
3086.0,0.006707809207634226
3085.0,0.006707767916223485
3084.0,0.006703024833994842
3083.0,0.006693529997295875
3082.0,0.006682995548427928
3081.0,0.006674536446718391
3080.0,0.006667910095045162
3079.0,0.006662273302683238
3078.0,0.0066587167925453
3077.0,0.006658085396344333
3076.0,0.006658145785357679
3075.0,0.006655154293813444
3074.0,0.006647359365439363
3073.0,0.0066355054005164706
3072.0,0.006621824986524239
3071.0,0.006609822737261367
3070.0,0.00660332209451471
3069.0,0.0066033931904274385
3068.0,0.006607223088103301
3067.0,0.006611426352449305
3066.0,0.006615054564880382
3065.0,0.006618067876131573
3064.0,0.006618566126930724
3063.0,0.006614455608338334
3062.0,0.00660671764968799
3061.0,0.006598871034929549
3060.0,0.006593601610928282
3059.0,0.006591189850041358
3058.0,0.0065905831950976886
3057.0,0.006590874681164199
3056.0,0.006592432369421195
3055.0,0.006596996174671722
3054.0,0.006605660117853924
3053.0,0.006616253526684519
3052.0,0.006625025702001659
3051.0,0.006631095845551442
3050.0,0.006637018791054899
3049.0,0.006644081808693286
3048.0,0.0066499118643634685
3047.0,0.006653045571395289
3046.0,0.0066567061086846065
3045.0,0.006665613083161385
3044.0,0.006680242322434664
3043.0,0.006696747942002648
3042.0,0.0067111448826492484
3041.0,0.006722070745622122
3040.0,0.006731078639140873
3039.0,0.006741838251076271
3038.0,0.006757362507944158
3037.0,0.006776341258214553
3036.0,0.006793732161596869
3035.0,0.006806085514324013
3034.0,0.006814375329541887
3033.0,0.00682001515715504
3032.0,0.006821672309746743
3031.0,0.006818154600835302
3030.0,0.006812497644691234
3029.0,0.0068095192311795035
3028.0,0.006811294714172787
3027.0,0.006817015810647542
3026.0,0.00682520525308617
3025.0,0.006833803007281131
3024.0,0.006839347753398448
3023.0,0.006839048210858674
3022.0,0.00683348389156726
3021.0,0.006826268803927574
3020.0,0.006821551122892444
3019.0,0.006822229781762975
3018.0,0.0068287286372981735
3017.0,0.006838420587162035
3016.0,0.006848087919215308
3015.0,0.0068575827225109565
3014.0,0.006869336965540276
3013.0,0.006883629231082177
3012.0,0.006897428121246444
3011.0,0.0069091210942481465
3010.0,0.006921040255887679
3009.0,0.006935691847030776
3008.0,0.006952215662218506
3007.0,0.0069688455434115636
3006.0,0.006985914936370812
3005.0,0.007004426622788146
3004.0,0.0070240361903012305
3003.0,0.007044883576527243
3002.0,0.007069163631216728
3001.0,0.00709824211728262
3000.0,0.007129967789616498
2999.0,0.007161606544260461
2998.0,0.0071937520166677465
2997.0,0.007229430088516666
2996.0,0.0072701135791757125
2995.0,0.007314674253118106
2994.0,0.00736075220692893
2993.0,0.007406178360998833
2992.0,0.007450949631086383
2991.0,0.007498970053173693
2990.0,0.007555908616203068
2989.0,0.007623177248358938
2988.0,0.007696561761237505
2987.0,0.007771475744934923
2986.0,0.00784762248266774
2985.0,0.007926832794128095
2984.0,0.008010318513213132
2983.0,0.008100122446330548
2982.0,0.008199833385925694
2981.0,0.008310365127525697
2980.0,0.008427935179753753
2979.0,0.008549129447480073
2978.0,0.008676191192094238
2977.0,0.008813894514735226
2976.0,0.008964153555581542
2975.0,0.009126473873254654
2974.0,0.00930188283516454
2973.0,0.009492287572837281
2972.0,0.009697551242140568
2971.0,0.009916553329820797
2970.0,0.010150076790257177
2969.0,0.010399670453076335
2968.0,0.010664942774466751
2967.0,0.010945127258311874
2966.0,0.011241744203553585
2965.0,0.011556913743734853
2964.0,0.011890098704299717
2963.0,0.012239912189468948
2962.0,0.012607812848055018
2961.0,0.012996877166046517
2960.0,0.013407435858123524
2959.0,0.013837216496940507
2958.0,0.014285764831419016
2957.0,0.014756152352335718
2956.0,0.015252882151086668
2955.0,0.01578067186212298
2954.0,0.016345779081043427
2953.0,0.016957562387708725
2952.0,0.017629513634131955
2951.0,0.0183797173542401
2950.0,0.019229921452016463
2949.0,0.02020372446178978
2948.0,0.02132555554262196
2947.0,0.02262121854588201
2946.0,0.02411619773971026
2945.0,0.025831202818415628
2944.0,0.027781105311663105
2943.0,0.029976871426472464
2942.0,0.032427056726471865
2941.0,0.035138280826633374
2940.0,0.03811861703589713
2939.0,0.04138362057706199
2938.0,0.04495634324373176
2937.0,0.04886047254519816
2936.0,0.0531176950669712
2935.0,0.05775287176312892
2934.0,0.0627976131809828
2933.0,0.06828975661925248
2932.0,0.07427558644993704
2931.0,0.08081798537941325
2930.0,0.08800122928653252
2929.0,0.09593005684345504
2928.0,0.10473651895031119
2927.0,0.11459330041570365
2926.0,0.1257071529452004
2925.0,0.13828692473031867
2924.0,0.15250600095961309
2923.0,0.16847612273820625
2922.0,0.18623299519170824
2921.0,0.20571640461041235
2920.0,0.22670551572525804
2919.0,0.24864624902429153
2918.0,0.2703386174764488
2917.0,0.28967656302396705
2916.0,0.30381827940589473
2915.0,0.31006225666757375
2914.0,0.3071194098400282
2913.0,0.29587078605298
2912.0,0.27891278145316895
2911.0,0.2592968645047675
2910.0,0.23951582677620475
2909.0,0.22107581861448114
2908.0,0.20467797510038382
2907.0,0.19049606870049313
2906.0,0.17842162124683764
2905.0,0.16820368906042066
2904.0,0.15954768007832237
2903.0,0.15217036060579409
2902.0,0.14581381397945725
2901.0,0.14024778784581377
2900.0,0.13527781017608273
2899.0,0.13074615338347267
2898.0,0.12652399171376694
2897.0,0.12250513070313636
2896.0,0.1186095816991575
2895.0,0.11478155317945499
2894.0,0.11098163398736977
2893.0,0.1071813896100973
2892.0,0.10336926139804534
2891.0,0.09955208543053323
2890.0,0.09574040330079239
2889.0,0.09193937423639448
2888.0,0.08815404471540837
2887.0,0.08439811661600748
2886.0,0.08069019930730578
2885.0,0.07704299360458643
2884.0,0.0734599496374593
2883.0,0.06993784971748629
2882.0,0.06646870207087843
2881.0,0.06304528229181286
2880.0,0.059673176196035016
2879.0,0.05637994942134229
2878.0,0.05321213109254151
2877.0,0.05022528347228187
2876.0,0.04747848371697512
2875.0,0.045027055265792315
2874.0,0.04291190331571937
2873.0,0.041151144731948947
2872.0,0.03974795877674588
2871.0,0.038702938923789336
2870.0,0.03802020941099729
2869.0,0.03770640792956137
2868.0,0.03777580596525576
2867.0,0.03826073066878983
2866.0,0.0392140386001927
2865.0,0.04070334126605235
2864.0,0.04280967004508337
2863.0,0.045634200732820464
2862.0,0.04930134593924085
2861.0,0.053962764257510794
2860.0,0.059806254883934096
2859.0,0.06707513973640788
2858.0,0.07608049966989736
2857.0,0.0872107768379372
2856.0,0.10093736572557357
2855.0,0.1178060485024105
2854.0,0.13834065969032003
2853.0,0.162837862580611
2852.0,0.19086140480863795
2851.0,0.22050586830697896
2850.0,0.24758208047446537
2849.0,0.2660236979859752
2848.0,0.2704726969147159
2847.0,0.2598960792505395
2846.0,0.23817162490760613
2845.0,0.21126423820525506
2844.0,0.184032108083818
2843.0,0.15923659791192515
2842.0,0.13791847874119895
2841.0,0.12016798026326304
2840.0,0.10561790831850205
2839.0,0.09376715265087102
2838.0,0.08408560924146674
2837.0,0.07611772330023152
2836.0,0.06949120560012402
2835.0,0.06392553248490657
2834.0,0.05920852478670049
2833.0,0.05517663830775343
2832.0,0.051699185713874225
2831.0,0.04867019023325581
2830.0,0.04600764067636275
2829.0,0.04364958605487324
2828.0,0.04154706696514066
2827.0,0.03965954462842881
2826.0,0.037954450996605674
2825.0,0.03640634710978494
2824.0,0.03499508500249165
2823.0,0.03370381812270583
2822.0,0.03251937637904379
2821.0,0.03142996822964646
2820.0,0.030423463397236627
2819.0,0.029487880375582285
2818.0,0.028614504707254858
2817.0,0.027798131287954095
2816.0,0.027034689732486603
2815.0,0.02631883467060348
2814.0,0.02564390077164645
2813.0,0.02500306084005792
2812.0,0.02439195337219024
2811.0,0.02381020128594089
2810.0,0.023259633274363596
2809.0,0.02273945823332127
2808.0,0.022245347956629455
2807.0,0.021773508939583477
2806.0,0.021323285819209725
2805.0,0.020893901377827397
2804.0,0.02048144982894134
2803.0,0.020081551483263637
2802.0,0.019693188551023835
2801.0,0.019317453191192872
2800.0,0.018954141797659953
2799.0,0.018601870730309587
2798.0,0.018260238684766582
2797.0,0.017929521786230647
2796.0,0.017609075190157763
2795.0,0.01729784653190983
2794.0,0.016994954535833846
2793.0,0.01669811208438383
2792.0,0.016403103292950236
2791.0,0.01610733617065414
2790.0,0.015812609059924772
2789.0,0.01552242655006546
2788.0,0.015238135460688711
2787.0,0.014959497474103738
2786.0,0.014687441432678815
2785.0,0.014423783854059574
2784.0,0.01416924513561512
2783.0,0.013923642478913138
2782.0,0.013687004497786868
2781.0,0.01345897076109636
2780.0,0.013238726194575218
2779.0,0.013026995877541907
2778.0,0.012826127163438785
2777.0,0.012636012209754858
2776.0,0.012452265605551517
2775.0,0.012271156637075238
2774.0,0.012094542836554732
2773.0,0.011927127781341921
2772.0,0.011770032366875242
2771.0,0.011619970439370634
2770.0,0.01147380919277269
2769.0,0.011331283403855034
2768.0,0.011193877080895406
2767.0,0.011063141615574187
2766.0,0.010939720685009018
2765.0,0.010822413838159853
2764.0,0.010708986268751044
2763.0,0.010598737356356254
2762.0,0.010492844150137699
2761.0,0.010391033100646738
2760.0,0.010290092473850184
2759.0,0.01018775379681986
2758.0,0.010085930202816782
2757.0,0.009988064280875834
2756.0,0.009895141234924743
2755.0,0.009806306399119887
2754.0,0.009721391544467143
2753.0,0.009640293456047326
2752.0,0.009561815152471549
2751.0,0.009486035591298719
2750.0,0.009416527563028354
2749.0,0.009357486833648674
2748.0,0.009309351273689224
2747.0,0.009269111694161917
2746.0,0.009233506279044297
2745.0,0.009199667927199704
2744.0,0.009164520893952983
2743.0,0.009126363738455674
2742.0,0.00908574004398174
2741.0,0.009042711246491112
2740.0,0.008994569595939693
2739.0,0.00893895773134907
2738.0,0.008877814812731666
2737.0,0.008815300340986177
2736.0,0.008752640114192764
2735.0,0.008687475794207587
2734.0,0.00861790065501333
2733.0,0.00854479367804007
2732.0,0.008470525108314744
2731.0,0.008397232771584833
2730.0,0.00832604463656735
2729.0,0.008256537848679095
2728.0,0.00818756394730193
2727.0,0.00811946233976135
2726.0,0.008054333953246524
2725.0,0.007993161304132837
2724.0,0.007934474685905041
2723.0,0.007877122938238069
2722.0,0.007822187750575856
2721.0,0.00777024319631755
2720.0,0.007718628401867728
2719.0,0.007664082587069866
2718.0,0.007606824462871477
2717.0,0.007550028065763124
2716.0,0.007496319080675566
2715.0,0.007446508581002314
2714.0,0.007400209416802275
2713.0,0.00735566546685008
2712.0,0.007310062193802418
2711.0,0.007262027201486311
2710.0,0.007213136416629931
2709.0,0.007165687294777868
2708.0,0.007120147884308631
2707.0,0.0070758653805463945
2706.0,0.00703239104325391
2705.0,0.006988683070226441
2704.0,0.00694294291547824
2703.0,0.006895060962111343
2702.0,0.006847690830510184
2701.0,0.006803251830638733
2700.0,0.006761620678668412
2699.0,0.00672218338092446
2698.0,0.006685984606715416
2697.0,0.006653877131621749
2696.0,0.0066245935047409485
2695.0,0.006596827323468592
2694.0,0.006571562538315379
2693.0,0.006550207199064595
2692.0,0.006532158746358626
2691.0,0.006516275069079662
2690.0,0.0065030390932010835
2689.0,0.006493123574946557
2688.0,0.0064851732201337275
2687.0,0.006477063161167001
2686.0,0.006468226293696156
2685.0,0.006459420076814864
2684.0,0.006451815660141022
2683.0,0.006447543244183107
2682.0,0.006448802565132889
2681.0,0.0064546592017639265
2680.0,0.0064608610485195036
2679.0,0.006464917334119535
2678.0,0.006469335831052262
2677.0,0.006478058114213771
2676.0,0.006491832950440418
2675.0,0.006509109628499071
2674.0,0.006528954141410846
2673.0,0.0065504895987266686
2672.0,0.006571400713676773
2671.0,0.006589810665102852
2670.0,0.006606446516919846
2669.0,0.0066229969642639455
2668.0,0.006639787541555578
2667.0,0.006656723004590891
2666.0,0.006674444886439307
2665.0,0.00669257119235317
2664.0,0.006708954031157657
2663.0,0.006722720003207349
2662.0,0.006735897157955894
2661.0,0.006749634686691622
2660.0,0.006760967035947471
2659.0,0.006765898820559594
2658.0,0.00676391136174782
2657.0,0.006756877510279995
2656.0,0.006745416595566006
2655.0,0.006729541867310096
2654.0,0.006711420832415421
2653.0,0.006694550679294033
2652.0,0.006680654871580936
2651.0,0.006669663572202829
2650.0,0.006661759287108946
2649.0,0.006657357832945706
2648.0,0.006656164033652393
2647.0,0.006658095760409668
2646.0,0.006664099565053226
2645.0,0.0066747107431786405
2644.0,0.00668936377637324
2643.0,0.006708139783765209
2642.0,0.006731647263004545
2641.0,0.006757687232441643
2640.0,0.006780885973573203
2639.0,0.006797888334072865
2638.0,0.006810120833415613
2637.0,0.006819213191172126
2636.0,0.006822873331795766
2635.0,0.006817934412873635
2634.0,0.006804234877452634
2633.0,0.006782098921554871
2632.0,0.006749016834221125
2631.0,0.006702906184394047
2630.0,0.006646629649392819
2629.0,0.006585812121944168
2628.0,0.006523741028583856
2627.0,0.006461270343388606
2626.0,0.006399432593708347
2625.0,0.006338717919072763
2624.0,0.00627760838885009
2623.0,0.006215043870039517
2622.0,0.0061526303889231195
2621.0,0.00609215560984945
2620.0,0.006033348845189147
2619.0,0.00597647465224297
2618.0,0.005923725875994792
2617.0,0.005874803390975399
2616.0,0.005824824721412235
2615.0,0.0057707226449324345
2614.0,0.005716747468878561
2613.0,0.005669076994263446
2612.0,0.005627610315585676
2611.0,0.005587447411543378
2610.0,0.005546040028247137
2609.0,0.00550430256033156
2608.0,0.005462905715658181
2607.0,0.0054221191758111265
2606.0,0.005383816429469096
2605.0,0.005349403162951607
2604.0,0.0053170404421431314
2603.0,0.005284401068267677
2602.0,0.005252330065453236
2601.0,0.005222500499960524
2600.0,0.0051939200876455534
2599.0,0.005165247432901607
2598.0,0.00513775414793239
2597.0,0.005111968686064245
2596.0,0.005084071630810685
2595.0,0.005050124312486815
2594.0,0.005011648557418609
2593.0,0.004972904438043117
2592.0,0.004935012656729542
2591.0,0.004896804147293973
2590.0,0.004859100672421948
2589.0,0.0048238477809182155
2588.0,0.004790842166596377
2587.0,0.004759148891713028
2586.0,0.004729381238859117
2585.0,0.004701078962862876
2584.0,0.0046706653073303895
2583.0,0.004635986114803324
2582.0,0.004600195447954002
2581.0,0.004567262933877944
2580.0,0.004536755411803887
2579.0,0.004507122485353763
2578.0,0.004480363360080161
2577.0,0.004458277406209674
2576.0,0.004437119076576411
2575.0,0.004411590227120182
2574.0,0.004382302187842497
2573.0,0.004354463318073903
2572.0,0.004330873479900368
2571.0,0.004310361449364971
2570.0,0.004291142086532859
2569.0,0.004271597831502128
2568.0,0.004249819641967085
2567.0,0.0042263165865797075
2566.0,0.004204994077854081
2565.0,0.004187742883868044
2564.0,0.004170599518808326
2563.0,0.004148926589737318
2562.0,0.004123771441306455
2561.0,0.0040997349631673174
2560.0,0.004079570710207876
2559.0,0.004064123920668589
2558.0,0.0040539243766428415
2557.0,0.004046694713261459
2556.0,0.0040367484430808885
2555.0,0.004021252503866584
2554.0,0.004004394350704315
2553.0,0.003991790824734282
2552.0,0.003983972664795718
2551.0,0.003978152706880507
2550.0,0.003971651625012637
2549.0,0.00396000020713617
2548.0,0.003937086947233439
2547.0,0.0039023255930437477
2546.0,0.003863540163070475
2545.0,0.0038283098672118277
2544.0,0.003796676332233807
2543.0,0.0037660799267359426
2542.0,0.003737573798114644
2541.0,0.0037118913724427027
2540.0,0.0036855001043448014
2539.0,0.0036574787027916058
2538.0,0.0036349574081646395
2537.0,0.0036243956782016995
2536.0,0.0036219477955284672
2535.0,0.0036197936475619976
2534.0,0.003617744488227134
2533.0,0.0036204528218335263
2532.0,0.003626556472161661
2531.0,0.003629477627819592
2530.0,0.0036271475939358266
2529.0,0.0036227877333981405
2528.0,0.003616946827594913
2527.0,0.0036059585567759476
2526.0,0.003588192206769944
2525.0,0.003565828039335378
2524.0,0.003540747388990393
2523.0,0.0035140216946928622
2522.0,0.003488813057723054
2521.0,0.003468546007073786
2520.0,0.003452346766121588
2519.0,0.0034363703978216665
2518.0,0.0034191030282499407
2517.0,0.0034022350355813052
2516.0,0.003387837065882263
2515.0,0.0033776775242357355
2514.0,0.003372724187924716
2513.0,0.0033697022993144925
2512.0,0.003361110332447064
2511.0,0.0033430457624280675
2510.0,0.003320884823068946
2509.0,0.0033033847858919894
2508.0,0.0032930218640900965
2507.0,0.003285270540527138
2506.0,0.003274989926241789
2505.0,0.0032603959249151732
2504.0,0.0032431620243698112
2503.0,0.0032271965543866975
2502.0,0.0032147280030600774
2501.0,0.0032022972362106624
2500.0,0.003184891082124802
2499.0,0.003165235414443862
2498.0,0.0031529414286970638
2497.0,0.0031517606497776783
2496.0,0.0031546184953043796
2495.0,0.0031544718841238243
2494.0,0.0031525637010885246
2493.0,0.0031511259827764235
2492.0,0.0031460698037086856
2491.0,0.003134212545377669
2490.0,0.0031211002674360155
2489.0,0.0031134613628195557
2488.0,0.003108792961791483
2487.0,0.0031001337522648135
2486.0,0.0030868562124766056
2485.0,0.003073319273347762
2484.0,0.003060932522558243
2483.0,0.0030490899034998405
2482.0,0.00304039033734264
2481.0,0.0030373860388675845
2480.0,0.0030369780943294766
2479.0,0.0030351436039461797
2478.0,0.003034586670102137
2477.0,0.003040536410470909
2476.0,0.0030507066756295
2475.0,0.0030558361911342284
2474.0,0.0030489174837586524
2473.0,0.0030290863516307443
2472.0,0.0029991250974122745
2471.0,0.00296456216699195
2470.0,0.002932759847306781
2469.0,0.0029075155997619903
2468.0,0.0028863322870136105
2467.0,0.0028666047745329075
2466.0,0.0028507133452588293
2465.0,0.0028407363697073454
2464.0,0.0028329599377981767
2463.0,0.0028234177686638157
2462.0,0.002814604658596932
2461.0,0.002810443335404264
2460.0,0.002808435025341459
2459.0,0.0028033829917705707
2458.0,0.0027957499799432565
2457.0,0.002790056121224575
2456.0,0.002787809339141256
2455.0,0.0027876842488088562
2454.0,0.0027895063116966847
2453.0,0.0027922558817301624
2452.0,0.002791421944982291
2451.0,0.002784373280534846
2450.0,0.002775353184058907
2449.0,0.0027695051719044137
2448.0,0.002765306745744511
2447.0,0.0027585194535942564
2446.0,0.0027495932608344676
2445.0,0.0027409297738589596
2444.0,0.0027311303006064204
2443.0,0.002719173946718529
2442.0,0.0027105767456894834
2441.0,0.0027114377031509374
2440.0,0.002718586788275166
2439.0,0.0027227740444378955
2438.0,0.0027197559689791494
2437.0,0.0027120256455112853
2436.0,0.0027023204827789447
2435.0,0.002692402299185789
2434.0,0.0026861097277599633
2433.0,0.0026863354832747516
2432.0,0.0026897091296724292
2431.0,0.0026900870791565857
2430.0,0.0026862121755464818
2429.0,0.0026810478767900813
2428.0,0.0026759741609158373
2427.0,0.0026714091374503064
2426.0,0.0026709562208286517
2425.0,0.00267852710384589
2424.0,0.0026921336721585296
2423.0,0.002705595577846392
2422.0,0.0027153820974735584
2421.0,0.0027215776487378327
2420.0,0.0027241707680420333
2419.0,0.0027230561135730123
2418.0,0.002719971362509682
2417.0,0.0027163426958927185
2416.0,0.002710985400475541
2415.0,0.0027030865144278995
2414.0,0.002694720327489145
2413.0,0.0026872211134520625
2412.0,0.0026784599308008815
2411.0,0.002667041268695459
2410.0,0.002655062012316312
2409.0,0.0026427913101511116
2408.0,0.002625320092982221
2407.0,0.0025997272359304406
2406.0,0.002571416367243441
2405.0,0.002547940955955956
2404.0,0.0025303870463521364
2403.0,0.0025158267294131363
2402.0,0.0025039112769476963
2401.0,0.0024954439973149246
2400.0,0.0024882056583755197
2399.0,0.0024799961223302344
2398.0,0.002472776558619842
2397.0,0.0024687163893211145
2396.0,0.002465525090120283
2395.0,0.002460888350075437
2394.0,0.0024575823119851467
2393.0,0.002458472849629903
2392.0,0.002460695888505985
2391.0,0.0024611990373076815
2390.0,0.0024648461462321177
2389.0,0.0024805075362149985
2388.0,0.002511345696106434
2387.0,0.002554528976425656
2386.0,0.002607026163022625
2385.0,0.00266371251902193
2384.0,0.002710450683684496
2383.0,0.002726011206893395
2382.0,0.0026925061483869073
2381.0,0.002602532367486845
2380.0,0.002461386764220964
2379.0,0.0022913696859007677
2378.0,0.0021320030665796692
2377.0,0.0020238287688232946
2376.0,0.0019873368662719783
2375.0,0.0020200749617234615
2374.0,0.0021076143832996015
2373.0,0.00222636548145165
2372.0,0.002340586509575568
2371.0,0.0024181563069296283
2370.0,0.002453750255769751
2369.0,0.002462546300366846
2368.0,0.002455387758633892
2367.0,0.00243973510274398
2366.0,0.0024330222339637823
2365.0,0.002446122365501834
2364.0,0.0024639386947051824
2363.0,0.0024734051284587186
2362.0,0.0024853143945986604
2361.0,0.0025054072588661575
2360.0,0.0025233563447712216
2359.0,0.002534897752538584
2358.0,0.0025340834803753843
2357.0,0.00249305958032746
2356.0,0.002397027058162581
2355.0,0.0022959839047318824
2354.0,0.0022354772177817315
2353.0,0.0022198509826287655
2352.0,0.0022527446639004924
2351.0,0.0023525307848880216
2350.0,0.002500117896621179
2349.0,0.002624050308340133
2348.0,0.0026718774473432566
2347.0,0.002659798478998025
2346.0,0.0026683436766736105
2345.0,0.002759825357573225
2344.0,0.0028965559607761937
2343.0,0.0030028690489695468
2342.0,0.0030107090503544943
2341.0,0.002917574663102829
2340.0,0.0027902272557548515
2339.0,0.0027009603826416632
2338.0,0.002670053174006287
2337.0,0.0026677313257834237
2336.0,0.002674475224564318
2335.0,0.002685883424587049
2334.0,0.002699466387032348
2333.0,0.0027001588371756546
2332.0,0.002702175945205766
2331.0,0.0027297021541757577
2330.0,0.0028157073918463533
2329.0,0.0029500221452342817
2328.0,0.003117586787581367
2327.0,0.00328474608088664
2326.0,0.003417833452358745
2325.0,0.0034803731252634044
2324.0,0.0034564195363344873
2323.0,0.0033701719656516753
2322.0,0.003270977797755718
2321.0,0.003200854931285684
2320.0,0.0031740340724521277
2319.0,0.0031767534375437816
2318.0,0.0031924054600167245
2317.0,0.0031930685381907405
2316.0,0.0031676105842886877
2315.0,0.003119765225904535
2314.0,0.0030849424494627637
2313.0,0.003081086845160518
2312.0,0.0031072382597338312
2311.0,0.0031369354056537163
2310.0,0.0031595127853240907
2309.0,0.0031695708381407205
2308.0,0.003169784314344102
2307.0,0.0031578509326123925
2306.0,0.0031433924981529903
2305.0,0.0031369506325803617
2304.0,0.003147009337298256
2303.0,0.00316742805015074
2302.0,0.003189426991038172
2301.0,0.0032002837174003366
2300.0,0.003197856141133176
2299.0,0.0031861551780160715
2298.0,0.0031779122775781547
2297.0,0.0031736079593952696
2296.0,0.0031667278105637874
2295.0,0.0031496855463949754
2294.0,0.003126819808976336
2293.0,0.003102596380913685
2292.0,0.00307839633462737
2291.0,0.0030567992599832092
2290.0,0.003045748097405944
2289.0,0.0030484387578151168
2288.0,0.0030560721752168696
2287.0,0.00305870674947124
2286.0,0.0030542012691217634
2285.0,0.0030437562996482865
2284.0,0.0030236638161556823
2283.0,0.002994040206150624
2282.0,0.0029645501718545356
2281.0,0.002944481102332913
2280.0,0.0029305875552063185
2279.0,0.0029158314774774974
2278.0,0.002901436236712565
2277.0,0.0028913963298460156
2276.0,0.002882812557110889
2275.0,0.002870740940283692
2274.0,0.002857058583558543
2273.0,0.002843707623641636
2272.0,0.0028272719366962303
2271.0,0.002806991455003762
2270.0,0.00278978201918924
2269.0,0.0027766891252136933
2268.0,0.002755563062611635
2267.0,0.0027182375432471453
2266.0,0.0026760391949025774
2265.0,0.002646538399027834
2264.0,0.00263401663388533
2263.0,0.0026328741536497282
2262.0,0.0026394448119624672
2261.0,0.0026501581569612857
2260.0,0.0026576656035000278
2259.0,0.0026610861441387036
2258.0,0.0026671096651198533
2257.0,0.002673154982973212
2256.0,0.002663367762952263
2255.0,0.0026342959421465084
2254.0,0.00260831335696502
2253.0,0.0026045219517228033
2252.0,0.002613590063765349
2251.0,0.0026168011812984326
2250.0,0.002615909185720161
2249.0,0.0026223910796648133
2248.0,0.0026332967168546913
2247.0,0.0026372748690373666
2246.0,0.0026358120559117366
2245.0,0.002635876538651336
2244.0,0.0026319527741227922
2243.0,0.0026160400818114396
2242.0,0.002596727867340052
2241.0,0.002587316246744978
2240.0,0.0025829679054056153
2239.0,0.0025707397573478167
2238.0,0.0025539692582712977
2237.0,0.0025459800838623014
2236.0,0.0025458324807022467
2235.0,0.00254139719042738
2234.0,0.002531120193779978
2233.0,0.0025232381455111675
2232.0,0.002518498014009529
2231.0,0.0025122410425484523
2230.0,0.002507605312166209
2229.0,0.0025088319807526445
2228.0,0.0025085371983758196
2227.0,0.0024994232390006233
2226.0,0.002490712256882577
2225.0,0.002494660843524875
2224.0,0.002504764951472559
2223.0,0.0025059719522242626
2222.0,0.0024986337312096546
2221.0,0.0024939795658191514
2220.0,0.0024941687098761966
2219.0,0.0024951037903572443
2218.0,0.0024994795509460485
2217.0,0.0025076516046899093
2216.0,0.0025052412050459117
2215.0,0.002480969326257897
2214.0,0.002448480626313353
2213.0,0.0024311190022819036
2212.0,0.002432447233894353
2211.0,0.002439331366862023
2210.0,0.0024449192842279205
2209.0,0.0024496387146684512
2208.0,0.002450278012437695
2207.0,0.002447671289084396
2206.0,0.0024545413790332134
2205.0,0.002476604333316841
2204.0,0.0024967622736752257
2203.0,0.0024974420210781135
2202.0,0.0024869005984351406
2201.0,0.002483544239276637
2200.0,0.002487811459526701
2199.0,0.002490839075861851
2198.0,0.00249657370307347
2197.0,0.002511882976473214
2196.0,0.0025266358212122663
2195.0,0.0025280621706308473
2194.0,0.0025251612711649943
2193.0,0.002535804849868286
2192.0,0.002558501473564739
2191.0,0.0025777117816285972
2190.0,0.002587270118283971
2189.0,0.002590574786398895
2188.0,0.0025904225079833726
2187.0,0.002595568125149231
2186.0,0.0026194354475690784
2185.0,0.002651337725417309
2184.0,0.0026500761977889305
2183.0,0.0025932033836869785
2182.0,0.0025154960217120734
2181.0,0.00247094848003203
2180.0,0.0024723911553272827
2179.0,0.0024947237121098168
2178.0,0.002515673352629403
2177.0,0.0025234986868627788
2176.0,0.002507131937428295
2175.0,0.0024723102294593275
2174.0,0.0024515463127233452
2173.0,0.0024691817406716442
2172.0,0.00251241371341341
2171.0,0.00256107841162642
2170.0,0.002621189910892576
2169.0,0.0026993680862606334
2168.0,0.002769231014086192
2167.0,0.0028007513850723483
2166.0,0.0028084159232829708
2165.0,0.002835012857863815
2164.0,0.002896069454250848
2163.0,0.0029681740637727302
2162.0,0.0030107936793884677
2161.0,0.00296700403099095
2160.0,0.0027783688990206247
2159.0,0.0024603531236353326
2158.0,0.00214004309631773
2157.0,0.0019486899878680707
2156.0,0.0018991205556521075
2155.0,0.0019188373377649766
2154.0,0.0019552847944213398
2153.0,0.0019983042173414684
2152.0,0.002042433877271761
2151.0,0.002078590105430022
2150.0,0.002109113554430125
2149.0,0.002136417964117049
2148.0,0.002146593576931277
2147.0,0.002129408663136044
2146.0,0.002099991001132959
2145.0,0.0020771113404201126
2144.0,0.0020574962092428694
2143.0,0.0020342320756551744
2142.0,0.0020201502239837643
2141.0,0.0020267493535725584
2140.0,0.0020385050334436926
2139.0,0.002033422895512288
2138.0,0.002011385893361971
2137.0,0.001978483866257741
2136.0,0.0019246368895762325
2135.0,0.0018452361829390798
2134.0,0.0017679907172565468
2133.0,0.0017273734875836813
2132.0,0.0017251445341446075
2131.0,0.0017397936443791623
2130.0,0.0017611512890347344
2129.0,0.001791119833879889
2128.0,0.0018247018458802306
2127.0,0.0018535795718412603
2126.0,0.0018798588891056046
2125.0,0.0019071975467784483
2124.0,0.0019273446757243121
2123.0,0.0019328566446596813
2122.0,0.0019327352778501792
2121.0,0.001938645114186227
2120.0,0.0019461856875676144
2119.0,0.0019478957182887061
2118.0,0.0019533724297144182
2117.0,0.001976967825121467
2116.0,0.0020142931841863614
2115.0,0.0020491537741446062
2114.0,0.002075172184424827
2113.0,0.0020927832094551923
2112.0,0.0020961328003613216
2111.0,0.002083261690530142
2110.0,0.002070461270434944
2109.0,0.0020746383854645823
2108.0,0.0020881854411724425
2107.0,0.0020912032132943564
2106.0,0.002081141641482847
2105.0,0.0020701824838080933
2104.0,0.0020618882106203697
2103.0,0.002052149397076375
2102.0,0.002046307234254316
2101.0,0.0020528504843855275
2100.0,0.002064621431199215
2099.0,0.0020658886677639753
2098.0,0.0020529174000982297
2097.0,0.0020306045307614167
2096.0,0.0019977728191537462
2095.0,0.0019557718072934272
2094.0,0.001922674741620077
2093.0,0.0019165135898643981
2092.0,0.001931220838115419
2091.0,0.0019479223361246168
2090.0,0.001961728567239288
2089.0,0.0019793159195043712
2088.0,0.001999373624877346
2087.0,0.0020158818373479026
2086.0,0.0020331534630883977
2085.0,0.002057808288942359
2084.0,0.002082332761264536
2083.0,0.0020954023391250905
2082.0,0.002101471803511308
2081.0,0.0021116914298580317
2080.0,0.002123519851366127
2079.0,0.002128816851276113
2078.0,0.00213364243432339
2077.0,0.0021484065230401046
2076.0,0.002166441361961479
2075.0,0.002173973750578688
2074.0,0.002174234281266401
2073.0,0.0021800775597569494
2072.0,0.002189452355721252
2071.0,0.002189980978980635
2070.0,0.002180961200793588
2069.0,0.0021698645285733544
2068.0,0.002155191379325304
2067.0,0.0021344143469690315
2066.0,0.002120457513918686
2065.0,0.002127101593696318
2064.0,0.002145092184944053
2063.0,0.002155218022417298
2062.0,0.00215542468030189
2061.0,0.002154857858021757
2060.0,0.0021553582491230104
2059.0,0.002159192697721483
2058.0,0.002178575103033514
2057.0,0.0022125928760513168
2056.0,0.002232329517218464
2055.0,0.0022200103147474396
2054.0,0.0022086949565056154
2053.0,0.0022467920692229183
2052.0,0.002332131478715172
2051.0,0.002413572257878984
2050.0,0.0024498673837757582
2049.0,0.0024389648904864793
2048.0,0.0023985065957956905
2047.0,0.002350189235095297
2046.0,0.00232163842201486
2045.0,0.002330489391629684
2044.0,0.0023631875677251626
2043.0,0.002394575298510025
2042.0,0.002421497280683314
2041.0,0.00245322810058492
2040.0,0.0024836753705263816
2039.0,0.002502982945613037
2038.0,0.002519874959035904
2037.0,0.0025395490637714763
2036.0,0.0025376634694231313
2035.0,0.0024935485476432866
2034.0,0.0024347354503778513
2033.0,0.002409103700448546
2032.0,0.002424086449417871
2031.0,0.0024509779516713325
2030.0,0.0024710558724956345
2029.0,0.0024790646761470403
2028.0,0.00246428298529189
2027.0,0.0024303110495243656
2026.0,0.0024145218104413414
2025.0,0.002446663416076736
2024.0,0.0025033736382344004
2023.0,0.0025403162772984276
2022.0,0.0025481878222192124
2021.0,0.00254229854282285
2020.0,0.002523625601448516
2019.0,0.0024902175604496713
2018.0,0.0024640708658795747
2017.0,0.0024633074627117475
2016.0,0.0024665889744525282
2015.0,0.0024480349942317767
2014.0,0.002423063605104542
2013.0,0.0024194151910651093
2012.0,0.002425683460362175
2011.0,0.0024070969366252267
2010.0,0.0023533493879515253
2009.0,0.002275188203591018
2008.0,0.0021776004586810003
2007.0,0.0020754796151185003
2006.0,0.0020105813720232785
2005.0,0.0020070891650631048
2004.0,0.0020300297377591307
2003.0,0.0020294686945583913
2002.0,0.002004381088190573
2001.0,0.0019896709018016948
2000.0,0.002003299668656533
1999.0,0.002040071829728357
1998.0,0.0020971182984501585
1997.0,0.002165456498233958
1996.0,0.0022138192878867007
1995.0,0.002219536424837442
1994.0,0.002201900395154545
1993.0,0.002193950261636442
1992.0,0.002193356160844022
1991.0,0.0021761986662720088
1990.0,0.0021438676662438433
1989.0,0.002116380631207685
1988.0,0.0021004021455954987
1987.0,0.002097524142028913
1986.0,0.0021222752326989554
1985.0,0.0021775788537602447
1984.0,0.002234168248619537
1983.0,0.002269570697607365
1982.0,0.002302894723282403
1981.0,0.00235162256029631
1980.0,0.002379946651624714
1979.0,0.0023395072775819264
1978.0,0.002246057666630145
1977.0,0.002160348092212865
1976.0,0.0021043764393339904
1975.0,0.002060816286808484
1974.0,0.0020351754059261965
1973.0,0.0020462210411101257
1972.0,0.002072343001344614
1971.0,0.002071556583657186
1970.0,0.0020420144345130327
1969.0,0.002012482625677518
1968.0,0.001989587452583996
1967.0,0.001963674101615525
1966.0,0.0019500849203950032
1965.0,0.0019661775292372846
1964.0,0.001984871983750443
1963.0,0.0019639959972656343
1962.0,0.0019045210843910078
1961.0,0.0018414460451251806
1960.0,0.001792528611094284
1959.0,0.001757337721037333
1958.0,0.0017493401048861604
1957.0,0.0017803993031459738
1956.0,0.001826493674160191
1955.0,0.0018512163376339427
1954.0,0.0018527491055808647
1953.0,0.0018531332455704753
1952.0,0.001855814261092303
1951.0,0.0018499483474025743
1950.0,0.001840344413927142
1949.0,0.0018387508639279445
1948.0,0.00183870641688582
1947.0,0.001829551086352073
1946.0,0.0018219485468613898
1945.0,0.001829355800241021
1944.0,0.0018384890305057806
1943.0,0.0018298177890389814
1942.0,0.0018161125506011002
1941.0,0.0018211518989854581
1940.0,0.0018340588176021886
1939.0,0.0018304366199594457
1938.0,0.0018140226237901964
1937.0,0.0018025081105989796
1936.0,0.0017914784770184564
1935.0,0.001766305249030817
1934.0,0.0017378197923310044
1933.0,0.001730754849757586
1932.0,0.001745218362690717
1931.0,0.0017620550899042227
1930.0,0.0017743248687554854
1929.0,0.00178652006201165
1928.0,0.0017946705043566167
1927.0,0.001792467684128731
1926.0,0.0017887938231660695
1925.0,0.0017947604525506188
1924.0,0.0018038562889757478
1923.0,0.0018054897284597946
1922.0,0.0018091281713382237
1921.0,0.0018263480315965043
1920.0,0.0018441208277701036
1919.0,0.0018446762870118053
1918.0,0.001836278530387063
1917.0,0.0018402043265965868
1916.0,0.001853281481120139
1915.0,0.0018569910995654007
1914.0,0.0018518232118196229
1913.0,0.001850933763475069
1912.0,0.0018540082137772106
1911.0,0.0018528390139792208
1910.0,0.0018525158639596988
1909.0,0.0018628434143426204
1908.0,0.0018760125379718132
1907.0,0.0018776359183066932
1906.0,0.001873286516554203
1905.0,0.0018792312351459265
1904.0,0.0018961565444943203
1903.0,0.0019125666815296024
1902.0,0.0019258755587929495
1901.0,0.0019411209196681023
1900.0,0.001954718711868103
1899.0,0.0019596656894434006
1898.0,0.0019618886606445193
1897.0,0.0019693537006725756
1896.0,0.001972349839425591
1895.0,0.0019557878102944627
1894.0,0.0019263843685497213
1893.0,0.0019028419555135075
1892.0,0.0018863498819437952
1891.0,0.001864554839010661
1890.0,0.0018349434575794122
1889.0,0.001807396277911075
1888.0,0.0017843898332886425
1887.0,0.0017575081322417471
1886.0,0.0017275453030502867
1885.0,0.0017042658812785865
1884.0,0.001686957266689331
1883.0,0.001667253451487852
1882.0,0.0016471259036376544
1881.0,0.001635765239960943
1880.0,0.001630585413540886
1879.0,0.0016207318393630476
1878.0,0.0016068839118678823
1877.0,0.0015978419446886103
1876.0,0.0015921173659872519
1875.0,0.0015832945669224316
1874.0,0.0015762792572043749
1873.0,0.0015789437643977172
1872.0,0.0015845050997818641
1871.0,0.0015798951959499243
1870.0,0.0015649735852184365
1869.0,0.0015489004915588355
1868.0,0.0015348903033592823
1867.0,0.0015236102732086713
1866.0,0.0015199015209242002
1865.0,0.0015264556890216495
1864.0,0.0015340466617852102
1863.0,0.0015310535130018698
1862.0,0.0015216022461114918
1861.0,0.0015186862476197836
1860.0,0.0015214680267773627
1859.0,0.0015180154992702208
1858.0,0.00150723626282844
1857.0,0.0014987179317217858
1856.0,0.0014940954433485805
1855.0,0.0014860987292707006
1854.0,0.001475950726558737
1853.0,0.0014727201095261005
1852.0,0.0014754525111605752
1851.0,0.0014725924200701787
1850.0,0.0014619355813867585
1849.0,0.001452110047958079
1848.0,0.0014459381630862174
1847.0,0.0014401011809038425
1846.0,0.0014391220216642812
1845.0,0.0014498404117229545
1844.0,0.0014615949490912555
1843.0,0.0014595164281554444
1842.0,0.0014482114460638074
1841.0,0.0014403509631980762
1840.0,0.0014389365002661747
1839.0,0.0014376193836837614
1838.0,0.001435754827877543
1837.0,0.0014391837502876496
1836.0,0.001446191665363003
1835.0,0.0014479466518161207
1834.0,0.0014448188112794016
1833.0,0.0014457026250787334
1832.0,0.0014507778752542585
1831.0,0.0014489400204487062
1830.0,0.001436939082719995
1829.0,0.0014299434475345328
1828.0,0.0014332168308478612
1827.0,0.0014351670894195547
1826.0,0.0014369405606288993
1825.0,0.001449514446918547
1824.0,0.0014698574100862798
1823.0,0.0014858092146519423
1822.0,0.0014941765303434192
1821.0,0.001498392675334019
1820.0,0.0014936930816314697
1819.0,0.0014731774791970362
1818.0,0.0014454017754327922
1817.0,0.0014275380363702457
1816.0,0.0014252710750156177
1815.0,0.0014314749668469992
1814.0,0.0014399223606752281
1813.0,0.0014479159982661795
1812.0,0.0014482314705223107
1811.0,0.0014399984323048396
1810.0,0.001437827613912152
1809.0,0.0014495283986356792
1808.0,0.0014634327248173049
1807.0,0.0014686269679368836
1806.0,0.0014698360436530711
1805.0,0.0014746839538026025
1804.0,0.0014792863981893194
1803.0,0.0014769444055385012
1802.0,0.0014731320314861356
1801.0,0.0014792676765594654
1800.0,0.001494849336430426
1799.0,0.001512325894554752
1798.0,0.0015275374850896328
1797.0,0.0015384084122587304
1796.0,0.0015407502982989298
1795.0,0.0015334446678697813
1794.0,0.0015243291354249552
1793.0,0.001519109706145389
1792.0,0.0015077623856531632
1791.0,0.0014891038943700848
1790.0,0.0014796574788600264
1789.0,0.001483660699608232
1788.0,0.0014895850895083585
1787.0,0.001486753546021344
1786.0,0.0014786820099673887
1785.0,0.0014776386857063809
1784.0,0.001486218436635218
1783.0,0.0014945696757648298
1782.0,0.001497710029711767
1781.0,0.0015005036526086488
1780.0,0.0015020470716780431
1779.0,0.0014991328359285436
1778.0,0.0014958771044583426
1777.0,0.001499098955662167
1776.0,0.0015080474001770493
1775.0,0.0015153627414305941
1774.0,0.001523501363476322
1773.0,0.0015398862823565638
1772.0,0.001553849907415973
1771.0,0.0015548500401538837
1770.0,0.0015527920896886826
1769.0,0.001558355329977554
1768.0,0.0015713312254199852
1767.0,0.0015837967325046521
1766.0,0.0015939353838391652
1765.0,0.0016042758803288593
1764.0,0.001613895795634225
1763.0,0.001619521800148654
1762.0,0.0016262671103571438
1761.0,0.0016483335613834433
1760.0,0.0016801052712396803
1759.0,0.0017038990201666414
1758.0,0.0017221875433180048
1757.0,0.0017526647607210314
1756.0,0.00179710120196874
1755.0,0.0018371172456611816
1754.0,0.001866573392552581
1753.0,0.0019028793987266434
1752.0,0.0019582860264498194
1751.0,0.0020146621688205716
1750.0,0.002055443791868075
1749.0,0.0020914185212697195
1748.0,0.0021276697902853294
1747.0,0.002155984298149754
1746.0,0.0021799163833853908
1745.0,0.0022102425304974813
1744.0,0.0022428062131774284
1743.0,0.0022667866666259773
1742.0,0.002291067197015086
1741.0,0.002332738217747826
1740.0,0.0023818967233099507
1739.0,0.002409802071637455
1738.0,0.0024129403800535985
1737.0,0.0024102854627402947
1736.0,0.0024162761128144047
1735.0,0.0024295196013093146
1734.0,0.0024354322998654
1733.0,0.0024472680328853054
1732.0,0.002467383015280288
1731.0,0.0024741709453639533
1730.0,0.0024774971318219574
1729.0,0.002500848306212211
1728.0,0.0025424057926558626
1727.0,0.0025794347782713374
1726.0,0.0026063917823354985
1725.0,0.002634514768517622
1724.0,0.002660105455379498
1723.0,0.0026656916865315326
1722.0,0.002648945571799095
1721.0,0.0026225735215738466
1720.0,0.002594069518526474
1719.0,0.002567937210620719
1718.0,0.0025607927715502574
1717.0,0.0025821190682411466
1716.0,0.0026098932833695985
1715.0,0.002621354823759134
1714.0,0.002625190237958215
1713.0,0.0026388308570681977
1712.0,0.002657185817779145
1711.0,0.002666983957737118
1710.0,0.002672991944764011
1709.0,0.002690662722551796
1708.0,0.0027181398550039995
1707.0,0.0027398217268450064
1706.0,0.0027550261101666074
1705.0,0.0027787153094623717
1704.0,0.0028101208923035728
1703.0,0.0028361867830256834
1702.0,0.00287530313331231
1701.0,0.0029660107718340193
1700.0,0.0030802685376744633
1699.0,0.003140991221818093
1698.0,0.0031431955863813407
1697.0,0.0031356562655956107
1696.0,0.0031568957208248133
1695.0,0.0032144153493358575
1694.0,0.0032835401787913382
1693.0,0.003338976272907932
1692.0,0.0033855606370319785
1691.0,0.003434102721225252
1690.0,0.003489771258848036
1689.0,0.0035484956446385583
1688.0,0.003594512479325104
1687.0,0.003617168744094369
1686.0,0.0036410132645515285
1685.0,0.0037109069579138705
1684.0,0.003818991852206935
1683.0,0.003920874057293016
1682.0,0.003999524850652273
1681.0,0.004056986941038397
1680.0,0.0041120001320876275
1679.0,0.0041657293484618375
1678.0,0.004219656140202228
1677.0,0.004289080781504617
1676.0,0.0043829472474015505
1675.0,0.0044746688214860495
1674.0,0.004537180779229551
1673.0,0.004580206688210067
1672.0,0.004621377907951046
1671.0,0.0046684157648103075
1670.0,0.00471915718068289
1669.0,0.004776582372369342
1668.0,0.004835530327216595
1667.0,0.0048757083209600045
1666.0,0.004901193546835201
1665.0,0.004936601625156173
1664.0,0.004992035593641714
1663.0,0.005049574663896275
1662.0,0.00509301179142842
1661.0,0.005132842415444412
1660.0,0.005172829878494451
1659.0,0.005204501959697037
1658.0,0.005226071652325534
1657.0,0.005242657579377136
1656.0,0.005255337779817568
1655.0,0.005268188339826408
1654.0,0.005282795754531302
1653.0,0.00530311547771589
1652.0,0.005368573148173813
1651.0,0.005411798851951888
1650.0,0.005407090015416676
1649.0,0.005404812297872155
1648.0,0.005423387176018687
1647.0,0.005432379279232869
1646.0,0.005424157724346694
1645.0,0.005436486539116526
1644.0,0.005449162062489353
1643.0,0.0054420036625260244
1642.0,0.005425732203464988
1641.0,0.005416995024856694
1640.0,0.005412997822349754
1639.0,0.005397581304814446
1638.0,0.005370686684104722
1637.0,0.00534664136857887
1636.0,0.0053181608497046085
1635.0,0.00528243361511929
1634.0,0.005264805201219526
1633.0,0.005253409364230403
1632.0,0.005234743757123004
1631.0,0.005206915975166606
1630.0,0.005174321602683867
1629.0,0.005144500380682479
1628.0,0.005114843138224988
1627.0,0.005076141695008514
1626.0,0.005032136106177312
1625.0,0.004994339970097718
1624.0,0.004956163634515124
1623.0,0.004899202501582801
1622.0,0.0048361288876074115
1621.0,0.004791769428605788
1620.0,0.00475836924043164
1619.0,0.0047173238041402655
1618.0,0.0046640789925568886
1617.0,0.004606479971007431
1616.0,0.0045551020932283045
1615.0,0.004509215374823092
1614.0,0.004462482493835166
1613.0,0.004418942255416436
1612.0,0.004379183106168496
1611.0,0.004334378282357166
1610.0,0.004284397137969071
1609.0,0.004241912048586731
1608.0,0.004207977102943646
1607.0,0.004169604746258886
1606.0,0.004126447943724064
1605.0,0.004090291898787027
1604.0,0.004058169018764117
1603.0,0.004016445708489427
1602.0,0.003969144805910269
1601.0,0.003932872444312378
1600.0,0.0039057257023773053
1599.0,0.0038720055140572425
1598.0,0.0038326181671882913
1597.0,0.003801177320720597
1596.0,0.003775158045561362
1595.0,0.0037397893849774903
1594.0,0.003697539227184421
1593.0,0.0036649393584435048
1592.0,0.003641281736216029
1591.0,0.0036120578927477283
1590.0,0.003578062391837197
1589.0,0.0035535597707844957
1588.0,0.0035373702337589486
1587.0,0.003514723954359084
1586.0,0.0034854865495599534
1585.0,0.003462664095968228
1584.0,0.0034446812241053122
1583.0,0.003417054332584034
1582.0,0.0033826967943382516
1581.0,0.0033579157141092114
1580.0,0.003340420913964042
1579.0,0.0033123767463184486
1578.0,0.00327285752749412
1577.0,0.003236202236173283
1576.0,0.0031997309436296974
1575.0,0.003159339713733625
1574.0,0.003126055190328255
1573.0,0.0031034584028670708
1572.0,0.003084796955174165
1571.0,0.003056050274805064
1570.0,0.003013238834245611
1569.0,0.002980994228309108
1568.0,0.0029665157233255833
1567.0,0.0029409599644998866
1566.0,0.0029027043940009355
1565.0,0.0028750111293375075
1564.0,0.0028585310163436405
1563.0,0.0028306338636127693
1562.0,0.002791587977796424
1561.0,0.002775390624208255
1560.0,0.0028012265572955174
1559.0,0.0027725269724314066
1558.0,0.002716228703221484
1557.0,0.002753821173466978
1556.0,0.0027746908673893
1555.0,0.002749181823026553
1554.0,0.0027152900826026487
1553.0,0.0027077666467929975
1552.0,0.002706344334133938
1551.0,0.002683634199191016
1550.0,0.0026566625813943313
1549.0,0.0026612910794405684
1548.0,0.00268851167833469
1547.0,0.002701330981325732
1546.0,0.00269905244494255
1545.0,0.0027075205197512704
1544.0,0.00272212412328017
1543.0,0.002711114884474853
1542.0,0.0026820896664866306
1541.0,0.002657736786272111
1540.0,0.0025984473115941075
1539.0,0.002523709801379658
1538.0,0.002508098695779958
1537.0,0.002524526865486101
1536.0,0.0025324076793342503
1535.0,0.002508210116256791
1534.0,0.002459527551568502
1533.0,0.0024275283675224313
1532.0,0.0024239258988831207
1531.0,0.0024190248027863466
1530.0,0.0024117264686594536
1529.0,0.002422958720445864
1528.0,0.002440686767201293
1527.0,0.002430535469911116
1526.0,0.0024054495202729545
1525.0,0.0024095034352501514
1524.0,0.00242859712175888
1523.0,0.0024152309719484705
1522.0,0.0023745674743597023
1521.0,0.002367878978793311
1520.0,0.0023961750599935192
1519.0,0.0023978148042196608
1518.0,0.0023765728177513176
1517.0,0.0023807308565298936
1516.0,0.0024021793228706646
1515.0,0.002402163400915323
1514.0,0.002393341507295269
1513.0,0.0024104941714946358
1512.0,0.0024393976565361096
1511.0,0.0024325189651175825
1510.0,0.0023967006032383277
1509.0,0.002397547753721153
1508.0,0.0024463640674711657
1507.0,0.0024260409234132785
1506.0,0.0024102620648843408
1505.0,0.002525560775575833
1504.0,0.0026191717407767676
1503.0,0.002630899505810835
1502.0,0.0026167210633871022
1501.0,0.0026436628207270377
1500.0,0.002704465663425637
1499.0,0.0027347937909893635
1498.0,0.002750860962253673
1497.0,0.002844738412974047
1496.0,0.0029782100613871512
1495.0,0.0030339543656897603
1494.0,0.003049683681488443
1493.0,0.0031230639182474504
1492.0,0.0032429810949319597
1491.0,0.0033214828486139115
1490.0,0.0033762474596339496
1489.0,0.0035256436235538745
1488.0,0.003729157843918836
1487.0,0.003882456519774303
1486.0,0.004035978890125433
1485.0,0.004278748527835535
1484.0,0.004585621805459222
1483.0,0.004915140917888191
1482.0,0.005360622946982445
1481.0,0.006045656094915841
1480.0,0.006959798384040006
1479.0,0.00821441867418594
1478.0,0.01042374837022575
1477.0,0.014529188203306278
1476.0,0.021023082835630126
1475.0,0.029620439158986708
1474.0,0.0395331126189966
1473.0,0.04813664105482381
1472.0,0.05109885581969212
1471.0,0.04862861525894364
1470.0,0.04463046151971274
1469.0,0.04113778032397606
1468.0,0.0384605282205269
1467.0,0.03671841302981249
1466.0,0.03638462832618294
1465.0,0.037682203956741794
1464.0,0.039387203457506084
1463.0,0.03959204738498048
1462.0,0.03760586988037763
1461.0,0.03387443168958346
1460.0,0.02924378940242872
1459.0,0.024600299958906263
1458.0,0.02059284916407829
1457.0,0.01757311081414625
1456.0,0.015680131643985
1455.0,0.014573413014207564
1454.0,0.0137309694045726
1453.0,0.012877355733845137
1452.0,0.012036442413812663
1451.0,0.011363572292589495
1450.0,0.010880558678709074
1449.0,0.010472087060591958
1448.0,0.010101968059787029
1447.0,0.009841457061490295
1446.0,0.009679097835798052
1445.0,0.009525977041460866
1444.0,0.009361768475680848
1443.0,0.009225562316416146
1442.0,0.009110813146207368
1441.0,0.00897018408435724
1440.0,0.008806567469772122
1439.0,0.008663860723355434
1438.0,0.008536194449596796
1437.0,0.008352766124753542
1436.0,0.00811542028073707
1435.0,0.007911190148126523
1434.0,0.007730807020897441
1433.0,0.007510942352201606
1432.0,0.007247026905283132
1431.0,0.006979676717877262
1430.0,0.006717748301825307
1429.0,0.006441789703222849
1428.0,0.006178975294896454
1427.0,0.0059701630822563394
1426.0,0.005793338439450361
1425.0,0.005599500587090578
1424.0,0.00539824949596052
1423.0,0.0052453969704640184
1422.0,0.005138256650023296
1421.0,0.005022727696297637
1420.0,0.004884693246810418
1419.0,0.004766256065352463
1418.0,0.004683397845218284
1417.0,0.004600603629669775
1416.0,0.004514863419629133
1415.0,0.004451442753715294
1414.0,0.004402308000118047
1413.0,0.004337130213139615
1412.0,0.004258132783046142
1411.0,0.004193201762212483
1410.0,0.004141437466202728
1409.0,0.004077950463516734
1408.0,0.004006020462196114
1407.0,0.003951418432468725
1406.0,0.003911238365893527
1405.0,0.003859738350905949
1404.0,0.0038057591614434495
1403.0,0.0037787041981883667
1402.0,0.003765352053331994
1401.0,0.0037323278877972607
1400.0,0.003684189758769341
1399.0,0.0036539702980261284
1398.0,0.0036405763314439933
1397.0,0.003611556809677837
1396.0,0.0035661799744083015
1395.0,0.003533273823690855
1394.0,0.0035169128599455432
1393.0,0.0034969495450650513
1392.0,0.003471454982026748
1391.0,0.0034539668420245874
1390.0,0.0034399219325062366
1389.0,0.0034114248714029443
1388.0,0.0033739315506072466
1387.0,0.003354769429398629
1386.0,0.003356729890740996
1385.0,0.0033606585020079863
1384.0,0.0033704257591270076
1383.0,0.0034060753192461128
1382.0,0.0034646610819068537
1381.0,0.0035239955375199177
1380.0,0.0035800234710150194
1379.0,0.0036416353449814807
1378.0,0.003697524583942978
1377.0,0.00373078574559257
1376.0,0.0037599039605388266
1375.0,0.003827720652697486
1374.0,0.003945929157982031
1373.0,0.00408681958389645
1372.0,0.004231593700628797
1371.0,0.004374763264180835
1370.0,0.004494301243215387
1369.0,0.004559486587349103
1368.0,0.004565186206518995
1367.0,0.0045312688604445435
1366.0,0.0044655840082376734
1365.0,0.004362186042568789
1364.0,0.004231725510691923
1363.0,0.004104534071845527
1362.0,0.003999292515107265
1361.0,0.0039154622002709446
1360.0,0.0038553282057403847
1359.0,0.003822796915708096
1358.0,0.003807505414466163
1357.0,0.0037948890437209887
1356.0,0.0037882522504582043
1355.0,0.003799074537772947
1354.0,0.003817951536146784
1353.0,0.003821193911550385
1352.0,0.0038026132176901244
1351.0,0.0037720108576648845
1350.0,0.0037278038234194065
1349.0,0.003662665479387959
1348.0,0.003586747349070587
1347.0,0.0035181497432631072
1346.0,0.003456426489870855
1345.0,0.0033908302864550603
1344.0,0.0033257810312124526
1343.0,0.0032733658295804723
1342.0,0.0032278643128009956
1341.0,0.003171756212982905
1340.0,0.0031043780270711974
1339.0,0.003044059674209806
1338.0,0.0029990874960095955
1337.0,0.002961826803506184
1336.0,0.0029317071093097713
1335.0,0.0029152814553562332
1334.0,0.002907919937822149
1333.0,0.002899662589480292
1332.0,0.0028957135904517386
1331.0,0.002909316306557082
1330.0,0.0029376594287516267
1329.0,0.0029672012006937126
1328.0,0.0029978450975568617
1327.0,0.0030391322888110046
1326.0,0.003087175301773849
1325.0,0.003129966465471326
1324.0,0.0031689882272414524
1323.0,0.0032148392108957225
1322.0,0.003265705893159279
1321.0,0.003309964011486306
1320.0,0.0033459341580435262
1319.0,0.0033798286194985276
1318.0,0.003407772627345789
1317.0,0.0034203555057219113
1316.0,0.0034211384364910887
1315.0,0.0034208650224552125
1314.0,0.00341905758301163
1313.0,0.0034089107420591158
1312.0,0.003396080140925751
1311.0,0.003392504036947729
1310.0,0.0033949999700192447
1309.0,0.0033898505703507924
1308.0,0.0033744785574258964
1307.0,0.0033575001409818913
1306.0,0.0033400060489006704
1305.0,0.0033163669701402948
1304.0,0.003289920283939378
1303.0,0.003270166219079677
1302.0,0.0032553537882304123
1301.0,0.0032350061998614116
1300.0,0.003208289784310275
1299.0,0.0031834645014063006
1298.0,0.0031605792477890117
1297.0,0.0031309467966764244
1296.0,0.0030932810446216673
1295.0,0.0030541381389193436
1294.0,0.003013876150780419
1293.0,0.0029678579326019227
1292.0,0.002920176327665566
1291.0,0.0028806922623218407
1290.0,0.0028492814663709054
1289.0,0.002817806954074853
1288.0,0.0027866384242266466
1287.0,0.0027638277700885987
1286.0,0.0027493109929976325
1285.0,0.0027356759665702565
1284.0,0.00272285225492386
1283.0,0.002716705988870585
1282.0,0.0027147534839132206
1281.0,0.0027081526572881424
1280.0,0.002696867357083612
1279.0,0.0026880526430005337
1278.0,0.0026813629869941826
1277.0,0.002670321184207571
1276.0,0.0026566369074489866
1275.0,0.002648135955346491
1274.0,0.002644170596092988
1273.0,0.0026374408438628034
1272.0,0.00262863690204641
1271.0,0.0026249071443109964
1270.0,0.0026253929097901697
1269.0,0.002623350215871408
1268.0,0.0026209091774716865
1267.0,0.002626394909197314
1266.0,0.0026389727431728794
1265.0,0.002650083702160647
1264.0,0.002658372603640086
1263.0,0.0026687166535427995
1262.0,0.0026784113288042706
1261.0,0.00267911766836937
1260.0,0.002671741114034478
1259.0,0.0026648799885843183
1258.0,0.002660139017831592
1257.0,0.002652551521508558
1256.0,0.0026434779331913887
1255.0,0.002639183610378624
1254.0,0.0026388175458957747
1253.0,0.0026370477684307405
1252.0,0.002636540574984641
1251.0,0.002644142015935215
1250.0,0.002657110926703496
1249.0,0.0026670827827267006
1248.0,0.0026752791516970508
1247.0,0.002689741519303061
1246.0,0.0027101571060820008
1245.0,0.002729146473046981
1244.0,0.00274643751964956
1243.0,0.002767701635214965
1242.0,0.0027912897712823463
1241.0,0.0028104552274047503
1240.0,0.002827269179080847
1239.0,0.0028504916291041387
1238.0,0.002880547248202282
1237.0,0.002909658917076118
1236.0,0.002935864487741158
1235.0,0.0029639403584997446
1234.0,0.0029936426039435353
1233.0,0.0030198738642582728
1232.0,0.0030435013028989677
1231.0,0.0030697652257982173
1230.0,0.003097203031130343
1229.0,0.0031199315095016703
1228.0,0.0031392964303772536
1227.0,0.003161671299234502
1226.0,0.0031868313051975506
1225.0,0.003210356306179639
1224.0,0.003235132356709301
1223.0,0.003267719150562249
1222.0,0.0033051369641381176
1221.0,0.0033379802098073208
1220.0,0.003365192353630443
1219.0,0.0033938197587085233
1218.0,0.0034261648073480805
1217.0,0.003459138258188412
1216.0,0.0034940264586622704
1215.0,0.003534247570392569
1214.0,0.003575481336084498
1213.0,0.0036107181101696926
1212.0,0.0036433001493282203
1211.0,0.0036826739885505357
1210.0,0.0037288998403940034
1209.0,0.0037740864401186918
1208.0,0.0038171783485568926
1207.0,0.00386436375518131
1206.0,0.003916319179851193
1205.0,0.003967658073113519
1204.0,0.004018023124433046
1203.0,0.004071621832982665
1202.0,0.004126997209915399
1201.0,0.004178870067000532
1200.0,0.004228733121976369
1199.0,0.004282601339224573
1198.0,0.004340036214091525
1197.0,0.004395911567919704
1196.0,0.004450899213725768
1195.0,0.004509433332145148
1194.0,0.004569439661863242
1193.0,0.004625002094670568
1192.0,0.0046772480847266755
1191.0,0.004732103324045453
1190.0,0.004789318202728595
1189.0,0.004843886727259721
1188.0,0.00489598889969464
1187.0,0.004949367011759008
1186.0,0.005002466668523132
1185.0,0.0050513911519589035
1184.0,0.005099245683318027
1183.0,0.005152392814473883
1182.0,0.005209918296422995
1181.0,0.005267059895713826
1180.0,0.005326446002312517
1179.0,0.005394159673011413
1178.0,0.005465746270676183
1177.0,0.005527528963134851
1176.0,0.00557190183669586
1175.0,0.0056028529193768144
1174.0,0.005628025676340631
1173.0,0.0056537997999632755
1172.0,0.005686106913318197
1171.0,0.0057268072140519094
1170.0,0.005769541190078528
1169.0,0.005806818612682055
1168.0,0.005839808747954748
1167.0,0.005874266973802517
1166.0,0.005909878202132095
1165.0,0.005941974886304379
1164.0,0.0059709200534416
1163.0,0.006000725672193894
1162.0,0.006030565380976401
1161.0,0.006056611498594014
1160.0,0.006080523169622352
1159.0,0.006107430203045188
1158.0,0.006137000896013655
1157.0,0.006164562964910375
1156.0,0.006189425425084285
1155.0,0.0062144028085547665
1154.0,0.006239142762104135
1153.0,0.006261692102106911
1152.0,0.006284660579323272
1151.0,0.006312147008654419
1150.0,0.006342493760746798
1149.0,0.0063714076477212
1148.0,0.006399851753262563
1147.0,0.006431574146478369
1146.0,0.006465355135067793
1145.0,0.006496861354299702
1144.0,0.006525686758279353
1143.0,0.006553809774046675
1142.0,0.006580410481138423
1141.0,0.006605431732221373
1140.0,0.006634769190936779
1139.0,0.006673891200674904
1138.0,0.006719010761500058
1137.0,0.006762426905851616
1136.0,0.006803620990857804
1135.0,0.00684717139933105
1134.0,0.0068926356814929535
1133.0,0.006934931108062446
1132.0,0.006972694271437908
1131.0,0.007008602629157984
1130.0,0.007043191985925653
1129.0,0.007075429486134174
1128.0,0.007107746783234803
1127.0,0.007143942999715609
1126.0,0.007183792544680816
1125.0,0.00722576690717585
1124.0,0.007272536286511018
1123.0,0.007327185527537387
1122.0,0.007386514302107678
1121.0,0.007444728030000821
1120.0,0.007501343069264657
1119.0,0.007559410542683975
1118.0,0.0076188908693813374
1117.0,0.007677900530577696
1116.0,0.007737609984278275
1115.0,0.007799616944119332
1114.0,0.007860797824682169
1113.0,0.007916569567380473
1112.0,0.007966994164331396
1111.0,0.008014633608785075
1110.0,0.008059186067254559
1109.0,0.008099205460371272
1108.0,0.008135688240810015
1107.0,0.008169720720983514
1106.0,0.008199619783485679
1105.0,0.008224667562297923
1104.0,0.008247947433403518
1103.0,0.008270910206411233
1102.0,0.008288963102186058
1101.0,0.008297782609197647
1100.0,0.008299865653346283
1099.0,0.008301918589464453
1098.0,0.008306101586391819
1097.0,0.008310414025175426
1096.0,0.008314021628386023
1095.0,0.008317257103938328
1094.0,0.008318901208798787
1093.0,0.008318482276835515
1092.0,0.008319231739036639
1091.0,0.008324221383275392
1090.0,0.00833109754837028
1089.0,0.008334235327703832
1088.0,0.008330355025993856
1087.0,0.008319551929416384
1086.0,0.008304027804258688
1085.0,0.008288636428603915
1084.0,0.00827856788172984
1083.0,0.00827221241335231
1082.0,0.008259630140517438
1081.0,0.00823257780708885
1080.0,0.008193176544055365
1079.0,0.008149000509987157
1078.0,0.008103021743875052
1077.0,0.008052744302992654
1076.0,0.007996354002395917
1075.0,0.007934957050479412
1074.0,0.007870996698106498
1073.0,0.007808899251984818
1072.0,0.007755007318106466
1071.0,0.007711940479405098
1070.0,0.007674529293710781
1069.0,0.007635697488764729
1068.0,0.007594398835129962
1067.0,0.0075539652890618675
1066.0,0.007515960792667382
1065.0,0.007480410640717356
1064.0,0.0074489051772779116
1063.0,0.007421823953901117
1062.0,0.007394763932346617
1061.0,0.007363228179637813
1060.0,0.007328974709206841
1059.0,0.00729668985378764
1058.0,0.0072667665592017604
1057.0,0.007236818495058509
1056.0,0.007208097177995266
1055.0,0.00718449043981903
1054.0,0.007166698984616679
1053.0,0.0071529225512171335
1052.0,0.0071436472346773396
1051.0,0.00713918201578646
1050.0,0.007134032388884071
1049.0,0.007121731143072768
1048.0,0.007103983840711991
1047.0,0.007087535584783908
1046.0,0.0070745505496839015
1045.0,0.007063037514217491
1044.0,0.007053684234828453
1043.0,0.007048752835890241
1042.0,0.007045582203055166
1041.0,0.007038041774981737
1040.0,0.007024819691251051
1039.0,0.0070109149112063465
1038.0,0.0070003302155010345
1037.0,0.006991551296907525
1036.0,0.006980558452512086
1035.0,0.006964364518409431
1034.0,0.006941519566132974
1033.0,0.0069125330819894675
1032.0,0.006879647935590368
1031.0,0.0068431992790848484
1030.0,0.00679909109797678
1029.0,0.006743207590797417
1028.0,0.006677122157956343
1027.0,0.006606022771386791
1026.0,0.006532617421213352
1025.0,0.0064573758036316885
1024.0,0.006383225558716921
1023.0,0.006314442579379282
1022.0,0.0062510498775176825
1021.0,0.006189650736361817
1020.0,0.006130130418522683
1019.0,0.006076221145693172
1018.0,0.006028961721117941
1017.0,0.005985066194140973
1016.0,0.00594270175426904
1015.0,0.005903761974657831
1014.0,0.005869474332424682
1013.0,0.005838439849113269
1012.0,0.005809598650261839
1011.0,0.005782143246698716
1010.0,0.005751683529774485
1009.0,0.0057115347545107645
1008.0,0.005659440121810903
1007.0,0.005599126645913363
1006.0,0.005533953505585634
1005.0,0.005462823901995666
1004.0,0.00538361143489596
1003.0,0.0052967698498094995
1002.0,0.005204159774461343
1001.0,0.005107839607968941
1000.0,0.00501115619090492
999.0,0.004917319570997916
998.0,0.004825586415492201
997.0,0.004732372430900729
996.0,0.004637124768359346
995.0,0.0045436278943962434
994.0,0.004455059658152786
993.0,0.0043717881020581
992.0,0.004294314034708401
991.0,0.004223271327571076
990.0,0.004155457857744079
989.0,0.004084951645482239
988.0,0.004009645642420952
987.0,0.003932757274738142
986.0,0.003857762198259661
985.0,0.0037864310290306492
984.0,0.003721252988012763
983.0,0.0036633214848545096
982.0,0.0036071812349191225
981.0,0.0035447116583479377
980.0,0.0034761741095604547
979.0,0.0034113446624719976
978.0,0.0033573620189930086
977.0,0.0033109265419607866
976.0,0.003264660769778276
975.0,0.003215708936613329
974.0,0.003166001183766651
973.0,0.0031190976824323367
972.0,0.0030789108764977396
971.0,0.003047096124574336
970.0,0.0030198278385257142
969.0,0.0029908628063949425
968.0,0.002958526052620563
967.0,0.002926146959797353
966.0,0.0028964365225141913
965.0,0.002870248850496384
964.0,0.002849724519232563
963.0,0.00283631235817001
962.0,0.0028261585678816268
961.0,0.0028141175868308076
960.0,0.0028021036369819717
959.0,0.0027967760917858723
958.0,0.002799130412431736
957.0,0.002803329723489135
956.0,0.002805757988078965
955.0,0.00280787406010893
954.0,0.0028100591435997017
953.0,0.002810711490627259
952.0,0.0028125913760989286
951.0,0.002821923295713285
950.0,0.002838799947494128
949.0,0.0028554800563476554
948.0,0.002866472783767871
947.0,0.0028740569458561398
946.0,0.002882325477066543
945.0,0.002892230875577928
944.0,0.0029043850569209963
943.0,0.0029203274114990106
942.0,0.0029385433670888602
941.0,0.0029546397984523184
940.0,0.0029676021383482007
939.0,0.0029812633120635743
938.0,0.0029982289093059417
937.0,0.0030168480040583473
936.0,0.003034749652831548
935.0,0.0030502970204697236
934.0,0.0030603898823304623
933.0,0.003062656082847534
932.0,0.0030606735191649028
931.0,0.003061625038008062
930.0,0.0030677949359237504
929.0,0.0030752610639116374
928.0,0.003081064030491825
927.0,0.0030857840034992454
926.0,0.0030887966260643536
925.0,0.003087695380076772
924.0,0.0030839175709093374
923.0,0.0030827383536819915
922.0,0.0030856503646289144
921.0,0.003088035636202419
920.0,0.0030860271712898155
919.0,0.0030806146797054783
918.0,0.003073842911603313
917.0,0.003066268147347154
916.0,0.0030594365594052656
915.0,0.0030554027818691714
914.0,0.0030521364459554423
913.0,0.0030444919566772035
912.0,0.003031021591683861
911.0,0.003014340860924539
910.0,0.002993300227833671
909.0,0.0029608328946688616
908.0,0.002912274914858253
907.0,0.0028510472513062664
906.0,0.0027841438679241434
905.0,0.002716714066502368
904.0,0.0026527134975463194
903.0,0.002595259420727449
902.0,0.0025435471531347134
901.0,0.002493847086809511
900.0,0.002445228731923188
899.0,0.0023999254701134844
898.0,0.002357526913962437
897.0,0.002315087646113289
896.0,0.00227372564694512
895.0,0.0022384508831236097
894.0,0.0022100472264674725
893.0,0.0021838230052402268
892.0,0.002157685953214841
891.0,0.0021342261744539195
890.0,0.0021132117811176847
889.0,0.0020897110472666053
888.0,0.002062270227044624
887.0,0.0020359014235425176
886.0,0.0020143763684995052
885.0,0.0019966752415800596
884.0,0.0019837917765054103
883.0,0.001981752786762385
882.0,0.001995333880974914
881.0,0.0020270014410318157
880.0,0.002084628662360648
879.0,0.002178729996623786
878.0,0.0023040095140936124
877.0,0.0024308119545354873
876.0,0.0025217062150603817
875.0,0.002553271171710253
874.0,0.002521734837196506
873.0,0.002436938233410924
872.0,0.0023172167982057
871.0,0.002184495889879501
870.0,0.0020560118127336286
869.0,0.0019405957971393773
868.0,0.001843971143356441
867.0,0.0017714641429434274
866.0,0.0017223180112548486
865.0,0.0016879093177224456
864.0,0.001659834129730176
863.0,0.0016351847837526691
862.0,0.001612437569946082
861.0,0.001588940712997295
860.0,0.0015652626874927047
859.0,0.0015455873101092297
858.0,0.0015307346371549028
857.0,0.0015167014662727679
856.0,0.0015023508991446324
855.0,0.0014915654886067183
854.0,0.001485015346711041
853.0,0.0014773536291433761
852.0,0.001466441850962516
851.0,0.0014581081755619088
850.0,0.0014570412965116296
849.0,0.0014591448642996955
848.0,0.0014577673218330264
847.0,0.0014522703573117634
846.0,0.0014462242870449471
845.0,0.0014418564018621209
844.0,0.0014398938776180388
843.0,0.0014403969008823102
842.0,0.0014408736218609539
841.0,0.0014382046531674787
840.0,0.0014343524208718893
839.0,0.001434842444159006
838.0,0.0014399145687504851
837.0,0.0014433072017019347
836.0,0.0014417511651712918
835.0,0.0014390209453895978
834.0,0.00143830613373015
833.0,0.0014376087300779833
832.0,0.001435724694141602
831.0,0.0014355475804888732
830.0,0.0014376412944764622
829.0,0.001437856463524023
828.0,0.001435968995380774
827.0,0.0014388405452662525
826.0,0.0014490431014113321
825.0,0.0014588724143938664
824.0,0.0014627360811294405
823.0,0.0014658551565536453
822.0,0.0014733856548522924
821.0,0.0014815768908590355
820.0,0.0014866082540981396
819.0,0.0014917785819103147
818.0,0.0015001064461846484
817.0,0.001508429341435448
816.0,0.0015140490135026313
815.0,0.001520197409699968
814.0,0.0015296973661177286
813.0,0.0015393375779916675
812.0,0.0015458780991659486
811.0,0.0015517444499773651
810.0,0.0015593545837394225
809.0,0.001565728060711237
808.0,0.0015688553795113898
807.0,0.0015739983039049308
806.0,0.0015866348885781281
805.0,0.0016032974590293003
804.0,0.0016159921957480615
803.0,0.0016222834040603173
802.0,0.0016253805549030333
801.0,0.001627551274818583
800.0,0.0016294304821364847
799.0,0.0016332210294240806
798.0,0.0016406916826266723
797.0,0.0016496763701768077
796.0,0.0016570053816143135
795.0,0.0016626605129182051
794.0,0.0016673093711725819
793.0,0.00166900573094219
792.0,0.0016668488798036694
791.0,0.0016647570803232348
790.0,0.0016668863561281272
789.0,0.001672125044349371
788.0,0.0016774281700901983
787.0,0.0016832496558135926
786.0,0.0016908726413448721
785.0,0.001697935857565973
784.0,0.0017021580656420964
783.0,0.0017064947004410973
782.0,0.0017148156403734784
781.0,0.0017249453078434763
780.0,0.0017320136271097852
779.0,0.0017363767397693543
778.0,0.0017420395265657891
777.0,0.0017493423458622855
776.0,0.001755906869334604
775.0,0.0017633794195100376
774.0,0.0017762368219557119
773.0,0.0017942402256544811
772.0,0.0018125861993006902
771.0,0.0018294844233024306
770.0,0.001847514736902367
769.0,0.0018674679938252415
768.0,0.0018870180786963128
767.0,0.0019057485578069747
766.0,0.0019254050512912172
765.0,0.0019451722614789737
764.0,0.0019631721984698035
763.0,0.0019825800947280937
762.0,0.0020088480782471073
761.0,0.0020401516781357112
760.0,0.0020684899846161175
759.0,0.002091702960752088
758.0,0.0021163980567742106
757.0,0.002146979554588798
756.0,0.002180433103860931
755.0,0.00221464800435104
754.0,0.002252343222567012
753.0,0.0022927082009475694
752.0,0.002328889181726394
751.0,0.0023590961252894505
750.0,0.002390809605292782
749.0,0.0024283914073708864
748.0,0.002466809561616221
747.0,0.0025041516346061537
746.0,0.002548605051407823
745.0,0.002604297538585559
744.0,0.0026627157080306397
743.0,0.0027191536887927826
742.0,0.0027854157136093724
741.0,0.0028747195926445597
740.0,0.0029889970972726675
739.0,0.0031358083574166756
738.0,0.0033434034196078424
737.0,0.0036550413968705073
736.0,0.004154770029798711
735.0,0.005034084932243139
734.0,0.00656172911560389
733.0,0.008836914788133166
732.0,0.011474779937590922
731.0,0.013603674851842617
730.0,0.014409644071971553
729.0,0.013823253010470837
728.0,0.012556345014566584
727.0,0.011468005656255054
726.0,0.011031827934858483
725.0,0.011330567263219193
724.0,0.012363351763356251
723.0,0.014256689730206221
722.0,0.017169123794055437
721.0,0.02096469303451999
720.0,0.024946290684306625
719.0,0.028062414787430382
718.0,0.029534719650472288
717.0,0.029154598656792576
716.0,0.02708998587149868
715.0,0.023792373310631967
714.0,0.020007681227007162
713.0,0.016508814945772304
712.0,0.013730367564526943
711.0,0.011697692766961212
710.0,0.01022677882875238
709.0,0.009137596988142628
708.0,0.008319618509981157
707.0,0.007693099398023503
706.0,0.007190729958969456
705.0,0.006776308312426245
704.0,0.006438138434563423
703.0,0.006158795821275249
702.0,0.0059136001738873106
701.0,0.005694898760585685
700.0,0.005511294526776095
699.0,0.005359198560222433
698.0,0.0052211476421677476
697.0,0.005091890008154729
696.0,0.0049802745194960345
695.0,0.004886164383261134
694.0,0.004795976846242834
693.0,0.004705803476429583
692.0,0.004627860573896259
691.0,0.00456531871044351
690.0,0.004505093331672295
689.0,0.00444096241340963
688.0,0.004382825053528862
687.0,0.004336314407638823
686.0,0.004291943024070203
685.0,0.0042444824569986585
684.0,0.004201548889015536
683.0,0.004164303778575236
682.0,0.004122893650648558
681.0,0.004076836222273042
680.0,0.004039758925731429
679.0,0.0040160788874551885
678.0,0.003992803368664092
677.0,0.0039644189483711905
676.0,0.003933347105647409
675.0,0.003901047834586227
674.0,0.0038648935476954275
673.0,0.0038226323321531083
672.0,0.003760226356755883
671.0,0.0036424198770021315
670.0,0.0034271983843162336
669.0,0.003118536910323111
668.0,0.002903925207737055
667.0,0.0030470539390997356
666.0,0.003332492856120162
665.0,0.0035032868368474347
664.0,0.0035672044709064987
663.0,0.0035784944356342966
662.0,0.0035609523006629572
661.0,0.003524716263723536
660.0,0.0034831422397769386
659.0,0.003444363192661241
658.0,0.0034048879128265883
657.0,0.003369058076077752
656.0,0.003346212922000098
655.0,0.003335798554196162
654.0,0.0033226260929754654
653.0,0.0032970272768675975
652.0,0.0032673534384719156
651.0,0.003245036511545769
650.0,0.0032274814621123665
649.0,0.0032056910801908974
648.0,0.003176374625817326
647.0,0.0031409992250684814
646.0,0.003105379246617121
645.0,0.003079157033203145
644.0,0.0030679516545206714
643.0,0.0030607786247696285
642.0,0.0030342259243143236
641.0,0.0029816119337602942
640.0,0.002923777981258673
639.0,0.002882443916460916
638.0,0.0028565230925135356
637.0,0.0028344772718980086
636.0,0.0028155173674931522
635.0,0.002803749134522298
634.0,0.002792098955462629
633.0,0.0027707299486767244
632.0,0.0027434053818958084
631.0,0.0027190118609032726
630.0,0.0026953004718834085
629.0,0.002664392379408598
628.0,0.002625228410667836
627.0,0.0025779365264960753
626.0,0.002516419862332542
625.0,0.0024389063664933402
624.0,0.0023627408162626273
623.0,0.002312547399891821
622.0,0.002293065589032666
621.0,0.0022889997284127423
620.0,0.0022897790988360804
619.0,0.0022948984000416128
618.0,0.002301599807166983
617.0,0.002307619466875901
616.0,0.002313161883204254
615.0,0.002308485138847364
614.0,0.002280338487049393
613.0,0.0022400547531134093
612.0,0.0022224836738332964
611.0,0.0022443109653473388
610.0,0.0022811791986796833
609.0,0.0023045774224595425
608.0,0.0023162425371829644
607.0,0.002329134467952166
606.0,0.002344346980633809
605.0,0.0023596198253923147
604.0,0.0023774520733099
603.0,0.0023902406113712723
602.0,0.002382749327067192
601.0,0.0023625217739616615
600.0,0.002359430881880809
599.0,0.002379451610831064
598.0,0.0023852055120328394
597.0,0.002343980394640003
596.0,0.0022692863929922895
595.0,0.002198413235655803
594.0,0.002147620282762031
593.0,0.0021071175745479903
592.0,0.00207070085827994
591.0,0.002043146525570288
590.0,0.00202646110208066
589.0,0.0020208500588710957
588.0,0.0020284217122094397
587.0,0.0020384304049675976
586.0,0.002022097456092711
585.0,0.0019672647227280318
584.0,0.0019028779274610965
583.0,0.001865393748006058
582.0,0.0018507474571035501
581.0,0.0018219539669043642
580.0,0.0017621320346644705
579.0,0.0016930687749980152
578.0,0.0016483070883363997
577.0,0.0016431473738742347
576.0,0.0016634374823706784
575.0,0.0016677864242725954
574.0,0.0016270746759073007
573.0,0.00157366662284829
572.0,0.0015676065710965676
571.0,0.0016168999130803038
570.0,0.0016569694385371045
569.0,0.0016415228056125327
568.0,0.0016015307471479974
567.0,0.0015814069884884105
566.0,0.0015711184301752425
565.0,0.001539018120626661
564.0,0.001487982529257863
563.0,0.0014385972417354951
562.0,0.0014013682344984329
561.0,0.001390795702298414
560.0,0.0014307298686039374
559.0,0.0015100631492923544
558.0,0.0015624981999738255
557.0,0.00154436636676231
556.0,0.0014873331900550667
555.0,0.001438438932814535
554.0,0.0013956750491613042
553.0,0.0013461921089073991
552.0,0.0013305213843260088
551.0,0.0013976468210072758
550.0,0.0015077826608462129
