cm-1,A
4000.0,0.0038981327533767762
3999.0,0.003909391137924101
3998.0,0.003913574007269719
3997.0,0.00390962566206364
3996.0,0.0039007079142164922
3995.0,0.003894639021515692
3994.0,0.0038991800487028563
3993.0,0.003914642035897297
3992.0,0.003932070806780581
3991.0,0.003940796052901716
3990.0,0.003937439713398003
3989.0,0.0039277360285116785
3988.0,0.003919570003177714
3987.0,0.003916382486346116
3986.0,0.003917723542528626
3985.0,0.003922944920145213
3984.0,0.0039316657120762495
3983.0,0.003940690190695649
3982.0,0.003943330137107043
3981.0,0.003933995299715038
3980.0,0.0039149148569868775
3979.0,0.0038968374393959972
3978.0,0.0038925680189720105
3977.0,0.003906245743597556
3976.0,0.0039278658104452985
3975.0,0.0039409723952109985
3974.0,0.003936724333605139
3973.0,0.0039221370006283385
3972.0,0.003910950676193561
3971.0,0.003908025753831722
3970.0,0.0039055128204619673
3969.0,0.0038933662085859026
3968.0,0.003873843936473012
3967.0,0.0038618662115942892
3966.0,0.0038711764471025846
3965.0,0.003901955249125748
3964.0,0.003939626239068019
3963.0,0.0039660298829568685
3962.0,0.003972451736392683
3961.0,0.003964372124102245
3960.0,0.0039545106388182445
3959.0,0.003950666833410239
3958.0,0.003951248972494931
3957.0,0.003949168771615491
3956.0,0.003939019768753981
3955.0,0.003922072800073643
3954.0,0.003905133860549354
3953.0,0.003896755102890892
3952.0,0.0039030492983607827
3951.0,0.003923047224095855
3950.0,0.0039470444021572106
3949.0,0.003961259530350441
3948.0,0.003961512616099021
3947.0,0.003956682823007511
3946.0,0.0039556065584149345
3945.0,0.003959198873311913
3944.0,0.003960436445712697
3943.0,0.003951866777261864
3942.0,0.003936606196422252
3941.0,0.003926664883806863
3940.0,0.003928963715809579
3939.0,0.003938665776312392
3938.0,0.003947567400641576
3937.0,0.003952873769937089
3936.0,0.003958778873533091
3935.0,0.003972228072247411
3934.0,0.003996028652350058
3933.0,0.0040222522433893074
3932.0,0.004032143203820683
3931.0,0.0040142848401919316
3930.0,0.003976649955432008
3929.0,0.003937538718251237
3928.0,0.003911310530583955
3927.0,0.0039040630134556074
3926.0,0.0039165247264658296
3925.0,0.003936750428837326
3924.0,0.003945377488578348
3923.0,0.003936257303759204
3922.0,0.003921093354782567
3921.0,0.0039188090566767645
3920.0,0.003941006008500329
3919.0,0.003981802876843434
3918.0,0.004016518663519854
3917.0,0.004018271853870702
3916.0,0.003987774547991516
3915.0,0.003950647920931125
3914.0,0.003928200517526797
3913.0,0.00392432748425149
3912.0,0.003929967473054925
3911.0,0.003934966859956807
3910.0,0.003935818461050764
3909.0,0.003933772883538533
3908.0,0.003931994958569024
3907.0,0.003935220562422306
3906.0,0.003950420276853484
3905.0,0.003981075181974179
3904.0,0.00401948676931718
3903.0,0.004054095880939709
3902.0,0.004078978241686728
3901.0,0.004087600377679801
3900.0,0.004073383878047581
3899.0,0.004043215641476722
3898.0,0.004016275895339053
3897.0,0.004003118360166549
3896.0,0.003998208023467087
3895.0,0.003991587136014352
3894.0,0.003981616562813792
3893.0,0.0039731899743423865
3892.0,0.003966915900266096
3891.0,0.003961364449034017
3890.0,0.00396194470188185
3889.0,0.003967214529150805
3888.0,0.003969757263245418
3887.0,0.003973894124604254
3886.0,0.003988406463604844
3885.0,0.004007386897635709
3884.0,0.004014989751684246
3883.0,0.0039999749706195
3882.0,0.0039578940822069045
3881.0,0.0039001707720638205
3880.0,0.003858287025553497
3879.0,0.003857586094095443
3878.0,0.003884790954509009
3877.0,0.003903501857936406
3876.0,0.0038969565677480014
3875.0,0.0038792272045093737
3874.0,0.003873473024986345
3873.0,0.00389060709721847
3872.0,0.0039258218441222195
3871.0,0.003962642274323164
3870.0,0.003983582902256269
3869.0,0.003989781968562313
3868.0,0.003998311109619223
3867.0,0.004013273553131896
3866.0,0.004029025521510108
3865.0,0.004036238709067852
3864.0,0.004017739560273268
3863.0,0.003974000913423962
3862.0,0.003939138343274863
3861.0,0.0039394697823502516
3860.0,0.003967140364787663
3859.0,0.003995203474023962
3858.0,0.003999974394156376
3857.0,0.003976467624694672
3856.0,0.003943752758077889
3855.0,0.0039471941117960405
3854.0,0.004009503289228724
3853.0,0.004045405636848147
3852.0,0.00401349824269023
3851.0,0.003979224498590339
3850.0,0.0039628163526035706
3849.0,0.003960805197838688
3848.0,0.003965541908527211
3847.0,0.003966506721848307
3846.0,0.003956272707956853
3845.0,0.003937434599252131
3844.0,0.003921773613008682
3843.0,0.003918049884526858
3842.0,0.0039247747845796346
3841.0,0.0039329969270214035
3840.0,0.0039318125130925734
3839.0,0.003913812264655375
3838.0,0.003885688302590269
3837.0,0.0038663377444477214
3836.0,0.0038663035101345663
3835.0,0.0038805492171480327
3834.0,0.00389984326635566
3833.0,0.003918025360701054
3832.0,0.003931786184464908
3831.0,0.003940964142692061
3830.0,0.003947338291772077
3829.0,0.003951722378664526
3828.0,0.003955894068906453
3827.0,0.0039627343464990385
3826.0,0.003970527388008767
3825.0,0.003971692235855589
3824.0,0.00395939012506351
3823.0,0.003940407492712275
3822.0,0.003934060924002548
3821.0,0.003939880961850205
3820.0,0.003943324668955962
3819.0,0.003950958019668103
3818.0,0.003957710735362002
3817.0,0.003955462186266939
3816.0,0.003948319221686094
3815.0,0.003945764626899377
3814.0,0.003953633814936519
3813.0,0.003965029971448314
3812.0,0.003968837465792727
3811.0,0.003959286962881354
3810.0,0.003941243660813399
3809.0,0.003929345391856768
3808.0,0.003936393710242892
3807.0,0.0039536560775756974
3806.0,0.003958116382786283
3805.0,0.003942186981146746
3804.0,0.003914012258248521
3803.0,0.003892209682557879
3802.0,0.003894775707570389
3801.0,0.003910892805661039
3800.0,0.0039261631408495125
3799.0,0.0039352651341742866
3798.0,0.003930854996728822
3797.0,0.003920614067792606
3796.0,0.003918295440498314
3795.0,0.003927994012868308
3794.0,0.003941195142524719
3793.0,0.003947644105305065
3792.0,0.003946183196152597
3791.0,0.00394272541392098
3790.0,0.003942772602153597
3789.0,0.0039478686277126945
3788.0,0.003954986763568253
3787.0,0.003958496527842541
3786.0,0.003952852371403562
3785.0,0.003937494909201512
3784.0,0.0039217492478299705
3783.0,0.0039169742603700555
3782.0,0.003922912515485849
3781.0,0.0039289004343746915
3780.0,0.0039224493138752155
3779.0,0.003901836224017739
3778.0,0.0038837367133935322
3777.0,0.003883143522056959
3776.0,0.0038964070851297567
3775.0,0.0039129650242783615
3774.0,0.003928750850260999
3773.0,0.00394508547774265
3772.0,0.003964646689908435
3771.0,0.003986294332257976
3770.0,0.004002483790229192
3769.0,0.004008697216071061
3768.0,0.004010038791461888
3767.0,0.004008990918269003
3766.0,0.004003873143145034
3765.0,0.003994938643452815
3764.0,0.00398315998126079
3763.0,0.003967624121852977
3762.0,0.003947912420843495
3761.0,0.003927905040060478
3760.0,0.003910215417420596
3759.0,0.0038904172244785037
3758.0,0.0038730500104975363
3757.0,0.0038730362449937387
3756.0,0.0038938093807387303
3755.0,0.003928977193510368
3754.0,0.003977744472743086
3753.0,0.004053794941273265
3752.0,0.004162924823039739
3751.0,0.004249637121610337
3750.0,0.004249389682063426
3749.0,0.004189105962779204
3748.0,0.004110617311662207
3747.0,0.0040250281480126125
3746.0,0.003953111781090368
3745.0,0.003931155718691055
3744.0,0.003964987468394979
3743.0,0.0040195713105133975
3742.0,0.004058504636519002
3741.0,0.004066125980995507
3740.0,0.00404946360956349
3739.0,0.0040219249304648975
3738.0,0.003997363995751249
3737.0,0.00398437505079265
3736.0,0.003966709764744855
3735.0,0.003915304544690459
3734.0,0.0038577749397203237
3733.0,0.0038536699602614456
3732.0,0.0039073636382797525
3731.0,0.003977404771784163
3730.0,0.004027989076878324
3729.0,0.004052386222436406
3728.0,0.004065825235781372
3727.0,0.004085697991282266
3726.0,0.004112531128013769
3725.0,0.004130557535378462
3724.0,0.004125640950722301
3723.0,0.004096743510745803
3722.0,0.004056967436628107
3721.0,0.0040257225322504735
3720.0,0.004016312454203249
3719.0,0.004031408000779604
3718.0,0.004066109155014978
3717.0,0.004107236676232022
3716.0,0.004136763319304177
3715.0,0.004145514442954537
3714.0,0.004146828175221639
3713.0,0.0041745631939712705
3712.0,0.00424366939757129
3711.0,0.004312582855582463
3710.0,0.004351781062383899
3709.0,0.004388350057835572
3708.0,0.0044424993328235525
3707.0,0.004508663722910656
3706.0,0.00457776439548682
3705.0,0.004649275496219676
3704.0,0.004728652610801876
3703.0,0.0048212557076552295
3702.0,0.004924656585807015
3701.0,0.00502994340700127
3700.0,0.005130734061009281
3699.0,0.005219484008435258
3698.0,0.005287815945068931
3697.0,0.005335389770088583
3696.0,0.00536654404657526
3695.0,0.0053822501118074885
3694.0,0.005377217218076959
3693.0,0.005345180041457426
3692.0,0.005287645816787119
3691.0,0.005217033670431885
3690.0,0.005143836339078394
3689.0,0.005077230134323303
3688.0,0.005038640708422276
3687.0,0.0050293437376540805
3686.0,0.005021129831933051
3685.0,0.00499899500636098
3684.0,0.004972263017079705
3683.0,0.004956421689439442
3682.0,0.004957851621070181
3681.0,0.004969235120363574
3680.0,0.004973284026130263
3679.0,0.004957425163604192
3678.0,0.004925907131951124
3677.0,0.004896700181402307
3676.0,0.004868927505437645
3675.0,0.0048321732263527095
3674.0,0.004827929564180433
3673.0,0.0048800012424068395
3672.0,0.004956855118817501
3671.0,0.005025072464061902
3670.0,0.005048400999538688
3669.0,0.00502462371321801
3668.0,0.00500992696083211
3667.0,0.0050287434162607815
3666.0,0.005062389811334833
3665.0,0.005097246536497815
3664.0,0.0051325096321378685
3663.0,0.005170034431931293
3662.0,0.005207319288710651
3661.0,0.005239170839688698
3660.0,0.005263383499308251
3659.0,0.005284754331563805
3658.0,0.005311562694413751
3657.0,0.005343117568436952
3656.0,0.0053637761187204785
3655.0,0.0053637178441146
3654.0,0.0053475781585264875
3653.0,0.005324062902882879
3652.0,0.005312509190783646
3651.0,0.005347076306498125
3650.0,0.005427396177214581
3649.0,0.0054727648716224025
3648.0,0.005464069322592743
3647.0,0.005488086659615423
3646.0,0.005573764619497169
3645.0,0.005678868209486057
3644.0,0.00575794789192309
3643.0,0.005791879457996887
3642.0,0.005790779911502885
3641.0,0.005781427996443286
3640.0,0.005786757594399554
3639.0,0.00581185887189966
3638.0,0.005847180152696177
3637.0,0.005880562506369482
3636.0,0.005905220585435803
3635.0,0.005922891071198626
3634.0,0.00594253187293854
3633.0,0.005975635753596871
3632.0,0.006030568555856944
3631.0,0.006110354152575905
3630.0,0.006203470413217815
3629.0,0.006260629647235278
3628.0,0.006262155236825363
3627.0,0.006277908528525437
3626.0,0.006340869856840348
3625.0,0.006431744843753626
3624.0,0.006534881870855828
3623.0,0.006641124476927385
3622.0,0.006741956618673703
3621.0,0.006824774209497194
3620.0,0.006867471965703677
3619.0,0.006857340928989668
3618.0,0.006827567040153585
3617.0,0.006823662174749216
3616.0,0.0068501554271959975
3615.0,0.006884821639517856
3614.0,0.006905773156508345
3613.0,0.006908579464044655
3612.0,0.006913382932327971
3611.0,0.006942742265978999
3610.0,0.006994684680461719
3609.0,0.007037058574187434
3608.0,0.007031859569938941
3607.0,0.006983558957003404
3606.0,0.006939953840858139
3605.0,0.006934121422332398
3604.0,0.006963735812380084
3603.0,0.007012410993221944
3602.0,0.00706695403303843
3601.0,0.007118384066351834
3600.0,0.0071592395261578755
3599.0,0.007186657585392664
3598.0,0.007203605431162963
3597.0,0.00721407303146826
3596.0,0.007219949195829694
3595.0,0.007224208087526711
3594.0,0.007235173971154172
3593.0,0.007264489926712305
3592.0,0.0073153311566326006
3591.0,0.007380009855322112
3590.0,0.0074504547856397325
3589.0,0.007517331333728321
3588.0,0.007551156758375357
3587.0,0.00752947905337035
3586.0,0.007496188781810128
3585.0,0.007506210703535668
3584.0,0.007557768513345249
3583.0,0.007621121682324226
3582.0,0.007676647984053037
3581.0,0.007721945751994436
3580.0,0.0077626786244833264
3579.0,0.007801877144810471
3578.0,0.007837301414016142
3577.0,0.007867021297686258
3576.0,0.007893251969914465
3575.0,0.007921669401782792
3574.0,0.007958109368274832
3573.0,0.008005853101317349
3572.0,0.00806533728532767
3571.0,0.00813545347180962
3570.0,0.00821564833141054
3569.0,0.008302507704060401
3568.0,0.008372631587568713
3567.0,0.008385997264589723
3566.0,0.008353975739049523
3565.0,0.008342083345287387
3564.0,0.008377809178017453
3563.0,0.008440123686180865
3562.0,0.008502489600413589
3561.0,0.008551135051985518
3560.0,0.008584396577429241
3559.0,0.008610771082933908
3558.0,0.008644447718354887
3557.0,0.008694871046209246
3556.0,0.008759771609372202
3555.0,0.008828104926920693
3554.0,0.00888757788562157
3553.0,0.008930285153072296
3552.0,0.008959045370777224
3551.0,0.008989062183809446
3550.0,0.009035407694573451
3549.0,0.009101279587033554
3548.0,0.009177794873780903
3547.0,0.00924831436149594
3546.0,0.009297836903536154
3545.0,0.009325398091968215
3544.0,0.009343790118648781
3543.0,0.009365112493852102
3542.0,0.0093935781775279
3541.0,0.009429892556522669
3540.0,0.009475057343338464
3539.0,0.009529423626163845
3538.0,0.00958975425636974
3537.0,0.009646929058730462
3536.0,0.009692981360825918
3535.0,0.00973250666632755
3534.0,0.009779090827172012
3533.0,0.00983970965188472
3532.0,0.009908014992132178
3531.0,0.009973837512815557
3530.0,0.010035669297153096
3529.0,0.010099974281630208
3528.0,0.0101690660791412
3527.0,0.01023719597118708
3526.0,0.010296637080872643
3525.0,0.010339011171511307
3524.0,0.010353773183730066
3523.0,0.010339745210873198
3522.0,0.010317909746124133
3521.0,0.010318412002339431
3520.0,0.010353954837684776
3519.0,0.010412532133785391
3518.0,0.010472794064031232
3517.0,0.01052212399906845
3516.0,0.010561048036323361
3515.0,0.010596786692908568
3514.0,0.010636468275954478
3513.0,0.010683186266050238
3512.0,0.010732380688190404
3511.0,0.010772786683692318
3510.0,0.010797040405395912
3509.0,0.01081323839101855
3508.0,0.010840461268784792
3507.0,0.010892011251497503
3506.0,0.010966800246635527
3505.0,0.011051809695367953
3504.0,0.011126040692312968
3503.0,0.011171706975250766
3502.0,0.011192555727637936
3501.0,0.011210941375815745
3500.0,0.011242481988621482
3499.0,0.011284597524485698
3498.0,0.011326033826827158
3497.0,0.01135916409432667
3496.0,0.011385080438326596
3495.0,0.011411445131272041
3494.0,0.011447164519399498
3493.0,0.01149692017309218
3492.0,0.011557953577170745
3491.0,0.011621725764443227
3490.0,0.011680087042262255
3489.0,0.011730922367837324
3488.0,0.011778636019356702
3487.0,0.011830064934888234
3486.0,0.011888455094767922
3485.0,0.011948647333806746
3484.0,0.011997743918675433
3483.0,0.012024031342999168
3482.0,0.012029672455335788
3481.0,0.012033613127868343
3480.0,0.012057293178364379
3479.0,0.012107990899714378
3478.0,0.012176881720315925
3477.0,0.012248475108075352
3476.0,0.012309566709286613
3475.0,0.012354306566325392
3474.0,0.012385594413545392
3473.0,0.012410298684432625
3472.0,0.01243256582960103
3471.0,0.012453912597247319
3470.0,0.012479194841434883
3469.0,0.012518197510564832
3468.0,0.012578138772125033
3467.0,0.012655345222378558
3466.0,0.012736597629574603
3465.0,0.012807957744964169
3464.0,0.01286185700339778
3463.0,0.012898627738817479
3462.0,0.012924117480651191
3461.0,0.012945450160420573
3460.0,0.012967219655749325
3459.0,0.012990974454673631
3458.0,0.013017208202954943
3457.0,0.01304619764883162
3456.0,0.013077445739938909
3455.0,0.013110051237061788
3454.0,0.013144478463773292
3453.0,0.01318351534338539
3452.0,0.01323127309217259
3451.0,0.013291304706554017
3450.0,0.013362881741680967
3449.0,0.013436472774532218
3448.0,0.013494095201779084
3447.0,0.01352245243334365
3446.0,0.01352892390359861
3445.0,0.01353572233763926
3444.0,0.013558536059696442
3443.0,0.013598175668926345
3442.0,0.013646808207052965
3441.0,0.01369513248219139
3440.0,0.013735915696012662
3439.0,0.01376632265361755
3438.0,0.013789838511356092
3437.0,0.013814023675102066
3436.0,0.013844099769302651
3435.0,0.013879816051902753
3434.0,0.013919129293584524
3433.0,0.013961255975547166
3432.0,0.01400379354306154
3431.0,0.014040702555824843
3430.0,0.014067020502887159
3429.0,0.014085255427181403
3428.0,0.014104234018327395
3427.0,0.014131573445370745
3426.0,0.014168982128437747
3425.0,0.014213953552695245
3424.0,0.014263056227000942
3423.0,0.014312079118587388
3422.0,0.014354448158458436
3421.0,0.014382853801192287
3420.0,0.014395544172600635
3419.0,0.014400379835227985
3418.0,0.014410520333374748
3417.0,0.014435354989417837
3416.0,0.01447401053319201
3415.0,0.014515842148326387
3414.0,0.014548365595782601
3413.0,0.01456758192473441
3412.0,0.014581342065526793
3411.0,0.014601388333015108
3410.0,0.014630898286192604
3409.0,0.014660737081611135
3408.0,0.01468013554101558
3407.0,0.014689940824188005
3406.0,0.014701787848669524
3405.0,0.014724542249705729
3404.0,0.014756101083280893
3403.0,0.014789421660803354
3402.0,0.014821543534810327
3401.0,0.014852494175394276
3400.0,0.014879281940429048
3399.0,0.014898027755833994
3398.0,0.014911520286116541
3397.0,0.014928589289672004
3396.0,0.014953901757257436
3395.0,0.014982033147754027
3394.0,0.015003343510824451
3393.0,0.015013620781689458
3392.0,0.01501784972179097
3391.0,0.01502673696567448
3390.0,0.015049739306027807
3389.0,0.015088820990147883
3388.0,0.01513665878893998
3387.0,0.015181096449622896
3386.0,0.015212772594385165
3385.0,0.015229281243119671
3384.0,0.015233802863596456
3383.0,0.015232433113669775
3382.0,0.01523230865344291
3381.0,0.015238774558640422
3380.0,0.015252795373728593
3379.0,0.015272642737188303
3378.0,0.015297949606865053
3377.0,0.015329522388367198
3376.0,0.015364781462127906
3375.0,0.015396884184453716
3374.0,0.015420323657117565
3373.0,0.015435501555838085
3372.0,0.01544684951644662
3371.0,0.015458440640143643
3370.0,0.015472082744190829
3369.0,0.015487110464754348
3368.0,0.015500580066649186
3367.0,0.015509706275509839
3366.0,0.015515858325932077
3365.0,0.015524180243101305
3364.0,0.0155376217027711
3363.0,0.015553402657125858
3362.0,0.015567338141505016
3361.0,0.015579927086390132
3360.0,0.015595358737074586
3359.0,0.015614917505490586
3358.0,0.015634207709764293
3357.0,0.01564785178667681
3356.0,0.01565515933898472
3355.0,0.01565979159566534
3354.0,0.015664763720782054
3353.0,0.015669801110627216
3352.0,0.01567415263217609
3351.0,0.015680611752168835
3350.0,0.01569509605816928
3349.0,0.01572156122850877
3348.0,0.015757234569334543
3347.0,0.015792505731920103
3346.0,0.015816030115878944
3345.0,0.01582204542011072
3344.0,0.01581481665132751
3343.0,0.01580524076077337
3342.0,0.015800898564907042
3341.0,0.01579992880315411
3340.0,0.01579677124978574
3339.0,0.015792923460538507
3338.0,0.015797277611377437
3337.0,0.015813946964117632
3336.0,0.015834138446954013
3335.0,0.01584480086092878
3334.0,0.0158434624896384
3333.0,0.015840354640075698
3332.0,0.015847002679996093
3331.0,0.01586527559490198
3330.0,0.015885633985474698
3329.0,0.01589345396052607
3328.0,0.015879601692725676
3327.0,0.015849665282780378
3326.0,0.015822888353779704
3325.0,0.015817512663277286
3324.0,0.015835010771374558
3323.0,0.015860115465458343
3322.0,0.015876388483677922
3321.0,0.0158800901901141
3320.0,0.015879405981944397
3319.0,0.015883868711931752
3318.0,0.0158968307877087
3317.0,0.015916391880911086
3316.0,0.015939904252036428
3315.0,0.01596507056478119
3314.0,0.015986816424986578
3313.0,0.015996337904782845
3312.0,0.015987267745910527
3311.0,0.01596382591129926
3310.0,0.015940455159910515
3309.0,0.015931300645124415
3308.0,0.015940268709432315
3307.0,0.015961290950684128
3306.0,0.015985101368515674
3305.0,0.016003782043302592
3304.0,0.016012994980481265
3303.0,0.016015262358861287
3302.0,0.016020111190464557
3301.0,0.016035769611152637
3300.0,0.016059229950753234
3299.0,0.016077374707935653
3298.0,0.016079532142380715
3297.0,0.016067534818564287
3296.0,0.016052419855231894
3295.0,0.016042939143405342
3294.0,0.01603863058212219
3293.0,0.016033068161288837
3292.0,0.016022294234958767
3291.0,0.016009347994324435
3290.0,0.01600042605489934
3289.0,0.015997827838092865
3288.0,0.015998409562044704
3287.0,0.015998354443105243
3286.0,0.01599645580302074
3285.0,0.015991732898662143
3284.0,0.01598131188896241
3283.0,0.015964226283620143
3282.0,0.01594567572071297
3281.0,0.015933295698062167
3280.0,0.015928678357588637
3279.0,0.01592515634225684
3278.0,0.01591474706014192
3277.0,0.015895381858420612
3276.0,0.01587057816008887
3275.0,0.015843850759006333
3274.0,0.015815233513511568
3273.0,0.01578329785664074
3272.0,0.015749352098205764
3271.0,0.01571811046279073
3270.0,0.015693266712265078
3269.0,0.0156729303125156
3268.0,0.015650884518441644
3267.0,0.015622545301175583
3266.0,0.015587934982429226
3265.0,0.015548407065511947
3264.0,0.015503456669556805
3263.0,0.015453470001387842
3262.0,0.015403654065799272
3261.0,0.015361274871698121
3260.0,0.01532804197940216
3259.0,0.015297104103300825
3258.0,0.0152591571626104
3257.0,0.015211344460749891
3256.0,0.01516006421829888
3255.0,0.015115111782628168
3254.0,0.015080685038426134
3253.0,0.015051991274919425
3252.0,0.01502099794733833
3251.0,0.014984754813522315
3250.0,0.01494716651000954
3249.0,0.014913756144055566
3248.0,0.014885851994200089
3247.0,0.014858927789162053
3246.0,0.014825229384387711
3245.0,0.014780278969034253
3244.0,0.014730130328026586
3243.0,0.014689770387722234
3242.0,0.01466920554822828
3241.0,0.014661689800561897
3240.0,0.014650244624766467
3239.0,0.014626178290189588
3238.0,0.014595925774383275
3237.0,0.014568341821397074
3236.0,0.014542549089524369
3235.0,0.014512802377886984
3234.0,0.014479291344643139
3233.0,0.014447495404008533
3232.0,0.014420311985645359
3231.0,0.014396640540071441
3230.0,0.014374925292900353
3229.0,0.014352662122272965
3228.0,0.014324894876584691
3227.0,0.01428933649742354
3226.0,0.01425153260012145
3225.0,0.014219063087879527
3224.0,0.014191481064479119
3223.0,0.01416138900514784
3222.0,0.014125030770414018
3221.0,0.014086935234917837
3220.0,0.014053945405154773
3219.0,0.014029086321393894
3218.0,0.014011415941251108
3217.0,0.01399710919196381
3216.0,0.013979975009133845
3215.0,0.013955302307457913
3214.0,0.013924808576852025
3213.0,0.013894480990499811
3212.0,0.01386713595610315
3211.0,0.01384108984627495
3210.0,0.013816234369480991
3209.0,0.013796330497295384
3208.0,0.013783205194363112
3207.0,0.013772347717758461
3206.0,0.013756772933665895
3205.0,0.013733285848493024
3204.0,0.013703908578914792
3203.0,0.013673402107853512
3202.0,0.013646295690278646
3201.0,0.013623844926503825
3200.0,0.013602248536561182
3199.0,0.013575187793926514
3198.0,0.013539461600995697
3197.0,0.013497291918018423
3196.0,0.013452919709958409
3195.0,0.013408503177234358
3194.0,0.013363828232481507
3193.0,0.01331827483987439
3192.0,0.013272363113364397
3191.0,0.01322824285262339
3190.0,0.013188430886209229
3189.0,0.013152929068045705
3188.0,0.013118046159842009
3187.0,0.01307969222864971
3186.0,0.013037398936810208
3185.0,0.012993739398313334
3184.0,0.012950706516791855
3183.0,0.012908422822663773
3182.0,0.012866495899193031
3181.0,0.012824133646037787
3180.0,0.012779839453840338
3179.0,0.012733839942623965
3178.0,0.012690604955110495
3177.0,0.012655780071428053
3176.0,0.012629404219280601
3175.0,0.012603820736544764
3174.0,0.01256913711595628
3173.0,0.012520519994288392
3172.0,0.012461528537819247
3171.0,0.012402056842710216
3170.0,0.012352280564463403
3169.0,0.012316167732110125
3168.0,0.01228960890912235
3167.0,0.012264739261892012
3166.0,0.01223534479448507
3165.0,0.012198825962154984
3164.0,0.012156239416427406
3163.0,0.012112102197140664
3162.0,0.012071764535971904
3161.0,0.012036514497792722
3160.0,0.012002690590316858
3159.0,0.011967025757970599
3158.0,0.01193035346967019
3157.0,0.011894238099897314
3156.0,0.011857582418827329
3155.0,0.01181991470058601
3154.0,0.011784372446238367
3153.0,0.011752669572590212
3152.0,0.011719786003099326
3151.0,0.011679272874842033
3150.0,0.011632868159214015
3149.0,0.011588854744260031
3148.0,0.011550573395162324
3147.0,0.011512861306851196
3146.0,0.011471502548946182
3145.0,0.011430297993755743
3144.0,0.011395308159735357
3143.0,0.011366100074483411
3142.0,0.011337084241493595
3141.0,0.011305647839812418
3140.0,0.011274898706905307
3139.0,0.011248267237677812
3138.0,0.011224237616546267
3137.0,0.011197677681679615
3136.0,0.011164886258303804
3135.0,0.011126082531552247
3134.0,0.011083294182926732
3133.0,0.011037352858486945
3132.0,0.010988703537056483
3131.0,0.010940836313122627
3130.0,0.010900138135926342
3129.0,0.010870570271296329
3128.0,0.010849050022202215
3127.0,0.010827326379316026
3126.0,0.0107983696551736
3125.0,0.010760837779930602
3124.0,0.01071876910454155
3123.0,0.010678217593535058
3122.0,0.010643201682360926
3121.0,0.010613506802246807
3120.0,0.010586337909075167
3119.0,0.010559149040337482
3118.0,0.0105293103619211
3117.0,0.010492931531790664
3116.0,0.01044848492804192
3115.0,0.010402132799126234
3114.0,0.010364674036021428
3113.0,0.010340727563991452
3112.0,0.01032511309529294
3111.0,0.010311509297070268
3110.0,0.010299075674608521
3109.0,0.010287417053829791
3108.0,0.01027033148517027
3107.0,0.010241562786672357
3106.0,0.01020467968135714
3105.0,0.010170588597173805
3104.0,0.010145391505930931
3103.0,0.010125298421062039
3102.0,0.010103498680167087
3101.0,0.010078490674257106
3100.0,0.010055000071698178
3099.0,0.01003882655706268
3098.0,0.01003093355248153
3097.0,0.0100247177900137
3096.0,0.010010117782534104
3095.0,0.009983094084274202
3094.0,0.009949833783275996
3093.0,0.00991864728046288
3092.0,0.009890847704589591
3091.0,0.009863571003214387
3090.0,0.009837825122568906
3089.0,0.009817906204834751
3088.0,0.00980376101379406
3087.0,0.009790130668985065
3086.0,0.00977478741624463
3085.0,0.009761816228150783
3084.0,0.00975450803113615
3083.0,0.009749152844342164
3082.0,0.009738348772355831
3081.0,0.009718411497261603
3080.0,0.00969131996095753
3079.0,0.00966120056018753
3078.0,0.00963104441915986
3077.0,0.00960215319758226
3076.0,0.009575817934715436
3075.0,0.009555017500756099
3074.0,0.009542626414697901
3073.0,0.009536529479869098
3072.0,0.009528686356834334
3071.0,0.009511973920432588
3070.0,0.00948728788929976
3069.0,0.009460798680331466
3068.0,0.009435430112624116
3067.0,0.009409226748259794
3066.0,0.009381220793670366
3065.0,0.009354106528945638
3064.0,0.009329306511708685
3063.0,0.009304190357389268
3062.0,0.009277228181439053
3061.0,0.009252033450132651
3060.0,0.009232700586099499
3059.0,0.009215967215494072
3058.0,0.009191817376021334
3057.0,0.009153405423731411
3056.0,0.009105041781734659
3055.0,0.009059402462522247
3054.0,0.009026498616920127
3053.0,0.009006440169540993
3052.0,0.008992425670320596
3051.0,0.008977852003721946
3050.0,0.008959140074777185
3049.0,0.008933927973265726
3048.0,0.008901314831550298
3047.0,0.008864841456032176
3046.0,0.008830798567445503
3045.0,0.008801418968912617
3044.0,0.008772370979602656
3043.0,0.008739479130033105
3042.0,0.008704370262479522
3041.0,0.008670964828750365
3040.0,0.008640054363057722
3039.0,0.00861140884530271
3038.0,0.008588075083135948
3037.0,0.008572553941757656
3036.0,0.008560502484694626
3035.0,0.008543773585680724
3034.0,0.008520035940723395
3033.0,0.008494246886636721
3032.0,0.008470697349859975
3031.0,0.008448433523430268
3030.0,0.008425304315896632
3029.0,0.008401810104155857
3028.0,0.008379488972636696
3027.0,0.008359651449066868
3026.0,0.008344054514395375
3025.0,0.0083328869334778
3024.0,0.008321567474914941
3023.0,0.00830389211917371
3022.0,0.00828018545139483
3021.0,0.008259196259337052
3020.0,0.008249798882460649
3019.0,0.008253365620435809
3018.0,0.008264728544470634
3017.0,0.008277418234939335
3016.0,0.008286412293968844
3015.0,0.008288557669643008
3014.0,0.008283437927154224
3013.0,0.008273221308521473
3012.0,0.008260840458967123
3011.0,0.008249288241249994
3010.0,0.008242380429567589
3009.0,0.008243975293601975
3008.0,0.008254764088852607
3007.0,0.008270525804199753
3006.0,0.008284198945058064
3005.0,0.008290398942752708
3004.0,0.008290059029876071
3003.0,0.008291491201572443
3002.0,0.008305491855021984
3001.0,0.008336794558054137
3000.0,0.008380701630269806
2999.0,0.008428924105978121
2998.0,0.008477035892215583
2997.0,0.008525730622927698
2996.0,0.008577873501352277
2995.0,0.00863826465049125
2994.0,0.008714287647323264
2993.0,0.008811829785847982
2992.0,0.008930248439271562
2991.0,0.009064424542775246
2990.0,0.00921133041964036
2989.0,0.00937210454893861
2988.0,0.009548995736021304
2987.0,0.009744896386950789
2986.0,0.009965861948995272
2985.0,0.010219727386015903
2984.0,0.010511637222488168
2983.0,0.010844337048449773
2982.0,0.01122341685623998
2981.0,0.01165856806064242
2980.0,0.012158862143054214
2979.0,0.012730764185313801
2978.0,0.013382750388833266
2977.0,0.014129358608356294
2976.0,0.014988714557076961
2975.0,0.015977277048223115
2974.0,0.017109254019701692
2973.0,0.018400019762738595
2972.0,0.01986701472295539
2971.0,0.02152574865196239
2970.0,0.02338444093962508
2969.0,0.02544219342893806
2968.0,0.027692564379220908
2967.0,0.03012612728743331
2966.0,0.03272310709402688
2965.0,0.03543474554807814
2964.0,0.03816890172879184
2963.0,0.040793834982134417
2962.0,0.043158819471872896
2961.0,0.04513209376560456
2960.0,0.04664085599773539
2959.0,0.047697173303231984
2958.0,0.04839944004049531
2957.0,0.048906190451094844
2956.0,0.049389407138825926
2955.0,0.0499780612449887
2954.0,0.050712479618852245
2953.0,0.05152397718417061
2952.0,0.052241672264583046
2951.0,0.052632580266884846
2950.0,0.05246327317924261
2949.0,0.051565430379405905
2948.0,0.049891151223584534
2947.0,0.047526958366672034
2946.0,0.044672112957442105
2945.0,0.04159021619560776
2944.0,0.038554261614439866
2943.0,0.03579979629523775
2942.0,0.033493916177006824
2941.0,0.031727372035492266
2940.0,0.030518354614404178
2939.0,0.029834736868678435
2938.0,0.02962483555780053
2937.0,0.02983864820692174
2936.0,0.03043733234976099
2935.0,0.03138941368867163
2934.0,0.03266145318494441
2933.0,0.034212401229473784
2932.0,0.035993299107204085
2931.0,0.037949488286884506
2930.0,0.04002066732094801
2929.0,0.04213872039899805
2928.0,0.04423231976016538
2927.0,0.04624224296751298
2926.0,0.048138425345963645
2925.0,0.049928637896724894
2924.0,0.051649423336907516
2923.0,0.053336422495121084
2922.0,0.054989436768671573
2921.0,0.05654964839822738
2920.0,0.057903191150050444
2919.0,0.05890312284055438
2918.0,0.05940866690457484
2917.0,0.05933285708463541
2916.0,0.058684320100705435
2915.0,0.05757452975452426
2914.0,0.056178863567384586
2913.0,0.054682886863251304
2912.0,0.05323407857203779
2911.0,0.05191734318135469
2910.0,0.05075528759221772
2909.0,0.049723917636065505
2908.0,0.048770938830598395
2907.0,0.04783213486911797
2906.0,0.04684741916720427
2905.0,0.045774759439293995
2904.0,0.04459967861012165
2903.0,0.04333300479552073
2902.0,0.04200309051397544
2901.0,0.04064526986798881
2900.0,0.03929374834357347
2899.0,0.037978709838150077
2898.0,0.036725529155423486
2897.0,0.035556380984829564
2896.0,0.03448951543070123
2895.0,0.03353976123120243
2894.0,0.03272062270568791
2893.0,0.03204397228799589
2892.0,0.03151370077177322
2891.0,0.031120039504869697
2890.0,0.0308442574646497
2889.0,0.03066883756781811
2888.0,0.030583256310065615
2887.0,0.030581756089998677
2886.0,0.030660041181050306
2885.0,0.030816315972283487
2884.0,0.031052099224213356
2883.0,0.031367910801575326
2882.0,0.031754329701704755
2881.0,0.032182911806577806
2880.0,0.032603036656964485
2879.0,0.03294786851859794
2878.0,0.03315516832152451
2877.0,0.03319593063678758
2876.0,0.03309513055638099
2875.0,0.03292671503828613
2874.0,0.03278570107270972
2873.0,0.032756089010472104
2872.0,0.032885302305586964
2871.0,0.033170654564165916
2870.0,0.03355647660391962
2869.0,0.03393816303199739
2868.0,0.03417630933937115
2867.0,0.034118760379910754
2866.0,0.033632363769672664
2865.0,0.03264682425417852
2864.0,0.03119220761385512
2863.0,0.02940317829048883
2862.0,0.02747714917893193
2861.0,0.025610490869032273
2860.0,0.02394553759178416
2859.0,0.022553832145560993
2858.0,0.02145263868784762
2857.0,0.0206299231120404
2856.0,0.020063225099747783
2855.0,0.019728334862377822
2854.0,0.019601738983736544
2853.0,0.019661134212336562
2852.0,0.0198865469465026
2851.0,0.020263323074477986
2850.0,0.02078329490792132
2849.0,0.02144392021475943
2848.0,0.022249810377438662
2847.0,0.023217185099370506
2846.0,0.024369865704048903
2845.0,0.02572216066562993
2844.0,0.027257892716992332
2843.0,0.028919603644413393
2842.0,0.030611809836884094
2841.0,0.032208017631050495
2840.0,0.03356034505290809
2839.0,0.034512663390475054
2838.0,0.03492277815299162
2837.0,0.03469220209415831
2836.0,0.033797333842894385
2835.0,0.03230909565469464
2834.0,0.030389306541919736
2833.0,0.02825637915370484
2832.0,0.02612465157595916
2831.0,0.024150620563541787
2830.0,0.022412613002299908
2829.0,0.020927388746935203
2828.0,0.019680568212988366
2827.0,0.018644989873847558
2826.0,0.017788750798197393
2825.0,0.017076966488785806
2824.0,0.0164738319616047
2823.0,0.015946769857847945
2822.0,0.015472664710115557
2821.0,0.015042364555491627
2820.0,0.014658295909393413
2819.0,0.014324783600629824
2818.0,0.014038646966000112
2817.0,0.013787974066026595
2816.0,0.01355906859399256
2815.0,0.013344207416648664
2814.0,0.013142762490807185
2813.0,0.012956178966224384
2812.0,0.012783596293576872
2811.0,0.012621475926621922
2810.0,0.012465010605408774
2809.0,0.012308535443098012
2808.0,0.012145847890668802
2807.0,0.011972847037492509
2806.0,0.011790983688672233
2805.0,0.011607936054473588
2804.0,0.011434390394730369
2803.0,0.011277876322606779
2802.0,0.011137868843880804
2801.0,0.011006877763677654
2800.0,0.010878079271736998
2799.0,0.01075311306153044
2798.0,0.010640155325608308
2797.0,0.010543239794773443
2796.0,0.010455972443215517
2795.0,0.010367185093927214
2794.0,0.010270658321395348
2793.0,0.010167682344999662
2792.0,0.010062118694225504
2791.0,0.009955795081781365
2790.0,0.009848106090893993
2789.0,0.00973769887975697
2788.0,0.009624533861440139
2787.0,0.009511548280435978
2786.0,0.009403402332752898
2785.0,0.009302219563589906
2784.0,0.009205993106750314
2783.0,0.009112650916680719
2782.0,0.009024076768562232
2781.0,0.008944284957103414
2780.0,0.008875015830896973
2779.0,0.008814719841366876
2778.0,0.008760141623950243
2777.0,0.008707028427516425
2776.0,0.008651231113718807
2775.0,0.008592047856661985
2774.0,0.008533657327171408
2773.0,0.008481175729681139
2772.0,0.008436284005481142
2771.0,0.008398043460090245
2770.0,0.00836536283281243
2769.0,0.008336271103503462
2768.0,0.00830731751515866
2767.0,0.008276677280612488
2766.0,0.0082457733008332
2765.0,0.008214925620815449
2764.0,0.008180284882760019
2763.0,0.008139361108348224
2762.0,0.008097411915611443
2761.0,0.008063001113534226
2760.0,0.008037925247937469
2759.0,0.008016037919810724
2758.0,0.007991227363359422
2757.0,0.007961987290037595
2756.0,0.007928617039231714
2755.0,0.007891786003113938
2754.0,0.007855272527505161
2753.0,0.00782538439313025
2752.0,0.007805425777557554
2751.0,0.0077931058543185446
2750.0,0.007784040562998626
2749.0,0.007775009128401896
2748.0,0.007763626093542458
2747.0,0.0077488183198627485
2746.0,0.0077332281418609275
2745.0,0.0077222101937526565
2744.0,0.0077185675394375475
2743.0,0.007720076818695437
2742.0,0.007723138205174229
2741.0,0.007726963339403882
2740.0,0.00773371290351498
2739.0,0.007746284047471654
2738.0,0.007765982610979747
2737.0,0.0077901322199708765
2736.0,0.007812136307511371
2735.0,0.007826727400699085
2734.0,0.00783574624623565
2733.0,0.007846716747217642
2732.0,0.007865617126629752
2731.0,0.007893594447488416
2730.0,0.007930167055688102
2729.0,0.00797561763450612
2728.0,0.008028835025368785
2727.0,0.008085149910578262
2726.0,0.008137862454764873
2725.0,0.008180818276652603
2724.0,0.00820910153993519
2723.0,0.008218846035118643
2722.0,0.008207138748267775
2721.0,0.008171715933711979
2720.0,0.008112324251692522
2719.0,0.00803474766820051
2718.0,0.007951918933239635
2717.0,0.007876395755766227
2716.0,0.007810912304623175
2715.0,0.007748884648577677
2714.0,0.007684676904004227
2713.0,0.00762028448703252
2712.0,0.007561019974024887
2711.0,0.007508755006224912
2710.0,0.007461917862736912
2709.0,0.007419583331752978
2708.0,0.007382079191784281
2707.0,0.0073480708001559675
2706.0,0.007313679178823817
2705.0,0.007275437038898826
2704.0,0.007233850001595054
2703.0,0.007193636148256076
2702.0,0.007160025375786572
2701.0,0.007134098922113377
2700.0,0.007111916849991313
2699.0,0.0070885602455782095
2698.0,0.007062422677644313
2697.0,0.007035327547898453
2696.0,0.007010027632987468
2695.0,0.006989041614108724
2694.0,0.006974497845888675
2693.0,0.006966972449443843
2692.0,0.006964673038191418
2691.0,0.006964680779366867
2690.0,0.006964216934860086
2689.0,0.006960274998036999
2688.0,0.006950647776300414
2687.0,0.006937087154502598
2686.0,0.006924977219564681
2685.0,0.006916984475878983
2684.0,0.0069090037237979456
2683.0,0.006895658600855933
2682.0,0.0068780379877812735
2681.0,0.006862245452623698
2680.0,0.006851161860580341
2679.0,0.006841840586622704
2678.0,0.006830731498461933
2677.0,0.006817514532727907
2676.0,0.0068032926891141085
2675.0,0.006788479323217578
2674.0,0.006773649701909549
2673.0,0.006759885354116537
2672.0,0.006747510814700673
2671.0,0.0067364091501529375
2670.0,0.006727689673841316
2669.0,0.006722843979755179
2668.0,0.006721186850140006
2667.0,0.006720552124225069
2666.0,0.0067205713265675905
2665.0,0.006723064318034979
2664.0,0.006729324740957516
2663.0,0.006739428495457125
2662.0,0.006753785442926374
2661.0,0.006772092918545233
2660.0,0.0067903044284754015
2659.0,0.0068016796357764815
2658.0,0.0068024469746210126
2657.0,0.0067945665935238
2656.0,0.006782248018019755
2655.0,0.006768123329740644
2654.0,0.006754023933792007
2653.0,0.0067433324745537915
2652.0,0.0067393872883799825
2651.0,0.006741036941673915
2650.0,0.006741059169797545
2649.0,0.006731202068115614
2648.0,0.006710962141473174
2647.0,0.00669043087115765
2646.0,0.006681426095312271
2645.0,0.0066843815381135725
2644.0,0.006687052868247879
2643.0,0.006678104863707967
2642.0,0.0066588525134041315
2641.0,0.006639467726861343
2640.0,0.006627358256268768
2639.0,0.00662321897140772
2638.0,0.00662471123520637
2637.0,0.006628256024831676
2636.0,0.006628697701964635
2635.0,0.006623136675072987
2634.0,0.006615029250433977
2633.0,0.006610080525130346
2632.0,0.006609035093955098
2631.0,0.006608859607512136
2630.0,0.006609780001946617
2629.0,0.006615356036692938
2628.0,0.006625748953022117
2627.0,0.006636937312665882
2626.0,0.006647208634025162
2625.0,0.006658804054547392
2624.0,0.006671664387718391
2623.0,0.006680899090196504
2622.0,0.006682917341382551
2621.0,0.006680332989956473
2620.0,0.00667877320188128
2619.0,0.006681415214862638
2618.0,0.006687427900804555
2617.0,0.0066924135673498905
2616.0,0.006690001819885005
2615.0,0.006677078978863172
2614.0,0.006658573204944042
2613.0,0.0066435950541019525
2612.0,0.006635520449533978
2611.0,0.006628893119929664
2610.0,0.00661653998643927
2609.0,0.006596314766364381
2608.0,0.006570692968486209
2607.0,0.006543648549348214
2606.0,0.006519279928399959
2605.0,0.006499983566923438
2604.0,0.006484142640985076
2603.0,0.006467889729545321
2602.0,0.006449670651763785
2601.0,0.006431115146782681
2600.0,0.006414239466202978
2599.0,0.006400901583790064
2598.0,0.006394096178703852
2597.0,0.006395476719904645
2596.0,0.006401329217512252
2595.0,0.006405239683331862
2594.0,0.006405729617119429
2593.0,0.006408128465590962
2592.0,0.006418336224809329
2591.0,0.006436758473880189
2590.0,0.006458070280966023
2589.0,0.006475036963425464
2588.0,0.0064839969924270855
2587.0,0.006489200162349305
2586.0,0.006499304092904707
2585.0,0.006516303410744268
2584.0,0.006531154261702345
2583.0,0.006534724879643208
2582.0,0.006529912064565824
2581.0,0.00652682185178485
2580.0,0.006528484630696168
2579.0,0.006528850326413985
2578.0,0.006523251740401713
2577.0,0.006512605679463516
2576.0,0.006496753841747709
2575.0,0.00647154779696558
2574.0,0.0064355182355197195
2573.0,0.0063940691121578686
2572.0,0.006354566948292069
2571.0,0.006321237251834278
2570.0,0.006296057179973445
2569.0,0.0062800904621795085
2568.0,0.006271873368880255
2567.0,0.006267416149113235
2566.0,0.006262615859429367
2565.0,0.006253855328115515
2564.0,0.006238538421747203
2563.0,0.0062194432698204245
2562.0,0.006206382572909973
2561.0,0.006206995769497762
2560.0,0.006215918182800083
2559.0,0.006219005235388599
2558.0,0.006208738334863344
2557.0,0.006190376380452762
2556.0,0.00617303534006077
2555.0,0.00616019002987679
2554.0,0.006149857591958586
2553.0,0.006139319370706846
2552.0,0.006127844251255501
2551.0,0.006117227757179619
2550.0,0.006109160994141466
2549.0,0.0060998762832927215
2548.0,0.006080995512035094
2547.0,0.006050673881301849
2546.0,0.006020321744270685
2545.0,0.006003405225639283
2544.0,0.005999861435888317
2543.0,0.005998607178486085
2542.0,0.00599318965247056
2541.0,0.00598662033923191
2540.0,0.005982144220651027
2539.0,0.00597903111738329
2538.0,0.005977925679417021
2537.0,0.00598054582476904
2536.0,0.005981969380744762
2535.0,0.0059722180518369545
2534.0,0.005949480782982313
2533.0,0.005925068249265373
2532.0,0.005911330605912601
2531.0,0.005909733013470047
2530.0,0.005913262565373948
2529.0,0.0059150459463660245
2528.0,0.00591197392356968
2527.0,0.005904732239653746
2526.0,0.005897025986492057
2525.0,0.005891145154938415
2524.0,0.005882841898772565
2523.0,0.005864598281202836
2522.0,0.005835154046229625
2521.0,0.005802201998020567
2520.0,0.005775339858808268
2519.0,0.005759988546174089
2518.0,0.005757299894289487
2517.0,0.005764322945869581
2516.0,0.005773372602422831
2515.0,0.005775973595104889
2514.0,0.00576857758260072
2513.0,0.0057520491466322606
2512.0,0.005728215797368796
2511.0,0.005701904091108101
2510.0,0.005683190575413673
2509.0,0.005679659862838219
2508.0,0.005686702015020421
2507.0,0.005692250895326921
2506.0,0.005690409369580077
2505.0,0.005683456022298611
2504.0,0.005672417735683399
2503.0,0.005655749083692348
2502.0,0.005638083161497021
2501.0,0.005629683640882533
2500.0,0.0056329663930545365
2499.0,0.005637207646754334
2498.0,0.005631156608594699
2497.0,0.00561566063041123
2496.0,0.005600875446331184
2495.0,0.005595705357002651
2494.0,0.005601694188392318
2493.0,0.005611967419787742
2492.0,0.005614476030055415
2491.0,0.005601892501436197
2490.0,0.0055803153092953
2489.0,0.005563405308243313
2488.0,0.005556880717330676
2487.0,0.005553973843410956
2486.0,0.0055463263657880985
2485.0,0.005532622399738223
2484.0,0.0055156108336606915
2483.0,0.0054979827252367545
2482.0,0.005483231734662784
2481.0,0.005473650907545093
2480.0,0.0054651678717951985
2479.0,0.005451225258442195
2478.0,0.005434609180605822
2477.0,0.005428030133118251
2476.0,0.005438313279806314
2475.0,0.005455716788159039
2474.0,0.005463694916838844
2473.0,0.005455212261277074
2472.0,0.005436266748493724
2471.0,0.005417991337906377
2470.0,0.005408868288809146
2469.0,0.0054102135172587
2468.0,0.0054147805087419384
2467.0,0.005412297663955127
2466.0,0.005399421535024686
2465.0,0.005382506551325264
2464.0,0.005369816172399469
2463.0,0.005364452407988496
2462.0,0.0053656567039502175
2461.0,0.005372101456322697
2460.0,0.005381369931127903
2459.0,0.0053897850733248594
2458.0,0.00539488194979877
2457.0,0.0053955258736519945
2456.0,0.005389662300041684
2455.0,0.005376553944039212
2454.0,0.00536181009149461
2453.0,0.005354336956780028
2452.0,0.005355643656080921
2451.0,0.005356945255200517
2450.0,0.005350030755855625
2449.0,0.005337372269190172
2448.0,0.005328654874023685
2447.0,0.005330240258170632
2446.0,0.005340228281160767
2445.0,0.005350910439284647
2444.0,0.00535402944384818
2443.0,0.005346454428283628
2442.0,0.005332991979575228
2441.0,0.0053221100921068045
2440.0,0.005317794901948403
2439.0,0.0053168292756801926
2438.0,0.005313723017302665
2437.0,0.005306299076598768
2436.0,0.005297337650900723
2435.0,0.005293137166961548
2434.0,0.005298851885557803
2433.0,0.00531203346369516
2432.0,0.005322784739069318
2431.0,0.0053243037872816885
2430.0,0.005320732590815288
2429.0,0.005319392568419366
2428.0,0.005318098819873153
2427.0,0.0053076720167237156
2426.0,0.005286122589537881
2425.0,0.005262234533814909
2424.0,0.005243831865328492
2423.0,0.005229759985371123
2422.0,0.005215911492088134
2421.0,0.005202703726262017
2420.0,0.005193178803604557
2419.0,0.005188454364664285
2418.0,0.005187895514061811
2417.0,0.005189870467232791
2416.0,0.00519016753764433
2415.0,0.005183480765897103
2414.0,0.005168966620278037
2413.0,0.005151871570455048
2412.0,0.005138040049103374
2411.0,0.005128550617480199
2410.0,0.005120047666804473
2409.0,0.005108437387432281
2408.0,0.005092992534351416
2407.0,0.005078995280930332
2406.0,0.005074315046127719
2405.0,0.005080236600128005
2404.0,0.0050885278305198844
2403.0,0.005091594181651529
2402.0,0.0050916041212626184
2401.0,0.005093430178615775
2400.0,0.005092305110862163
2399.0,0.005077786338822355
2398.0,0.005049662636911134
2397.0,0.005020877864333112
2396.0,0.005002505200747557
2395.0,0.004993284662745064
2394.0,0.004986569247418855
2393.0,0.0049800622270672855
2392.0,0.00497467907702151
2391.0,0.0049696625078361825
2390.0,0.00496364726088865
2389.0,0.004957880494505841
2388.0,0.004955534704026263
2387.0,0.004959546290860372
2386.0,0.0049714189166800305
2385.0,0.004988614138770035
2384.0,0.005002733555581133
2383.0,0.005004628642518226
2382.0,0.004992412120664453
2381.0,0.004970748107886023
2380.0,0.004942057480139009
2379.0,0.004904433750380851
2378.0,0.004860614746670576
2377.0,0.0048215801274046925
2376.0,0.004796405417897837
2375.0,0.004785237984283618
2374.0,0.004787030533345664
2373.0,0.004805418968358024
2372.0,0.004837719980550561
2371.0,0.004865997670330927
2370.0,0.004872145072030048
2369.0,0.004857366964252605
2368.0,0.004835943465138213
2367.0,0.004816444851755285
2366.0,0.004801220196591723
2365.0,0.0047971758265256004
2364.0,0.004810668235947259
2363.0,0.004834440919440876
2362.0,0.004852016275935249
2361.0,0.00485266955041318
2360.0,0.004838301310801329
2359.0,0.004818934204588889
2358.0,0.004804038877620089
2357.0,0.004796291703554259
2356.0,0.004790516646384152
2355.0,0.004781414277980924
2354.0,0.004766685098445658
2353.0,0.004747456729333307
2352.0,0.004731850558500367
2351.0,0.004729811809482704
2350.0,0.004743967003129348
2349.0,0.0047663914609596195
2348.0,0.004786279940827817
2347.0,0.004796369783243627
2346.0,0.004797240165051299
2345.0,0.004801771641029415
2344.0,0.004822123868623509
2343.0,0.004851289941838518
2342.0,0.0048643973291941645
2341.0,0.004847431228480465
2340.0,0.004815306706995797
2339.0,0.00479362568456552
2338.0,0.004795079387976659
2337.0,0.004811563377347714
2336.0,0.004826559685109609
2335.0,0.0048285169521452105
2334.0,0.004814904577846811
2333.0,0.004789442830507119
2332.0,0.004760842032037506
2331.0,0.004738240714573454
2330.0,0.00472975546216348
2329.0,0.004742845662541842
2328.0,0.004788119484486489
2327.0,0.004874199698723912
2326.0,0.00498935028025578
2325.0,0.005096281015574961
2324.0,0.005148702576686184
2323.0,0.0051298977423700496
2322.0,0.005067966402039645
2321.0,0.005008190711903187
2320.0,0.00497427795270626
2319.0,0.004962120357627876
2318.0,0.00496071274138906
2317.0,0.004961762677893012
2316.0,0.0049587459068516
2315.0,0.004948554226808299
2314.0,0.004936533709490797
2313.0,0.004931237692781222
2312.0,0.004935548553606483
2311.0,0.004948200228090674
2310.0,0.004969167060371739
2309.0,0.0049966430247729635
2308.0,0.0050200911861092365
2307.0,0.0050278581215604705
2306.0,0.005020017897390868
2305.0,0.005008808752623132
2304.0,0.005004593044124846
2303.0,0.00500900098266364
2302.0,0.005019487639238995
2301.0,0.005034174223918658
2300.0,0.005050910641173546
2299.0,0.005067395467609338
2298.0,0.005083311697726331
2297.0,0.005098522642483449
2296.0,0.005110409294375356
2295.0,0.005118510154727852
2294.0,0.0051286227565707915
2293.0,0.005146343693224537
2292.0,0.005166527984988147
2291.0,0.0051781401355483255
2290.0,0.005178830404247123
2289.0,0.0051789446914547385
2288.0,0.005188762467091619
2287.0,0.005208217374034245
2286.0,0.0052299318529929265
2285.0,0.0052469369528839955
2284.0,0.00525548127751399
2283.0,0.005255301557918756
2282.0,0.005248668419266502
2281.0,0.005236569014047753
2280.0,0.005217281308679439
2279.0,0.00519301843499663
2278.0,0.005174854584372001
2277.0,0.0051729396937559725
2276.0,0.005183250642707367
2275.0,0.005191672178097182
2274.0,0.005191232963324066
2273.0,0.005187777872562199
2272.0,0.0051897510873741845
2271.0,0.0052001243819589805
2270.0,0.005217638109664065
2269.0,0.005237054343027688
2268.0,0.005247639197939403
2267.0,0.005239575027153433
2266.0,0.005213763890055362
2265.0,0.00518094350335466
2264.0,0.00515233303264041
2263.0,0.005136401911878402
2262.0,0.005140015814615567
2261.0,0.005163308068296247
2260.0,0.005194719210530699
2259.0,0.00521986101630201
2258.0,0.005233494321296677
2257.0,0.005236074534750373
2256.0,0.005224089733715948
2255.0,0.0051951732416053295
2254.0,0.005160224774212075
2253.0,0.005137941832854557
2252.0,0.005136982113118114
2251.0,0.005151564688726504
2250.0,0.005172470164221864
2249.0,0.005191920949433266
2248.0,0.005201674390471145
2247.0,0.005197241402986736
2246.0,0.005183313812073372
2245.0,0.005167459491276321
2244.0,0.005151355791826251
2243.0,0.0051373307857141975
2242.0,0.005135822687053843
2241.0,0.005152680855451763
2240.0,0.005174122722414316
2239.0,0.0051801296047445655
2238.0,0.005169396626443415
2237.0,0.005156590285961217
2236.0,0.005148895233608861
2235.0,0.00514209243189335
2234.0,0.005137851801565027
2233.0,0.005146134246747704
2232.0,0.0051683205786843805
2231.0,0.005193347425941989
2230.0,0.005211681555594933
2229.0,0.005220266650607708
2228.0,0.005216650019935174
2227.0,0.005204652753014834
2226.0,0.005203630232993501
2225.0,0.005232205514526275
2224.0,0.005280707341316634
2223.0,0.005317436510789735
2222.0,0.005325196132967199
2221.0,0.005315189096226594
2220.0,0.0053026356263495234
2219.0,0.005286829273257809
2218.0,0.005261606539865167
2217.0,0.005230609232419725
2216.0,0.005203927834397103
2215.0,0.005189330548127468
2214.0,0.005190452714367094
2213.0,0.005203225692772089
2212.0,0.005213674060708143
2211.0,0.005210883417282432
2210.0,0.005201949320161291
2209.0,0.005203526106437929
2208.0,0.0052201365620640925
2207.0,0.0052422905365145794
2206.0,0.005261407571455489
2205.0,0.005271565771736631
2204.0,0.005263358445805897
2203.0,0.005235825018896371
2202.0,0.005212731457896056
2201.0,0.00522541895747049
2200.0,0.005274957508578916
2199.0,0.005329620654996952
2198.0,0.005361691230631308
2197.0,0.0053704299150543625
2196.0,0.005368175657561879
2195.0,0.005361612250309766
2194.0,0.005353010740986649
2193.0,0.005345942441371435
2192.0,0.005343308945922233
2191.0,0.005347990612409229
2190.0,0.005365137398871699
2189.0,0.005393991273940349
2188.0,0.005421714124901119
2187.0,0.005437538416167148
2186.0,0.0054468063236111355
2185.0,0.005457229570139547
2184.0,0.005459901647934221
2183.0,0.005443232566629814
2182.0,0.0054187903395894604
2181.0,0.00540934827796988
2180.0,0.0054133952005865835
2179.0,0.005404350344869136
2178.0,0.005364005633596267
2177.0,0.005299278423330254
2176.0,0.0052309855727080525
2175.0,0.00518340937275525
2174.0,0.005177874506412516
2173.0,0.005214076418886106
2172.0,0.005262155733227482
2171.0,0.005295225824232623
2170.0,0.005324164323716348
2169.0,0.005379126376991818
2168.0,0.005462780350469927
2167.0,0.005545222050789224
2166.0,0.005602219725684291
2165.0,0.005635622250259145
2164.0,0.0056578240386070105
2163.0,0.00567466499941828
2162.0,0.00567689301347098
2161.0,0.005627423711308769
2160.0,0.005472244897518219
2159.0,0.0052047508986997155
2158.0,0.004910513425749197
2157.0,0.004700356169275372
2156.0,0.0046095643766954925
2155.0,0.004603280289762182
2154.0,0.004646401516210929
2153.0,0.004718254099879402
2152.0,0.004787674541158959
2151.0,0.004823723466945766
2150.0,0.004828038984975229
2149.0,0.004826126131289176
2148.0,0.004829416156832737
2147.0,0.004830359354919305
2146.0,0.004826479638423653
2145.0,0.004821437475682381
2144.0,0.004807960852675694
2143.0,0.004776971911301475
2142.0,0.004739388485320465
2141.0,0.004715521341824327
2140.0,0.0047084327926584305
2139.0,0.004708857585372642
2138.0,0.004715718942064147
2137.0,0.004726384684964552
2136.0,0.0047184418161778305
2135.0,0.004672295947152066
2134.0,0.004606027537535878
2133.0,0.004559255320784553
2132.0,0.004547486921242672
2131.0,0.004557580346675524
2130.0,0.004578698409609753
2129.0,0.0046079248210546325
2128.0,0.004632311947779009
2127.0,0.00463639515153848
2126.0,0.004628743110182275
2125.0,0.0046358840971164675
2124.0,0.0046659545094359205
2123.0,0.004699327489116126
2122.0,0.004717321629217678
2121.0,0.004719736318012398
2120.0,0.004712817570698382
2119.0,0.004701590112382216
2118.0,0.004697970326968468
2117.0,0.004715287164164003
2116.0,0.0047483240537550845
2115.0,0.0047766937101952995
2114.0,0.004792895190316921
2113.0,0.004808867619964995
2112.0,0.0048306907938486816
2111.0,0.004846885735037038
2110.0,0.004848789203017762
2109.0,0.004844144021540955
2108.0,0.0048421516193668055
2107.0,0.004841542232626505
2106.0,0.004840451167989333
2105.0,0.004841345980633164
2104.0,0.004838893960068355
2103.0,0.004820712015826731
2102.0,0.004789064912665582
2101.0,0.004765527641854562
2100.0,0.00476421624458157
2099.0,0.004774013307865826
2098.0,0.004775494111724801
2097.0,0.00476209492979862
2096.0,0.00473797985386336
2095.0,0.004709982540457025
2094.0,0.004690241729983321
2093.0,0.004692379631471432
2092.0,0.004715630704515178
2091.0,0.004742686585134223
2090.0,0.004759244944927955
2089.0,0.004766846334389913
2088.0,0.004772843153427245
2087.0,0.004779141662162736
2086.0,0.004785412397183538
2085.0,0.004792583107181518
2084.0,0.004799081485117502
2083.0,0.004803486437084869
2082.0,0.0048122996747308805
2081.0,0.004832704483896033
2080.0,0.004855822017933046
2079.0,0.004862228652700288
2078.0,0.004847759480788988
2077.0,0.004829206338049543
2076.0,0.0048190906919265575
2075.0,0.004809225695767028
2074.0,0.004787577284866445
2073.0,0.004759155287926569
2072.0,0.004741358044389263
2071.0,0.004745155444085781
2070.0,0.004765270306476804
2069.0,0.004782310165095124
2068.0,0.004776089933700134
2067.0,0.004745586165233123
2066.0,0.004712671550017303
2065.0,0.004696857011811835
2064.0,0.00469218842026652
2063.0,0.004684709446160292
2062.0,0.00468049418912962
2061.0,0.004693578738796256
2060.0,0.004716881478664027
2059.0,0.004731297135479661
2058.0,0.004738224850145922
2057.0,0.0047545729833403634
2056.0,0.00477953220511944
2055.0,0.004798839717031315
2054.0,0.004823066102183375
2053.0,0.00488377403597047
2052.0,0.004979936357253964
2051.0,0.005060059539773114
2050.0,0.005073982315984915
2049.0,0.005025785360188712
2048.0,0.004961611027519486
2047.0,0.0049186879908064895
2046.0,0.004904810907621548
2045.0,0.004912010406360033
2044.0,0.004928129000736337
2043.0,0.0049442412512180406
2042.0,0.004961378951082093
2041.0,0.004981684580798935
2040.0,0.004994828612697245
2039.0,0.004991115166996016
2038.0,0.004983658703793539
2037.0,0.004993535211380615
2036.0,0.005014234432523924
2035.0,0.005016455109465448
2034.0,0.004989717223433852
2033.0,0.004951969909095403
2032.0,0.004917899703889642
2031.0,0.004889274511733188
2030.0,0.004875736372741884
2029.0,0.004888527260531794
2028.0,0.004911151144361953
2027.0,0.004912596819606345
2026.0,0.004892458138175549
2025.0,0.004877597560704536
2024.0,0.0048741984941899855
2023.0,0.004861305092758539
2022.0,0.004834230330318951
2021.0,0.004815097336774547
2020.0,0.004813929256670807
2019.0,0.004814841052333019
2018.0,0.0048076888330585085
2017.0,0.004801249921698782
2016.0,0.004798899126520085
2015.0,0.004794153691545456
2014.0,0.0047937195756811695
2013.0,0.004810610862934154
2012.0,0.004833058685582418
2011.0,0.004834037688160121
2010.0,0.0048121670650471
2009.0,0.0047878069096508186
2008.0,0.00475980906298891
2007.0,0.004709489701076469
2006.0,0.004651889740800062
2005.0,0.004634294014101945
2004.0,0.004671705580364788
2003.0,0.004726455750426197
2002.0,0.004760510118075784
2001.0,0.004771620510935368
2000.0,0.0047710883958104605
1999.0,0.004760737684964972
1998.0,0.004745747379857731
1997.0,0.004741325973187566
1996.0,0.00475133069983112
1995.0,0.004762944931303165
1994.0,0.004770226097883344
1993.0,0.004779888063414593
1992.0,0.004788925863967355
1991.0,0.004785408515924862
1990.0,0.004776377911372292
1989.0,0.004783011780796888
1988.0,0.0048055300615689345
1987.0,0.00482172762629184
1986.0,0.00482442209313809
1985.0,0.0048310421256467844
1984.0,0.0048507334659879065
1983.0,0.004874309494101509
1982.0,0.004902112479914149
1981.0,0.0049448012085008715
1980.0,0.004982590376659286
1979.0,0.004962817292421816
1978.0,0.004866828534105657
1977.0,0.004750603082452172
1976.0,0.0046842457944927685
1975.0,0.004677724008702484
1974.0,0.004693969701134216
1973.0,0.004698548134909405
1972.0,0.004674232432646439
1971.0,0.004621698445601457
1970.0,0.004567880950294048
1969.0,0.004551616915579258
1968.0,0.0045804905876287855
1967.0,0.004615962252126458
1966.0,0.004620613930004115
1965.0,0.004595740389426394
1964.0,0.004557384921107538
1963.0,0.0045133199694572705
1962.0,0.004474533592551612
1961.0,0.004456810660640695
1960.0,0.00445850250500393
1959.0,0.004458996580245804
1958.0,0.004448958106645225
1957.0,0.004442518614901546
1956.0,0.004454150248258704
1955.0,0.00448021743040557
1954.0,0.004506203521424722
1953.0,0.004517548019427249
1952.0,0.004504267075523305
1951.0,0.004470192632135589
1950.0,0.00443568650672813
1949.0,0.004416301696134529
1948.0,0.004403254157747005
1947.0,0.0043819425837243724
1946.0,0.004361510493795283
1945.0,0.004362775486325925
1944.0,0.004382551164508955
1943.0,0.004394815414060575
1942.0,0.0043918048595723
1941.0,0.004390559449966107
1940.0,0.004392411074011303
1939.0,0.004380495382450338
1938.0,0.004354243371069545
1937.0,0.00433374200641818
1936.0,0.004331184629304439
1935.0,0.00433799843774293
1934.0,0.00434424261046655
1933.0,0.004349388280638789
1932.0,0.004351040446613262
1931.0,0.004342597356234291
1930.0,0.004325697278810177
1929.0,0.004309115842958585
1928.0,0.004293071258956792
1927.0,0.00427026937794613
1926.0,0.004241557112703657
1925.0,0.004218300074254995
1924.0,0.004208247244418061
1923.0,0.004210644442066756
1922.0,0.004227379246611494
1921.0,0.004259599658160394
1920.0,0.004295426971752853
1919.0,0.004317250371412738
1918.0,0.004321238216960313
1917.0,0.004319755429836755
1916.0,0.004316665581629083
1915.0,0.0043033769367468964
1914.0,0.004280409483516938
1913.0,0.004256577625990143
1912.0,0.0042338100218612
1911.0,0.004209594655964816
1910.0,0.0041931971733145225
1909.0,0.004199396339371255
1908.0,0.004222545751755483
1907.0,0.0042404257357034235
1906.0,0.004243926360403551
1905.0,0.004243587307558232
1904.0,0.004246936478429711
1903.0,0.004247448319150114
1902.0,0.004240463872360888
1901.0,0.004233304428784461
1900.0,0.004232984296562763
1899.0,0.004237171628887534
1898.0,0.0042412590981192036
1897.0,0.0042426869751055925
1896.0,0.004236519563119413
1895.0,0.004219442380676737
1894.0,0.004199772574450532
1893.0,0.0041876271876416194
1892.0,0.00417993123167306
1891.0,0.004169291701719419
1890.0,0.0041612241861575085
1889.0,0.0041677736877002896
1888.0,0.004181475434141874
1887.0,0.004180083412742734
1886.0,0.00415948763770448
1885.0,0.004137062302225559
1884.0,0.004125631700366412
1883.0,0.004121903383323575
1882.0,0.004121006158124333
1881.0,0.004124241827541599
1880.0,0.00412761515956419
1879.0,0.004121272619551471
1878.0,0.004105370018136186
1877.0,0.004092636219100045
1876.0,0.0040915397968664625
1875.0,0.004098005963496548
1874.0,0.004105824978599561
1873.0,0.004112727061677384
1872.0,0.004115693169421073
1871.0,0.004110028654923181
1870.0,0.0040956140932614715
1869.0,0.004077375380008772
1868.0,0.004059443009950683
1867.0,0.00404691783557948
1866.0,0.004048166878074965
1865.0,0.004066087473391804
1864.0,0.004088186869671092
1863.0,0.0040956979009401
1862.0,0.004085646161599794
1861.0,0.004071968841601846
1860.0,0.004063191586864908
1859.0,0.004055400373272589
1858.0,0.004047830774571603
1857.0,0.0040457003779575075
1856.0,0.00404613012121439
1855.0,0.004039657874101696
1854.0,0.004029750689555175
1853.0,0.004032216131923353
1852.0,0.004048880779503569
1851.0,0.004062921424881318
1850.0,0.0040620227890795415
1849.0,0.004049513693015813
1848.0,0.004034188976686927
1847.0,0.004024183731709586
1846.0,0.004031907937777713
1845.0,0.004065641083711893
1844.0,0.004102767708107642
1843.0,0.004104263257441279
1842.0,0.0040674487651188185
1841.0,0.00402519461151921
1840.0,0.004001564822318528
1839.0,0.003993341702988705
1838.0,0.003988598682583282
1837.0,0.003987790029793664
1836.0,0.003994027101326299
1835.0,0.0039972453603665855
1834.0,0.003986008147110888
1833.0,0.003963588952247013
1832.0,0.003941787919285908
1831.0,0.0039298714809752186
1830.0,0.003931987990457981
1829.0,0.003945214128716143
1828.0,0.003955425314671406
1827.0,0.003952093704937991
1826.0,0.003945004123654637
1825.0,0.003948680051861641
1824.0,0.003959043714934656
1823.0,0.003960336524872172
1822.0,0.00395209788617164
1821.0,0.003947281838786538
1820.0,0.003947241112170582
1819.0,0.00393958418165179
1818.0,0.0039201287321378436
1817.0,0.0039019136979293687
1816.0,0.0038953812464067455
1815.0,0.00389460661638431
1814.0,0.003891223724192883
1813.0,0.0038861303259551316
1812.0,0.00388312508597855
1811.0,0.003884037664556702
1810.0,0.003892530971055453
1809.0,0.003908202857021815
1808.0,0.003919522756589833
1807.0,0.003916704113668527
1806.0,0.003905956269070956
1805.0,0.0039029974451068594
1804.0,0.003914459440603241
1803.0,0.003932188547609817
1802.0,0.0039463990365671935
1801.0,0.003954073662623155
1800.0,0.003957771237261089
1799.0,0.003960854171211223
1798.0,0.003963800730758917
1797.0,0.003964736593497049
1796.0,0.003959948407325148
1795.0,0.003950823070820352
1794.0,0.003950385046108332
1793.0,0.003971996793784651
1792.0,0.004001797402877141
1791.0,0.004010751893147161
1790.0,0.0039972113405810136
1789.0,0.003980472680770095
1788.0,0.0039733256470087415
1787.0,0.003975417200927839
1786.0,0.003980249255509216
1785.0,0.003982256141815344
1784.0,0.003973868980764998
1783.0,0.003949667999281152
1782.0,0.0039206932934566585
1781.0,0.0039060873212779703
1780.0,0.003908183606399999
1779.0,0.003910802832189645
1778.0,0.003903811270920267
1777.0,0.0038929234226797674
1776.0,0.0038835917298808854
1775.0,0.003875569305819032
1774.0,0.003874123337088797
1773.0,0.0038909393364398182
1772.0,0.003919797711265842
1771.0,0.003938963478081201
1770.0,0.003944158981600165
1769.0,0.003950978821480286
1768.0,0.003966774130748143
1767.0,0.003976509006516361
1766.0,0.003969036040265332
1765.0,0.0039577775193694415
1764.0,0.003963125917583763
1763.0,0.003986487268744201
1762.0,0.004012723765391736
1761.0,0.004034177567329032
1760.0,0.004050617771428498
1759.0,0.004063925523240482
1758.0,0.004087316542220518
1757.0,0.00413092378778001
1756.0,0.004178842084177489
1755.0,0.004205537965111515
1754.0,0.00421589666642403
1753.0,0.004243246198409589
1752.0,0.004306083178811978
1751.0,0.004376992987535156
1750.0,0.004420577471353791
1749.0,0.004450875721995418
1748.0,0.004490942810607023
1747.0,0.00453062222214869
1746.0,0.004558971882433449
1745.0,0.0045824524182983715
1744.0,0.004606742366177182
1743.0,0.004628518025788133
1742.0,0.004654191214274701
1741.0,0.004700498002875967
1740.0,0.004757846347993002
1739.0,0.004784145346289265
1738.0,0.004765959554237949
1737.0,0.0047425328341815405
1736.0,0.004757934276785564
1735.0,0.004818298067043419
1734.0,0.004873109081471242
1733.0,0.004883490812528249
1732.0,0.0048581710155409285
1731.0,0.004818036086366381
1730.0,0.00479114248015261
1729.0,0.0047967688034997544
1728.0,0.004823364088038577
1727.0,0.004844465544732223
1726.0,0.004855063126410448
1725.0,0.00487016088050334
1724.0,0.004892988919216838
1723.0,0.004904716244678801
1722.0,0.0048958451021454295
1721.0,0.004885061350832152
1720.0,0.004893339192043446
1719.0,0.004926012433696019
1718.0,0.004981908894933655
1717.0,0.005053347080477546
1716.0,0.005115672581246957
1715.0,0.0051504567945849546
1714.0,0.005168881704895534
1713.0,0.005191868164009941
1712.0,0.00522138210389255
1711.0,0.005246770033669672
1710.0,0.005268755834167518
1709.0,0.005301808695967385
1708.0,0.005356199708206809
1707.0,0.005429074348872595
1706.0,0.005510015871032028
1705.0,0.005589857012544328
1704.0,0.005658559395919722
1703.0,0.005726897302821126
1702.0,0.005839183065783763
1701.0,0.006048618506070967
1700.0,0.006290326283225234
1699.0,0.006408507497930418
1698.0,0.006419267365098899
1697.0,0.006480348266052887
1696.0,0.006658067790360348
1695.0,0.006864124026790827
1694.0,0.006996556766421705
1693.0,0.007070163410491414
1692.0,0.00714855703311045
1691.0,0.007257302502298606
1690.0,0.007387668298451061
1689.0,0.007521643593048575
1688.0,0.007635879331261794
1687.0,0.007728781665633285
1686.0,0.007831750639759502
1685.0,0.00802082016261703
1684.0,0.00829579743029618
1683.0,0.008529824225368198
1682.0,0.008672756957034143
1681.0,0.008781810190325335
1680.0,0.00890350435408313
1679.0,0.009032994140364993
1678.0,0.009162501793599327
1677.0,0.009319001349981544
1676.0,0.00952133835344034
1675.0,0.009719790185151256
1674.0,0.009849193805571768
1673.0,0.009930003412634303
1672.0,0.010027123897267568
1671.0,0.01016701669590832
1670.0,0.010326062052405308
1669.0,0.010483090097814318
1668.0,0.010633219990824125
1667.0,0.010759831983436947
1666.0,0.010870641871020655
1665.0,0.011000759480221193
1664.0,0.011168727303737894
1663.0,0.011344043033091906
1662.0,0.011483327433140057
1661.0,0.011595357166501384
1660.0,0.01170393747353643
1659.0,0.011810669278033354
1658.0,0.01190133803328975
1657.0,0.011983911264851942
1656.0,0.012071642496332306
1655.0,0.012186918749606859
1654.0,0.012264430941437202
1653.0,0.012253266603988816
1652.0,0.0122794830196593
1651.0,0.01230181561577775
1650.0,0.012283838507363674
1649.0,0.012289336102274218
1648.0,0.012299964260714532
1647.0,0.012254035322275826
1646.0,0.012183208036511243
1645.0,0.012176501840967078
1644.0,0.012194143396078676
1643.0,0.012193343108239356
1642.0,0.012178168648280028
1641.0,0.012157323409015082
1640.0,0.012140071691161441
1639.0,0.012123970903414792
1638.0,0.012103536479982694
1637.0,0.012055924571268908
1636.0,0.011941058694572966
1635.0,0.011818399088902323
1634.0,0.011752789789303521
1633.0,0.011701038525261932
1632.0,0.011645372749272666
1631.0,0.011589800649182767
1630.0,0.011520724207781845
1629.0,0.011425605127290081
1628.0,0.01130686923181087
1627.0,0.011191403130901209
1626.0,0.011099211421119904
1625.0,0.011020172872631476
1624.0,0.010911128678992573
1623.0,0.010745288998381146
1622.0,0.010575421395959241
1621.0,0.01045622340783794
1620.0,0.010376821521344734
1619.0,0.010305949059114798
1618.0,0.01020713771994534
1617.0,0.010052587044441643
1616.0,0.009885863306890473
1615.0,0.009765195506509153
1614.0,0.009678914643144439
1613.0,0.00960228709590938
1612.0,0.009522843123216839
1611.0,0.009429602393822028
1610.0,0.009324685086546314
1609.0,0.009220182337243829
1608.0,0.009124184468732002
1607.0,0.009037558806516206
1606.0,0.008963456202893651
1605.0,0.008901049441715422
1604.0,0.008839383738080268
1603.0,0.008769821096221982
1602.0,0.008698977171514662
1601.0,0.00863895206638858
1600.0,0.008588787779947657
1599.0,0.00853993850070056
1598.0,0.008491779778364692
1597.0,0.00844743671782166
1596.0,0.008401624585109312
1595.0,0.00834705410891579
1594.0,0.008290636580247285
1593.0,0.008246662887466914
1592.0,0.008216606245746006
1591.0,0.008191764366288396
1590.0,0.008169554535854197
1589.0,0.008154145578105104
1588.0,0.00814487017275086
1587.0,0.008136125009020513
1586.0,0.008128248951151305
1585.0,0.008127145024219542
1584.0,0.008133187443231818
1583.0,0.00814343985146862
1582.0,0.008159194037134427
1581.0,0.008179024025504017
1580.0,0.008195263421588331
1579.0,0.00820420468104908
1578.0,0.008214062735931817
1577.0,0.00822792205378888
1576.0,0.00823334747111764
1575.0,0.008234784572558107
1574.0,0.008239914622560221
1573.0,0.008247443081323675
1572.0,0.008261184048711269
1571.0,0.008273366561118574
1570.0,0.008268469692279037
1569.0,0.008261514000477858
1568.0,0.008271735781192831
1567.0,0.00828889397854652
1566.0,0.00831115595101267
1565.0,0.008344466025763216
1564.0,0.008380408911499588
1563.0,0.00840584221052367
1562.0,0.008436839083601386
1561.0,0.00849056194296979
1560.0,0.008565361529307059
1559.0,0.008589605572524783
1558.0,0.008632550350936349
1557.0,0.008739311808788012
1556.0,0.008808204128678153
1555.0,0.008851345797966996
1554.0,0.008897372612215987
1553.0,0.008942981745545924
1552.0,0.008982942003293696
1551.0,0.009014541124004455
1550.0,0.009045224353724648
1549.0,0.00908382811281143
1548.0,0.009131371404824744
1547.0,0.00917673706387381
1546.0,0.009219411102667005
1545.0,0.009259201159213368
1544.0,0.009294059506028862
1543.0,0.009314630381112637
1542.0,0.009324262314277715
1541.0,0.009286813714105675
1540.0,0.009146594328856585
1539.0,0.009038828366010963
1538.0,0.009033094098071983
1537.0,0.009045303223854119
1536.0,0.009058015572895718
1535.0,0.009055372703248047
1534.0,0.008991995295899042
1533.0,0.008881454340079394
1532.0,0.008800526938995846
1531.0,0.008761911995552705
1530.0,0.008738107487146887
1529.0,0.008724875869952547
1528.0,0.008713373662145762
1527.0,0.00868597248321812
1526.0,0.00864294338889177
1525.0,0.008612344888488652
1524.0,0.008605903314739148
1523.0,0.008606925666484341
1522.0,0.00858014571922542
1521.0,0.008530973922405951
1520.0,0.008505143513781737
1519.0,0.008491141424498977
1518.0,0.008469645250677617
1517.0,0.008446440928340985
1516.0,0.008425916411120492
1515.0,0.008414068082973484
1514.0,0.008409395718542234
1513.0,0.008414922829412166
1512.0,0.008413314106209133
1511.0,0.00838403134429993
1510.0,0.00833115680399102
1509.0,0.008293181956433655
1508.0,0.008249476410631508
1507.0,0.008082378705040956
1506.0,0.00798483451000242
1505.0,0.008073869264399666
1504.0,0.00814079425807864
1503.0,0.00815112888196764
1502.0,0.008154583845993879
1501.0,0.008173432330284962
1500.0,0.008208603671769413
1499.0,0.008228395292457136
1498.0,0.008229516334550413
1497.0,0.008241253113603974
1496.0,0.00826951468388761
1495.0,0.008284014761304324
1494.0,0.008291858508343422
1493.0,0.008328493179910029
1492.0,0.008397402926101446
1491.0,0.008452337780640027
1490.0,0.008461680910238037
1489.0,0.008474032583628131
1488.0,0.008525442868107464
1487.0,0.008590251820029579
1486.0,0.008664809590314376
1485.0,0.008767355213848966
1484.0,0.008890425288921793
1483.0,0.00901747114307564
1482.0,0.009159017063029946
1481.0,0.00933580647574501
1480.0,0.009534677389240883
1479.0,0.009734197615897031
1478.0,0.009963498285749188
1477.0,0.010270540582568882
1476.0,0.010645657834472128
1475.0,0.011055235915886636
1474.0,0.01161213641984277
1473.0,0.012526783205211549
1472.0,0.01364965118662151
1471.0,0.01462911303393673
1470.0,0.015479258650369483
1469.0,0.016361594113477054
1468.0,0.017335848213313174
1467.0,0.01843726050004582
1466.0,0.019768177366886797
1465.0,0.021322066952555934
1464.0,0.022726407282695687
1463.0,0.023684746018398296
1462.0,0.024324274060948847
1461.0,0.024842495699485854
1460.0,0.02530638283716968
1459.0,0.025723104574178354
1458.0,0.026185624959766923
1457.0,0.026685148160563135
1456.0,0.026982809898145305
1455.0,0.02707661451315442
1454.0,0.027127676263865693
1453.0,0.027144812065131398
1452.0,0.02704108762517348
1451.0,0.026757702066229187
1450.0,0.02626018109679435
1449.0,0.025412025671362578
1448.0,0.02411727796322664
1447.0,0.02261708131528417
1446.0,0.021256877709881068
1445.0,0.020095063978355948
1444.0,0.01904567904755807
1443.0,0.018111751373994848
1442.0,0.017362475191546496
1441.0,0.016821343008726092
1440.0,0.016464144463223307
1439.0,0.01627672890060021
1438.0,0.016238635629952838
1437.0,0.016219589205097407
1436.0,0.016022238615789455
1435.0,0.015623970173967716
1434.0,0.015116263175106628
1433.0,0.014528090642086733
1432.0,0.013882098338634363
1431.0,0.013257210230892078
1430.0,0.012736232909433029
1429.0,0.01234165437546003
1428.0,0.012068568074809837
1427.0,0.011904237981523852
1426.0,0.011800814405515975
1425.0,0.0116894933095327
1424.0,0.01155442173771039
1423.0,0.011457999937490932
1422.0,0.011432139973913649
1421.0,0.011430040218664776
1420.0,0.011388673037315618
1419.0,0.011292543608947646
1418.0,0.011186064062086939
1417.0,0.01109674632268041
1416.0,0.011028482573087795
1415.0,0.010992346577613367
1414.0,0.01097402116172488
1413.0,0.010935807418687387
1412.0,0.010864493230523966
1411.0,0.010784497084245722
1410.0,0.010712081088805966
1409.0,0.010635674195956353
1408.0,0.01055341282031548
1407.0,0.010480672100471154
1406.0,0.010410015751555939
1405.0,0.010307428723234563
1404.0,0.010183731384678063
1403.0,0.010094168733751619
1402.0,0.010045004396770675
1401.0,0.009990574457254108
1400.0,0.009903822906970004
1399.0,0.009812377985942172
1398.0,0.00974553786789859
1397.0,0.009682268515109322
1396.0,0.009605990180384846
1395.0,0.00953992235426151
1394.0,0.009496814483375146
1393.0,0.009459824933378004
1392.0,0.009435811991830743
1391.0,0.00945867695987801
1390.0,0.009539413163345653
1389.0,0.009672769305132004
1388.0,0.009904186358201901
1387.0,0.010316835284352602
1386.0,0.010929484168328304
1385.0,0.011752274065724546
1384.0,0.012909670602269972
1383.0,0.014562552072515562
1382.0,0.016774122752720496
1381.0,0.019553900110313792
1380.0,0.022930224998499074
1379.0,0.02672351610568273
1378.0,0.030326356979304334
1377.0,0.03295162495589682
1376.0,0.03392856341798181
1375.0,0.03272986211436272
1374.0,0.02957608265524008
1373.0,0.025800187264143074
1372.0,0.022513626375203252
1371.0,0.019822408887682774
1370.0,0.01750751278538841
1369.0,0.015538752670876965
1368.0,0.014037412646129097
1367.0,0.013040663629030906
1366.0,0.012442919756874385
1365.0,0.012120610294120288
1364.0,0.01200135285658186
1363.0,0.012056532994496421
1362.0,0.012254093339621963
1361.0,0.012514602755900267
1360.0,0.01272663093940122
1359.0,0.012793956658697276
1358.0,0.012663382508592178
1357.0,0.0123303668078149
1356.0,0.011830474930837267
1355.0,0.011233557633857251
1354.0,0.010635092062922123
1353.0,0.01011242532267003
1352.0,0.009681815323488873
1351.0,0.009317322818251437
1350.0,0.008998477524791427
1349.0,0.00872325482356517
1348.0,0.008489498064579324
1347.0,0.008288041496726297
1346.0,0.008113377555238515
1345.0,0.00796484563506105
1344.0,0.00783850476425655
1343.0,0.007728482411200785
1342.0,0.007632531301590419
1341.0,0.007548242778544337
1340.0,0.007466492307530858
1339.0,0.007384045134547422
1338.0,0.007316786487221581
1337.0,0.007276995096869186
1336.0,0.007258082030179581
1335.0,0.007252990370862127
1334.0,0.007264775424589093
1333.0,0.007295463579526051
1332.0,0.00733484205025367
1331.0,0.007365162775227429
1330.0,0.007373073705170237
1329.0,0.007353362309558617
1328.0,0.007305894365441799
1327.0,0.007234669092804804
1326.0,0.00714712271892705
1325.0,0.007050518257421229
1324.0,0.006950618017830142
1323.0,0.006854965300860185
1322.0,0.006771683147644267
1321.0,0.0067022770374832
1320.0,0.006640867742734331
1319.0,0.00658321685860148
1318.0,0.006532021739126434
1317.0,0.006489763309322657
1316.0,0.006452813941668205
1315.0,0.006416881724937134
1314.0,0.006382522482578983
1313.0,0.00635364534954424
1312.0,0.006336593442651816
1311.0,0.006342921667604369
1310.0,0.006389740899345422
1309.0,0.00649532216901521
1308.0,0.0066698938906216984
1307.0,0.0069007801805657425
1306.0,0.007141041223432176
1305.0,0.007320508189847377
1304.0,0.00738178463740978
1303.0,0.007318311358722391
1302.0,0.007179583214703585
1301.0,0.007033050067241129
1300.0,0.006921525791328871
1299.0,0.006853576260927775
1298.0,0.0068172962783324565
1297.0,0.006793290030576411
1296.0,0.006762905784980309
1295.0,0.006715938019920073
1294.0,0.006653119070413097
1293.0,0.006580064927625161
1292.0,0.006502195533097362
1291.0,0.00642613263398213
1290.0,0.0063594713908109975
1289.0,0.006305161305796183
1288.0,0.00625956719458336
1287.0,0.006218551263063269
1286.0,0.006182283688719089
1285.0,0.006152601667665633
1284.0,0.006129791096213909
1283.0,0.006113688200931909
1282.0,0.006104157960718078
1281.0,0.006099043092193032
1280.0,0.006094838410030499
1279.0,0.006090543541055184
1278.0,0.00608827961888561
1277.0,0.00608927801345577
1276.0,0.0060923117156558544
1275.0,0.006096885954305358
1274.0,0.006105108705526042
1273.0,0.006119403831711338
1272.0,0.006140673608651721
1271.0,0.006169554776527464
1270.0,0.006207067520909459
1269.0,0.006252943315521459
1268.0,0.0063053424576306385
1267.0,0.00636316466219969
1266.0,0.0064271713352697666
1265.0,0.006498478210267617
1264.0,0.0065782688490917925
1263.0,0.006670185056216858
1262.0,0.0067810019544119905
1261.0,0.006917336690350594
1260.0,0.007082048957802335
1259.0,0.007272141244859561
1258.0,0.007474602233202692
1257.0,0.007659834443131097
1256.0,0.007783723018168803
1255.0,0.007809264703256779
1254.0,0.007734863716604843
1253.0,0.007597821723980292
1252.0,0.00744795075674164
1251.0,0.0073204036916853545
1250.0,0.007227568731478895
1249.0,0.0071659944176895975
1248.0,0.007127333589769315
1247.0,0.007105456127707885
1246.0,0.007097144734857546
1245.0,0.00709883643589881
1244.0,0.007105193369370464
1243.0,0.007112120418677101
1242.0,0.007119666157077985
1241.0,0.007130053769597757
1240.0,0.007143819716480165
1239.0,0.007159530015295108
1238.0,0.007176099451712905
1237.0,0.007193267954105718
1236.0,0.007210359641576647
1235.0,0.007226755416904179
1234.0,0.007243483357239054
1233.0,0.007262352912776857
1232.0,0.00728334501168018
1231.0,0.007304498899690294
1230.0,0.00732458347914859
1229.0,0.0073445171608375465
1228.0,0.007366203767197887
1227.0,0.0073913962341088605
1226.0,0.007421573625134856
1225.0,0.007457384916895363
1224.0,0.007497669248422564
1223.0,0.007539459203566721
1222.0,0.007578705174274921
1221.0,0.007610584490202861
1220.0,0.007630211125997337
1219.0,0.007634779293775753
1218.0,0.007625012892542872
1217.0,0.007603616056396062
1216.0,0.007573431345804063
1215.0,0.007538140831777899
1214.0,0.007502285201350704
1213.0,0.007468134873428813
1212.0,0.007434147634404002
1211.0,0.0073987951194174045
1210.0,0.007364256064754025
1209.0,0.007334105006588485
1208.0,0.007309195589814298
1207.0,0.007288124742486373
1206.0,0.007270263798914962
1205.0,0.007256090122701952
1204.0,0.0072454324725559184
1203.0,0.007237225022853383
1202.0,0.0072305161892592925
1201.0,0.0072246867442979056
1200.0,0.007219483326637456
1199.0,0.007215685788676179
1198.0,0.007214725488156005
1197.0,0.007216785776975848
1196.0,0.0072204584779561095
1195.0,0.00722491110785095
1194.0,0.007230805635213902
1193.0,0.0072384799308237695
1192.0,0.007247221959390606
1191.0,0.007257324544640784
1190.0,0.007270573591377667
1189.0,0.007287108285035136
1188.0,0.007304110761467237
1187.0,0.007320043735602114
1186.0,0.007338690453577954
1185.0,0.0073663594935880665
1184.0,0.007406069122671043
1183.0,0.007456917829814237
1182.0,0.007518421878280881
1181.0,0.007593557015741881
1180.0,0.007688112110609649
1179.0,0.007809343344922302
1178.0,0.007966085753094224
1177.0,0.008169424765925018
1176.0,0.008433475141163448
1175.0,0.00877626700682972
1174.0,0.00921825976831527
1173.0,0.009773639864473811
1172.0,0.010433547056120204
1171.0,0.01115069210137311
1170.0,0.011840861436069399
1169.0,0.012405311334620467
1168.0,0.012760655323576276
1167.0,0.012868280861795974
1166.0,0.012751746613945155
1165.0,0.012482530621717077
1164.0,0.012141295025537038
1163.0,0.011791735687899927
1162.0,0.011476965693549609
1161.0,0.01121820816880151
1160.0,0.011013792338748368
1159.0,0.010850647876526918
1158.0,0.010721241740879345
1157.0,0.010625730420440948
1156.0,0.010560418286231797
1155.0,0.010512978172047497
1154.0,0.01046916231352306
1153.0,0.0104165834896661
1152.0,0.01034237893836369
1151.0,0.010237123737656732
1150.0,0.01010418362986545
1149.0,0.009957610343771817
1148.0,0.009809129252026504
1147.0,0.009663349153678603
1146.0,0.0095244455514501
1145.0,0.009398663921954958
1144.0,0.009288367655649088
1143.0,0.00919010550792997
1142.0,0.009100758894982049
1141.0,0.009021422262256065
1140.0,0.008954429060470191
1139.0,0.008900929031104302
1138.0,0.00886210240085892
1137.0,0.00883856136791161
1136.0,0.008827594350605403
1135.0,0.008824508753860994
1134.0,0.008827308257359334
1133.0,0.008836701904459522
1132.0,0.008851576590573751
1131.0,0.008868816034691867
1130.0,0.008888426647336354
1129.0,0.008914707234108131
1128.0,0.008950912617243621
1127.0,0.008995996264258958
1126.0,0.009047471395585076
1125.0,0.009104119504059233
1124.0,0.009165036949524627
1123.0,0.009229409213926858
1122.0,0.009298159406428988
1121.0,0.009372828713011198
1120.0,0.009452782682658185
1119.0,0.009536868179642369
1118.0,0.009626824770155511
1117.0,0.009724221427670935
1116.0,0.009824735622190986
1115.0,0.009921388385143271
1114.0,0.010013475259283042
1113.0,0.010105920295659557
1112.0,0.01019995262665738
1111.0,0.010292422706840039
1110.0,0.010385230822409138
1109.0,0.010486790469516515
1108.0,0.010601745126466684
1107.0,0.010727005295030649
1106.0,0.010858532199035759
1105.0,0.010991978467910512
1104.0,0.011113833615295478
1103.0,0.011202847928192497
1102.0,0.011246660425756937
1101.0,0.011251112867595616
1100.0,0.011229809160647525
1099.0,0.01119492772157557
1098.0,0.011158016674624445
1097.0,0.011128591899801058
1096.0,0.011107860152747387
1095.0,0.011091203875738483
1094.0,0.011079036768334357
1093.0,0.011077073513005032
1092.0,0.011085469232154727
1091.0,0.011097354821106395
1090.0,0.011109709186770707
1089.0,0.011126164738181354
1088.0,0.011147212879227368
1087.0,0.011167554837141234
1086.0,0.01118557029952941
1085.0,0.011205136723036689
1084.0,0.011224964953456772
1083.0,0.011236355668766497
1082.0,0.01123522518086271
1081.0,0.011226960374152396
1080.0,0.011216398659794711
1079.0,0.011202753890599822
1078.0,0.011187130771440632
1077.0,0.011174782346604432
1076.0,0.01116618561722104
1075.0,0.01115482359398105
1074.0,0.011137241881236668
1073.0,0.011117173332300109
1072.0,0.011097423313477246
1071.0,0.011076472184265183
1070.0,0.011055149247756885
1069.0,0.011037561796964308
1068.0,0.011023152680024888
1067.0,0.011006553554564305
1066.0,0.010987382699326908
1065.0,0.010971770807482774
1064.0,0.010962338805989277
1063.0,0.010954958515670335
1062.0,0.010947218628162224
1061.0,0.010942036277790564
1060.0,0.010940923171850275
1059.0,0.01094149719463657
1058.0,0.010943384959413398
1057.0,0.010948869051897216
1056.0,0.010956489166521033
1055.0,0.010962284997448548
1054.0,0.010969040122545317
1053.0,0.010985774187591075
1052.0,0.011015429606599084
1051.0,0.01105200858504223
1050.0,0.01109343555819305
1049.0,0.011146336329079905
1048.0,0.011212530228196113
1047.0,0.011280799777517761
1046.0,0.011335880057246991
1045.0,0.011367036077223402
1044.0,0.011367606809842667
1043.0,0.011337531588042226
1042.0,0.011288698792455393
1041.0,0.01123844520073576
1040.0,0.011195416526511648
1039.0,0.011158279438279448
1038.0,0.011126662533426503
1037.0,0.011103839045868993
1036.0,0.011088468615775629
1035.0,0.011073469250440978
1034.0,0.011055199096052898
1033.0,0.01103577899041375
1032.0,0.01101506694895241
1031.0,0.010988654839949798
1030.0,0.010955111954025258
1029.0,0.010916791007108392
1028.0,0.01087226225943006
1027.0,0.010816380918391386
1026.0,0.010749158195502833
1025.0,0.01067658521173365
1024.0,0.010601907017863316
1023.0,0.01052410944967423
1022.0,0.01044554129622822
1021.0,0.010372549852730086
1020.0,0.010307150706950539
1019.0,0.01024590602973465
1018.0,0.010188431326872343
1017.0,0.010139510109619502
1016.0,0.010101613864036196
1015.0,0.010073150606797624
1014.0,0.010055874689673554
1013.0,0.01005643965550628
1012.0,0.010077870310754413
1011.0,0.010115753632300698
1010.0,0.010165546061987123
1009.0,0.010228607371372544
1008.0,0.01030958257313154
1007.0,0.010414345475990627
1006.0,0.010553835585191946
1005.0,0.01074597878818683
1004.0,0.0110141094435485
1003.0,0.011389522222206525
1002.0,0.011909337164492507
1001.0,0.012585650904485143
1000.0,0.013351319377679943
999.0,0.014037185521628009
998.0,0.014431344636819698
997.0,0.014391079615794562
996.0,0.013918483654148835
995.0,0.013151048153832674
994.0,0.012284340546797654
993.0,0.01147826031765614
992.0,0.010807755298998063
991.0,0.010278586394586032
990.0,0.009869009000250124
989.0,0.009554563469402476
988.0,0.00931281382771727
987.0,0.009126091859983483
986.0,0.008987186826066796
985.0,0.008899314992588808
984.0,0.008869579175524549
983.0,0.008905380590638008
982.0,0.009017516493397638
981.0,0.00922349046480932
980.0,0.009545047390126423
979.0,0.01000119568208197
978.0,0.010600728386516836
977.0,0.01133344580613496
976.0,0.012155016312328201
975.0,0.01296870960149113
974.0,0.01362268275101155
973.0,0.013942086412533425
972.0,0.013798479232364751
971.0,0.01319015702413015
970.0,0.012267250308121782
969.0,0.011254968957885062
968.0,0.01033565123259621
967.0,0.009591433333496064
966.0,0.009023958460917018
965.0,0.008598400189029262
964.0,0.008272869705915942
963.0,0.00801179538490636
962.0,0.007792051343679966
961.0,0.007601954935579417
960.0,0.00743462948759352
959.0,0.007283837757843088
958.0,0.007145101597587451
957.0,0.007016849671381627
956.0,0.006899393489719043
955.0,0.006794407626102363
954.0,0.006704147876669594
953.0,0.006628170571973236
952.0,0.006561641155110582
951.0,0.006499883551010215
950.0,0.006443862171539035
949.0,0.006398269824787309
948.0,0.006365271830587495
947.0,0.0063436290071880695
946.0,0.006333153394941884
945.0,0.006335782118255686
944.0,0.006351298958354325
943.0,0.006374436371949462
942.0,0.006396101663121303
941.0,0.006404851394011616
940.0,0.006388455351846535
939.0,0.006339938914919276
938.0,0.006264663545397058
937.0,0.006178086974426522
936.0,0.0060947333897393334
935.0,0.006021025910791784
934.0,0.005957189770142334
933.0,0.005901066665773035
932.0,0.00584919574991287
931.0,0.005798716187972821
930.0,0.005750866888461048
929.0,0.005710197078692135
928.0,0.005678691867669942
927.0,0.005653103376997136
926.0,0.005629704672848984
925.0,0.005609231500441352
924.0,0.0055949622130093855
923.0,0.00558784826055236
922.0,0.005585804042419369
921.0,0.005586425158735517
920.0,0.005588285296211122
919.0,0.005590686904853623
918.0,0.0055942430461345775
917.0,0.005600894936345556
916.0,0.005611470834820324
915.0,0.005623734709443986
914.0,0.005634126682879784
913.0,0.005640433147009249
912.0,0.005641510875019125
911.0,0.0056363628442237185
910.0,0.005626319497905505
909.0,0.005617559615694127
908.0,0.005619460867925428
907.0,0.005641214788222457
906.0,0.005691863348292152
905.0,0.00578203204336144
904.0,0.005920701369099444
903.0,0.006106027333374463
902.0,0.006317426008712538
901.0,0.00651537478335022
900.0,0.006649240847582863
899.0,0.0066736025142894164
898.0,0.006570133917247862
897.0,0.006359719594651962
896.0,0.006091834242387554
895.0,0.005819909605153593
894.0,0.005580838346915927
893.0,0.0053888750519524445
892.0,0.0052424907177838
891.0,0.005134369457668311
890.0,0.005057101998247724
889.0,0.005005139145200106
888.0,0.004975412459358377
887.0,0.004966356563964932
886.0,0.0049758834733669224
885.0,0.005001000265895636
884.0,0.005039390496899226
883.0,0.005090433367036751
882.0,0.005154982821304884
881.0,0.005234962973415332
880.0,0.0053317385999402485
879.0,0.005442195019367968
878.0,0.005556616747354398
877.0,0.005663279570138634
876.0,0.005755950156833675
875.0,0.005834785034216458
874.0,0.005897564578448019
873.0,0.005930046207446162
872.0,0.005908782622452447
871.0,0.0058192793499408126
870.0,0.005673596598767704
869.0,0.005507405764242714
868.0,0.0053581543940741504
867.0,0.005245894469389752
866.0,0.005170574528116392
865.0,0.005121818342329891
864.0,0.005089325169404413
863.0,0.005066730236182916
862.0,0.0050508615880886015
861.0,0.005040185575752954
860.0,0.005032861677796796
859.0,0.0050249984392090035
858.0,0.005011924792639234
857.0,0.004992159416206392
856.0,0.004969061203766414
855.0,0.00494817964010847
854.0,0.0049346208873380535
853.0,0.004933182536315767
852.0,0.004948042607153402
851.0,0.004981047258389043
850.0,0.005034109081036688
849.0,0.0051162326705627495
848.0,0.005246658220602012
847.0,0.005454351901668332
846.0,0.00578562178402615
845.0,0.006308221190168874
844.0,0.007067497983675825
843.0,0.00798792193886111
842.0,0.008815781390466071
841.0,0.009221651509724456
840.0,0.009025211211789338
839.0,0.00834003350682582
838.0,0.007484885383280361
837.0,0.0067475468118835015
836.0,0.006235707375942878
835.0,0.0059115795689376445
834.0,0.0057022172541416815
833.0,0.005559496523538462
832.0,0.005456874049769854
831.0,0.00537673417498109
830.0,0.005310741793104753
829.0,0.005256893904252939
828.0,0.005211060467504149
827.0,0.005168760030243568
826.0,0.005133186336833434
825.0,0.005110527635958599
824.0,0.0050984927497501045
823.0,0.005089994375641525
822.0,0.005085753106834474
821.0,0.005092475485715348
820.0,0.0051117011856136345
819.0,0.005140542277427748
818.0,0.00518154375069375
817.0,0.005244772618705878
816.0,0.005341640331156997
815.0,0.005481497637018669
814.0,0.005670723471915904
813.0,0.005905952204588815
812.0,0.006165079289189441
811.0,0.006409348152508743
810.0,0.006598124522377307
809.0,0.006702088920599137
808.0,0.006707649867086963
807.0,0.0066210227545891575
806.0,0.006470766184894877
805.0,0.006296262999994425
804.0,0.006128966861268567
803.0,0.0059862022864484435
802.0,0.00587643889010004
801.0,0.005800190710658435
800.0,0.005746901007813521
799.0,0.005700888567903389
798.0,0.005654128598477934
797.0,0.0056087417135504275
796.0,0.005566714125650867
795.0,0.005524320697451409
794.0,0.005478756794547395
793.0,0.005433424648841089
792.0,0.0053927588242906254
791.0,0.0053560594806266815
790.0,0.005319305557999216
789.0,0.005280091584389861
788.0,0.005239010115005487
787.0,0.005198747763601233
786.0,0.005162635105050677
785.0,0.005131509918104233
784.0,0.005102048833146024
783.0,0.005071264375593182
782.0,0.005042188704794702
781.0,0.005020775641696627
780.0,0.00500705218423634
779.0,0.004994171672562627
778.0,0.004977408242982214
777.0,0.004959702938392074
776.0,0.004946272040313696
775.0,0.0049375091028233285
774.0,0.004929772779962457
773.0,0.004920637601271485
772.0,0.004910990823465601
771.0,0.0049035716507723395
770.0,0.0049009476132109795
769.0,0.004903221168213943
768.0,0.004906721086058809
767.0,0.0049068646349072695
766.0,0.004903481446613711
765.0,0.004901840425503489
764.0,0.004907551811581127
763.0,0.004921557405205698
762.0,0.004939942616105928
761.0,0.004956973793311214
760.0,0.004968550332385259
759.0,0.004974945835933285
758.0,0.004980697230671179
757.0,0.004990045862510263
756.0,0.005002355579745574
755.0,0.005013369308365768
754.0,0.005020052990152675
753.0,0.005022235913449013
752.0,0.005020948630215224
751.0,0.00501852699689929
750.0,0.005019471317363973
749.0,0.0050271997554633815
748.0,0.00503957041525511
747.0,0.0050504361744257735
746.0,0.005055540388025302
745.0,0.00505463544024317
744.0,0.005049265527131841
743.0,0.0050420020127864736
742.0,0.00503650754282811
741.0,0.005033874097039018
740.0,0.005029541529183355
739.0,0.005018267526578987
738.0,0.005001300807656699
737.0,0.004984015026581317
736.0,0.0049680705553314
735.0,0.004952038972099237
734.0,0.004939123483990955
733.0,0.004936888088735661
732.0,0.004947284115682375
731.0,0.004963014613155598
730.0,0.004976634785388601
729.0,0.004988557313994852
728.0,0.005003020730119646
727.0,0.005021212207789818
726.0,0.005042363466414965
725.0,0.005066881931111994
724.0,0.005094110899695757
723.0,0.00512006473220402
722.0,0.0051405403788665404
721.0,0.00515421609674717
720.0,0.005161508566806057
719.0,0.005164204159388089
718.0,0.005167374787481457
717.0,0.005176872434637034
716.0,0.00519293617961194
715.0,0.005209238278831994
714.0,0.005220176411462178
713.0,0.005226848029025989
712.0,0.0052337737001957214
711.0,0.005242934667014059
710.0,0.005253145594530687
709.0,0.005262390173230744
708.0,0.005269205842653665
707.0,0.005274621559776077
706.0,0.005284175134576906
705.0,0.005303666183921602
704.0,0.005331264943673034
703.0,0.005358754327562095
702.0,0.0053818746033129534
701.0,0.005403884425737262
700.0,0.0054271868754139155
699.0,0.0054466300303775625
698.0,0.005455049920968546
697.0,0.0054517209430611216
696.0,0.005441613661448916
695.0,0.005429774455296322
694.0,0.005418578225254381
693.0,0.005407514605311423
692.0,0.005394141837951682
691.0,0.005377451494562133
690.0,0.005360980091887999
689.0,0.005348324053211046
688.0,0.005335528196836358
687.0,0.005315489182787287
686.0,0.005290183762935825
685.0,0.005269780760342037
684.0,0.005259387041832322
683.0,0.005254501835622596
682.0,0.00525014508573411
681.0,0.005246745233515124
680.0,0.0052455841128201605
679.0,0.005245725077080763
678.0,0.005247935144350515
677.0,0.005254964291995778
676.0,0.0052621982692951565
675.0,0.005259390245373641
674.0,0.005244542265776704
673.0,0.005226162339845492
672.0,0.005209014174197056
671.0,0.0051860404569404285
670.0,0.005148494254807829
669.0,0.005097859155139533
668.0,0.005065402353073363
667.0,0.005092840477306992
666.0,0.005144148127832104
665.0,0.005171920315188276
664.0,0.005176153421015691
663.0,0.005168800572918372
662.0,0.005162137119058662
661.0,0.005163775752809284
660.0,0.005168528344853432
659.0,0.0051648527430268485
658.0,0.0051523167971157064
657.0,0.005143955999708041
656.0,0.005144392206129289
655.0,0.005141965893459574
654.0,0.005128465787612374
653.0,0.005113424846884553
652.0,0.005109892975874587
651.0,0.005116884420904681
650.0,0.005123904384524152
649.0,0.005124733700007895
648.0,0.005117935859737081
647.0,0.005101491918848038
646.0,0.005075725682000586
645.0,0.005044667648196576
644.0,0.005011460097058763
643.0,0.004980011695554238
642.0,0.004960034187589235
641.0,0.004958674876567635
640.0,0.004965398371473214
639.0,0.004958318781318606
638.0,0.004932007530264954
637.0,0.004905128469230021
636.0,0.004892685412442664
635.0,0.0048874127172767725
634.0,0.004877325607569939
633.0,0.004866232812527202
632.0,0.00486233068131676
631.0,0.0048597380482442555
630.0,0.004845830699970872
629.0,0.004820360386889258
628.0,0.004796079942591307
627.0,0.004783790503972143
626.0,0.004781547789990188
625.0,0.00477338565128263
624.0,0.004739001237353114
623.0,0.004673880270511241
622.0,0.004601094527753203
621.0,0.004548690129494883
620.0,0.004518774588294539
619.0,0.004493406695653371
618.0,0.004465934600471133
617.0,0.004449156181257122
616.0,0.004448676608721926
615.0,0.004451977550516547
614.0,0.0044498024480459
613.0,0.004445633631627431
612.0,0.0044417866395658305
611.0,0.0044400636597408775
610.0,0.004456708499226127
609.0,0.004510432315706288
608.0,0.004588691338487238
607.0,0.004648382320182549
606.0,0.004667474605226642
605.0,0.0046747027430884035
604.0,0.004706638231557209
603.0,0.004761128726425989
602.0,0.004808662108902373
601.0,0.00482802704787296
600.0,0.004812426055782233
599.0,0.0047626834641673905
598.0,0.004695014288184712
597.0,0.0046362162935821285
596.0,0.004601543940813724
595.0,0.004586244913708923
594.0,0.004578066066363063
593.0,0.004570143561862774
592.0,0.004557147789287999
591.0,0.00453779587251997
590.0,0.004525345218001566
589.0,0.004529391647034567
588.0,0.004529656141678739
587.0,0.004492112490375095
586.0,0.004418282680077153
585.0,0.004352399301241278
584.0,0.004322634195618142
583.0,0.00430642439804266
582.0,0.004269390260674913
581.0,0.004213034417057424
580.0,0.004163468114184713
579.0,0.0041374582181462356
578.0,0.004135463890069595
577.0,0.0041418490844001435
576.0,0.004114993730520077
575.0,0.004012974119908199
574.0,0.00386110516196667
573.0,0.0037440307292660904
572.0,0.0037229344132884996
571.0,0.003790672462248784
570.0,0.003885720585013174
569.0,0.003955669918496564
568.0,0.003990224949527222
567.0,0.003993863229200703
566.0,0.003978672436355939
565.0,0.003968064977321056
564.0,0.0039744950232394865
563.0,0.003987219263261799
562.0,0.003994257506481797
561.0,0.0040055205811489435
560.0,0.004033391114496348
559.0,0.004066671908771988
558.0,0.004084257460436222
557.0,0.0040793887648424955
556.0,0.0040512296082554225
555.0,0.003996340849754533
554.0,0.003928852310101727
553.0,0.0038833707413867546
552.0,0.0038793048557461407
551.0,0.003898631198085793
550.0,0.003907323558497783
