cm-1,A
4000.0,0.004193746522060435
3999.0,0.004191317146307745
3998.0,0.004188356525959204
3997.0,0.004186469410309522
3996.0,0.004188490827329874
3995.0,0.004195934624373315
3994.0,0.004207011226843138
3993.0,0.004217505191484701
3992.0,0.00422373049901602
3991.0,0.004225509230450404
3990.0,0.004226223891453119
3989.0,0.004229028798623382
3988.0,0.004233608815327349
3987.0,0.0042366208915653875
3986.0,0.004235881698437818
3985.0,0.004233316061161955
3984.0,0.004232832551550292
3983.0,0.004236631831987768
3982.0,0.004243450131821985
3981.0,0.004250257702198742
3980.0,0.0042550668953489044
3979.0,0.004257653901694197
3978.0,0.004258754770883019
3977.0,0.00425867796786137
3976.0,0.00425698520203803
3975.0,0.004253119572709772
3974.0,0.004247490364933083
3973.0,0.004242304033456379
3972.0,0.004240712400357656
3971.0,0.004244675681226042
3970.0,0.004253332621248185
3969.0,0.004263378547254556
3968.0,0.0042713326669532835
3967.0,0.004275693136766571
3966.0,0.004277136426910464
3965.0,0.004276947124433737
3964.0,0.0042752692291811376
3963.0,0.004271259917214153
3962.0,0.004264739210779581
3961.0,0.004257685282914014
3960.0,0.00425343836612007
3959.0,0.004253895540332262
3958.0,0.004257895217126202
3957.0,0.004262371942047394
3956.0,0.004264665876829131
3955.0,0.004264210062434572
3954.0,0.004262310732063696
3953.0,0.004261600196118641
3952.0,0.004264100949655196
3951.0,0.004268973826583306
3950.0,0.004272174188995895
3949.0,0.004268522891482005
3948.0,0.004257910177031074
3947.0,0.0042483869638778125
3946.0,0.004250693921637291
3945.0,0.004268325062308976
3944.0,0.004291867041043848
3943.0,0.004305949803138958
3942.0,0.004303603540929912
3941.0,0.004293773956603752
3940.0,0.004291468705633938
3939.0,0.00430011994044774
3938.0,0.004310937982685644
3937.0,0.004316065384526287
3936.0,0.004316278586294707
3935.0,0.004317745220950584
3934.0,0.004323522918194532
3933.0,0.004330112706327362
3932.0,0.004330469618214936
3931.0,0.004321794341095789
3930.0,0.004309651715942489
3929.0,0.004303628033643269
3928.0,0.004309731761317676
3927.0,0.004325812636408959
3926.0,0.004342052229328654
3925.0,0.0043459578228503565
3924.0,0.00433415560051624
3923.0,0.004317832008282592
3922.0,0.004310164534981582
3921.0,0.00431284087939718
3920.0,0.004319457033609376
3919.0,0.0043267390364539315
3918.0,0.004334636541917503
3917.0,0.004341077048291236
3916.0,0.004345040501523368
3915.0,0.004350809972442695
3914.0,0.0043632243736857895
3913.0,0.00438034251904987
3912.0,0.004394958505665058
3911.0,0.004401842325146538
3910.0,0.0043991078435457725
3909.0,0.004386856701103718
3908.0,0.004365588837933164
3907.0,0.0043376950496535095
3906.0,0.004306245715684479
3905.0,0.004272835575067652
3904.0,0.00423664741723642
3903.0,0.004203198204766705
3902.0,0.004189283926177149
3901.0,0.004204439083633157
3900.0,0.004235824272203906
3899.0,0.0042629480658289125
3898.0,0.004280063865659822
3897.0,0.004295113920648904
3896.0,0.004311210519365649
3895.0,0.0043220769170849525
3894.0,0.004327078305200873
3893.0,0.004332988059129345
3892.0,0.00433699885289514
3891.0,0.004324991385206662
3890.0,0.004299378676780385
3889.0,0.004286594741684082
3888.0,0.004297723801535246
3887.0,0.004316303098360556
3886.0,0.004318507974474323
3885.0,0.004292345918937063
3884.0,0.004257486823887999
3883.0,0.0042494960266297125
3882.0,0.0042729338515861
3881.0,0.004301135810367902
3880.0,0.004307816444905932
3879.0,0.004294711129981588
3878.0,0.004290966212727523
3877.0,0.004310760164486253
3876.0,0.004335581456756865
3875.0,0.004341515324225435
3874.0,0.004318985397798512
3873.0,0.004283023610044362
3872.0,0.004263887138079352
3871.0,0.004270994843663712
3870.0,0.004277881396502369
3869.0,0.00425911636687765
3868.0,0.004235112804414985
3867.0,0.004239447555416961
3866.0,0.004264546177423744
3865.0,0.004285721306395819
3864.0,0.0042946025290333135
3863.0,0.0042975056901658915
3862.0,0.004304818335011556
3861.0,0.004315571164552278
3860.0,0.004317230812238571
3859.0,0.004298851304135747
3858.0,0.004254055856109058
3857.0,0.004188256279887768
3856.0,0.004125359763378913
3855.0,0.004108930147825669
3854.0,0.004152906973749627
3853.0,0.0041820562635458795
3852.0,0.004162979750059976
3851.0,0.004178031433889985
3850.0,0.004250106552968455
3849.0,0.004320119937073271
3848.0,0.0043545695781400245
3847.0,0.004360095196764352
3846.0,0.004351015481532441
3845.0,0.00433351633989073
3844.0,0.004308226874831536
3843.0,0.004274313527403659
3842.0,0.00423610557029395
3841.0,0.004201938971268678
3840.0,0.004175156295284866
3839.0,0.00415493316525182
3838.0,0.004142171294840273
3837.0,0.0041434029196145
3836.0,0.004164351077889702
3835.0,0.004202143933670984
3834.0,0.004243767580019928
3833.0,0.00427717243923716
3832.0,0.004299062191018262
3831.0,0.004314819576160363
3830.0,0.004335233457403837
3829.0,0.00436598635923497
3828.0,0.004396394756074911
3827.0,0.004404530969561921
3826.0,0.004377130145616132
3825.0,0.004326334368815657
3824.0,0.004278866282067882
3823.0,0.0042541673901308275
3822.0,0.004250781234063566
3821.0,0.004237862204992987
3820.0,0.00419677480196535
3819.0,0.004173552760840516
3818.0,0.004207127669072533
3817.0,0.004275159019279946
3816.0,0.004334696024693951
3815.0,0.0043619917533012234
3814.0,0.0043779925650342675
3813.0,0.004407529790936938
3812.0,0.004433340304539757
3811.0,0.0044300411145801405
3810.0,0.00440339614033626
3809.0,0.004375864852983813
3808.0,0.004357383648236223
3807.0,0.004331844848753548
3806.0,0.004284520355888648
3805.0,0.00423732122337219
3804.0,0.004217761469738764
3803.0,0.0042238162846834106
3802.0,0.004238131864832894
3801.0,0.004234835539847962
3800.0,0.004217356735637534
3799.0,0.004227805898841454
3798.0,0.004272524073856012
3797.0,0.0043196555865923905
3796.0,0.004350247903680363
3795.0,0.00437001669587332
3794.0,0.004394401789184001
3793.0,0.004425773023054879
3792.0,0.00445175270316702
3791.0,0.0044633303886500945
3790.0,0.00446330760187503
3789.0,0.004458176967679943
3788.0,0.004451956557764203
3787.0,0.004445934394562178
3786.0,0.0044388553046952155
3785.0,0.004426525166073328
3784.0,0.004407334109320622
3783.0,0.004387756405369745
3782.0,0.0043772021357877736
3781.0,0.004377156538506618
3780.0,0.004379985667794929
3779.0,0.004378040060228929
3778.0,0.004376481542243052
3777.0,0.004390309305183365
3776.0,0.00441933990898743
3775.0,0.004443567751043552
3774.0,0.004447253840024098
3773.0,0.004434110504566633
3772.0,0.0044172538454134835
3771.0,0.004402675704780286
3770.0,0.004385383906010608
3769.0,0.004364658039586968
3768.0,0.004355579064561578
3767.0,0.004368428849981817
3766.0,0.004388996722276079
3765.0,0.0043958912212759245
3764.0,0.004386545521141974
3763.0,0.004377632360085008
3762.0,0.0043807071144034366
3761.0,0.004390298507034012
3760.0,0.004394476857612729
3759.0,0.0043826114862012275
3758.0,0.004352781916779885
3757.0,0.004314167913818094
3756.0,0.004276626774755009
3755.0,0.0042436265069187885
3754.0,0.004214037332747373
3753.0,0.0041906230823766715
3752.0,0.004180942199567243
3751.0,0.004179697575662733
3750.0,0.004168135824346067
3749.0,0.004149141032602186
3748.0,0.004146726074865843
3747.0,0.00417007196104511
3746.0,0.004212439045931766
3745.0,0.004261100348645078
3744.0,0.004277055393789452
3743.0,0.004258299580252539
3742.0,0.004270155298182609
3741.0,0.004315314574939567
3740.0,0.004334484407863845
3739.0,0.004311303731507399
3738.0,0.0042746498355783645
3737.0,0.004252846758848011
3736.0,0.00424177467043543
3735.0,0.004220438740767481
3734.0,0.004197419969811978
3733.0,0.004205472822763532
3732.0,0.004252540271314162
3731.0,0.004318636162459043
3730.0,0.0043853457958594995
3729.0,0.004440508271254285
3728.0,0.004473179223061085
3727.0,0.00448086136298622
3726.0,0.004472106127194234
3725.0,0.0044612586581704
3724.0,0.004459364919952327
3723.0,0.0044660141302783896
3722.0,0.00447835626300956
3721.0,0.004499662952795706
3720.0,0.004533506640734933
3719.0,0.004573529923488532
3718.0,0.004605677399624446
3717.0,0.004621448653531074
3716.0,0.004623902071468853
3715.0,0.004623615728902497
3714.0,0.004633729277402648
3713.0,0.00466813892623397
3712.0,0.004729005620384985
3711.0,0.004798629322857732
3710.0,0.004868375313798686
3709.0,0.004952404712670864
3708.0,0.005057077668171005
3707.0,0.005170740847200005
3706.0,0.0052812566817580075
3705.0,0.005390607536901775
3704.0,0.00551438938896026
3703.0,0.005668300977511287
3702.0,0.005847442578284031
3701.0,0.006023515109296914
3700.0,0.006176975769982471
3699.0,0.006311674610496892
3698.0,0.006429414326134093
3697.0,0.006515667476695032
3696.0,0.006553398164252782
3695.0,0.006539870070766932
3694.0,0.006485385782478743
3693.0,0.0064020764870087
3692.0,0.00630341283211024
3691.0,0.006210422052347401
3690.0,0.00614271032643611
3689.0,0.006099388553514013
3688.0,0.006066993746532995
3687.0,0.006048711108145786
3686.0,0.006052795200398777
3685.0,0.006065795076383593
3684.0,0.006067229880297778
3683.0,0.006052465123836174
3682.0,0.006028783475137635
3681.0,0.006000377952375709
3680.0,0.0059624361186350824
3679.0,0.005916900857838976
3678.0,0.005886950077696695
3677.0,0.005904026923525809
3676.0,0.00596104605025307
3675.0,0.005993175585055754
3674.0,0.005986456349358744
3673.0,0.006007965920243637
3672.0,0.006081699764155785
3671.0,0.006185363182804594
3670.0,0.00629508793290328
3669.0,0.0063819423396463335
3668.0,0.006453039599007853
3667.0,0.006538472903552681
3666.0,0.006636949810023706
3665.0,0.0067331359000219766
3664.0,0.006822191955966074
3663.0,0.006903269727023251
3662.0,0.006971380090034344
3661.0,0.007021304642280816
3660.0,0.007056975712247834
3659.0,0.007095632616856048
3658.0,0.007158357647457677
3657.0,0.007246270276459682
3656.0,0.007327590246915249
3655.0,0.007373397507532286
3654.0,0.007393189697653327
3653.0,0.007405758286257074
3652.0,0.007424026344091771
3651.0,0.007476573618492615
3650.0,0.00758240004476618
3649.0,0.007707963553295479
3648.0,0.00781122722897898
3647.0,0.00789759401035714
3646.0,0.007991362380998695
3645.0,0.00810024216818114
3644.0,0.008216779124241229
3643.0,0.008329480032604943
3642.0,0.008430807028092476
3641.0,0.008521539414909867
3640.0,0.00860761600374995
3639.0,0.008691953873761185
3638.0,0.00877093093049357
3637.0,0.008843322186967683
3636.0,0.008914338938692536
3635.0,0.008984920769462045
3634.0,0.00904500119917604
3633.0,0.0090864926855275
3632.0,0.009123332701779306
3631.0,0.009192710650134632
3630.0,0.009334842601669864
3629.0,0.009528062264099217
3628.0,0.009688176071520513
3627.0,0.009809266711352646
3626.0,0.009949039749373553
3625.0,0.010107365806186742
3624.0,0.010254733321966778
3623.0,0.010383700907433756
3622.0,0.010505750779836504
3621.0,0.01063265399211702
3620.0,0.010758620531583407
3619.0,0.010857537004887926
3618.0,0.010915350491995128
3617.0,0.010954569689495782
3616.0,0.011001593207762724
3615.0,0.011059185884668027
3614.0,0.011116657479559675
3613.0,0.011165462779275121
3612.0,0.011211149519379363
3611.0,0.011273667617680434
3610.0,0.011369249649919335
3609.0,0.011491658769433845
3608.0,0.01161575145336887
3607.0,0.011722475857989047
3606.0,0.011816168842975374
3605.0,0.011907563763186095
3604.0,0.011997030169955101
3603.0,0.012083118084468268
3602.0,0.012168712515834696
3601.0,0.012253054621794124
3600.0,0.012329232882485119
3599.0,0.0123961863655642
3598.0,0.012464100524598001
3597.0,0.01254336606249816
3596.0,0.012632722511278732
3595.0,0.012719960369990301
3594.0,0.012793728234000388
3593.0,0.012852742313691119
3592.0,0.012904633691127664
3591.0,0.012959725049135992
3590.0,0.013032410360362085
3589.0,0.013137241313317779
3588.0,0.013265834844177277
3587.0,0.013382749951045762
3586.0,0.013473950740689813
3585.0,0.01356258730610789
3584.0,0.013664715989797196
3583.0,0.013774126073610123
3582.0,0.013883127250610049
3581.0,0.013990918793801856
3580.0,0.014097715387354624
3579.0,0.014203301025850028
3578.0,0.014310584099386153
3577.0,0.014423048588847829
3576.0,0.014538783419946234
3575.0,0.014649898816292944
3574.0,0.014749074590970412
3573.0,0.014833324079886329
3572.0,0.014903681560389216
3571.0,0.01496711119217416
3570.0,0.015039085970128544
3569.0,0.015138012370695644
3568.0,0.015264372600408888
3567.0,0.015388116439987762
3566.0,0.01548471469900918
3565.0,0.015570962000828463
3564.0,0.01567414433947983
3563.0,0.015797494924611896
3562.0,0.015929377314576058
3561.0,0.016059584544992574
3560.0,0.01618200829647291
3559.0,0.016294149459914493
3558.0,0.016398244019015965
3557.0,0.016498518351332363
3556.0,0.01659809930170568
3555.0,0.016700301306815005
3554.0,0.01680899928472385
3553.0,0.016923429214906856
3552.0,0.017034967251872837
3551.0,0.017137202320535304
3550.0,0.017235753480457656
3549.0,0.01734259571073551
3548.0,0.017463776141797317
3547.0,0.01759349001182843
3546.0,0.017718573963305593
3545.0,0.017831026344556116
3544.0,0.01793548826482621
3543.0,0.018042228427487404
3542.0,0.01815542369589317
3541.0,0.018270484191056334
3540.0,0.01838125585126985
3539.0,0.018488118183206875
3538.0,0.01859741050138829
3537.0,0.018712509420167556
3536.0,0.018828390171073506
3535.0,0.018938927238517256
3534.0,0.019044732277861267
3533.0,0.019149878852775113
3532.0,0.019256160909685047
3531.0,0.01936429357050938
3530.0,0.019476840073681334
3529.0,0.019593453866219253
3528.0,0.01970684351811709
3527.0,0.0198105060650615
3526.0,0.01990863660307043
3525.0,0.0200110556433307
3524.0,0.02011974053981884
3523.0,0.02022705092794645
3522.0,0.020328048198555188
3521.0,0.0204273188620828
3520.0,0.020531774080271233
3519.0,0.020643106914079484
3518.0,0.020758835206413497
3517.0,0.020876164901951606
3516.0,0.020992175212853615
3515.0,0.02110363930798895
3514.0,0.02120985127073856
3513.0,0.02131429630484508
3512.0,0.021421522796506724
3511.0,0.02153205876685123
3510.0,0.021641265616122975
3509.0,0.02174346769204157
3508.0,0.021838166077238576
3507.0,0.02193213073682371
3506.0,0.022034423434571595
3505.0,0.022148708491882014
3504.0,0.022269946688816933
3503.0,0.02238851708803286
3502.0,0.02249895810850385
3501.0,0.0226036321900751
3500.0,0.0227076612348944
3499.0,0.022813924773476896
3498.0,0.02292229608406747
3497.0,0.023029612225992174
3496.0,0.02313193872118186
3495.0,0.023229551413989268
3494.0,0.02332787634805407
3493.0,0.023431409729852536
3492.0,0.023538719823742164
3491.0,0.02364553811432865
3490.0,0.023750151437822886
3489.0,0.023852583532211685
3488.0,0.023951230574919685
3487.0,0.024045058868080848
3486.0,0.024138086183721316
3485.0,0.02423725757221642
3484.0,0.02434565459343433
3483.0,0.024459948354309712
3482.0,0.02457382442146931
3481.0,0.024682631661329543
3480.0,0.024786170564510702
3479.0,0.024888743380587962
3478.0,0.02499528110162941
3477.0,0.025105449389465906
3476.0,0.02521268686625926
3475.0,0.025310818212119456
3474.0,0.025400845352800634
3473.0,0.025489636705177454
3472.0,0.02558340001764982
3471.0,0.025684360882447337
3470.0,0.025791391869332853
3469.0,0.02590065244711623
3468.0,0.026007403044583117
3467.0,0.02611035743236482
3466.0,0.026212963842900113
3465.0,0.02631808444134204
3464.0,0.02642325930884457
3463.0,0.026523804856262177
3462.0,0.02661855136334158
3461.0,0.02670993472818418
3460.0,0.026800517249436783
3459.0,0.026892354233882584
3458.0,0.026987361507056485
3457.0,0.02708492076641365
3456.0,0.02718129458606629
3455.0,0.02727466465672623
3454.0,0.027368024979747444
3453.0,0.02746367048677224
3452.0,0.027558107877588733
3451.0,0.02764719597076343
3450.0,0.02773386463187459
3449.0,0.027824702458842564
3448.0,0.027919813633509562
3447.0,0.028011183783102914
3446.0,0.028092592874869413
3445.0,0.028166551946430914
3444.0,0.028239921654814423
3443.0,0.028317715902885697
3442.0,0.028401611887417848
3441.0,0.02848969157332242
3440.0,0.028577484093902757
3439.0,0.02866199183017245
3438.0,0.02874433305698401
3437.0,0.028827174564789768
3436.0,0.028910902633983535
3435.0,0.028994106255062352
3434.0,0.02907568396115122
3433.0,0.029153851556736533
3432.0,0.029225326737540108
3431.0,0.029289011815106965
3430.0,0.029349406679315113
3429.0,0.02941287663721818
3428.0,0.029481280480090438
3427.0,0.02955124852628053
3426.0,0.029618547347383332
3425.0,0.029681116876914382
3424.0,0.029739853312599596
3423.0,0.029799076007713726
3422.0,0.029864307459634226
3421.0,0.029936621148134515
3420.0,0.030010251664408773
3419.0,0.030078141609005467
3418.0,0.03013858157719386
3417.0,0.030195242835330746
3416.0,0.030252869654006087
3415.0,0.03031398226701658
3414.0,0.030377366278147917
3413.0,0.030438323490700157
3412.0,0.03049241372859167
3411.0,0.030540178813976228
3410.0,0.030586355846439053
3409.0,0.030633867099935472
3408.0,0.03068163307568572
3407.0,0.030729085208479057
3406.0,0.030778489210607662
3405.0,0.030830698118006324
3404.0,0.03088249377130866
3403.0,0.030931047780487456
3402.0,0.03097780352267343
3401.0,0.031024778982040757
3400.0,0.031069584862506286
3399.0,0.03110764713138576
3398.0,0.03113804401965136
3397.0,0.031164700549549777
3396.0,0.03119330552231408
3395.0,0.03122841202014629
3394.0,0.03127114153782648
3393.0,0.03131726363609393
3392.0,0.03135942547417377
3391.0,0.03139365613169118
3390.0,0.03142225007764966
3389.0,0.03144956453442759
3388.0,0.03147787141000788
3387.0,0.03150805818874765
3386.0,0.031540389432110405
3385.0,0.031572389605652104
3384.0,0.031599336372986925
3383.0,0.0316197729357693
3382.0,0.031637969715363055
3381.0,0.03165880143355783
3380.0,0.0316828215360809
3379.0,0.03170801630985228
3378.0,0.03173322274149667
3377.0,0.031757064960305344
3376.0,0.031776645757503615
3375.0,0.03179067713676098
3374.0,0.03180183008791039
3373.0,0.031813064236761855
3372.0,0.03182366661106432
3371.0,0.03183152521713322
3370.0,0.03183720592154171
3369.0,0.03184292669579633
3368.0,0.03184913638659248
3367.0,0.031854988377440635
3366.0,0.03186071393767162
3365.0,0.03186681809332745
3364.0,0.031872089154413086
3363.0,0.031874610358022075
3362.0,0.0318737805689369
3361.0,0.03187027690435426
3360.0,0.03186578713978147
3359.0,0.03186333117012534
3358.0,0.03186460200841785
3357.0,0.03186553979991543
3356.0,0.031858523961147606
3355.0,0.03184178263839393
3354.0,0.031823128470037786
3353.0,0.03181125296900276
3352.0,0.031806265960608524
3351.0,0.03180169341136243
3350.0,0.031792824872234754
3349.0,0.03177945883758639
3348.0,0.03176305091766496
3347.0,0.031745633311273516
3346.0,0.031730049627823616
3345.0,0.03171707511261293
3344.0,0.03170286512446973
3343.0,0.031682623140485165
3342.0,0.03165629977211682
3341.0,0.03162838173050848
3340.0,0.03160334465859077
3339.0,0.031583652980326664
3338.0,0.03157033238119782
3337.0,0.03156145986544298
3336.0,0.03155060575557581
3335.0,0.031530885355494594
3334.0,0.03150181785154277
3333.0,0.03147009389854071
3332.0,0.03144294216096786
3331.0,0.031421895086948294
3330.0,0.03140273071052366
3329.0,0.031380197406745636
3328.0,0.031352878249311725
3327.0,0.03132428226009305
3326.0,0.03129911437206858
3325.0,0.031278595112480774
3324.0,0.03126021946836833
3323.0,0.031241402093054586
3322.0,0.031221251951001346
3321.0,0.031198954197770502
3320.0,0.03117342869142524
3319.0,0.03114573649023518
3318.0,0.0311193972168426
3317.0,0.031096721868522123
3316.0,0.031076409570578792
3315.0,0.031055646886937113
3314.0,0.031032984728106942
3313.0,0.031008792645794467
3312.0,0.030984838423370603
3311.0,0.030963461921478343
3310.0,0.03094458860740621
3309.0,0.03092360755238123
3308.0,0.030896047542509714
3307.0,0.030865203399709523
3306.0,0.03084066932454395
3305.0,0.030826908913093774
3304.0,0.03081670305612052
3303.0,0.0307988115011458
3302.0,0.03076986965297563
3301.0,0.030736234567411737
3300.0,0.030706080458450725
3299.0,0.03068208949216978
3298.0,0.030660253625669646
3297.0,0.030633968491563815
3296.0,0.03060076399032386
3295.0,0.030566032318158624
3294.0,0.030538094762645067
3293.0,0.03051852055175061
3292.0,0.03049985173091442
3291.0,0.030474366112285288
3290.0,0.03044240185126372
3289.0,0.030410263452086306
3288.0,0.030382838475818318
3287.0,0.03036051741829266
3286.0,0.030340551548533386
3285.0,0.030318411743416387
3284.0,0.03028959247600988
3283.0,0.030252970416685093
3282.0,0.03021186207897833
3281.0,0.030170416149407492
3280.0,0.03013006063778216
3279.0,0.03009014915841795
3278.0,0.030049747853640597
3277.0,0.030007336456733855
3276.0,0.029961018909109884
3275.0,0.02991104520063894
3274.0,0.029860507433343446
3273.0,0.0298119886312048
3272.0,0.02976502340463144
3271.0,0.029717677970952303
3270.0,0.029668438963389283
3269.0,0.029615708397984157
3268.0,0.02955823051049373
3267.0,0.02949758483502446
3266.0,0.029437895343619215
3265.0,0.0293815230304644
3264.0,0.029327096812964866
3263.0,0.029272567351257432
3262.0,0.029217328518511054
3261.0,0.02915991981788065
3260.0,0.029096854295642724
3259.0,0.029026432439257788
3258.0,0.028951992088709272
3257.0,0.02887946063940881
3256.0,0.028813011387745384
3255.0,0.02875388853480206
3254.0,0.028700653949963788
3253.0,0.028648947670143154
3252.0,0.028593408890802637
3251.0,0.028531529791914388
3250.0,0.028463999761183176
3249.0,0.028391275216464843
3248.0,0.028313466162114633
3247.0,0.028234539108854647
3246.0,0.028161969026513686
3245.0,0.028099091419120086
3244.0,0.028041343351453144
3243.0,0.027983159130756864
3242.0,0.02792463597816517
3241.0,0.027867437547129816
3240.0,0.02780794494310987
3239.0,0.027740186161895417
3238.0,0.02766445634150505
3237.0,0.027588208059498465
3236.0,0.02751820480175627
3235.0,0.02745501394630222
3234.0,0.027394720450267508
3233.0,0.027332722711989048
3232.0,0.027265939874272626
3231.0,0.027194482141801413
3230.0,0.02712172046627423
3229.0,0.02705069152221434
3228.0,0.026980542911136204
3227.0,0.026908362934762137
3226.0,0.026833945270641472
3225.0,0.026760344470342062
3224.0,0.026689767662867247
3223.0,0.026621066260983407
3222.0,0.026551681400914542
3221.0,0.026480489755752314
3220.0,0.02640819696978007
3219.0,0.026335801054078255
3218.0,0.026263171444309487
3217.0,0.02618901811516034
3216.0,0.02611250367774663
3215.0,0.02603485805900134
3214.0,0.02595831417538082
3213.0,0.025883219809506666
3212.0,0.025807704433145572
3211.0,0.025730721307577538
3210.0,0.025653650691362124
3209.0,0.02557805148477637
3208.0,0.02550365129647734
3207.0,0.02542963342894716
3206.0,0.025356010743875453
3205.0,0.025282281220098218
3204.0,0.025206625076245437
3203.0,0.025128322975805445
3202.0,0.025049536879174186
3201.0,0.024972676058569888
3200.0,0.02489687750358168
3199.0,0.02481867635357448
3198.0,0.024735465109648695
3197.0,0.024647296848628156
3196.0,0.024556435833658873
3195.0,0.02446640374248264
3194.0,0.02438019013897095
3193.0,0.024297848915936865
3192.0,0.02421644517673104
3191.0,0.024133307236739187
3190.0,0.024048546025332997
3189.0,0.023963734097772988
3188.0,0.023879518840263497
3187.0,0.023795567254000647
3186.0,0.023711521113415047
3185.0,0.02362668092841658
3184.0,0.023539869088668498
3183.0,0.023450729496253323
3182.0,0.023360069996073762
3181.0,0.023268265500055417
3180.0,0.023175116691781954
3179.0,0.023082323054829365
3178.0,0.022993875004672103
3177.0,0.022912034574384777
3176.0,0.02283404097205883
3175.0,0.02275426591735058
3174.0,0.022668772570348144
3173.0,0.022577208698650642
3172.0,0.022482078916785633
3171.0,0.02238737953351463
3170.0,0.02229612032493959
3169.0,0.02220747806476537
3168.0,0.022117747676094136
3167.0,0.02202538209783155
3166.0,0.02193340488015527
3165.0,0.021845432890309387
3164.0,0.021761114245760955
3163.0,0.021677155092027257
3162.0,0.02159139771059958
3161.0,0.021504130856944553
3160.0,0.0214167553292625
3159.0,0.021331217132707306
3158.0,0.02124957060325482
3157.0,0.021171888206430716
3156.0,0.021095093525153964
3155.0,0.021015356542826165
3154.0,0.020931213528271535
3153.0,0.020843885094178956
3152.0,0.02075595555526024
3151.0,0.02067040535790723
3150.0,0.02058905051646471
3149.0,0.020510553564272237
3148.0,0.020431573305709685
3147.0,0.02035119676031443
3146.0,0.020272347257807962
3145.0,0.02019730288650132
3144.0,0.020123800849167133
3143.0,0.02004748736915811
3142.0,0.01996665971025304
3141.0,0.019882918872233223
3140.0,0.019798709666896067
3139.0,0.019716206341709782
3138.0,0.01963730974947137
3137.0,0.019562427344869557
3136.0,0.01948997196561123
3135.0,0.0194185589110295
3134.0,0.01934852483520059
3133.0,0.019279823394410704
3132.0,0.019209923891378742
3131.0,0.019136097711527373
3130.0,0.019059052943755896
3129.0,0.018982303661824098
3128.0,0.0189084822844618
3127.0,0.018837651626795182
3126.0,0.018768353774609947
3125.0,0.01869899746900093
3124.0,0.01862922305423693
3123.0,0.01856119442633353
3122.0,0.01849830901477188
3121.0,0.018441099142341214
3120.0,0.018385437150991984
3119.0,0.018325972930141245
3118.0,0.018260614735360486
3117.0,0.018191658607569976
3116.0,0.018124378159899084
3115.0,0.018064803160825194
3114.0,0.018015768524952874
3113.0,0.01797296556156736
3112.0,0.01792755162043858
3111.0,0.017874981692004206
3110.0,0.017819225336936396
3109.0,0.017766725044838585
3108.0,0.017718495892143128
3107.0,0.01767077487250607
3106.0,0.01762093020868811
3105.0,0.017568966681309396
3104.0,0.01751546770561103
3103.0,0.017461784675218153
3102.0,0.017411074607952607
3101.0,0.017365790390703517
3100.0,0.01732431987782741
3099.0,0.01728285115198575
3098.0,0.017240014728531875
3097.0,0.01719746373741526
3096.0,0.01715703630861197
3095.0,0.017119355334261583
3094.0,0.01708428948476503
3093.0,0.017050492520519978
3092.0,0.017015242802909853
3091.0,0.01697713264976864
3090.0,0.0169377597128963
3089.0,0.01689873435924828
3088.0,0.01685842637246282
3087.0,0.01681444143147213
3086.0,0.016768131239750024
3085.0,0.016722923123359462
3084.0,0.016678979470006534
3083.0,0.016632879338944227
3082.0,0.016582906741553667
3081.0,0.01653191065360668
3080.0,0.016483837123622017
3079.0,0.01643949059957695
3078.0,0.016396093541356394
3077.0,0.016349474775725584
3076.0,0.01629674593390465
3075.0,0.01623878020828391
3074.0,0.016180426293533043
3073.0,0.01612678111360957
3072.0,0.016079225067506076
3071.0,0.016035716991900265
3070.0,0.01599376873643245
3069.0,0.01595103004645517
3068.0,0.015904052982157513
3067.0,0.015849888097935128
3066.0,0.015789617649367708
3065.0,0.015728346198278453
3064.0,0.01567062474375307
3063.0,0.015617007558397147
3062.0,0.015565364128008217
3061.0,0.0155141094610976
3060.0,0.01546351001979572
3059.0,0.015414249383185166
3058.0,0.015365054848485472
3057.0,0.015312469341725587
3056.0,0.015254148671257139
3055.0,0.015192749242700341
3054.0,0.015134808261204235
3053.0,0.015084347509520597
3052.0,0.015039187117417273
3051.0,0.014994458570502849
3050.0,0.014948030640134863
3049.0,0.01490089105824734
3048.0,0.014853782036532759
3047.0,0.01480631492441864
3046.0,0.0147584917913431
3045.0,0.014710435958141133
3044.0,0.014660699997946069
3043.0,0.014607351952817111
3042.0,0.014551334894935184
3041.0,0.014496925550050034
3040.0,0.014448061724496603
3039.0,0.014404775217664843
3038.0,0.014363467538155938
3037.0,0.014319982349209708
3036.0,0.014272651285527377
3035.0,0.014223280722237552
3034.0,0.014175000134321936
3033.0,0.014129054203651265
3032.0,0.01408423212014728
3031.0,0.014039133765223678
3030.0,0.013993315403472276
3029.0,0.01394584701934539
3028.0,0.013895364927681533
3027.0,0.013843089062190655
3026.0,0.013793311865112533
3025.0,0.013748236735214997
3024.0,0.013704607278896129
3023.0,0.013658249682065254
3022.0,0.013610334503888998
3021.0,0.013565521406556808
3020.0,0.013524793614714667
3019.0,0.013484214798600794
3018.0,0.013440530863566186
3017.0,0.013394630014725049
3016.0,0.01334867530338835
3015.0,0.01330320152880594
3014.0,0.013258491358911044
3013.0,0.01321633318344605
3012.0,0.0131785095272877
3011.0,0.013144615474676538
3010.0,0.013112467338945891
3009.0,0.013079868230951018
3008.0,0.01304565155504341
3007.0,0.01301001263665244
3006.0,0.012974442539075356
3005.0,0.012940622944578272
3004.0,0.012909151505217003
3003.0,0.01287969190051311
3002.0,0.012851655183810174
3001.0,0.01282396084081826
3000.0,0.01279526344335001
2999.0,0.012766084803046572
2998.0,0.012740124433050962
2997.0,0.012721166925665795
2996.0,0.01270864064369412
2995.0,0.012698301765710405
2994.0,0.01268776144781076
2993.0,0.0126793557305102
2992.0,0.012676348566096047
2991.0,0.012678272141746192
2990.0,0.01268187658045665
2989.0,0.01268588535926599
2988.0,0.012692697954925091
2987.0,0.01270523230081019
2986.0,0.012723835158139222
2985.0,0.012747267513514614
2984.0,0.01277534048959287
2983.0,0.012808590669442113
2982.0,0.012845886744293978
2981.0,0.012885007987484638
2980.0,0.012926950769263762
2979.0,0.012977397289647578
2978.0,0.013041249697078428
2977.0,0.013116841331981847
2976.0,0.013198249224019644
2975.0,0.01328281313140242
2974.0,0.0133733009610462
2973.0,0.013472691679073473
2972.0,0.013580409927664868
2971.0,0.01369485180407935
2970.0,0.013816303028752534
2969.0,0.01394509698548561
2968.0,0.014079185871503943
2967.0,0.01421595973868188
2966.0,0.014354980192726362
2965.0,0.014497352678808372
2964.0,0.0146438968140249
2963.0,0.014795502857045197
2962.0,0.014953010451661253
2961.0,0.015114365996040324
2960.0,0.015273449377545788
2959.0,0.015423968413348397
2958.0,0.015563990008113374
2957.0,0.01569510897463024
2956.0,0.015819300140574602
2955.0,0.015939417718740165
2954.0,0.016061993199316688
2953.0,0.01619684185966512
2952.0,0.016353699900822697
2951.0,0.016540847291597237
2950.0,0.01676723339615959
2949.0,0.017044776021765205
2948.0,0.01738800197808832
2947.0,0.017811898693202325
2946.0,0.018329100434981233
2945.0,0.01894769284674017
2944.0,0.019671753243644077
2943.0,0.020503240778380113
2942.0,0.021443259377467702
2941.0,0.022492820351304482
2940.0,0.02365477283666459
2939.0,0.02493572101784809
2938.0,0.026343823807962772
2937.0,0.027884808306488953
2936.0,0.029563328988869972
2935.0,0.03138859213518755
2934.0,0.033375779439433484
2933.0,0.03554186576354769
2932.0,0.03790274134529488
2931.0,0.0404748388530339
2930.0,0.04327719551423004
2929.0,0.0463334286474861
2928.0,0.049677967196295615
2927.0,0.05336091401167111
2926.0,0.057437351894780476
2925.0,0.06194374121769951
2924.0,0.06687462356379059
2923.0,0.07216613405147915
2922.0,0.07768437930603107
2921.0,0.08322326580864313
2920.0,0.0885114897633587
2919.0,0.09321321455936206
2918.0,0.09693695445993093
2917.0,0.09928987368797601
2916.0,0.09999338611864772
2915.0,0.09899180513367982
2914.0,0.0964747634142729
2913.0,0.09282278727722004
2912.0,0.0884967383271659
2911.0,0.08392707889509717
2910.0,0.07944555818564437
2909.0,0.07526178642562789
2908.0,0.07148465157125261
2907.0,0.06814951765058803
2906.0,0.06524183808033766
2905.0,0.06271887183943381
2904.0,0.060529107284144526
2903.0,0.05862259228315097
2902.0,0.05695001079606759
2901.0,0.0554626213210104
2900.0,0.05411515846325752
2899.0,0.0528692848649007
2898.0,0.05169245311972341
2897.0,0.05055701958120833
2896.0,0.04944258965809625
2895.0,0.0483371355683416
2894.0,0.04723461952520346
2893.0,0.04612989106483101
2892.0,0.045016361733250146
2891.0,0.043887766750667266
2890.0,0.04274175699960084
2889.0,0.041582471642447015
2888.0,0.04041802856171436
2887.0,0.03925453470576893
2886.0,0.03809311797233982
2885.0,0.036932838609241965
2884.0,0.035774752204701075
2883.0,0.03462166917507116
2882.0,0.03347526053221295
2881.0,0.03233615435595795
2880.0,0.031206902641651386
2879.0,0.030094530354754588
2878.0,0.029011086469229067
2877.0,0.02797340983750332
2876.0,0.027001629981156353
2875.0,0.026114789042104583
2874.0,0.025325948802738397
2873.0,0.02464023101057943
2872.0,0.02405729727089453
2871.0,0.02357518161006754
2870.0,0.023194312901920578
2869.0,0.02292118546145398
2868.0,0.02277065202398132
2867.0,0.022764853632051957
2866.0,0.02292939636353826
2865.0,0.023291336367467445
2864.0,0.023882302910056486
2863.0,0.024742216144690618
2862.0,0.025917857084322954
2861.0,0.02745894078276488
2860.0,0.02942018982577609
2859.0,0.03186916913993974
2858.0,0.03489448086606716
2857.0,0.03860330830166698
2856.0,0.043114529074005134
2855.0,0.04853171424461096
2854.0,0.05488868451835868
2853.0,0.062055768532851274
2852.0,0.06962168319440025
2851.0,0.07682768538803489
2850.0,0.08264196963451192
2849.0,0.08606778296362004
2848.0,0.08655525232477218
2847.0,0.08423380403125241
2846.0,0.07977647198853072
2845.0,0.07407256725009181
2844.0,0.06793111729310015
2843.0,0.06193797752059847
2842.0,0.05644083673214004
2841.0,0.05159466889375691
2840.0,0.04742394252558751
2839.0,0.04388038280863356
2838.0,0.0408787783469868
2837.0,0.038327499124616596
2836.0,0.036144842193414545
2835.0,0.03426516460656033
2834.0,0.03263692186306388
2833.0,0.03121546767666379
2832.0,0.029962578821473372
2831.0,0.02884649971452469
2830.0,0.027842807867420515
2829.0,0.026932688890141353
2828.0,0.026102471019793173
2827.0,0.025343269044960256
2826.0,0.02464787461912595
2825.0,0.024007157531566937
2824.0,0.02341116072140869
2823.0,0.022853718578583947
2822.0,0.022334171202211987
2821.0,0.021853110453147785
2820.0,0.021408271165100756
2819.0,0.020995116701879448
2818.0,0.020609085831608608
2817.0,0.020245741578400943
2816.0,0.019900498224162812
2815.0,0.01957042772455385
2814.0,0.01925563406914445
2813.0,0.018957451267195
2812.0,0.018675996778648802
2811.0,0.018409801587974523
2810.0,0.018156420810233595
2809.0,0.017912596076692062
2808.0,0.01767553856535073
2807.0,0.017445400417960583
2806.0,0.0172250551711144
2805.0,0.01701597713005581
2804.0,0.016815880052219758
2803.0,0.016621645938324613
2802.0,0.016432587230824098
2801.0,0.01624914210597255
2800.0,0.016070187788651418
2799.0,0.01589420322734682
2798.0,0.015722096840805565
2797.0,0.015556373361045171
2796.0,0.015397728949765335
2795.0,0.015244117705789928
2794.0,0.015092771277356712
2793.0,0.014941776662687006
2792.0,0.014790304865977336
2791.0,0.01463910872172626
2790.0,0.01449057341081766
2789.0,0.014346692537891073
2788.0,0.014207104659343099
2787.0,0.014069890220684899
2786.0,0.01393365493511465
2785.0,0.013798269689315816
2784.0,0.013664636299954047
2783.0,0.013534870395727129
2782.0,0.013411746611620133
2781.0,0.013296375676496634
2780.0,0.013186859152403313
2779.0,0.013080035458854658
2778.0,0.012973732065576784
2777.0,0.012867219256548343
2776.0,0.012761440830886947
2775.0,0.012659720082722228
2774.0,0.012565941333977534
2773.0,0.012480076350652135
2772.0,0.012397150643139437
2771.0,0.012312637978095654
2770.0,0.012227451563383042
2769.0,0.012145462123002182
2768.0,0.01206772553300334
2767.0,0.011991858434052137
2766.0,0.011916134763800275
2765.0,0.011841376560895055
2764.0,0.011769027806853717
2763.0,0.011699577134697877
2762.0,0.011632739223545753
2761.0,0.011567556034359003
2760.0,0.011502701238503426
2759.0,0.01143818951796137
2758.0,0.011376058553637497
2757.0,0.011317728933102933
2756.0,0.011261589428352016
2755.0,0.01120508451521715
2754.0,0.011148433354268314
2753.0,0.01109413143705544
2752.0,0.011043205532725926
2751.0,0.010993961291020258
2750.0,0.010944523241775445
2749.0,0.010895064601343088
2748.0,0.01084758584823793
2747.0,0.010804753480912255
2746.0,0.010768300557555897
2745.0,0.010737036651291148
2744.0,0.01070674275742439
2743.0,0.01067348819251509
2742.0,0.01063689077355558
2741.0,0.010599263504664837
2740.0,0.010562296003910768
2739.0,0.010525924783669309
2738.0,0.01048962247519161
2737.0,0.010452952849926058
2736.0,0.010415007485370595
2735.0,0.0103748351110366
2734.0,0.010332543688360351
2733.0,0.010289015125849814
2732.0,0.010244739710261623
2731.0,0.010199881337696061
2730.0,0.010155206004946116
2729.0,0.010111992269338867
2728.0,0.010071132398869845
2727.0,0.010032609760141297
2726.0,0.009995414805541168
2725.0,0.009957798511957999
2724.0,0.009918488964954005
2723.0,0.00987803018718791
2722.0,0.009838045384646199
2721.0,0.00979928952120806
2720.0,0.009761743182314373
2719.0,0.009726441338546823
2718.0,0.009694941452312936
2717.0,0.009666248637292266
2716.0,0.009636600560070003
2715.0,0.009603453551640979
2714.0,0.009567910443047906
2713.0,0.009532280548129947
2712.0,0.009497339520014718
2711.0,0.009462993009409356
2710.0,0.00942931305043487
2709.0,0.009395494259001226
2708.0,0.009360012439514266
2707.0,0.009323268213933577
2706.0,0.00928768557429793
2705.0,0.009253827929325371
2704.0,0.009219217279130804
2703.0,0.00918283445200807
2702.0,0.00914768325736104
2701.0,0.009116118391496413
2700.0,0.009085586057616038
2699.0,0.009052583771803489
2698.0,0.009018617197889107
2697.0,0.00898829660566916
2696.0,0.008962759297063697
2695.0,0.008938867457990341
2694.0,0.008914454589452466
2693.0,0.008890697372580756
2692.0,0.00886926047999231
2691.0,0.008849924905899241
2690.0,0.008831483101850803
2689.0,0.008812912318491531
2688.0,0.008793525911644905
2687.0,0.008773527406827538
2686.0,0.008754127400952043
2685.0,0.008735827346186479
2684.0,0.008717509853181662
2683.0,0.00869877911729234
2682.0,0.00868187357804983
2681.0,0.008669209578124532
2680.0,0.00865991556987986
2679.0,0.00865099906721392
2678.0,0.00864108855612988
2677.0,0.008631059014310006
2676.0,0.008621959198009151
2675.0,0.008614582698327012
2674.0,0.00861039777192296
2673.0,0.008610386943738883
2672.0,0.008613049910094725
2671.0,0.008615319827518264
2670.0,0.008615382024703638
2669.0,0.00861346965310415
2668.0,0.00861077587428321
2667.0,0.008609194263267419
2666.0,0.008611263043557891
2665.0,0.0086184477225438
2664.0,0.008629520055889179
2663.0,0.00864149850212685
2662.0,0.008651388229835846
2661.0,0.00865672268832201
2660.0,0.008656374422097698
2659.0,0.008652286655817581
2658.0,0.00864852964675716
2657.0,0.008646753166882463
2656.0,0.008644129919700745
2655.0,0.008637522785655665
2654.0,0.008627744184538308
2653.0,0.008617725737387656
2652.0,0.008608553640669194
2651.0,0.008599922919248144
2650.0,0.008592627068667822
2649.0,0.008587601672469235
2648.0,0.008583999157379169
2647.0,0.008581122734230787
2646.0,0.00858075095187669
2645.0,0.008584360608883942
2644.0,0.008589371111702535
2643.0,0.00859161673118357
2642.0,0.008590926653925598
2641.0,0.008591179993443047
2640.0,0.008595515285164255
2639.0,0.008604099778226081
2638.0,0.008615233418546876
2637.0,0.008625365493999336
2636.0,0.008629064244161917
2635.0,0.008622942631016229
2634.0,0.00860937007434549
2633.0,0.008593190843627928
2632.0,0.008575664996024045
2631.0,0.008554880639175722
2630.0,0.00853101506601602
2629.0,0.00850671463850669
2628.0,0.008482267393613787
2627.0,0.008455078592811721
2626.0,0.00842482962630685
2625.0,0.008395372092898985
2624.0,0.008370028040969861
2623.0,0.008347981355333045
2622.0,0.008326407473590945
2621.0,0.008303293320877071
2620.0,0.008277375070124857
2619.0,0.008248322678684025
2618.0,0.008218542838387398
2617.0,0.008192526141855153
2616.0,0.008172591644095053
2615.0,0.008156489607166707
2614.0,0.008139867150374916
2613.0,0.00811976229689967
2612.0,0.008095539146582974
2611.0,0.008068272598140979
2610.0,0.008040095909450881
2609.0,0.008013021568625345
2608.0,0.007987760118965029
2607.0,0.007964201418760643
2606.0,0.007942449585530604
2605.0,0.007922311916203144
2604.0,0.007902600646882196
2603.0,0.00788250138094435
2602.0,0.007863128013957528
2601.0,0.00784627434448186
2600.0,0.00783206496938938
2599.0,0.007818949888006724
2598.0,0.007805239409765238
2597.0,0.007789554468926287
2596.0,0.007770993393065117
2595.0,0.007750302365255498
2594.0,0.007729809719985242
2593.0,0.0077108775005375885
2592.0,0.007692301461007113
2591.0,0.0076720960559483724
2590.0,0.00764949614830061
2589.0,0.0076245013212310805
2588.0,0.007597605668462674
2587.0,0.007571210089958076
2586.0,0.007548863571177077
2585.0,0.007531436691004478
2584.0,0.007516179585154057
2583.0,0.00750106216510237
2582.0,0.0074875911644381055
2581.0,0.007477439494502325
2580.0,0.007468837416628189
2579.0,0.007458596147257902
2578.0,0.007445507853786001
2577.0,0.007429863099928184
2576.0,0.0074119623484741794
2575.0,0.0073930186183503825
2574.0,0.007375192315694555
2573.0,0.007358783457471435
2572.0,0.007341739936752415
2571.0,0.007323429207711134
2570.0,0.007305848333041183
2569.0,0.007289591786123786
2568.0,0.007272546488245614
2567.0,0.00725504893441669
2566.0,0.0072424490955212695
2565.0,0.007238860578542729
2564.0,0.007240966717246706
2563.0,0.007241005912906781
2562.0,0.007233476035896302
2561.0,0.007217135213847687
2560.0,0.007194269750280898
2559.0,0.007170891585282127
2558.0,0.007154274566393684
2557.0,0.00714676206749282
2556.0,0.00714407733640028
2555.0,0.007141601207656466
2554.0,0.007138915896146694
2553.0,0.007136175649386362
2552.0,0.007130703944364094
2551.0,0.007120478314456367
2550.0,0.007106929827719627
2549.0,0.0070912123251794645
2548.0,0.007071930564566191
2547.0,0.0070498343952835815
2546.0,0.00703019367197903
2545.0,0.007016392552443847
2544.0,0.007004959821504687
2543.0,0.0069906330321078715
2542.0,0.006972585155037559
2541.0,0.006952497286551156
2540.0,0.006931306057659757
2539.0,0.006911866757821737
2538.0,0.006899742035731012
2537.0,0.006896592754410928
2536.0,0.006897245001679727
2535.0,0.0068977263903549305
2534.0,0.006901128696341742
2533.0,0.006910455518644196
2532.0,0.0069211665258704525
2531.0,0.006927285873289611
2530.0,0.006930111639379014
2529.0,0.006933788112768808
2528.0,0.006936065961741072
2527.0,0.006930866578043683
2526.0,0.006917722560603664
2525.0,0.006901914101161113
2524.0,0.0068868925422157015
2523.0,0.006872352129568009
2522.0,0.00685786923149684
2521.0,0.006842961060325274
2520.0,0.006825552536540096
2519.0,0.006805538547917904
2518.0,0.006787666831467197
2517.0,0.0067758299344922324
2516.0,0.006766762261246048
2515.0,0.006754339829256101
2514.0,0.006737541563126694
2513.0,0.0067193597943907574
2512.0,0.006701201044911249
2511.0,0.006683960394214387
2510.0,0.006671385370091776
2509.0,0.006665879575795417
2508.0,0.006662919456541217
2507.0,0.006655572810114888
2506.0,0.00664295594159761
2505.0,0.006629090722812876
2504.0,0.006615764474457669
2503.0,0.006602113362384008
2502.0,0.006588878800246909
2501.0,0.006577046913900652
2500.0,0.006564174047066718
2499.0,0.006547949497569223
2498.0,0.006531745306106163
2497.0,0.006520942822554059
2496.0,0.006515199383208136
2495.0,0.006509864219008951
2494.0,0.006503368502285457
2493.0,0.006497312899853253
2492.0,0.006490455393344923
2491.0,0.006478809759889454
2490.0,0.006461796690622063
2489.0,0.006443555916221523
2488.0,0.006428296901670342
2487.0,0.006417853424029808
2486.0,0.006412164213559952
2485.0,0.006407891133665007
2484.0,0.006398352470554935
2483.0,0.00637964242234201
2482.0,0.006355948020641897
2481.0,0.006335324231434043
2480.0,0.006322024987471846
2479.0,0.006316247358833757
2478.0,0.006317844098077363
2477.0,0.006324714434335976
2476.0,0.006329977671236806
2475.0,0.006327055759856788
2474.0,0.0063169266928790055
2473.0,0.006305578322606516
2472.0,0.006295355110464239
2471.0,0.006283424888153687
2470.0,0.00626767360231956
2469.0,0.006249517849652018
2468.0,0.0062315661121454926
2467.0,0.00621625992912317
2466.0,0.006205670954508879
2465.0,0.006199080061240737
2464.0,0.0061922750548504876
2463.0,0.00618273382774462
2462.0,0.00617363961984392
2461.0,0.0061692758423062535
2460.0,0.0061687216404156305
2459.0,0.006167961965015031
2458.0,0.006165917182206306
2457.0,0.006164273364181339
2456.0,0.0061634696293628
2455.0,0.0061628968504212145
2454.0,0.006162990760875707
2453.0,0.006163083164012317
2452.0,0.006159262799169548
2451.0,0.006148598446825863
2450.0,0.006133891952351808
2449.0,0.006120591521061006
2448.0,0.006110662936655113
2447.0,0.006102582406732536
2446.0,0.006094945708406298
2445.0,0.0060866854833482465
2444.0,0.0060762756784599956
2443.0,0.006064226770482068
2442.0,0.006054071642290017
2441.0,0.006047961831409317
2440.0,0.006043964846875753
2439.0,0.0060401421304888785
2438.0,0.0060375791258720935
2437.0,0.006036580963292908
2436.0,0.006034206142902825
2435.0,0.0060289804580673815
2434.0,0.006023651964597612
2433.0,0.006019692006062499
2432.0,0.006013795553882352
2431.0,0.0060038987332046816
2430.0,0.005993761474213089
2429.0,0.005987045413120304
2428.0,0.005981671402515081
2427.0,0.005974739927226601
2426.0,0.005967961222110928
2425.0,0.005963007866950346
2424.0,0.005956663800996417
2423.0,0.005946626830446101
2422.0,0.005937432017462099
2421.0,0.005934155704432481
2420.0,0.005934354688129723
2419.0,0.005932589426657268
2418.0,0.005928879893560861
2417.0,0.005926102762696644
2416.0,0.005922656042784927
2415.0,0.005914525978261424
2414.0,0.005902220826560525
2413.0,0.005889816621433643
2412.0,0.00587934960269591
2411.0,0.005870876136511706
2410.0,0.005864787755998557
2409.0,0.005858971176123736
2408.0,0.00584744490981273
2407.0,0.005827703892764782
2406.0,0.005805984439060156
2405.0,0.005789600023311213
2404.0,0.005777883993448173
2403.0,0.005766340627346366
2402.0,0.005755283870799299
2401.0,0.005747710293080826
2400.0,0.005742210482991625
2399.0,0.005734970957172907
2398.0,0.005726210586380575
2397.0,0.005718204219312888
2396.0,0.005709491534523586
2395.0,0.0056975642721203805
2394.0,0.005684915973843449
2393.0,0.005675976659879219
2392.0,0.005670174331378435
2391.0,0.00566391120091656
2390.0,0.005657200337989248
2389.0,0.005652543926969186
2388.0,0.005649184069727978
2387.0,0.00564421320375637
2386.0,0.005637566287693203
2385.0,0.005630414304748687
2384.0,0.005620574531368293
2383.0,0.005605038797469093
2382.0,0.005584939666464699
2381.0,0.0055617434188526705
2380.0,0.0055302585631465916
2379.0,0.0054840288816662315
2378.0,0.005428764662943973
2377.0,0.005381345328290328
2376.0,0.005352786827770076
2375.0,0.005340141908145198
2374.0,0.0053368014220562966
2373.0,0.005341391418789332
2372.0,0.005353393546597977
2371.0,0.005369946694585123
2370.0,0.005389423090091609
2369.0,0.005407859224327161
2368.0,0.005413572214033756
2367.0,0.005401530939112068
2366.0,0.005389865533439573
2365.0,0.005400470673937132
2364.0,0.005425453291556876
2363.0,0.005438797179511425
2362.0,0.005434447664019027
2361.0,0.005424997680623294
2360.0,0.005413007732870213
2359.0,0.0053946207148657215
2358.0,0.005382561442955524
2357.0,0.0053903454395045495
2356.0,0.005406735547497939
2355.0,0.0054136023329434835
2354.0,0.005411143823541532
2353.0,0.005407872154724055
2352.0,0.005405258598926631
2351.0,0.005406081783353969
2350.0,0.005416529627342135
2349.0,0.005434959112973149
2348.0,0.005453603953078585
2347.0,0.005467128624286758
2346.0,0.0054774179524754996
2345.0,0.005488820093590266
2344.0,0.005501385645384126
2343.0,0.00551340169287051
2342.0,0.0055229606505686904
2341.0,0.005529774886640726
2340.0,0.005532302273930942
2339.0,0.005531569740431026
2338.0,0.005535574235557126
2337.0,0.005549849966905928
2336.0,0.005568776173896122
2335.0,0.0055841837482732
2334.0,0.005597148521487552
2333.0,0.005610310918461375
2332.0,0.005618928912909559
2331.0,0.005618508373221457
2330.0,0.005618403734105751
2329.0,0.00563365529037065
2328.0,0.005674205270781511
2327.0,0.005742946032045247
2326.0,0.005837005181576725
2325.0,0.0059360095954766575
2324.0,0.006002005630510323
2323.0,0.006006849370376488
2322.0,0.005959507864967179
2321.0,0.005896070740826837
2320.0,0.005843685698113959
2319.0,0.005809170443090389
2318.0,0.00579094823281073
2317.0,0.00578466743493022
2316.0,0.005781025867234248
2315.0,0.005771512629027932
2314.0,0.005758783541790114
2313.0,0.005751221540801177
2312.0,0.005752219601004735
2311.0,0.005758448391539176
2310.0,0.005767930320862733
2309.0,0.005778553500341935
2308.0,0.005786256317743726
2307.0,0.00578934049133175
2306.0,0.005793424117275869
2305.0,0.005802642902697543
2304.0,0.005812749856472786
2303.0,0.005817739818762341
2302.0,0.005820415227904928
2301.0,0.005827261197100885
2300.0,0.005838010771167357
2299.0,0.005846785843558401
2298.0,0.00585218463774149
2297.0,0.005857733721422691
2296.0,0.005866440744043851
2295.0,0.005880555466258062
2294.0,0.005903485034487715
2293.0,0.00593389360368826
2292.0,0.005962169558565678
2291.0,0.005980196646372207
2290.0,0.005991550821708624
2289.0,0.006005090301119819
2288.0,0.006022829895057282
2287.0,0.00604101648041014
2286.0,0.006058089682053143
2285.0,0.006072706131966553
2284.0,0.006078841745681626
2283.0,0.006072952932983481
2282.0,0.006061998781746015
2281.0,0.006055026162654846
2280.0,0.006050373349874346
2279.0,0.006041634727775018
2278.0,0.006031097129701167
2277.0,0.0060252463235933385
2276.0,0.006021147584418914
2275.0,0.006010884505577602
2274.0,0.0059967797332277336
2273.0,0.005988152204922297
2272.0,0.005985337791489198
2271.0,0.005980020348522912
2270.0,0.0059702617347193974
2269.0,0.005961749720483228
2268.0,0.005955564380894762
2267.0,0.005947582559844671
2266.0,0.0059389069304320126
2265.0,0.005934638315109718
2264.0,0.005933376779880324
2263.0,0.00592983447090085
2262.0,0.005926571361902331
2261.0,0.0059314630565221495
2260.0,0.005944925967452409
2259.0,0.005959681354526572
2258.0,0.005970616182488883
2257.0,0.005974660359142057
2256.0,0.005965745902714959
2255.0,0.005942283166304547
2254.0,0.005916905514409088
2253.0,0.005906387019418858
2252.0,0.005913854906878865
2251.0,0.005929477441801874
2250.0,0.005944123064575854
2249.0,0.005952616619060166
2248.0,0.005951400269235366
2247.0,0.005944213951692578
2246.0,0.005943196808767702
2245.0,0.005952886233733349
2244.0,0.005961430740859044
2243.0,0.005959337378748767
2242.0,0.0059566949222814355
2241.0,0.005966789132730157
2240.0,0.0059827406387034906
2239.0,0.005988061692160476
2238.0,0.005981212167880775
2237.0,0.0059720294567778085
2236.0,0.005961618987596079
2235.0,0.005944915695110079
2234.0,0.005926546961489879
2233.0,0.005915437913589089
2232.0,0.005909521414567502
2231.0,0.005903828949308595
2230.0,0.005905685554951976
2229.0,0.005922143976646714
2228.0,0.0059407285464890955
2227.0,0.0059444838678472285
2226.0,0.0059388528219578044
2225.0,0.005942233437078727
2224.0,0.005956058891239498
2223.0,0.005966506115534744
2222.0,0.005969218041523348
2221.0,0.005969067746555696
2220.0,0.005961807058603027
2219.0,0.005940906007295928
2218.0,0.005918855376971101
2217.0,0.005916385072670175
2216.0,0.005932214426600361
2215.0,0.005946333475504631
2214.0,0.00594988139532943
2213.0,0.0059498427926461105
2212.0,0.005948148388892296
2211.0,0.005940809969957372
2210.0,0.005934407480618012
2209.0,0.00593898124452155
2208.0,0.0059467775041287954
2207.0,0.005941341130154662
2206.0,0.005925402707761023
2205.0,0.005916606931006512
2204.0,0.0059187736002250975
2203.0,0.005921964582673203
2202.0,0.005926694703734878
2201.0,0.005941204657729981
2200.0,0.005957249326239644
2199.0,0.005956588176176459
2198.0,0.0059425010314220214
2197.0,0.005938825138016333
2196.0,0.005955032951727257
2195.0,0.005975910599257465
2194.0,0.005987680626378893
2193.0,0.005992237479594039
2192.0,0.005994856816651858
2191.0,0.005999264392629013
2190.0,0.0060146265348063
2189.0,0.006045203478828621
2188.0,0.0060740876973783735
2187.0,0.006079335162958401
2186.0,0.006063660255501138
2185.0,0.006046208591099793
2184.0,0.006028335634545274
2183.0,0.005994095954478236
2182.0,0.005944594611416021
2181.0,0.005905060540023654
2180.0,0.005894830747942838
2179.0,0.005911688173192012
2178.0,0.005943770654118263
2177.0,0.005974217351043555
2176.0,0.0059802619234128164
2175.0,0.005954046016184433
2174.0,0.005921082991741365
2173.0,0.005915527334339603
2172.0,0.005942158929484493
2171.0,0.005984008237517046
2170.0,0.006035454033964143
2169.0,0.006100840532172045
2168.0,0.0061692351904972355
2167.0,0.0062192870597530345
2166.0,0.006247428872559469
2165.0,0.0062676931785025985
2164.0,0.006287583527426323
2163.0,0.0063045835567017835
2162.0,0.006313022413556336
2161.0,0.006286283346895017
2160.0,0.006171225811617557
2159.0,0.00594962261633481
2158.0,0.005696359056278083
2157.0,0.0055201674553191134
2156.0,0.005456170917782985
2155.0,0.005465121518971993
2154.0,0.0055059951139215775
2153.0,0.0055581766710383765
2152.0,0.005601048594825261
2151.0,0.005619241032143858
2150.0,0.005621540722182933
2149.0,0.005623811192459986
2148.0,0.005619918547434569
2147.0,0.0055960967801431056
2146.0,0.005562070811167283
2145.0,0.005538666349327487
2144.0,0.0055251749582976685
2143.0,0.0055081336041705046
2142.0,0.005491552015374457
2141.0,0.005487920651018361
2140.0,0.00548847032191873
2139.0,0.005472602793290962
2138.0,0.005440135606158799
2137.0,0.0054057490936809645
2136.0,0.005367889819424695
2135.0,0.005313105072992121
2134.0,0.005248277827632977
2133.0,0.0051996968247334805
2132.0,0.0051805239807618635
2131.0,0.005182468939295787
2130.0,0.005196583462830203
2129.0,0.005218885811402279
2128.0,0.005239498003354894
2127.0,0.005247923991180667
2126.0,0.005249177839144888
2125.0,0.005257093444846442
2124.0,0.0052726875450670434
2123.0,0.005284678486265519
2122.0,0.005289330306376426
2121.0,0.005293820100019235
2120.0,0.005302192810763857
2119.0,0.005313668350673319
2118.0,0.00533287334731393
2117.0,0.0053657533183638535
2116.0,0.005405709640451459
2115.0,0.005437434705675297
2114.0,0.005453783096861097
2113.0,0.005457466873693683
2112.0,0.0054507428246957515
2111.0,0.005436359992452005
2110.0,0.005424049142150998
2109.0,0.005420709880430252
2108.0,0.005418549177273818
2107.0,0.005407750749300586
2106.0,0.005395389959680506
2105.0,0.005394821287341136
2104.0,0.00540222665070353
2103.0,0.005402325512007132
2102.0,0.005393904785039217
2101.0,0.0053903250988009905
2100.0,0.005397174726842255
2099.0,0.0054062802879143385
2098.0,0.00540953090516257
2097.0,0.005402230764950599
2096.0,0.005377280833681186
2095.0,0.0053344434919361675
2094.0,0.005292319659361208
2093.0,0.00527262532243774
2092.0,0.005275514017786066
2091.0,0.005285594571504659
2090.0,0.005295716214089939
2089.0,0.005308203141850793
2088.0,0.005319877112931475
2087.0,0.005325943131376914
2086.0,0.0053341638046094115
2085.0,0.005355423197802524
2084.0,0.005382929255212716
2083.0,0.0053996732508463565
2082.0,0.00540415752376907
2081.0,0.005409924217875758
2080.0,0.00542188262124613
2079.0,0.005431468996378155
2078.0,0.0054341113151123496
2077.0,0.005432892140714668
2076.0,0.005427021734030957
2075.0,0.005414709309915722
2074.0,0.005405015107514829
2073.0,0.00540863182440861
2072.0,0.0054193815441088995
2071.0,0.005422256527354633
2070.0,0.0054161098968376386
2069.0,0.00541102323323223
2068.0,0.005408906573018569
2067.0,0.005405296434031139
2066.0,0.005403811604980986
2065.0,0.005408734038734064
2064.0,0.0054106707022018585
2063.0,0.005400884267638259
2062.0,0.005390385129559771
2061.0,0.005393040627408325
2060.0,0.005401009125078991
2059.0,0.005400104082711932
2058.0,0.005397548049796581
2057.0,0.005407254007086411
2056.0,0.005420865760783309
2055.0,0.0054259183236842696
2054.0,0.005442341761364337
2053.0,0.005500918983109402
2052.0,0.005588586861025346
2051.0,0.005652075092940219
2050.0,0.005658777439413748
2049.0,0.005626288765427516
2048.0,0.00558746287218341
2047.0,0.005555346623768996
2046.0,0.005533360438747598
2045.0,0.005528373713901876
2044.0,0.005539706019693916
2043.0,0.005559375126339371
2042.0,0.005586988685639068
2041.0,0.005621015900690424
2040.0,0.005641002074888546
2039.0,0.0056300897698834925
2038.0,0.005609657480459539
2037.0,0.005617889708175476
2036.0,0.0056562065273776845
2035.0,0.005688985762040801
2034.0,0.005694715162187012
2033.0,0.005683651361239529
2032.0,0.005668820080535304
2031.0,0.0056555633426452305
2030.0,0.00565472801639402
2029.0,0.005670396839293232
2028.0,0.005680790172019847
2027.0,0.005666262728519033
2026.0,0.005645892151249403
2025.0,0.005649859456056397
2024.0,0.005669416825038628
2023.0,0.005673048770718526
2022.0,0.0056593758769962685
2021.0,0.005652937375039096
2020.0,0.005658977679599806
2019.0,0.005662842470238897
2018.0,0.005663245294066616
2017.0,0.0056652183820800435
2016.0,0.0056522726630765414
2015.0,0.005609831219602151
2014.0,0.005563897908174052
2013.0,0.005553974742687169
2012.0,0.005576145611452655
2011.0,0.00559104954986792
2010.0,0.005577619550477322
2009.0,0.0055393552307527955
2008.0,0.005473128157713053
2007.0,0.005378328533881633
2006.0,0.005286681241479692
2005.0,0.0052352093008791
2004.0,0.00521764286126062
2003.0,0.005204758278471692
2002.0,0.0051983316267240265
2001.0,0.0052204273879541555
2000.0,0.005261816874521333
1999.0,0.00528772236251349
1998.0,0.005288087629931598
1997.0,0.005282413251490954
1996.0,0.005278752898659598
1995.0,0.005266136175997434
1994.0,0.0052447980777537515
1993.0,0.005229095053488591
1992.0,0.005220674817515116
1991.0,0.005212448444565322
1990.0,0.005215672335912761
1989.0,0.005245456982007318
1988.0,0.005287556948343419
1987.0,0.005315373296680065
1986.0,0.0053315829634362115
1985.0,0.00535776643857692
1984.0,0.005393711714729926
1983.0,0.005425852303319679
1982.0,0.00546251623039117
1981.0,0.0055139416089756265
1980.0,0.0055459811990592
1979.0,0.005507028646512986
1978.0,0.0054041460773806465
1977.0,0.005302829302292868
1976.0,0.005240314829309693
1975.0,0.0051978434972369605
1974.0,0.005162258271023497
1973.0,0.005147401375956857
1972.0,0.005150241530100103
1971.0,0.005145356455137012
1970.0,0.0051293190196121585
1969.0,0.005123025010560108
1968.0,0.005126652904186964
1967.0,0.005115920500570224
1966.0,0.005087501216509852
1965.0,0.005063171593531065
1964.0,0.005047788529744802
1963.0,0.005027175057342441
1962.0,0.005003089120809174
1961.0,0.004989104937388701
1960.0,0.004975704833458167
1959.0,0.004941225271567357
1958.0,0.004895293313367693
1957.0,0.0048712012564191345
1956.0,0.004877159266029664
1955.0,0.004890733522741312
1954.0,0.004896831540073644
1953.0,0.00489742581549015
1952.0,0.0048892432964467245
1951.0,0.004866238998042634
1950.0,0.004841803149349155
1949.0,0.004834115776472366
1948.0,0.004833863743815855
1947.0,0.00481884764351849
1946.0,0.004794897350209045
1945.0,0.004788669116988955
1944.0,0.004803409478614218
1943.0,0.004814186603182579
1942.0,0.004807277185941569
1941.0,0.004792746272536822
1940.0,0.004776505294125914
1939.0,0.004754842880066903
1938.0,0.004734845934890656
1937.0,0.0047278244218366145
1936.0,0.004725236629390452
1935.0,0.004710386720478335
1934.0,0.004689587470641348
1933.0,0.004682596181481439
1932.0,0.004686917612905973
1931.0,0.00468301472961118
1930.0,0.004670872229417076
1929.0,0.004666801841147504
1928.0,0.0046701288176334114
1927.0,0.004664595425621627
1926.0,0.004649463002168776
1925.0,0.004640274571583893
1924.0,0.004637812386894697
1923.0,0.004629454052060641
1922.0,0.004620234238787049
1921.0,0.004629284453754271
1920.0,0.004653059684430108
1919.0,0.004665421363688788
1918.0,0.004655104809088807
1917.0,0.004638320360852343
1916.0,0.004628022473420682
1915.0,0.0046201367207491136
1914.0,0.004613742325352391
1913.0,0.004616787886076561
1912.0,0.004626050910124404
1911.0,0.0046262786588421225
1910.0,0.004615481263839571
1909.0,0.004608375753095206
1908.0,0.00461177652516643
1907.0,0.0046174534996886885
1906.0,0.004621143890335222
1905.0,0.0046276869897156495
1904.0,0.004633521058678088
1903.0,0.004630017399616832
1902.0,0.0046221098527545815
1901.0,0.004623078292722751
1900.0,0.004632530697160783
1899.0,0.004638765762769666
1898.0,0.0046401748948001805
1897.0,0.004644506848012839
1896.0,0.0046470774205791
1895.0,0.004634729845006479
1894.0,0.004612251208396323
1893.0,0.0045988414803644255
1892.0,0.004597025701992029
1891.0,0.004589823666528816
1890.0,0.004568878733299692
1889.0,0.004545322294540774
1888.0,0.004527763882932716
1887.0,0.004511191955908664
1886.0,0.004492726335930985
1885.0,0.004478189832269163
1884.0,0.004468195591162986
1883.0,0.004455888837382685
1882.0,0.0044414813630451995
1881.0,0.0044319157549340075
1880.0,0.004426523414978918
1879.0,0.004418509351003233
1878.0,0.004409440927973661
1877.0,0.004406945061161062
1876.0,0.0044071883318017625
1875.0,0.004398523036546947
1874.0,0.004383282150855277
1873.0,0.0043760445970268385
1872.0,0.004379560700304034
1871.0,0.004380678517660569
1870.0,0.004370503404661392
1869.0,0.0043534183222223724
1868.0,0.004333979610959058
1867.0,0.004314943220132253
1866.0,0.004304516554092815
1865.0,0.004307828688151162
1864.0,0.004316416263768106
1863.0,0.0043174963774480326
1862.0,0.004311470884232076
1861.0,0.004307998941600974
1860.0,0.004306641488612404
1859.0,0.004298264980280098
1858.0,0.004283571936930199
1857.0,0.004272418414236727
1856.0,0.00426678121858208
1855.0,0.004260866409565644
1854.0,0.00425618640700923
1853.0,0.004258553072937974
1852.0,0.004263454104554105
1851.0,0.004261063175790174
1850.0,0.004250187807716116
1849.0,0.004238933501425128
1848.0,0.004230368904786268
1847.0,0.004222745759600945
1846.0,0.004219621166836321
1845.0,0.004224777788740006
1844.0,0.00422523942629129
1843.0,0.004207559797910261
1842.0,0.004188982637821779
1841.0,0.004189197154148279
1840.0,0.004200819576712172
1839.0,0.004205179090250977
1838.0,0.004199430767203611
1837.0,0.004196055009561432
1836.0,0.004196952065546696
1835.0,0.004192471359869785
1834.0,0.004183674089964174
1833.0,0.004182559117390712
1832.0,0.004190390588004222
1831.0,0.004193270999575036
1830.0,0.004183878410816076
1829.0,0.004176430414736542
1828.0,0.004183869304321334
1827.0,0.004198611741790112
1826.0,0.004209512565069957
1825.0,0.004216542645303056
1824.0,0.004221380388731993
1823.0,0.004224387991547707
1822.0,0.004229898074567969
1821.0,0.004240005109144133
1820.0,0.00424530992953284
1819.0,0.004232412107179064
1818.0,0.00420482043815475
1817.0,0.004181685345847411
1816.0,0.004172111518450775
1815.0,0.004170512317161756
1814.0,0.004173143974613814
1813.0,0.004181638221917735
1812.0,0.004191100648012886
1811.0,0.004191005536883632
1810.0,0.004185365842543966
1809.0,0.004187694300064213
1808.0,0.004196893742149818
1807.0,0.0042020070047206325
1806.0,0.004203668663138179
1805.0,0.004211250773784155
1804.0,0.004223380080285251
1803.0,0.0042298915550319826
1802.0,0.004230899337853203
1801.0,0.004236444037619306
1800.0,0.004246926969207093
1799.0,0.004250584608353639
1798.0,0.004246239130517728
1797.0,0.004243993142514748
1796.0,0.004247999326700992
1795.0,0.0042534611395853295
1794.0,0.004257844608126438
1793.0,0.004261270323943401
1792.0,0.004254067513329684
1791.0,0.00422908606068394
1790.0,0.004206599626785922
1789.0,0.004205956077721575
1788.0,0.004219167376021623
1787.0,0.004226610054217558
1786.0,0.004222454395813789
1785.0,0.004216259705462436
1784.0,0.0042136230588622915
1783.0,0.004211670224197179
1782.0,0.004209231924353508
1781.0,0.004207632909020795
1780.0,0.004204419301511647
1779.0,0.004193924051895126
1778.0,0.0041819236808290135
1777.0,0.004177694739512518
1776.0,0.004179874282610258
1775.0,0.004179006224081025
1774.0,0.0041733431023525305
1773.0,0.004174928161361406
1772.0,0.004186066859925404
1771.0,0.004193154373637247
1770.0,0.004197400664416795
1769.0,0.004206790844693773
1768.0,0.004214527547115262
1767.0,0.0042109492689046644
1766.0,0.004205976300151144
1765.0,0.0042165958645731015
1764.0,0.0042399567319261105
1763.0,0.004256909830290976
1762.0,0.004258776862967578
1761.0,0.004260223282837245
1760.0,0.004276535494024601
1759.0,0.004301476203984904
1758.0,0.004325376868765517
1757.0,0.004346368023856383
1756.0,0.004364425222033156
1755.0,0.004380721183793717
1754.0,0.004403191723536406
1753.0,0.004440462547816426
1752.0,0.004488586128037548
1751.0,0.004525210073688382
1750.0,0.004541048833480152
1749.0,0.004559221798554216
1748.0,0.004590644905903767
1747.0,0.004622782599339431
1746.0,0.004650981146663566
1745.0,0.0046851793454659695
1744.0,0.004725954255160908
1743.0,0.004760068081169708
1742.0,0.004789560916109258
1741.0,0.004831465298278703
1740.0,0.004880639209245715
1739.0,0.004909176589805721
1738.0,0.004920656104883112
1737.0,0.0049468623169428
1736.0,0.004995571887322764
1735.0,0.005043930022085501
1734.0,0.005061666394549679
1733.0,0.005056799500347858
1732.0,0.005073007404522225
1731.0,0.005112665266725962
1730.0,0.005156663321941896
1729.0,0.005203402120036386
1728.0,0.005253444225867864
1727.0,0.005299038828153736
1726.0,0.0053392915230177545
1725.0,0.0053861992287097486
1724.0,0.005440360000758081
1723.0,0.0054834291966876225
1722.0,0.005514256311694993
1721.0,0.005554448772097096
1720.0,0.005614423726020091
1719.0,0.005680545307174213
1718.0,0.005740204101777146
1717.0,0.005800146167251786
1716.0,0.005865741197622578
1715.0,0.005928218915740406
1714.0,0.0059879748729314
1713.0,0.00605926882052788
1712.0,0.0061424545791634415
1711.0,0.006223347797108585
1710.0,0.006298771136218694
1709.0,0.006382071504228577
1708.0,0.006481788996133469
1707.0,0.006590028568504137
1706.0,0.006699350657440984
1705.0,0.0068102419383417
1704.0,0.006918704589879247
1703.0,0.007025374300969068
1702.0,0.007155222037003108
1701.0,0.007362119303536507
1700.0,0.0076067705135721446
1699.0,0.007770798968924764
1698.0,0.007889298358393311
1697.0,0.00806156580894958
1696.0,0.00830277015484765
1695.0,0.008529771623269036
1694.0,0.008701131999980441
1693.0,0.008864125565310275
1692.0,0.009048835569207629
1691.0,0.00925081895856401
1690.0,0.009460627797444958
1689.0,0.009667786912498066
1688.0,0.009856963326280437
1687.0,0.010023063604861947
1686.0,0.010202098951070429
1685.0,0.010480200150051074
1684.0,0.010830325644057844
1683.0,0.011090842990991816
1682.0,0.011268331334501211
1681.0,0.01144976289045882
1680.0,0.011651018904610743
1679.0,0.011843970488451996
1678.0,0.01201987670766176
1677.0,0.01221495893228472
1676.0,0.012461107347482693
1675.0,0.012717724088859711
1674.0,0.01291862227109209
1673.0,0.013078793920606208
1672.0,0.013247013468945395
1671.0,0.013441367179842038
1670.0,0.013661166943122789
1669.0,0.013886016625571408
1668.0,0.014081925997841329
1667.0,0.014232825816548732
1666.0,0.014358832416957446
1665.0,0.014500430741439245
1664.0,0.014682087704092059
1663.0,0.014881697453165213
1662.0,0.015054130585901607
1661.0,0.01519279050264635
1660.0,0.015317680251541415
1659.0,0.015426822316864292
1658.0,0.01551156706609767
1657.0,0.015579692352667537
1656.0,0.01564975810883546
1655.0,0.015737058101905062
1654.0,0.01587898029816081
1653.0,0.01603970207994967
1652.0,0.016090559818301483
1651.0,0.0160721328388697
1650.0,0.016065074615640423
1649.0,0.01609039673268438
1648.0,0.016152423416330133
1647.0,0.016222338670515993
1646.0,0.016252455197524916
1645.0,0.01625285528194014
1644.0,0.01625304808033614
1643.0,0.016253422027979914
1642.0,0.01624879643175941
1641.0,0.01624187546469819
1640.0,0.01623322136208406
1639.0,0.01621492961794397
1638.0,0.016187679810652878
1637.0,0.016172338320683804
1636.0,0.016172672595675106
1635.0,0.016142585742737123
1634.0,0.01606743325948126
1633.0,0.015986128681388535
1632.0,0.01591213815133393
1631.0,0.015832867091438288
1630.0,0.015740639539411592
1629.0,0.0156400870320528
1628.0,0.015533338382436635
1627.0,0.015415882973133462
1626.0,0.015290321183863509
1625.0,0.015163182258816008
1624.0,0.01502851563151667
1623.0,0.014870345768252474
1622.0,0.01469543214247443
1621.0,0.01453233178098943
1620.0,0.014390491398548406
1619.0,0.014251059087768204
1618.0,0.014092024846502437
1617.0,0.01390817431988262
1616.0,0.013713991624927287
1615.0,0.013533393998424834
1614.0,0.013376249058327563
1613.0,0.013231637661558718
1612.0,0.013085055099438877
1611.0,0.012932950602925944
1610.0,0.012782627863048887
1609.0,0.012641030242681038
1608.0,0.01250667290809928
1607.0,0.012375974148613704
1606.0,0.012250948668564925
1605.0,0.012133585184398324
1604.0,0.012020368421983129
1603.0,0.011905403075428552
1602.0,0.011790668931438254
1601.0,0.011684112087395091
1600.0,0.011587924973868435
1599.0,0.011498057274871203
1598.0,0.011412404018991991
1597.0,0.011331687000454064
1596.0,0.011253779822893028
1595.0,0.01117603443518188
1594.0,0.011101945176662005
1593.0,0.011036614399356664
1592.0,0.010978697485464116
1591.0,0.010924173063814276
1590.0,0.01087420425401384
1589.0,0.010831958175672852
1588.0,0.010796241379078418
1587.0,0.010764704848858915
1586.0,0.01073961769411638
1585.0,0.01072245211108859
1584.0,0.010709850406549542
1583.0,0.010699115098785737
1582.0,0.010690869033907594
1581.0,0.010686912863768761
1580.0,0.010685662366551944
1579.0,0.010683707033299728
1578.0,0.010679616090015394
1577.0,0.010674399554821625
1576.0,0.0106562469672356
1575.0,0.010617910576197622
1574.0,0.01058204843740953
1573.0,0.010562784524314245
1572.0,0.010550000612683305
1571.0,0.010532063531609515
1570.0,0.010507286474299974
1569.0,0.010477602327445896
1568.0,0.010448629215398797
1567.0,0.010426520458593175
1566.0,0.010413023491235988
1565.0,0.01040547373346647
1564.0,0.010396604632777806
1563.0,0.010380154564446997
1562.0,0.010361926162183586
1561.0,0.010355005292842607
1560.0,0.010395093249287083
1559.0,0.010470777441805613
1558.0,0.010498124850864928
1557.0,0.0105028184062322
1556.0,0.010514501746236152
1555.0,0.010524146184017157
1554.0,0.010532045153142548
1553.0,0.010545346416745892
1552.0,0.010563674063974293
1551.0,0.010576762867937179
1550.0,0.010582526261864057
1549.0,0.010589701375844859
1548.0,0.010600550568275238
1547.0,0.01060886553401288
1546.0,0.01061196381157818
1545.0,0.010614259838446377
1544.0,0.010613020030461452
1543.0,0.010602457654468841
1542.0,0.010590112279516692
1541.0,0.010587934395412784
1540.0,0.010563482554338517
1539.0,0.010482084574885404
1538.0,0.01038922778151915
1537.0,0.010326398502435895
1536.0,0.01027830409558069
1535.0,0.010215314520236059
1534.0,0.010131004106515868
1533.0,0.010043166456564433
1532.0,0.009963651413540277
1531.0,0.009887839820388574
1530.0,0.009816535662581264
1529.0,0.009759112822807826
1528.0,0.009711374911431054
1527.0,0.009655633025811062
1526.0,0.009592691173030177
1525.0,0.009544967786177413
1524.0,0.009517825137659164
1523.0,0.009492896249772422
1522.0,0.009465916319692706
1521.0,0.00944584684364113
1520.0,0.009427029321110988
1519.0,0.009402363302530506
1518.0,0.009376511848628156
1517.0,0.009356823290035584
1516.0,0.009331315738986885
1515.0,0.009287369990002708
1514.0,0.009238110211518973
1513.0,0.009199179459901978
1512.0,0.009162938152335608
1511.0,0.009110687060418881
1510.0,0.009049683194437337
1509.0,0.009007603662353366
1508.0,0.008993683655481755
1507.0,0.008973071988150661
1506.0,0.008937377322164066
1505.0,0.008924431753049257
1504.0,0.008921760246329303
1503.0,0.008903464724735962
1502.0,0.00887502746822688
1501.0,0.00885925153665823
1500.0,0.00885959471739145
1499.0,0.008853428974172845
1498.0,0.00884481612618322
1497.0,0.00887300038070305
1496.0,0.008921717586948782
1495.0,0.008932201423677516
1494.0,0.008916982918858722
1493.0,0.00892771229554429
1492.0,0.008967256974302052
1491.0,0.00899837157361246
1490.0,0.009020658385330664
1489.0,0.00907487869527732
1488.0,0.009149330374194823
1487.0,0.009199699193280904
1486.0,0.009242896644415684
1485.0,0.009322688758704518
1484.0,0.00943913249113978
1483.0,0.009573488929482161
1482.0,0.00975159638010262
1481.0,0.010020948456416018
1480.0,0.010387467748610867
1479.0,0.010900274620607896
1478.0,0.01180690414478486
1477.0,0.01349589773451347
1476.0,0.016202521565854982
1475.0,0.01981139758525667
1474.0,0.023858100253259684
1473.0,0.02714522454664231
1472.0,0.02822631752159495
1471.0,0.027325267589788406
1470.0,0.02588813304491132
1469.0,0.024731007008521294
1468.0,0.023989257099677766
1467.0,0.023723101720246054
1466.0,0.02419388934590657
1465.0,0.025539735543298307
1464.0,0.02712663155626014
1463.0,0.027907705429234198
1462.0,0.02741524615776724
1461.0,0.025847807664800295
1460.0,0.02367721529753052
1459.0,0.021417365108980332
1458.0,0.019458773544211563
1457.0,0.01800472378753804
1456.0,0.01707074409106755
1455.0,0.016501679474863924
1454.0,0.016086892141180895
1453.0,0.015688036638983157
1452.0,0.015286817007241802
1451.0,0.01494425589345694
1450.0,0.014688109524877053
1449.0,0.014482205233080725
1448.0,0.014299977385814473
1447.0,0.014156876740834106
1446.0,0.014055341925352566
1445.0,0.013969056799238166
1444.0,0.013887634848360827
1443.0,0.013819397499753458
1442.0,0.013761495431458735
1441.0,0.013698059891573251
1440.0,0.013629676868410356
1439.0,0.01357276189664201
1438.0,0.013532101759627985
1437.0,0.01348805323156541
1436.0,0.01342323551580946
1435.0,0.013351752199649451
1434.0,0.013284035267894833
1433.0,0.013207511348603306
1432.0,0.013117111644535093
1431.0,0.013025010719388799
1430.0,0.012937187834526893
1429.0,0.012847065750901183
1428.0,0.012756823486875254
1427.0,0.012680100448772639
1426.0,0.012618214848284248
1425.0,0.012558560455044195
1424.0,0.012498305478836076
1423.0,0.012446189676987728
1422.0,0.012403764200758836
1421.0,0.012362079442863858
1420.0,0.01232164610080173
1419.0,0.012287959467302363
1418.0,0.012251008439923642
1417.0,0.0122013767592187
1416.0,0.012142620637773131
1415.0,0.01208072199859447
1414.0,0.012013781994738794
1413.0,0.011933711971618518
1412.0,0.011839243220756893
1411.0,0.011737750785702486
1410.0,0.011632091719786979
1409.0,0.011518442217058448
1408.0,0.011397148447793545
1407.0,0.011274774585084812
1406.0,0.011149792028785353
1405.0,0.011010936948307343
1404.0,0.01086233375107465
1403.0,0.01072438400768033
1402.0,0.010602332295931957
1401.0,0.010479572179787289
1400.0,0.01034468248673794
1399.0,0.010206978590320185
1398.0,0.01007847213498091
1397.0,0.009955726146549042
1396.0,0.009831410856296258
1395.0,0.009708384259859905
1394.0,0.009589640215127515
1393.0,0.009473578188856165
1392.0,0.009363911719149574
1391.0,0.0092658862661603
1390.0,0.009175052473277684
1389.0,0.009080624504884985
1388.0,0.008982652464416166
1387.0,0.008894224274440454
1386.0,0.008820774125822172
1385.0,0.008755676835417387
1384.0,0.008699917077852157
1383.0,0.008664662344515302
1382.0,0.008652883311446596
1381.0,0.008652640206100818
1380.0,0.008650755564543838
1379.0,0.0086397324778044
1378.0,0.008610170126342024
1377.0,0.008554819975863805
1376.0,0.008481858089992755
1375.0,0.008412711913535924
1374.0,0.00836145551979393
1373.0,0.00832716946516906
1372.0,0.008307859551084883
1371.0,0.008302407746601294
1370.0,0.008297720903314999
1369.0,0.00827157440016866
1368.0,0.008215153752777957
1367.0,0.008138737298217097
1366.0,0.008051575772422619
1365.0,0.007952016651954066
1364.0,0.007841025785627592
1363.0,0.007730355440292562
1362.0,0.007631062149317155
1361.0,0.007545368505870582
1360.0,0.007474765190344531
1359.0,0.007422247077902193
1358.0,0.00738369853283328
1357.0,0.007349948955537413
1356.0,0.007319426402769025
1355.0,0.00729755563802768
1354.0,0.0072823309458526966
1353.0,0.007263740354296911
1352.0,0.007237550779286731
1351.0,0.00720734252545575
1350.0,0.007171794685119911
1349.0,0.007124159150912338
1348.0,0.007066964751052007
1347.0,0.0070106703951027215
1346.0,0.006958221245665787
1345.0,0.0069038486052921825
1344.0,0.006847595906497055
1343.0,0.006796320614160107
1342.0,0.006749870823516698
1341.0,0.006699445058188685
1340.0,0.006642726033137283
1339.0,0.006588634823660626
1338.0,0.00654213408287646
1337.0,0.006498191230402752
1336.0,0.006454447306146199
1335.0,0.006415013872183752
1334.0,0.006380518406302421
1333.0,0.006347060883141546
1332.0,0.006315890846246616
1331.0,0.006292963320326353
1330.0,0.006277627377558731
1329.0,0.006263104240238017
1328.0,0.006248780227098662
1327.0,0.006240511697873126
1326.0,0.006237986750265627
1325.0,0.0062337802741727275
1324.0,0.006226058157021811
1323.0,0.006220038373882447
1322.0,0.0062167775953021
1321.0,0.006211147247637686
1320.0,0.006201814804359938
1319.0,0.006192786702196602
1318.0,0.006184318181661962
1317.0,0.006172683351929913
1316.0,0.006159281683714682
1315.0,0.006149633899111572
1314.0,0.006143642861168115
1313.0,0.0061366171444185245
1312.0,0.006129362529946551
1311.0,0.006127041988767402
1310.0,0.006128247181671059
1309.0,0.006125830312618757
1308.0,0.006118033278461815
1307.0,0.006109351352668568
1306.0,0.006100643149444921
1305.0,0.006088318572542465
1304.0,0.006073349400040608
1303.0,0.006060492321115793
1302.0,0.0060489539930476946
1301.0,0.006033400634917589
1300.0,0.006014367847137827
1299.0,0.005997755146080741
1298.0,0.005984009802335699
1297.0,0.005967347158579548
1296.0,0.005946079448653603
1295.0,0.005924317766895441
1294.0,0.005903270315061187
1293.0,0.0058805631042672425
1292.0,0.005858226379989853
1291.0,0.005841886010043649
1290.0,0.005831630760226126
1289.0,0.00582266965545247
1288.0,0.005815111652854168
1287.0,0.005813704556355348
1286.0,0.005817903833901248
1285.0,0.005822143116513887
1284.0,0.0058261281096011605
1283.0,0.005835261648470709
1282.0,0.005850653030368826
1281.0,0.005867727410083979
1280.0,0.0058852371956712194
1279.0,0.005906559289780948
1278.0,0.00593141527329173
1277.0,0.005955230472092662
1276.0,0.005977440797914248
1275.0,0.006002299158867285
1274.0,0.006030969320327895
1273.0,0.006060967282015135
1272.0,0.00609340982148558
1271.0,0.0061323716444858355
1270.0,0.006176583297696775
1269.0,0.00622018007561455
1268.0,0.0062620976112857775
1267.0,0.006306467677822323
1266.0,0.006353818007393174
1265.0,0.006400133246732908
1264.0,0.006444768126667772
1263.0,0.0064914124972443405
1262.0,0.006540915810870021
1261.0,0.0065904626142031285
1260.0,0.006639848848791995
1259.0,0.006691255254556845
1258.0,0.006743309868211556
1257.0,0.006793002755074758
1256.0,0.006842755490410335
1255.0,0.006898202732794487
1254.0,0.006959402414891904
1253.0,0.007021385635305553
1252.0,0.00708288844743187
1251.0,0.0071473155050369944
1250.0,0.007215494908592399
1249.0,0.00728492062289726
1248.0,0.007355991851040144
1247.0,0.007431696517166098
1246.0,0.007510981297799174
1245.0,0.007589176744247937
1244.0,0.007665010910606319
1243.0,0.007740936561469364
1242.0,0.00781662961847111
1241.0,0.007888444784216346
1240.0,0.007955344610270695
1239.0,0.008019568788264137
1238.0,0.008081457638393953
1237.0,0.00813918757389289
1236.0,0.008193700558860388
1235.0,0.008248410436272785
1234.0,0.00830372098836389
1233.0,0.008356917629058973
1232.0,0.008407523967024462
1231.0,0.008457558484274501
1230.0,0.008506316086291077
1229.0,0.008550141081749648
1228.0,0.008588159173653777
1227.0,0.008623810598918398
1226.0,0.008659906206669978
1225.0,0.008695886765532625
1224.0,0.008730348394111341
1223.0,0.008762576450871758
1222.0,0.008791331130257497
1221.0,0.008815709725170555
1220.0,0.008837435082117411
1219.0,0.008858914683782642
1218.0,0.008879057776171054
1217.0,0.008894458456489784
1216.0,0.008904614147784188
1215.0,0.008912665376507695
1214.0,0.008921200054912601
1213.0,0.00893060285190966
1212.0,0.008941078006503456
1211.0,0.008952736062298131
1210.0,0.00896401323335567
1209.0,0.00897351240410745
1208.0,0.008983079336645211
1207.0,0.00899553978517013
1206.0,0.009009768617960157
1205.0,0.009021639609513736
1204.0,0.009029686853502262
1203.0,0.009036355733283255
1202.0,0.009043733892162642
1201.0,0.009051245063078264
1200.0,0.009057508226083182
1199.0,0.009061614924025095
1198.0,0.009063035455872625
1197.0,0.009063048535681883
1196.0,0.00906541336424966
1195.0,0.009072701258095658
1194.0,0.009082844177031056
1193.0,0.009092487162103688
1192.0,0.00910259927516031
1191.0,0.00911693785907541
1190.0,0.009135706277494389
1189.0,0.009154687419252185
1188.0,0.009170602251956992
1187.0,0.009184123985231506
1186.0,0.00919808379700243
1185.0,0.00921571654377738
1184.0,0.009239990777354268
1183.0,0.009271474870341453
1182.0,0.00930737850275799
1181.0,0.009345746963422755
1180.0,0.009389414815242712
1179.0,0.009441787510182747
1178.0,0.009499248012945811
1177.0,0.009551951728874214
1176.0,0.009592530292450973
1175.0,0.009621517257098873
1174.0,0.0096450479633469
1173.0,0.00967003673097226
1172.0,0.00970097576025543
1171.0,0.009737842698992964
1170.0,0.009776006592969903
1169.0,0.00981012259747374
1168.0,0.009838663800038781
1167.0,0.009863910952061983
1166.0,0.00988864540383988
1165.0,0.009914450179808545
1164.0,0.009941841085822753
1163.0,0.009969598681927627
1162.0,0.009994830538621843
1161.0,0.01001597452458663
1160.0,0.01003518557337387
1159.0,0.010055968697161244
1158.0,0.010079362274336225
1157.0,0.010104316294789542
1156.0,0.010130509691566873
1155.0,0.010158247578334355
1154.0,0.010186426091507519
1153.0,0.010213257132944692
1152.0,0.010238810648466842
1151.0,0.01026486029798131
1150.0,0.010292471301246817
1149.0,0.010321227737360642
1148.0,0.010350270445224356
1147.0,0.010378720856526549
1146.0,0.010405946679655954
1145.0,0.010432840952099905
1144.0,0.010461959802795807
1143.0,0.010494939570916018
1142.0,0.010530519699289887
1141.0,0.01056637399650445
1140.0,0.010601917037227177
1139.0,0.010638185305964309
1138.0,0.010676239681574048
1137.0,0.01071693969465891
1136.0,0.010760944101575375
1135.0,0.010807600303049019
1134.0,0.010855256395728277
1133.0,0.010904039003989863
1132.0,0.010956874954563985
1131.0,0.011016290371836688
1130.0,0.011081379060629908
1129.0,0.011149148110372388
1128.0,0.011217415958640767
1127.0,0.01128518817754506
1126.0,0.011352093509307212
1125.0,0.011419496578332418
1124.0,0.01149126340984146
1123.0,0.01157166069928265
1122.0,0.01166254390694126
1121.0,0.011763144091198746
1120.0,0.011871887349688743
1119.0,0.011987890707726226
1118.0,0.012111231848879297
1117.0,0.012241525533078976
1116.0,0.012375363992206942
1115.0,0.012506268525018972
1114.0,0.01262923788788857
1113.0,0.012744653931156254
1112.0,0.012855825414826542
1111.0,0.012964061113439186
1110.0,0.01306836607421761
1109.0,0.013168594941763992
1108.0,0.01326608825847464
1107.0,0.01336201799806408
1106.0,0.013457361701074007
1105.0,0.01355344327093372
1104.0,0.01365071098338411
1103.0,0.013747972470689514
1102.0,0.013843972397685169
1101.0,0.01393850311504073
1100.0,0.014031191463981543
1099.0,0.014121863723201586
1098.0,0.014212713212401213
1097.0,0.014306688648685935
1096.0,0.014402972203102542
1095.0,0.014497388842750862
1094.0,0.014588372917550111
1093.0,0.014678213060640554
1092.0,0.014767079525433872
1091.0,0.014850697029556319
1090.0,0.014926257873526153
1089.0,0.014996373507612702
1088.0,0.015064875159413398
1087.0,0.015132438427586981
1086.0,0.015197718680735873
1085.0,0.01525847392065684
1084.0,0.015310549596177513
1083.0,0.015350898082347977
1082.0,0.01538272238799682
1081.0,0.015412141142086128
1080.0,0.015439020507880433
1079.0,0.015457299322141713
1078.0,0.015465254225904043
1077.0,0.015468481875531903
1076.0,0.015470899203381482
1075.0,0.015469551823439072
1074.0,0.015460866489227346
1073.0,0.015446146444192996
1072.0,0.015428459145333629
1071.0,0.015409454386737922
1070.0,0.015391381345113381
1069.0,0.015377518891292689
1068.0,0.015368792809121117
1067.0,0.015363261746872442
1066.0,0.01535878390266187
1065.0,0.015352533629375775
1064.0,0.015339684552055467
1063.0,0.015318343379721242
1062.0,0.015294815599881221
1061.0,0.015277625958363131
1060.0,0.015266781189865065
1059.0,0.015255242136338241
1058.0,0.015240497775976001
1057.0,0.015228133018633641
1056.0,0.015224445119992162
1055.0,0.015232551778357115
1054.0,0.015255269634682867
1053.0,0.015293228369752106
1052.0,0.015337708860915449
1051.0,0.015373362468646401
1050.0,0.015392587462898406
1049.0,0.015400345450010962
1048.0,0.015402118004502276
1047.0,0.015395826234909423
1046.0,0.015377549364128426
1045.0,0.015346923582065249
1044.0,0.015305700667070453
1043.0,0.01525768515578738
1042.0,0.015210289709128053
1041.0,0.01516990564377653
1040.0,0.015135222876444508
1039.0,0.01510017154399176
1038.0,0.015063210484232488
1037.0,0.015028684109036235
1036.0,0.014999892484157087
1035.0,0.014976409900046853
1034.0,0.014957178756872417
1033.0,0.014939826528786823
1032.0,0.014917006652333142
1031.0,0.01487982853562565
1030.0,0.014825772001534399
1029.0,0.014758103653361214
1028.0,0.014678217443876797
1027.0,0.01458439589801503
1026.0,0.014477058395475154
1025.0,0.014358851668893113
1024.0,0.014230432830593425
1023.0,0.014092474054639459
1022.0,0.013950982148688293
1021.0,0.01381423790069728
1020.0,0.01368480846729395
1019.0,0.013560400560951315
1018.0,0.013441783657391335
1017.0,0.013333631597429344
1016.0,0.013237817341794881
1015.0,0.013152106569168369
1014.0,0.01307610254339327
1013.0,0.013012896475949031
1012.0,0.012963617274078605
1011.0,0.01292477882760136
1010.0,0.012891863826787737
1009.0,0.012861297375124831
1008.0,0.01282792627535357
1007.0,0.012784931055326878
1006.0,0.012728032431106491
1005.0,0.012656629537203024
1004.0,0.012570292694336151
1003.0,0.012468111726583296
1002.0,0.012351946223213553
1001.0,0.012225968841509404
1000.0,0.012092145964263654
999.0,0.011950027502331326
998.0,0.011801689135781905
997.0,0.011652985686740353
996.0,0.011508523217186007
995.0,0.011368072629553328
994.0,0.011228996956397543
993.0,0.011090184653814988
992.0,0.010952931815454092
991.0,0.010819813935810515
990.0,0.010693279583445212
989.0,0.010573835314393923
988.0,0.010459149345501172
987.0,0.010346015423219142
986.0,0.010233403546561066
985.0,0.010122811237014648
984.0,0.010015914816973481
983.0,0.009912879081080512
982.0,0.009812599565705644
981.0,0.00971344151063039
980.0,0.009613912347208778
979.0,0.009513775091523709
978.0,0.009414668056777188
977.0,0.009318754750375313
976.0,0.009226421666368343
975.0,0.009135642135498173
974.0,0.009043749024814056
973.0,0.008949790760806597
972.0,0.008855265790452147
971.0,0.008762651160444876
970.0,0.0086731678320739
969.0,0.008586019047271787
968.0,0.008499683715257462
967.0,0.008413469103005987
966.0,0.008327802230152243
965.0,0.008243806503208604
964.0,0.008162757164200857
963.0,0.008084832902846718
962.0,0.008007976876339331
961.0,0.007929288413913606
960.0,0.007848259929124662
959.0,0.007767422283694177
958.0,0.0076890915721866265
957.0,0.007612990128149585
956.0,0.0075381004841247965
955.0,0.0074651503811198495
954.0,0.007395712399493491
953.0,0.007330232478576622
952.0,0.007268531806499699
951.0,0.007211066618293243
950.0,0.007158249936762187
949.0,0.00710973313570416
948.0,0.00706562217218536
947.0,0.007026938486364341
946.0,0.006993499564957938
945.0,0.006962842203851087
944.0,0.0069326698555495885
943.0,0.006903003046039335
942.0,0.006874737428794155
941.0,0.006847730995367346
940.0,0.006821678665273162
939.0,0.006797019241962963
938.0,0.006773113091054951
937.0,0.0067471330130045425
936.0,0.006716884239841481
935.0,0.006683665796198973
934.0,0.006650526133474163
933.0,0.0066186106007620395
932.0,0.006586708741214005
931.0,0.006553196162441087
930.0,0.006517023239286839
929.0,0.006478416107753137
928.0,0.006440455842489982
927.0,0.006408379323636672
926.0,0.006384964230826877
925.0,0.006367675059872818
924.0,0.0063523369446929386
923.0,0.00633833216268866
922.0,0.006328201721973721
921.0,0.006323567433719372
920.0,0.00632387271010406
919.0,0.00632815825964792
918.0,0.006335713492513063
917.0,0.006345565701359463
916.0,0.006357210799139264
915.0,0.006371112368776386
914.0,0.006386565946856498
913.0,0.006399671455669886
912.0,0.006405035253930861
911.0,0.0063985823903927284
910.0,0.006377175866849712
909.0,0.006337381935258093
908.0,0.006278157523234004
907.0,0.006204500086507022
906.0,0.006124928045098134
905.0,0.006044697587766512
904.0,0.005964074384055676
903.0,0.005882924151914802
902.0,0.005803271801522963
901.0,0.005726622332891377
900.0,0.005652214887721224
899.0,0.005579460509578537
898.0,0.005509754659372354
897.0,0.005444565617952748
896.0,0.005383515087292015
895.0,0.005325407389169968
894.0,0.005269928393768039
893.0,0.005217877507891343
892.0,0.005170769127893862
891.0,0.005130180176040402
890.0,0.005096497794546747
889.0,0.005068831643421698
888.0,0.005047439811697395
887.0,0.005035701724868708
886.0,0.0050383677507157484
885.0,0.005058377380147685
884.0,0.005096460992590021
883.0,0.00515281025872801
882.0,0.005227652164830305
881.0,0.005320627794157988
880.0,0.005429902940265233
879.0,0.00555010748756752
878.0,0.005670599863879729
877.0,0.005778919123258724
876.0,0.005868589465901808
875.0,0.0059411158380318005
874.0,0.005995485704778863
873.0,0.0060156582953595555
872.0,0.005975040022164905
871.0,0.005859536179109806
870.0,0.005685881678287492
869.0,0.005494216604192502
868.0,0.005323053157446776
867.0,0.005191153208247274
866.0,0.005097070585792727
865.0,0.0050297388136173755
864.0,0.004978917791975235
863.0,0.004938893571513586
862.0,0.004906530409623073
861.0,0.0048786558214081194
860.0,0.004851711251074229
859.0,0.004822766531401544
858.0,0.004790458247328564
857.0,0.004755671945770679
856.0,0.004721238238342002
855.0,0.004689390774460709
854.0,0.004658942350691062
853.0,0.004626763159255429
852.0,0.00459306965240096
851.0,0.004563358835245954
850.0,0.004543313763126167
849.0,0.004533051876881431
848.0,0.0045281277919667386
847.0,0.004524968678041969
846.0,0.004523447190144093
845.0,0.004525174115260071
844.0,0.004531524270558501
843.0,0.0045431507819546765
842.0,0.004559759558890453
841.0,0.0045801575672992055
840.0,0.004603055173834456
839.0,0.004627363503880699
838.0,0.00465162659023277
837.0,0.00467469811920447
836.0,0.004697763058778124
835.0,0.004723805151668201
834.0,0.004753390506583687
833.0,0.004782595832290762
832.0,0.004807481613568975
831.0,0.004829663288045218
830.0,0.004854556718826814
829.0,0.004883922718090525
828.0,0.004912937985579695
827.0,0.004935914780131241
826.0,0.004953085342518731
825.0,0.004970434033334111
824.0,0.004994195584445599
823.0,0.005026049090165948
822.0,0.0050617923344299645
821.0,0.005094220050081594
820.0,0.005119066975168213
819.0,0.005138768411619836
818.0,0.005159335725470683
817.0,0.00518376024055379
816.0,0.005210235009072764
815.0,0.005236639063584195
814.0,0.00526390208614988
813.0,0.0052935652547770095
812.0,0.005324475217002389
811.0,0.005354456807210767
810.0,0.005384182270092799
809.0,0.005416948239421387
808.0,0.005454449110516727
807.0,0.005493925145830796
806.0,0.0055297780241260345
805.0,0.0055581897228824464
804.0,0.005581227149419244
803.0,0.005606259970246632
802.0,0.005638959356496865
801.0,0.0056759060875716345
800.0,0.005706485763373223
799.0,0.005723839777598225
798.0,0.005732294804965959
797.0,0.005742296240975664
796.0,0.0057595577640010736
795.0,0.005780474923174143
794.0,0.005796098256160658
793.0,0.005799276907074436
792.0,0.005790582584211419
791.0,0.005779398382222154
790.0,0.005776554452859439
789.0,0.005783396121443572
788.0,0.005790471508288661
787.0,0.005789241334781365
786.0,0.005782312905807697
785.0,0.005779381505369063
784.0,0.005785826192970861
783.0,0.005798206874279472
782.0,0.005808296356687869
781.0,0.005808584950825242
780.0,0.005796935428115013
779.0,0.00577986667434165
778.0,0.005768668048386988
777.0,0.005767982215969454
776.0,0.005770178959960562
775.0,0.005764551591161629
774.0,0.00574987318918205
773.0,0.005734364712883461
772.0,0.00572610722553114
771.0,0.005727527427433763
770.0,0.0057361328442362735
769.0,0.005745733257913915
768.0,0.005749192908545932
767.0,0.005745115334382258
766.0,0.005740649369343686
765.0,0.0057439551209938185
764.0,0.005755932438723473
763.0,0.005772239517270859
762.0,0.0057895657551328
761.0,0.005805963191103409
760.0,0.005819617729057979
759.0,0.005832720132362616
758.0,0.005852105913658886
757.0,0.005879890418182604
756.0,0.005907641270304263
755.0,0.005926288531799244
754.0,0.005937586148725412
753.0,0.005949138463052969
752.0,0.0059634393068091224
751.0,0.005979759031090036
750.0,0.006000880021968469
749.0,0.0060281146406610635
748.0,0.00605456953651428
747.0,0.006073817068385013
746.0,0.006090842305132306
745.0,0.0061137580536666115
744.0,0.006140061672747853
743.0,0.0061632860841546976
742.0,0.006187998969468783
741.0,0.006225065992768295
740.0,0.006278667356352952
739.0,0.006354091272628171
738.0,0.006473329103451787
737.0,0.006673850562710408
736.0,0.007017961113241947
735.0,0.007636716328527153
734.0,0.008729804601263323
733.0,0.010416054282477561
732.0,0.012497739350200833
731.0,0.014392158503491303
730.0,0.015428881612092119
729.0,0.015340748448547457
728.0,0.014456379783281625
727.0,0.013392014483962156
726.0,0.012623288407250126
725.0,0.012345043424396872
724.0,0.012616490132409817
723.0,0.013522522174414358
722.0,0.015126471023835044
721.0,0.01722487379186734
720.0,0.019185976445491165
719.0,0.02024231888421669
718.0,0.020066582592801398
717.0,0.01892042280386611
716.0,0.017291343836520937
715.0,0.01557077979061838
714.0,0.01399065487198984
713.0,0.012670408030386895
712.0,0.011645975569160638
711.0,0.010881361073282112
710.0,0.01030440475943234
709.0,0.00985569388998292
708.0,0.009504155449452552
707.0,0.009227388800417556
706.0,0.00900139586470548
705.0,0.008812157602050966
704.0,0.008657780962783189
703.0,0.008533416047748444
702.0,0.008427048567844906
701.0,0.008332034640656317
700.0,0.008250055471070713
699.0,0.008178732634248674
698.0,0.008109044336244214
697.0,0.008037622396235698
696.0,0.007969459474720206
695.0,0.007906937595879512
694.0,0.007847576579115475
693.0,0.007793655523499593
692.0,0.0077514152853021216
691.0,0.007717190319188825
690.0,0.007676819699328928
689.0,0.007624275009947175
688.0,0.007570970714034673
687.0,0.007531275615395789
686.0,0.007507951761373531
685.0,0.007495563291005508
684.0,0.007486391353843611
683.0,0.00746968458876842
682.0,0.007437598040916033
681.0,0.007396545549172778
680.0,0.007363098944239099
679.0,0.007344066340415673
678.0,0.007328469011458982
677.0,0.007303478684957827
676.0,0.007268968895765332
675.0,0.007235427740875938
674.0,0.007212683545148342
673.0,0.0072007743977148386
672.0,0.00718721310778948
671.0,0.007156419747873382
670.0,0.007101877980633537
669.0,0.007040908496174381
668.0,0.00702177689336776
667.0,0.007058165453201008
666.0,0.007087212748650592
665.0,0.007074987796339843
664.0,0.007043998445710235
663.0,0.007013351614714327
662.0,0.006985438110819713
661.0,0.006960603376103748
660.0,0.006944152465981035
659.0,0.006932493575278555
658.0,0.006910112545641209
657.0,0.006871019058232258
656.0,0.006830624412949394
655.0,0.006808881816727274
654.0,0.006808589876874218
653.0,0.006815021304101637
652.0,0.006811071632339594
651.0,0.006787293100704594
650.0,0.00674632665352356
649.0,0.006702507109575623
648.0,0.006669733252113577
647.0,0.006646511175249451
646.0,0.0066188131533527015
645.0,0.006578219034860163
644.0,0.006529644367531147
643.0,0.006482487976605349
642.0,0.006441565962432434
641.0,0.006407015578319427
640.0,0.006376065106335165
639.0,0.00634248358339508
638.0,0.0063022820590196635
637.0,0.006261436930071033
636.0,0.006228950749482693
635.0,0.0062022359902232545
634.0,0.006170512356153641
633.0,0.006133869361473846
632.0,0.006104707691782811
631.0,0.00608678366165076
630.0,0.006066356973740099
629.0,0.006031021263807897
628.0,0.005985971700004035
627.0,0.00594299776422501
626.0,0.005901155912220431
625.0,0.005847862257894812
624.0,0.0057767848151597245
623.0,0.005696458631498752
622.0,0.005621531216047094
621.0,0.005559198810744176
620.0,0.005504910966725314
619.0,0.005450432128764434
618.0,0.0053969568529297915
617.0,0.005358306492099875
616.0,0.005345251248119798
615.0,0.005350487166633656
614.0,0.005358845077036973
613.0,0.005367755569196907
612.0,0.005383845390754442
611.0,0.0054035782478968186
610.0,0.0054166950315667275
609.0,0.005428260033483548
608.0,0.005455472920525939
607.0,0.0055007683263179835
606.0,0.005549342521420666
605.0,0.005594886263356155
604.0,0.005644745924497199
603.0,0.005697267364823696
602.0,0.0057348635733625065
601.0,0.0057430225125753905
600.0,0.005719185743062686
599.0,0.0056674876711684495
598.0,0.005603229577151082
597.0,0.005552094938984606
596.0,0.005527116035287797
595.0,0.005510044430207274
594.0,0.005471560916236342
593.0,0.005407726484403748
592.0,0.005338982311861566
591.0,0.005282207390353477
590.0,0.005242572842396386
589.0,0.005223558708349244
588.0,0.00521706139800402
587.0,0.0051847547979298235
586.0,0.00508807371265416
585.0,0.00494489450401071
584.0,0.004818498996415114
583.0,0.004739949064618806
582.0,0.004672845406078949
581.0,0.004575519412116837
580.0,0.004467939477179781
579.0,0.004406846945573735
578.0,0.00441153564962162
577.0,0.004446034686894502
576.0,0.004457772266808178
575.0,0.004402376220091156
574.0,0.00427312145123374
573.0,0.004125541123453421
572.0,0.004042223327742894
571.0,0.004057356239378054
570.0,0.004119573688276965
569.0,0.004166651439047147
568.0,0.004207183275210993
567.0,0.0042750706269489396
566.0,0.0043474222506612245
565.0,0.004365123523238429
564.0,0.0043023124096574035
563.0,0.004181978076510167
562.0,0.004060386352650026
561.0,0.004007327303600665
560.0,0.004069599994189397
559.0,0.004211950329979439
558.0,0.00431673824138535
557.0,0.004299737095929987
556.0,0.00419574756744026
555.0,0.004109956467048228
554.0,0.004109206291383415
553.0,0.004180185705296059
552.0,0.00426704771751321
551.0,0.004292345828660524
550.0,0.004193314926462621
