cm-1,A
4000.0,0.004003829038002726
3999.0,0.004006081639706969
3998.0,0.004013674891006885
3997.0,0.004019685461715118
3996.0,0.004017564917965406
3995.0,0.004006586428887922
3994.0,0.003993647314930007
3993.0,0.0039874937059037165
3992.0,0.00399136865893708
3991.0,0.004000674916352467
3990.0,0.00400705677747348
3989.0,0.004005129816502472
3988.0,0.003995241028729679
3987.0,0.003982499220689307
3986.0,0.003974071969478323
3985.0,0.003976682991802288
3984.0,0.00399238693362948
3983.0,0.004015414630591987
3982.0,0.004034506284324787
3981.0,0.004039871082621751
3980.0,0.004030746337413106
3979.0,0.00401530741352587
3978.0,0.004004496506393499
3977.0,0.0040042145267135685
3976.0,0.0040123069334184434
3975.0,0.004022578806663255
3974.0,0.004029889792624252
3973.0,0.004032578203766852
3972.0,0.004029940678976294
3971.0,0.004020915550075707
3970.0,0.004007016139455238
3969.0,0.0039947111462242885
3968.0,0.003992544291198959
3967.0,0.004003680597580341
3966.0,0.004021365813777043
3965.0,0.0040325112789209834
3964.0,0.0040272192782924675
3963.0,0.0040068945823216
3962.0,0.003984061308127468
3961.0,0.003971491941838745
3960.0,0.003971163762304133
3959.0,0.0039753251115858725
3958.0,0.003976848495673728
3957.0,0.003977035809044516
3956.0,0.003982201378277839
3955.0,0.0039933403692441315
3954.0,0.004003074423145831
3953.0,0.004002351854341663
3952.0,0.003988792171083627
3951.0,0.003969084296301879
3950.0,0.003952688874945636
3949.0,0.003944817416372768
3948.0,0.003945991723922778
3947.0,0.003954251667148811
3946.0,0.003965663400145293
3945.0,0.003974711386928286
3944.0,0.003975814485638925
3943.0,0.00396659696959423
3942.0,0.003952542556942542
3941.0,0.003946183387964328
3940.0,0.003955975133974169
3939.0,0.0039776419047464475
3938.0,0.00399868295576082
3937.0,0.004008036802582493
3936.0,0.004003214212763506
3935.0,0.003990982641245038
3934.0,0.003981651535566469
3933.0,0.003979171630166304
3932.0,0.003977027776060933
3931.0,0.003969687842969104
3930.0,0.00396135079245707
3929.0,0.003960386986555539
3928.0,0.0039696271540100025
3927.0,0.00398427120663965
3926.0,0.003996755713965745
3925.0,0.003998533103584406
3924.0,0.0039873002188802
3923.0,0.0039720421528205005
3922.0,0.003962366374473932
3921.0,0.0039602385389718685
3920.0,0.003961923798255145
3919.0,0.0039632991978325975
3918.0,0.003962511327229773
3917.0,0.0039593297932284605
3916.0,0.003956315751254689
3915.0,0.003957052975847347
3914.0,0.003962699521042893
3913.0,0.003972428168000466
3912.0,0.003984328726562354
3911.0,0.003995767730384682
3910.0,0.004005176983755882
3909.0,0.004013385165995746
3908.0,0.004024017763179051
3907.0,0.004039376082005045
3906.0,0.0040553067989478764
3905.0,0.004057653879801978
3904.0,0.004032707371916456
3903.0,0.003987726090778795
3902.0,0.0039467702952672564
3901.0,0.00392511977029786
3900.0,0.003923155534760167
3899.0,0.00393797757423027
3898.0,0.003965891032889852
3897.0,0.003997612952696234
3896.0,0.004019655960999948
3895.0,0.004023685023339805
3894.0,0.004012206754689117
3893.0,0.0039924311735783855
3892.0,0.003969237429089584
3891.0,0.003949453758934575
3890.0,0.003945640078532171
3889.0,0.003955857148785393
3888.0,0.003961773909957518
3887.0,0.003952659484851243
3886.0,0.003934111564556739
3885.0,0.003920032819881403
3884.0,0.003923370229813061
3883.0,0.003943543940872201
3882.0,0.0039651648460900845
3881.0,0.003971982427111249
3880.0,0.0039615962008447015
3879.0,0.003953315503507384
3878.0,0.003959536647114166
3877.0,0.00396759736290693
3876.0,0.0039654907436052185
3875.0,0.003955395819268369
3874.0,0.0039448054848675055
3873.0,0.003941529676733659
3872.0,0.003950306058707101
3871.0,0.003966832211088056
3870.0,0.0039812944192925345
3869.0,0.003992241964586586
3868.0,0.004006426162647464
3867.0,0.004015484399298338
3866.0,0.004007187571836391
3865.0,0.003985449677618226
3864.0,0.003959004493977169
3863.0,0.003932670940534286
3862.0,0.003913386900136523
3861.0,0.003902925922196676
3860.0,0.0038953536155479497
3859.0,0.0038822660667390593
3858.0,0.0038581951885209146
3857.0,0.003825092305223699
3856.0,0.0037979940449411635
3855.0,0.0038097821864410348
3854.0,0.0038749302192686128
3853.0,0.003924893155008191
3852.0,0.003927483733772388
3851.0,0.003928741087316504
3850.0,0.00393426292066488
3849.0,0.0039379487373957705
3848.0,0.003941544617084874
3847.0,0.00394579990056988
3846.0,0.003947796567220682
3845.0,0.003944258542832914
3844.0,0.0039352076832165
3843.0,0.003925257451610981
3842.0,0.003923693512637226
3841.0,0.003936641845674616
3840.0,0.0039573418799346526
3839.0,0.003964911627085084
3838.0,0.003944644846416779
3837.0,0.003910230344461127
3836.0,0.0038866861905717037
3835.0,0.003881714794042596
3834.0,0.00388838192730777
3833.0,0.0038966057965941375
3832.0,0.003899962023800789
3831.0,0.003899439360870491
3830.0,0.003900469675404243
3829.0,0.0039050393492179626
3828.0,0.003908933094185352
3827.0,0.00390535853738396
3826.0,0.003891689305279903
3825.0,0.0038713727205345505
3824.0,0.0038473610870739415
3823.0,0.0038259680896598216
3822.0,0.0038220524302129757
3821.0,0.0038373263836429436
3820.0,0.0038604024092842647
3819.0,0.0038886266170361596
3818.0,0.003905689671378773
3817.0,0.0038988833690355037
3816.0,0.0038780036796736274
3815.0,0.003864516366098459
3814.0,0.0038708036944980644
3813.0,0.0038869854819760363
3812.0,0.003898614696963994
3811.0,0.0039017103539815672
3810.0,0.0038981400353711028
3809.0,0.003889817522792242
3808.0,0.0038788051449596067
3807.0,0.0038679293679435706
3806.0,0.0038622740158558012
3805.0,0.003866652017031791
3804.0,0.0038773309544157713
3803.0,0.0038898083510199946
3802.0,0.0038973589651162604
3801.0,0.0038844821477155406
3800.0,0.003862870943318863
3799.0,0.0038515254677343705
3798.0,0.0038436351495644725
3797.0,0.0038330943736712363
3796.0,0.0038207464994946105
3795.0,0.003809792115734869
3794.0,0.003800796574870948
3793.0,0.0037912321672317244
3792.0,0.0037824297277117046
3791.0,0.0037797285058819197
3790.0,0.0037859295778698023
3789.0,0.0037985621573945593
3788.0,0.003810580164121433
3787.0,0.003814932357909782
3786.0,0.0038091868327632364
3785.0,0.003797836401048964
3784.0,0.0037895247260478974
3783.0,0.0037890263491135827
3782.0,0.0037928508438766413
3781.0,0.003795511361919398
3780.0,0.003794604390181637
3779.0,0.0037895674686192838
3778.0,0.0037846823601148834
3777.0,0.0037861140001613303
3776.0,0.003795133809416476
3775.0,0.003811003721090002
3774.0,0.0038329622053797623
3773.0,0.0038545257024698316
3772.0,0.003864477273201609
3771.0,0.0038556198270805315
3770.0,0.00383234357446186
3769.0,0.003808666246319064
3768.0,0.003795548533803592
3767.0,0.0037924491248259406
3766.0,0.0037962222353111466
3765.0,0.0038060865842537627
3764.0,0.003818093281620659
3763.0,0.003823230136582332
3762.0,0.003813496088006896
3761.0,0.0037911150272158566
3760.0,0.0037680052698645375
3759.0,0.0037530836841241345
3758.0,0.0037513000103198716
3757.0,0.003764041587208434
3756.0,0.003783530862334734
3755.0,0.0037971858786910086
3754.0,0.003800943884838505
3753.0,0.003807005807579245
3752.0,0.0038291128300183236
3751.0,0.003848328719574758
3750.0,0.003839111084855216
3749.0,0.003820491518902107
3748.0,0.0038085005794118807
3747.0,0.003793715934984104
3746.0,0.0037744556015548714
3745.0,0.0037650766847531904
3744.0,0.0037718694901520584
3743.0,0.0037931410280089245
3742.0,0.0038168332767117143
3741.0,0.00382395918538271
3740.0,0.00381726807923205
3739.0,0.0038157495657439957
3738.0,0.0038377203256904527
3737.0,0.0038859738364003956
3736.0,0.003927895635945646
3735.0,0.0039142016766991646
3734.0,0.003855784459987423
3733.0,0.0038091626186173336
3732.0,0.003796698279291715
3731.0,0.003805210622502499
3730.0,0.00381682124646416
3729.0,0.0038224465350542515
3728.0,0.0038215965214136844
3727.0,0.003816831526573166
3726.0,0.0038100975923671693
3725.0,0.0038063825900724385
3724.0,0.0038120958022833107
3723.0,0.0038261675626177208
3722.0,0.0038389785146869557
3721.0,0.003842528731761106
3720.0,0.0038371731142100942
3719.0,0.0038297613299227615
3718.0,0.0038284603088306487
3717.0,0.0038368220546702515
3716.0,0.0038516202297706695
3715.0,0.0038689961725375853
3714.0,0.003891981246172844
3713.0,0.003926655495965436
3712.0,0.003962647219017407
3711.0,0.003978803893132814
3710.0,0.003985277149861008
3709.0,0.004007564989841877
3708.0,0.004043482033895209
3707.0,0.0040776679955418
3706.0,0.004106107148983783
3705.0,0.004135674102903889
3704.0,0.004174457600486908
3703.0,0.004223266790809261
3702.0,0.004274646011556602
3701.0,0.004319675056253384
3700.0,0.004356712795287674
3699.0,0.004382853555298307
3698.0,0.004391856352217292
3697.0,0.004384625329060297
3696.0,0.004369298207893966
3695.0,0.004352943641693356
3694.0,0.004337304161966941
3693.0,0.004322865452857018
3692.0,0.004309278407670825
3691.0,0.004289565485021464
3690.0,0.004246846743846504
3689.0,0.004184537802507963
3688.0,0.0041455687967858704
3687.0,0.004157003176500061
3686.0,0.004198365442906699
3685.0,0.004239812596648831
3684.0,0.004266684870176364
3683.0,0.004275528831044563
3682.0,0.004268350844829824
3681.0,0.004249670652287754
3680.0,0.004226835372055482
3679.0,0.004208664419990647
3678.0,0.0042034749266971275
3677.0,0.004218209842377952
3676.0,0.004242003115504047
3675.0,0.004252263512143845
3674.0,0.004272958109684208
3673.0,0.004324682323631176
3672.0,0.004386209469522108
3671.0,0.00444409212269692
3670.0,0.004483510109610851
3669.0,0.0044958374149964234
3668.0,0.004509400131676284
3667.0,0.004536852064786439
3666.0,0.004562625808396702
3665.0,0.004577420097334293
3664.0,0.004584317397509491
3663.0,0.004591974836337323
3662.0,0.004608931784863512
3661.0,0.004638278954220328
3660.0,0.004676595212963336
3659.0,0.004718738552029216
3658.0,0.00476256033257332
3657.0,0.004805877145162074
3656.0,0.004841223027500748
3655.0,0.004866288738803514
3654.0,0.004885161303611299
3653.0,0.00490063882862082
3652.0,0.004924776484596531
3651.0,0.004983300946263816
3650.0,0.005070974889555708
3649.0,0.005117437965970018
3648.0,0.005100689606345851
3647.0,0.005088030941314606
3646.0,0.005116508808301836
3645.0,0.005171643154993307
3644.0,0.005232511982388026
3643.0,0.005289595517748119
3642.0,0.005340424106964901
3641.0,0.005382083039811039
3640.0,0.005410907017496385
3639.0,0.005426708580243247
3638.0,0.005437612274096209
3637.0,0.0054587724529787185
3636.0,0.005502029188933274
3635.0,0.005564178206004961
3634.0,0.005625084898190843
3633.0,0.00566299968934714
3632.0,0.005673653573665822
3631.0,0.005677160277402045
3630.0,0.005708879239383365
3629.0,0.005768588493626523
3628.0,0.005817074485781935
3627.0,0.005865522105620777
3626.0,0.005933496348162973
3625.0,0.006010800381452214
3624.0,0.006086262565048174
3623.0,0.00615188502730513
3622.0,0.006206891630069125
3621.0,0.006261558977706422
3620.0,0.006325774426861797
3619.0,0.0063901367280009514
3618.0,0.006441833142900584
3617.0,0.006481478249787207
3616.0,0.006505847921111021
3615.0,0.0065099978414759055
3614.0,0.006501394071612516
3613.0,0.006500233534970571
3612.0,0.006525866033634874
3611.0,0.006582550714539912
3610.0,0.0066597582651837725
3609.0,0.006739800280384844
3608.0,0.006802709429950972
3607.0,0.006841863777707407
3606.0,0.006871560928091535
3605.0,0.006905401144557662
3604.0,0.006945819389840486
3603.0,0.006991388326918185
3602.0,0.007039421915455872
3601.0,0.007081594603596083
3600.0,0.00710731971162587
3599.0,0.0071138802743387864
3598.0,0.0071078354391659266
3597.0,0.007098443328401806
3596.0,0.007092644535194926
3595.0,0.007095915412020771
3594.0,0.007111479223914281
3593.0,0.007138953469033009
3592.0,0.007171181084941666
3591.0,0.0072006329868023
3590.0,0.007230940368180278
3589.0,0.007277213183750718
3588.0,0.007336533128584018
3587.0,0.007377829319255553
3586.0,0.007395704788171121
3585.0,0.007413263077220146
3584.0,0.007436377185579573
3583.0,0.007458452812043895
3582.0,0.007478640391019301
3581.0,0.007500955389615709
3580.0,0.0075286596035212695
3579.0,0.00756365947245663
3578.0,0.007607243395621596
3577.0,0.00765803599128506
3576.0,0.007709111280670499
3575.0,0.007752567959857366
3574.0,0.007786727706782987
3573.0,0.007816146417909597
3572.0,0.007843907632904927
3571.0,0.007868819908078438
3570.0,0.007890463887676903
3569.0,0.007914294857321024
3568.0,0.007942202977130238
3567.0,0.007960612590802928
3566.0,0.007969002552832557
3565.0,0.007994923206712048
3564.0,0.008048321755089233
3563.0,0.008112523377104108
3562.0,0.008170238561857144
3561.0,0.00821465126756834
3560.0,0.008247065901017984
3559.0,0.008274061060361857
3558.0,0.008304323071519645
3557.0,0.008343788179128226
3556.0,0.008394010748505838
3555.0,0.00845422778776613
3554.0,0.008520668822544394
3553.0,0.008581022614744865
3552.0,0.008618756840039859
3551.0,0.008630835164125437
3550.0,0.008631088360964032
3549.0,0.008636187480150596
3548.0,0.008655081832169696
3547.0,0.008686646837080102
3546.0,0.008725624538793856
3545.0,0.008771678329187923
3544.0,0.008827227497630262
3543.0,0.008887333835124432
3542.0,0.0089403191158741
3541.0,0.008978451719577722
3540.0,0.009003691066545116
3539.0,0.009024204601993886
3538.0,0.009048203838410606
3537.0,0.00907912483143281
3536.0,0.009115999754838483
3535.0,0.009158339715318488
3534.0,0.009206539428456
3533.0,0.009257692047883372
3532.0,0.009305529924872534
3531.0,0.009347577710053212
3530.0,0.009389916523898315
3529.0,0.00944055942985431
3528.0,0.009496734401188173
3527.0,0.00954548696151149
3526.0,0.0095777617757641
3525.0,0.009596510157248795
3524.0,0.009611058487842878
3523.0,0.00962935030743202
3522.0,0.009656258697943251
3521.0,0.009692752979798307
3520.0,0.009733806287249932
3519.0,0.009771591296359598
3518.0,0.009803316415606073
3517.0,0.00983405189420614
3516.0,0.009869841218944143
3515.0,0.009910366819268646
3514.0,0.009950011098718306
3513.0,0.00998452364818267
3512.0,0.010013961296202276
3511.0,0.010040195988463842
3510.0,0.010064175438988751
3509.0,0.010087290088084785
3508.0,0.010113323815316046
3507.0,0.010146525558847415
3506.0,0.010188474414408169
3505.0,0.010236862659209573
3504.0,0.01028417778732771
3503.0,0.010320650493969834
3502.0,0.010344277707674094
3501.0,0.010363549443138692
3500.0,0.010387024513959495
3499.0,0.010417124690524186
3498.0,0.010453149076700342
3497.0,0.01049407387153619
3496.0,0.010538481063232994
3495.0,0.010584222405135032
3494.0,0.010628506430183485
3493.0,0.010667790399132952
3492.0,0.01069883883537095
3491.0,0.010721721346194427
3490.0,0.010741261235069273
3489.0,0.010763299831185746
3488.0,0.01078920458069266
3487.0,0.010816078908583245
3486.0,0.010842005747189968
3485.0,0.010868735575870703
3484.0,0.010900488531690317
3483.0,0.01094170099639861
3482.0,0.010992917643526383
3481.0,0.011046573560081839
3480.0,0.01108939541753855
3479.0,0.01111348683602356
3478.0,0.011125132509831414
3477.0,0.011140318201590041
3476.0,0.011170000841079532
3475.0,0.011209925884476843
3474.0,0.011246427095903977
3473.0,0.01127086588138122
3472.0,0.01128596246164132
3471.0,0.011300641680929743
3470.0,0.011322912101446538
3469.0,0.011356297289267589
3468.0,0.011398962432125397
3467.0,0.011445020137598192
3466.0,0.011488038897331859
3465.0,0.011524377313345102
3464.0,0.011554385935725206
3463.0,0.011581249774226365
3462.0,0.011608158682657018
3461.0,0.011635982995532675
3460.0,0.011663664419859426
3459.0,0.01169042694859257
3458.0,0.011715888523871438
3457.0,0.011737596996324425
3456.0,0.011751620463842757
3455.0,0.011758069496727856
3454.0,0.011764038115697477
3453.0,0.011778106610760468
3452.0,0.011802011394541673
3451.0,0.011830428758376345
3450.0,0.011857775026150015
3449.0,0.011882670416947566
3448.0,0.011906295261570606
3447.0,0.011930102333379057
3446.0,0.011955806027852343
3445.0,0.011983371430361663
3444.0,0.012008245585309265
3443.0,0.01202554444698578
3442.0,0.01203770429198373
3441.0,0.01205404712375978
3440.0,0.012081346864368882
3439.0,0.01211736228782418
3438.0,0.012154623571016683
3437.0,0.012187544294475938
3436.0,0.012214542555158388
3435.0,0.01223596897795747
3434.0,0.01225280653564803
3433.0,0.012267437148091009
3432.0,0.012283223569341152
3431.0,0.012302269543568414
3430.0,0.012323093538653091
3429.0,0.012340862207533127
3428.0,0.012350879699010987
3427.0,0.012353351246977005
3426.0,0.012354662583212125
3425.0,0.012362188819573305
3424.0,0.012377164693850121
3423.0,0.012393582762655364
3422.0,0.01240530727077786
3421.0,0.012413644451996688
3420.0,0.012425980076322224
3419.0,0.012447024793242951
3418.0,0.012474023982614919
3417.0,0.01250102016406992
3416.0,0.012525207997276721
3415.0,0.012547855173087926
3414.0,0.012570529055368545
3413.0,0.012592511636718717
3412.0,0.01261191065525935
3411.0,0.012627463000632966
3410.0,0.012638575245592691
3409.0,0.012644982384628073
3408.0,0.012647718725085116
3407.0,0.012650050945858015
3406.0,0.012656313035491213
3405.0,0.01266916064619434
3404.0,0.012687476202219973
3403.0,0.012705834081258683
3402.0,0.012716013793096179
3401.0,0.012711575558476988
3400.0,0.012693885073300767
3399.0,0.012674443341809338
3398.0,0.01266909923811474
3397.0,0.012687148426111267
3396.0,0.012724627143268597
3395.0,0.012767781636163392
3394.0,0.012802354916633332
3393.0,0.012820928738700816
3392.0,0.01282519696769713
3391.0,0.012823100149394036
3390.0,0.012823293687802861
3389.0,0.012831393751428754
3388.0,0.01284925055830677
3387.0,0.012874569665580038
3386.0,0.01290098904899398
3385.0,0.012922323839515172
3384.0,0.012939113056332783
3383.0,0.012958089786464129
3382.0,0.01298232801525213
3381.0,0.013004960921145836
3380.0,0.013016300321910665
3379.0,0.013015579808867965
3378.0,0.013011178345402661
3377.0,0.01301056508805236
3376.0,0.013015650092471928
3375.0,0.013027353636984863
3374.0,0.013046679174382151
3373.0,0.013068610038498437
3372.0,0.013082380307142753
3371.0,0.01308326740946348
3370.0,0.013080400225736843
3369.0,0.013087780802118287
3368.0,0.013109690387179934
3367.0,0.013138605569318389
3366.0,0.013164422297020986
3365.0,0.013180817339401817
3364.0,0.013185554013828966
3363.0,0.013181462302094408
3362.0,0.013177166878518666
3361.0,0.013181449701983376
3360.0,0.013195271472732126
3359.0,0.013211997408693202
3358.0,0.013225300889094694
3357.0,0.01323381484859516
3356.0,0.013238751412332555
3355.0,0.013241258627249633
3354.0,0.01324333291212514
3353.0,0.013248452996393168
3352.0,0.01325950979560441
3351.0,0.013276418714828242
3350.0,0.01329560861782541
3349.0,0.013311589197010794
3348.0,0.01332068236697906
3347.0,0.013324473264094541
3346.0,0.013328147078322316
3345.0,0.013334226255443634
3344.0,0.013340456649011755
3343.0,0.013345746609699652
3342.0,0.013354217077623179
3341.0,0.01336895602439826
3340.0,0.013384039094420156
3339.0,0.013388738567881408
3338.0,0.013380371309091125
3337.0,0.01336843501425052
3336.0,0.013364545954085408
3335.0,0.01337209528994902
3334.0,0.013387605730315248
3333.0,0.013407596097074119
3332.0,0.013430192275506856
3331.0,0.013452799102853803
3330.0,0.013472653511279712
3329.0,0.013489742583014499
3328.0,0.013506390063912781
3327.0,0.013523004644045818
3326.0,0.013536031529031985
3325.0,0.013541905178177981
3324.0,0.013542567881333968
3323.0,0.013545213719158662
3322.0,0.01355562719302293
3321.0,0.01357291860171529
3320.0,0.01359185477071408
3319.0,0.01360916385721498
3318.0,0.013625499054516432
3317.0,0.013642079790627579
3316.0,0.01365857835896418
3315.0,0.01367495901529001
3314.0,0.0136924636877448
3313.0,0.013711428958993133
3312.0,0.013730418013902295
3311.0,0.01374896956372604
3310.0,0.013768981680747465
3309.0,0.013791737998198739
3308.0,0.013815737777224286
3307.0,0.013839120418495665
3306.0,0.013861628694908172
3305.0,0.013882118609592315
3304.0,0.013897082404272615
3303.0,0.013904874794527318
3302.0,0.013909629849225124
3301.0,0.013917620852564053
3300.0,0.013930706183177644
3299.0,0.013946119691768746
3298.0,0.013961451566805434
3297.0,0.013976725068604088
3296.0,0.013992185253514521
3295.0,0.014007378434520884
3294.0,0.014022596213436923
3293.0,0.014038586049918858
3292.0,0.014054142506890797
3291.0,0.014065826239032572
3290.0,0.014070818452766774
3289.0,0.014069385515153453
3288.0,0.014064862079800556
3287.0,0.014061692410062719
3286.0,0.014061962965315386
3285.0,0.014062342197946052
3284.0,0.014055690307577147
3283.0,0.014037855011548889
3282.0,0.014012490653293382
3281.0,0.013987675898823548
3280.0,0.013968690401754701
3279.0,0.013955211706671782
3278.0,0.013943566277880218
3277.0,0.013928932839401165
3276.0,0.013906222356805276
3275.0,0.013872118265804492
3274.0,0.013827625481124031
3273.0,0.013778097115949987
3272.0,0.013730839776392586
3271.0,0.013692330331968509
3270.0,0.013665125217033254
3269.0,0.013645341982039046
3268.0,0.013624226081680029
3267.0,0.013593814634335398
3266.0,0.013550613271500901
3265.0,0.013494438963835825
3264.0,0.013427739301442972
3263.0,0.01335814732615669
3262.0,0.013297044608516549
3261.0,0.013250023848188242
3260.0,0.013209999255230956
3259.0,0.013163973232854426
3258.0,0.013106084269276834
3257.0,0.013040689060225126
3256.0,0.012974755903179105
3255.0,0.01291243836550187
3254.0,0.012856127414362907
3253.0,0.012806374568746627
3252.0,0.012759247036980486
3251.0,0.012708971017208219
3250.0,0.012655343535513779
3249.0,0.012604564788942367
3248.0,0.012560228193816685
3247.0,0.01251711327715153
3246.0,0.012467384256638292
3245.0,0.01241074452371895
3244.0,0.012354646685777647
3243.0,0.012305585777864973
3242.0,0.01226431728125025
3241.0,0.012229325446854572
3240.0,0.012200348325779204
3239.0,0.012176178354147615
3238.0,0.012151257414485628
3237.0,0.012117807440538954
3236.0,0.012072708664313902
3235.0,0.012021183197951774
3234.0,0.011972225304240657
3233.0,0.011930522074548644
3232.0,0.011893912768516717
3231.0,0.01185822251968422
3230.0,0.011821948791551533
3229.0,0.011785146459090437
3228.0,0.011746310268058389
3227.0,0.011703436952320049
3226.0,0.01165775185208394
3225.0,0.011614046922451056
3224.0,0.01157695273091312
3223.0,0.011547871577597665
3222.0,0.011524907384777919
3221.0,0.01150424700522031
3220.0,0.0114819452335346
3219.0,0.011456035817780472
3218.0,0.01142705783651414
3217.0,0.011395615722042333
3216.0,0.011360376317151885
3215.0,0.011320055004480049
3214.0,0.011277027236665406
3213.0,0.01123700697837889
3212.0,0.011204455647926399
3211.0,0.011178973215870067
3210.0,0.011155851763563412
3209.0,0.01112938750327765
3208.0,0.011096256902876396
3207.0,0.011056721100605531
3206.0,0.011012905944132054
3205.0,0.010966147804709047
3204.0,0.010916660019249
3203.0,0.01086572963834336
3202.0,0.010816982495313175
3201.0,0.010774535768981608
3200.0,0.010740147731806848
3199.0,0.010711790822154415
3198.0,0.010684155379207244
3197.0,0.010651601592079755
3196.0,0.010613094760369118
3195.0,0.01057389923058022
3194.0,0.01053988183781768
3193.0,0.010510103371655881
3192.0,0.010477750129419471
3191.0,0.010438817856047437
3190.0,0.01039655060568529
3189.0,0.010355721475276186
3188.0,0.010315956899248666
3187.0,0.010273696368516997
3186.0,0.010228452650683699
3185.0,0.01018419533762517
3184.0,0.010145833573020856
3183.0,0.010115763238587965
3182.0,0.01009162122150557
3181.0,0.010065600873748111
3180.0,0.010029136732545888
3179.0,0.009981371724943422
3178.0,0.009930872650006558
3177.0,0.009886331413156512
3176.0,0.009848163834653645
3175.0,0.009811638717844774
3174.0,0.009774118582525198
3173.0,0.00973519953467189
3172.0,0.009693632788242841
3171.0,0.009649734280935624
3170.0,0.009608544338634046
3169.0,0.009574811370941483
3168.0,0.009546079846241074
3167.0,0.009516291763793854
3166.0,0.00948463456026361
3165.0,0.009454398171254914
3164.0,0.009423988740044702
3163.0,0.00938644073985544
3162.0,0.009339940897895867
3161.0,0.00929281759778923
3160.0,0.009254391173224167
3159.0,0.009224689650794999
3158.0,0.009196382518132007
3157.0,0.009163713701258893
3156.0,0.009126703673013525
3155.0,0.009089099458408235
3154.0,0.009055008779813448
3153.0,0.009025974305595803
3152.0,0.008999116380046948
3151.0,0.008969040675489762
3150.0,0.008933055125629636
3149.0,0.008893649936969502
3148.0,0.008855061659696357
3147.0,0.00881907981828986
3146.0,0.008785270877037555
3145.0,0.008753288765512306
3144.0,0.008723086270928028
3143.0,0.008693766901223667
3142.0,0.008663799771468908
3141.0,0.008632229786461922
3140.0,0.008599179576260635
3139.0,0.008565878223862422
3138.0,0.008534610890762727
3137.0,0.008507720592132208
3136.0,0.008486022020706441
3135.0,0.008468737743706285
3134.0,0.008454686421033662
3133.0,0.008442314796301377
3132.0,0.008428744029069466
3131.0,0.008410597364438591
3130.0,0.008386492618835086
3129.0,0.008358070931626764
3128.0,0.008328755811890541
3127.0,0.008302563746222543
3126.0,0.008283341524226533
3125.0,0.00827266117607384
3124.0,0.00826730607044939
3123.0,0.008260336765570185
3122.0,0.008246851299263494
3121.0,0.008228707125898559
3120.0,0.008212266641683437
3119.0,0.008201542203445607
3118.0,0.00819411642478596
3117.0,0.008183580469622398
3116.0,0.008165461930115797
3115.0,0.008141019695992674
3114.0,0.008116353398021366
3113.0,0.008098505138729482
3112.0,0.008091269685988828
3111.0,0.008092609229981111
3110.0,0.00809576838884718
3109.0,0.00809501067250513
3108.0,0.008091605644694714
3107.0,0.00809227457187486
3106.0,0.00809974639582364
3105.0,0.008107174989621177
3104.0,0.00810497749338432
3103.0,0.008092047529145217
3102.0,0.008077261909031156
3101.0,0.008070489632192106
3100.0,0.008075570457457253
3099.0,0.008091763834675136
3098.0,0.008116098015961064
3097.0,0.008141896002698445
3096.0,0.008160122931518516
3095.0,0.00816652462673675
3094.0,0.008165483976390824
3093.0,0.00816360453318135
3092.0,0.008162423706593775
3091.0,0.008160572751994874
3090.0,0.008159329942196755
3089.0,0.008161316837510686
3088.0,0.008164949335056453
3087.0,0.00816532559375643
3086.0,0.008161921625100014
3085.0,0.008161256089443248
3084.0,0.008170002368174174
3083.0,0.008187362872669406
3082.0,0.008205089496354099
3081.0,0.008213938858721787
3080.0,0.008209466145907571
3079.0,0.008193248870948803
3078.0,0.00817067525897059
3077.0,0.008147729992551879
3076.0,0.00812900720385431
3075.0,0.008117408551930822
3074.0,0.008113921327225736
3073.0,0.008116672256644985
3072.0,0.008120555436579963
3071.0,0.008118942079646616
3070.0,0.008107240328541356
3069.0,0.008086484519858342
3068.0,0.008063932324524781
3067.0,0.008048264050011942
3066.0,0.008041761644088116
3065.0,0.00803754895205888
3064.0,0.008026947101926895
3063.0,0.008009162081724436
3062.0,0.007991430927081144
3061.0,0.007980410345353775
3060.0,0.00797588454678696
3059.0,0.007972639117700249
3058.0,0.007965962397376847
3057.0,0.007954643402811268
3056.0,0.007941539014962268
3055.0,0.00793230726682297
3054.0,0.007930858346129227
3053.0,0.007934463960718341
3052.0,0.007935037058560544
3051.0,0.007926401325024314
3050.0,0.007909509009876298
3049.0,0.007890490454709579
3048.0,0.00787546786118931
3047.0,0.007867722657010212
3046.0,0.007866760146470973
3045.0,0.007868000126077811
3044.0,0.00786513207628468
3043.0,0.007855080598936198
3042.0,0.007840069680781587
3041.0,0.0078247703044351
3040.0,0.007813133054874015
3039.0,0.007807935532038751
3038.0,0.007810141991005103
3037.0,0.007817044775502645
3036.0,0.007823661138663873
3035.0,0.00782758777898071
3034.0,0.007830161648552748
3033.0,0.007831600481882427
3032.0,0.007828406934010546
3031.0,0.007817503403787522
3030.0,0.00780028154376806
3029.0,0.007780345173257139
3028.0,0.0077611828878111295
3027.0,0.007748500592396209
3026.0,0.007749679013413174
3025.0,0.007765183033511244
3024.0,0.007783196210194093
3023.0,0.0077884746683805515
3022.0,0.007776664505963157
3021.0,0.007756976050159349
3020.0,0.007741392625334666
3019.0,0.007735159581033471
3018.0,0.007736681677272958
3017.0,0.007742513734692267
3016.0,0.00775122746515466
3015.0,0.007764147113052204
3014.0,0.00778318392558197
3013.0,0.007806628446372262
3012.0,0.007828134159633727
3011.0,0.00784183063402866
3010.0,0.007847617045946097
3009.0,0.007850005381772867
3008.0,0.00785309205499493
3007.0,0.00785904746347192
3006.0,0.007869889121303361
3005.0,0.007887269473801072
3004.0,0.00791030386574098
3003.0,0.007936348295504398
3002.0,0.007964910673783838
3001.0,0.007999438643517197
3000.0,0.0080440360284455
2999.0,0.008099083261608473
2998.0,0.008160188661348714
2997.0,0.008221522783211872
2996.0,0.008280505604732633
2995.0,0.008339016112941152
2994.0,0.008399848849596452
2993.0,0.008463267930195941
2992.0,0.008529405449196831
2991.0,0.008603024399634472
2990.0,0.008691880678779278
2989.0,0.00879842624577482
2988.0,0.008916463405315683
2987.0,0.009038269066593229
2986.0,0.009163359302186954
2985.0,0.009297583343769462
2984.0,0.009445995253363449
2983.0,0.00961014805041408
2982.0,0.009791353063919045
2981.0,0.009993344986086103
2980.0,0.010220693147679342
2979.0,0.01047597087019531
2978.0,0.010758920720323974
2977.0,0.011068385352360115
2976.0,0.011405435592172039
2975.0,0.011774399041638696
2974.0,0.012179752004508545
2973.0,0.012622687670686826
2972.0,0.013102364264696185
2971.0,0.013619948034509019
2970.0,0.014178052698041805
2969.0,0.014775575110183639
2968.0,0.015405459763200558
2967.0,0.016057897749419202
2966.0,0.016721894030133397
2965.0,0.01738263410245385
2964.0,0.018022587189202504
2963.0,0.018628983176961232
2962.0,0.019198512948556404
2961.0,0.019732626457885965
2960.0,0.02022976730527624
2959.0,0.020683729434932033
2958.0,0.021087560248725344
2957.0,0.02143708236245861
2956.0,0.02173217271306038
2955.0,0.021977956879514732
2954.0,0.02218619364863598
2953.0,0.022375790257621708
2952.0,0.022574192467023458
2951.0,0.022819001766163784
2950.0,0.023155977044153498
2949.0,0.02363174491963763
2948.0,0.024284759374686646
2947.0,0.025143116871726687
2946.0,0.026228184858463857
2945.0,0.02755737983652184
2944.0,0.029142401764213552
2943.0,0.030985024066298193
2942.0,0.033078099614264674
2941.0,0.03541411021839893
2940.0,0.037993403472300666
2939.0,0.04082323103609313
2938.0,0.04390950139701312
2937.0,0.0472547723986775
2936.0,0.050867142787015734
2935.0,0.05476583503404763
2934.0,0.05897406881556619
2933.0,0.06351181918057083
2932.0,0.06839964495113295
2931.0,0.07366305795607983
2930.0,0.07933069108871163
2929.0,0.08543992270484156
2928.0,0.09205433219579785
2927.0,0.09926806228133754
2926.0,0.10718166404149441
2925.0,0.11588381829496407
2924.0,0.12545763807932367
2923.0,0.13597330314156464
2922.0,0.14744836903055325
2921.0,0.15979490007535876
2920.0,0.17275602674273832
2919.0,0.18576758652229677
2918.0,0.19777084581398285
2917.0,0.20720693846044416
2916.0,0.21240282360923318
2915.0,0.21225040515366714
2914.0,0.20674048093606978
2913.0,0.19701213401217046
2912.0,0.18484100535104522
2911.0,0.17194781174175627
2910.0,0.1595683282842263
2909.0,0.14836379028195415
2908.0,0.13857411031630865
2907.0,0.13017996279524247
2906.0,0.12302787599888983
2905.0,0.11692157674471074
2904.0,0.11167957564910035
2903.0,0.10714431828248605
2902.0,0.10316793287879518
2901.0,0.09961890098973988
2900.0,0.09639527744388379
2899.0,0.09341854585292055
2898.0,0.09061269552240175
2897.0,0.08790717544215502
2896.0,0.08525510170499577
2895.0,0.08263136086827247
2894.0,0.08001459687595462
2893.0,0.07738184875766069
2892.0,0.07472274823984656
2891.0,0.07204629065196663
2890.0,0.06936875859464409
2889.0,0.06670515684331277
2888.0,0.06407041378470567
2887.0,0.061479321096368535
2886.0,0.058943233639861384
2885.0,0.05647229101172433
2884.0,0.054081174773475196
2883.0,0.051785860147904546
2882.0,0.04959451403162042
2881.0,0.047510047142835965
2880.0,0.04554339329359193
2879.0,0.04371890976765558
2878.0,0.04206467379267558
2877.0,0.04060237562678116
2876.0,0.03934601452422425
2875.0,0.03830182260116823
2874.0,0.03746221550225773
2873.0,0.03680268258864257
2872.0,0.03629374554441623
2871.0,0.035918340961703314
2870.0,0.03568267553407675
2869.0,0.035618612684650844
2868.0,0.035782075293845805
2867.0,0.03624561544718144
2866.0,0.03708341452311611
2865.0,0.0383581126631367
2864.0,0.04012324668020567
2863.0,0.04243609772773707
2862.0,0.04536577431969782
2861.0,0.048994982560715335
2860.0,0.053422928897173975
2859.0,0.058768956418588314
2858.0,0.06517737049169028
2857.0,0.0728261332482798
2856.0,0.08194835329139147
2855.0,0.09282670852279502
2854.0,0.10573550853367436
2853.0,0.12079477324213383
2852.0,0.1376764973151224
2851.0,0.15516136177959808
2850.0,0.17076903213407543
2849.0,0.18111440345960694
2848.0,0.18336292063532014
2847.0,0.17691278711664754
2846.0,0.16368959511765022
2845.0,0.14689689052206265
2844.0,0.12943828010857822
2843.0,0.11316193554363968
2842.0,0.0988979360191504
2841.0,0.08682318252707391
2840.0,0.0767879462266243
2839.0,0.06851614692497088
2838.0,0.06169517193763486
2837.0,0.056039847945642124
2836.0,0.05131426084982162
2835.0,0.04733113693921121
2834.0,0.0439454992669941
2833.0,0.041044109405014684
2832.0,0.038541217590934956
2831.0,0.03636729163231736
2830.0,0.034464730772666465
2829.0,0.03278500497129202
2828.0,0.03128841326189515
2827.0,0.02994397847673534
2826.0,0.028729234977086723
2825.0,0.02762791082616985
2824.0,0.026625464582014008
2823.0,0.025706506925135614
2822.0,0.02485722588423775
2821.0,0.024067925816861898
2820.0,0.023332451292843517
2819.0,0.02264564514652096
2818.0,0.02200303371349051
2817.0,0.02140219560563179
2816.0,0.020842245143824586
2815.0,0.020320782748698602
2814.0,0.01983158575558183
2813.0,0.01936653253760579
2812.0,0.018920484302676503
2811.0,0.018493858981072257
2810.0,0.018089632318312957
2809.0,0.01770783797239737
2808.0,0.01734451237362228
2807.0,0.016995566111299265
2806.0,0.01665937806984167
2805.0,0.016335351574968782
2804.0,0.016022611640047164
2803.0,0.01572126046146476
2802.0,0.015432452970575892
2801.0,0.015155350752082802
2800.0,0.014886148358079415
2799.0,0.014622248532184705
2798.0,0.014365341396536837
2797.0,0.014118225044925315
2796.0,0.013880270815187718
2795.0,0.013648314183184126
2794.0,0.013420614681590283
2793.0,0.013197502512602358
2792.0,0.012978904508414366
2791.0,0.012763519663694524
2790.0,0.01255026883043885
2789.0,0.012339699855323811
2788.0,0.012134760413484354
2787.0,0.011940128920763437
2786.0,0.011758466546203272
2785.0,0.011586273040364893
2784.0,0.01141629851996796
2783.0,0.011245792054171437
2782.0,0.011079307967532807
2781.0,0.010921541490624102
2780.0,0.010770983480632249
2779.0,0.010623194969893664
2778.0,0.010476902858452833
2777.0,0.01033377172341549
2776.0,0.01019546970475487
2775.0,0.010064614298496904
2774.0,0.009945416257919526
2773.0,0.009838823638643355
2772.0,0.009739118844243696
2771.0,0.009639862295640723
2770.0,0.009541542226333488
2769.0,0.0094489110005052
2768.0,0.009362569900275439
2767.0,0.009277973169660319
2766.0,0.00919186642295091
2765.0,0.00910518195190606
2764.0,0.00902016633864459
2763.0,0.0089385989860778
2762.0,0.008861837186709643
2761.0,0.008788733106137215
2760.0,0.008714588413925892
2759.0,0.008636690534368737
2758.0,0.008559995673379958
2757.0,0.008492530891205009
2756.0,0.008435433476824246
2755.0,0.008382019732301491
2754.0,0.008326976637488452
2753.0,0.008271996438644177
2752.0,0.00822147193912496
2751.0,0.008176742267239934
2750.0,0.008136341984175961
2749.0,0.00809867148812538
2748.0,0.008062772092584516
2747.0,0.008028632173403558
2746.0,0.007997600452183538
2745.0,0.007970573828938171
2744.0,0.007945425732991963
2743.0,0.007918344401582431
2742.0,0.007887877281113146
2741.0,0.007855834255781966
2740.0,0.007824325361089405
2739.0,0.007793851571803352
2738.0,0.007763912725848221
2737.0,0.007733311388760019
2736.0,0.007700385969428127
2735.0,0.007665228165630487
2734.0,0.0076308605464889745
2733.0,0.007599412586030062
2732.0,0.007567628690422846
2731.0,0.0075295444255826195
2730.0,0.0074838190568729136
2729.0,0.0074352866527929535
2728.0,0.007388567121438693
2727.0,0.007342972276596039
2726.0,0.007295160069497028
2725.0,0.007244770702103161
2724.0,0.007195390749913063
2723.0,0.00715052936807482
2722.0,0.007109698058815259
2721.0,0.0070688935126589185
2720.0,0.007025344286549902
2719.0,0.006981415801848409
2718.0,0.006942509941438332
2717.0,0.0069106150365843815
2716.0,0.006881642267031008
2715.0,0.006849730423875508
2714.0,0.006812263981946257
2713.0,0.006770009391273937
2712.0,0.006725489604481915
2711.0,0.006682994585092001
2710.0,0.006646772571035488
2709.0,0.006615811591358188
2708.0,0.006582792016365957
2707.0,0.006542252022631377
2706.0,0.006498257478628537
2705.0,0.006460323729143098
2704.0,0.00643244699398465
2703.0,0.006409921172776537
2702.0,0.006386563161546668
2701.0,0.006361339101497529
2700.0,0.006337338404583041
2699.0,0.00631735053588597
2698.0,0.006301871591377146
2697.0,0.006289603111203338
2696.0,0.006278685959800299
2695.0,0.006267812397257911
2694.0,0.006256396300209535
2693.0,0.006243908996220933
2692.0,0.006230375043000721
2691.0,0.006217909007694238
2690.0,0.006209781030335315
2689.0,0.006207004302467084
2688.0,0.006207576466285632
2687.0,0.00620983440457235
2686.0,0.006213815265262151
2685.0,0.006217792496565632
2684.0,0.0062168923696170175
2683.0,0.0062084285123943424
2682.0,0.006196732224121773
2681.0,0.006189724540142937
2680.0,0.006191391671119452
2679.0,0.006199474309088295
2678.0,0.0062088468009587425
2677.0,0.00621519953955367
2676.0,0.006217588321514852
2675.0,0.0062195945903902395
2674.0,0.006226382948190651
2673.0,0.006238352662683006
2672.0,0.006249623568758411
2671.0,0.006254737163881134
2670.0,0.006254274039422606
2669.0,0.0062515848805995075
2668.0,0.0062471033853539045
2667.0,0.006239882813878348
2666.0,0.006232548009963467
2665.0,0.006230079595917942
2664.0,0.006233871675911755
2663.0,0.006240217495714619
2662.0,0.006244453594301258
2661.0,0.00624440808956685
2660.0,0.006240310805879643
2659.0,0.006233517727510428
2658.0,0.00622521465493897
2657.0,0.006215346669640283
2656.0,0.006203878314708246
2655.0,0.006193194992125912
2654.0,0.006186412854046459
2653.0,0.006182274794757906
2652.0,0.006175625898383808
2651.0,0.006165046648835456
2650.0,0.006155746058196144
2649.0,0.0061517607448095925
2648.0,0.006149547425668007
2647.0,0.006143699154568728
2646.0,0.006134978394336738
2645.0,0.006127673628340886
2644.0,0.006122621749371698
2643.0,0.006118716191250801
2642.0,0.00611822800864509
2641.0,0.006123497760472354
2640.0,0.006129931787524393
2639.0,0.006129508749943411
2638.0,0.006121344235244401
2637.0,0.0061125395581315715
2636.0,0.006107965547413609
2635.0,0.006104144334408516
2634.0,0.006093738992777818
2633.0,0.006071664259099069
2632.0,0.006037149278317146
2631.0,0.005995129022090443
2630.0,0.005955781500751044
2629.0,0.005927462606380811
2628.0,0.0059083347268033565
2627.0,0.005888566477096227
2626.0,0.005861371300442954
2625.0,0.005828550962854529
2624.0,0.005795582221094667
2623.0,0.005765131162102028
2622.0,0.005735803682890475
2621.0,0.0057036525239708685
2620.0,0.005664863326673368
2619.0,0.005620043864350527
2618.0,0.005575089598549802
2617.0,0.005534907944358234
2616.0,0.0054978711049009175
2615.0,0.005460441361681775
2614.0,0.005425238698740813
2613.0,0.005398754176948879
2612.0,0.005381539747566277
2611.0,0.005366122047301087
2610.0,0.005345221099366433
2609.0,0.005318124865094514
2608.0,0.005289171705920349
2607.0,0.005263607751135697
2606.0,0.005244532799369862
2605.0,0.005229965106369085
2604.0,0.005213397954356641
2603.0,0.005190827909275805
2602.0,0.005165692575072327
2601.0,0.005143063514134885
2600.0,0.005121234797366772
2599.0,0.005094260529102629
2598.0,0.0050611367131939535
2597.0,0.005026834079828719
2596.0,0.004995502903792087
2595.0,0.004968384356033035
2594.0,0.004947469734666515
2593.0,0.004934461721589086
2592.0,0.004925341037879511
2591.0,0.004911669831821008
2590.0,0.004888639719102204
2589.0,0.004858028500706872
2588.0,0.0048235753207796425
2587.0,0.004788118625465689
2586.0,0.004755031786311465
2585.0,0.004727545119131621
2584.0,0.004705824454693783
2583.0,0.004687925980264831
2582.0,0.004672938391452581
2581.0,0.004659594994836972
2580.0,0.004643601238165317
2579.0,0.004621457883076118
2578.0,0.004596123664882354
2577.0,0.004573969558280335
2576.0,0.004556461204280067
2575.0,0.004539352066983724
2574.0,0.004519530595474443
2573.0,0.004498147624549563
2572.0,0.004477631385610025
2571.0,0.0044600184539544405
2570.0,0.004447489403107937
2569.0,0.004440024482492969
2568.0,0.004432765732556889
2567.0,0.0044196607749665915
2566.0,0.0043996216336532005
2565.0,0.004376417394963985
2564.0,0.004354277729431414
2563.0,0.004336698778971571
2562.0,0.004326413922716077
2561.0,0.0043214994213657204
2560.0,0.004313833113210776
2559.0,0.004296840802641366
2558.0,0.004273487445535788
2557.0,0.004252438111287578
2556.0,0.004238400542830332
2555.0,0.004230493653597507
2554.0,0.004227319825221967
2553.0,0.004227869597223336
2552.0,0.004229105020589232
2551.0,0.004228001753568086
2550.0,0.004224482998836336
2549.0,0.0042179501632704
2548.0,0.004203665551344897
2547.0,0.0041780165556785
2546.0,0.004145017789736093
2545.0,0.004112069345031053
2544.0,0.004081652282027401
2543.0,0.004052855544037367
2542.0,0.004028227719590077
2541.0,0.004011761551119313
2540.0,0.00400117077944008
2539.0,0.003989441357306969
2538.0,0.003974377671358548
2537.0,0.003961082508559832
2536.0,0.00395492838334449
2535.0,0.003956312596095257
2534.0,0.003961541168605329
2533.0,0.003964749163114165
2532.0,0.003960174564373079
2531.0,0.003946697502834978
2530.0,0.003929148395545771
2529.0,0.003912375108972496
2528.0,0.0038965838833623086
2527.0,0.003881179640967921
2526.0,0.0038685294049132938
2525.0,0.003859313048242546
2524.0,0.0038491149805755845
2523.0,0.0038354672728754726
2522.0,0.0038232970235841848
2521.0,0.003816410755394597
2520.0,0.0038081975286849657
2519.0,0.0037893770972298292
2518.0,0.0037622459047468265
2517.0,0.0037386528507793795
2516.0,0.003724927547572106
2515.0,0.003716322096236778
2514.0,0.0037054575984216092
2513.0,0.0036894703370877278
2512.0,0.0036700005082204185
2511.0,0.0036522045459171045
2510.0,0.003641938032980811
2509.0,0.003637995288961709
2508.0,0.003630100754782032
2507.0,0.0036117474921223396
2506.0,0.0035919170212250187
2505.0,0.0035853677338292637
2504.0,0.003593209541884372
2503.0,0.003602318541685784
2502.0,0.0036031345646868533
2501.0,0.003598524375951545
2500.0,0.003594473460149135
2499.0,0.0035913098327856525
2498.0,0.003586788663507204
2497.0,0.0035803692211790242
2496.0,0.0035709735484896763
2495.0,0.0035559233858146228
2494.0,0.0035353691416136323
2493.0,0.003514391051209691
2492.0,0.0034987521519965355
2491.0,0.003490865735993351
2490.0,0.003489846535828596
2489.0,0.003492306260049703
2488.0,0.003493448040897983
2487.0,0.003490730915356185
2486.0,0.0034862132435715125
2485.0,0.003482943302286149
2484.0,0.0034805695076048277
2483.0,0.0034769455010675537
2482.0,0.0034714667482363165
2481.0,0.0034637669951898898
2480.0,0.0034522566756387952
2479.0,0.0034375907714590927
2478.0,0.00342417563378619
2477.0,0.003414235812487084
2476.0,0.0034044138602798936
2475.0,0.0033930921123497652
2474.0,0.0033863805487218323
2473.0,0.003389967247274636
2472.0,0.0033984669599026814
2471.0,0.003400500559685239
2470.0,0.003392541632235226
2469.0,0.003380841520199677
2468.0,0.003371057847494629
2467.0,0.0033628012994973834
2466.0,0.003353992121809207
2465.0,0.0033444781164243447
2464.0,0.003335013854481573
2463.0,0.0033271034735134187
2462.0,0.003323311193699856
2461.0,0.003323789269789519
2460.0,0.003323845250668863
2459.0,0.003318992190387901
2458.0,0.003310841077661939
2457.0,0.0033043133270883036
2456.0,0.0033011887132600114
2455.0,0.0033000311330260786
2454.0,0.003299552665446848
2453.0,0.0032977265178581947
2452.0,0.0032904997603098035
2451.0,0.0032760787101183053
2450.0,0.003258173932151037
2449.0,0.0032413681197606455
2448.0,0.003226546970013729
2447.0,0.003214222112102158
2446.0,0.003207305409715907
2445.0,0.003205843625595774
2444.0,0.003204416560017063
2443.0,0.003200493901453763
2442.0,0.0031998571064479025
2441.0,0.003207014844683207
2440.0,0.0032156790020987976
2439.0,0.00321668674446757
2438.0,0.00321076197517661
2437.0,0.003205040714228291
2436.0,0.0032011021808145074
2435.0,0.003195609304836071
2434.0,0.0031895968913479345
2433.0,0.00318720126762511
2432.0,0.0031865475452237182
2431.0,0.003181340620647835
2430.0,0.0031716032264737315
2429.0,0.0031647979800730024
2428.0,0.0031657278485673836
2427.0,0.003171800834319107
2426.0,0.003178186248450336
2425.0,0.003181668459895819
2424.0,0.0031799609321028727
2423.0,0.003173020924270977
2422.0,0.0031645979884658976
2421.0,0.003157749672209276
2420.0,0.0031506321109738785
2419.0,0.0031417875194922496
2418.0,0.003136559271112287
2417.0,0.003141371862707796
2416.0,0.0031533241279947
2415.0,0.0031622059471068807
2414.0,0.0031621949300844067
2413.0,0.003155960890975752
2412.0,0.0031483551585757955
2411.0,0.003141703494203826
2410.0,0.0031363553379048278
2409.0,0.003130206996730453
2408.0,0.003118075017936985
2407.0,0.003096507022499277
2406.0,0.0030689411942999008
2405.0,0.003042680430868549
2404.0,0.003022656087475119
2403.0,0.003011254153566942
2402.0,0.00301016661002347
2401.0,0.003017061362098578
2400.0,0.0030238427213838625
2399.0,0.003024459202995399
2398.0,0.003022151372832998
2397.0,0.0030230969752037136
2396.0,0.0030251979192801133
2395.0,0.0030197601163622894
2394.0,0.003003182985968854
2393.0,0.0029811354849559684
2392.0,0.002962068335559108
2391.0,0.002951545539462087
2390.0,0.0029513941326301156
2389.0,0.002959090938872205
2388.0,0.0029684585428571947
2387.0,0.0029750552676366415
2386.0,0.0029801323444014404
2385.0,0.0029864622059874966
2384.0,0.0029930789325739106
2383.0,0.00299806367330335
2382.0,0.003003189798620918
2381.0,0.0030098583022384454
2380.0,0.0030120015650830986
2379.0,0.0029995273838970184
2378.0,0.002968884645018674
2377.0,0.0029254823108158514
2376.0,0.002877286656132617
2375.0,0.002833552222159917
2374.0,0.002807707415526913
2373.0,0.002809327225891395
2372.0,0.0028325076427439403
2371.0,0.0028613943866337
2370.0,0.0028875550757321462
2369.0,0.0029112101958253234
2368.0,0.0029272374206665585
2367.0,0.0029269328950460327
2366.0,0.0029163610769726363
2365.0,0.002916777391581473
2364.0,0.0029391033783001982
2363.0,0.002970784684157989
2362.0,0.0029997077175201127
2361.0,0.003028896402444796
2360.0,0.003059550302520313
2359.0,0.00308966498107661
2358.0,0.0031121639699187146
2357.0,0.0031138917039389273
2356.0,0.0030907186994634417
2355.0,0.003053872299669465
2354.0,0.003031658260350603
2353.0,0.0030384200960514303
2352.0,0.0030610108331160265
2351.0,0.003075052756255278
2350.0,0.003062643735352876
2349.0,0.003040123414197353
2348.0,0.003036949771218019
2347.0,0.0030753270199790294
2346.0,0.003151283420239647
2345.0,0.003221966640802012
2344.0,0.003241498237907139
2343.0,0.0031949118564625952
2342.0,0.0031253610329059506
2341.0,0.0030826200141350893
2340.0,0.003079030312994422
2339.0,0.003102178166418112
2338.0,0.0031288605449994464
2337.0,0.003146537701003413
2336.0,0.0031504930228247875
2335.0,0.003148984381290086
2334.0,0.0031547508175969992
2333.0,0.0031702240176651316
2332.0,0.0031805850069330103
2331.0,0.003173692087469161
2330.0,0.003151489539091449
2329.0,0.0031377553000263574
2328.0,0.0031484908237176482
2327.0,0.0031919101116614193
2326.0,0.0032669289771724472
2325.0,0.003347657245282476
2324.0,0.0034035214418444352
2323.0,0.0034093361016349468
2322.0,0.0033804932217428333
2321.0,0.0033401142269694644
2320.0,0.003296956793902835
2319.0,0.0032520706590456238
2318.0,0.0032134280403672976
2317.0,0.0031949545336155197
2316.0,0.003191719741827042
2315.0,0.0031926273103763093
2314.0,0.0031907696095892077
2313.0,0.0031887248198648843
2312.0,0.00318562057957373
2311.0,0.0031811745040772237
2310.0,0.0031809832249904356
2309.0,0.003186597964055429
2308.0,0.003188750482599148
2307.0,0.0031769695359466035
2306.0,0.0031587548273652043
2305.0,0.0031471993584444966
2304.0,0.00314449615685049
2303.0,0.003139877627248453
2302.0,0.00312937206530466
2301.0,0.0031188041291931104
2300.0,0.003113340014484835
2299.0,0.003113035440394174
2298.0,0.0031185973944036056
2297.0,0.0031301197616422703
2296.0,0.003141882996876133
2295.0,0.0031472585203898037
2294.0,0.00314987490316917
2293.0,0.003157262198343
2292.0,0.003169179518619113
2291.0,0.00317641263674905
2290.0,0.003176420192497982
2289.0,0.0031757530183804837
2288.0,0.0031824996054695062
2287.0,0.0031979819476760413
2286.0,0.0032179621147487756
2285.0,0.003231847959946033
2284.0,0.00322713390182721
2283.0,0.0032018052583702313
2282.0,0.003170205314866249
2281.0,0.003148205767808421
2280.0,0.0031368849702414674
2279.0,0.0031297274336830887
2278.0,0.003127204612067786
2277.0,0.0031318358500168854
2276.0,0.0031347756175963606
2275.0,0.0031247322866809024
2274.0,0.00310557490564353
2273.0,0.003091289466267872
2272.0,0.0030855866875177896
2271.0,0.0030809859570392092
2270.0,0.0030745120500793493
2269.0,0.003068842469177142
2268.0,0.003061889856842259
2267.0,0.003050415481080243
2266.0,0.0030407725955231106
2265.0,0.0030402734681640314
2264.0,0.003040780368583754
2263.0,0.0030281522470651623
2262.0,0.0030054345697004326
2261.0,0.0029894723192425347
2260.0,0.0029861094439971457
2259.0,0.0029834944872107884
2258.0,0.00297111246711854
2257.0,0.0029498257680689007
2256.0,0.0029243968925682737
2255.0,0.0029001533884173408
2254.0,0.0028856464737701294
2253.0,0.0028860920066658864
2252.0,0.002894941366362186
2251.0,0.002903917956690682
2250.0,0.0029149372482436334
2249.0,0.0029295181807036342
2248.0,0.0029345753237923584
2247.0,0.0029164219343498113
2246.0,0.002883584682403353
2245.0,0.0028580664126618607
2244.0,0.002847606077321434
2243.0,0.0028436642279970363
2242.0,0.002842471970726861
2241.0,0.0028476072441341992
2240.0,0.0028547098855924613
2239.0,0.0028534041563056233
2238.0,0.0028448145436145117
2237.0,0.0028408476510217284
2236.0,0.0028464191410112662
2235.0,0.0028569051396743336
2234.0,0.002870149798696118
2233.0,0.002885481469923692
2232.0,0.0028945944383501157
2231.0,0.0028895529472309054
2230.0,0.0028766758805752884
2229.0,0.0028679539166262206
2228.0,0.002864124165947845
2227.0,0.002860217815778547
2226.0,0.002859171178818041
2225.0,0.0028628144353423156
2224.0,0.002859199105550342
2223.0,0.0028393539563539094
2222.0,0.0028182542995124644
2221.0,0.002818059788890154
2220.0,0.0028369055033205574
2219.0,0.0028553891050418214
2218.0,0.002865684454840974
2217.0,0.002871828797465763
2216.0,0.0028705939639443252
2215.0,0.0028574064599313593
2214.0,0.0028450051204915575
2213.0,0.0028500941036310686
2212.0,0.00286506120172894
2211.0,0.002867265195839547
2210.0,0.0028530283107333406
2209.0,0.0028389174043259996
2208.0,0.00283285375105763
2207.0,0.0028272695371261646
2206.0,0.0028174542199874107
2205.0,0.002803726854599974
2204.0,0.002780501555640754
2203.0,0.0027470005981128885
2202.0,0.0027244340198991847
2201.0,0.0027371973800840504
2200.0,0.002778177031607001
2199.0,0.0028164294055793636
2198.0,0.002835478866343567
2197.0,0.002842023676402196
2196.0,0.002843677061958034
2195.0,0.002842626590145629
2194.0,0.0028475391069198337
2193.0,0.0028659871551155805
2192.0,0.002885953758370548
2191.0,0.002887797217799238
2190.0,0.0028724663892615845
2189.0,0.0028584127650123706
2188.0,0.0028556562404808577
2187.0,0.0028621376985523053
2186.0,0.0028771528923951166
2185.0,0.0028949180385387115
2184.0,0.002894869926948869
2183.0,0.0028650585538091086
2182.0,0.0028270799853455176
2181.0,0.002810217744111677
2180.0,0.0028082813497743797
2179.0,0.002791523831362074
2178.0,0.0027536412742024522
2177.0,0.0027191098963524514
2176.0,0.0027101014078036857
2175.0,0.0027301224690949384
2174.0,0.002773820003762567
2173.0,0.0028285317291900634
2172.0,0.0028737076083532056
2171.0,0.0029012201141357455
2170.0,0.00292768724234071
2169.0,0.0029685580485612597
2168.0,0.0030136307960944003
2167.0,0.003047990676131405
2166.0,0.0030795505306922453
2165.0,0.0031212194318575087
2164.0,0.003163419266822521
2163.0,0.0031898177560346673
2162.0,0.0031956037066911335
2161.0,0.003158164369189864
2160.0,0.003023226031890125
2159.0,0.002777279106094583
2158.0,0.0025115802799076064
2157.0,0.002346345127274715
2156.0,0.002311548816222755
2155.0,0.0023568722582236593
2154.0,0.0024337800514548473
2153.0,0.002512650445663466
2152.0,0.002562057407644661
2151.0,0.0025652310098069043
2150.0,0.0025421836981261788
2149.0,0.0025207195847674396
2148.0,0.0024981904565311436
2147.0,0.0024611610274251207
2146.0,0.0024223937158600606
2145.0,0.0024042381073848705
2144.0,0.002403028624821713
2143.0,0.002403398043266158
2142.0,0.002410357650187849
2141.0,0.002433008204754059
2140.0,0.0024535442612932364
2139.0,0.0024470045449102584
2138.0,0.002418163436675536
2137.0,0.002387399350905787
2136.0,0.0023540415988037014
2135.0,0.0023080476087526452
2134.0,0.002265882538516591
2133.0,0.0022576045719823025
2132.0,0.0022834342977673004
2131.0,0.0023134637997352524
2130.0,0.002326119721880219
2129.0,0.0023232389760103923
2128.0,0.0023148706556618765
2127.0,0.0023105691302041926
2126.0,0.002320625871567604
2125.0,0.0023470089614213673
2124.0,0.0023767902741390393
2123.0,0.002398623610071701
2122.0,0.002416496246491028
2121.0,0.002434683330021323
2120.0,0.002443861518499702
2119.0,0.002440024639536805
2118.0,0.002441679864581885
2117.0,0.002465650902437011
2116.0,0.0024980599596967057
2115.0,0.002512926777376055
2114.0,0.0025093078616837297
2113.0,0.0025045023697957973
2112.0,0.002500032986935252
2111.0,0.0024827029576595886
2110.0,0.0024548623341265965
2109.0,0.0024360483771459023
2108.0,0.002434799810836954
2107.0,0.002441979655564362
2106.0,0.002450215061963004
2105.0,0.002458702821384566
2104.0,0.0024623427813364684
2103.0,0.00245761681135178
2102.0,0.0024550659889395494
2101.0,0.0024651519834466983
2100.0,0.0024770585963878574
2099.0,0.0024717601706393286
2098.0,0.002448726514163408
2097.0,0.0024194813568723683
2096.0,0.002385387242443501
2095.0,0.002346900443936801
2094.0,0.0023238373806548866
2093.0,0.002335879157400517
2092.0,0.0023698906703789996
2091.0,0.0023942011903186873
2090.0,0.0024000159437973555
2089.0,0.002403724778462384
2088.0,0.002414203366536777
2087.0,0.002425530553907815
2086.0,0.002438131204407476
2085.0,0.002458988204645369
2084.0,0.002481805167580451
2083.0,0.002492284943238302
2082.0,0.002492435821770007
2081.0,0.002496087594996041
2080.0,0.002501487222379699
2079.0,0.002492516575565433
2078.0,0.002466989624261882
2077.0,0.0024407621419014944
2076.0,0.0024246943650246505
2075.0,0.0024182062777001762
2074.0,0.002421316803314452
2073.0,0.002429518070070628
2072.0,0.002424237854773413
2071.0,0.0023955408000030346
2070.0,0.0023678962705142095
2069.0,0.002375733934147156
2068.0,0.0024172188699693575
2067.0,0.002459686312616934
2066.0,0.0024835693374616373
2065.0,0.0024924994925943954
2064.0,0.002489004662595746
2063.0,0.002471972254613095
2062.0,0.002452541069735814
2061.0,0.0024412473524720924
2060.0,0.0024263979869679603
2059.0,0.002396568982104688
2058.0,0.0023745494435867447
2057.0,0.0023914362285929304
2056.0,0.0024346525713546028
2055.0,0.002464555737671249
2054.0,0.0024809978100993847
2053.0,0.0025265736810839356
2052.0,0.002617954144422768
2051.0,0.0027157151507105418
2050.0,0.0027707407360460234
2049.0,0.002769449449232634
2048.0,0.0027270379577583412
2047.0,0.002666334075902374
2046.0,0.0026147783093629236
2045.0,0.002592654502569685
2044.0,0.002591565411447644
2043.0,0.002589996780870525
2042.0,0.002591264891285301
2041.0,0.002615262357570538
2040.0,0.0026557035447931357
2039.0,0.0026847401993342016
2038.0,0.002696977445973828
2037.0,0.0027091216226701057
2036.0,0.002722198561357529
2035.0,0.002722227576123822
2034.0,0.0027121001302931797
2033.0,0.002700722159459253
2032.0,0.0026700611633625657
2031.0,0.002603473083586062
2030.0,0.0025369516372292862
2029.0,0.0025281466408707087
2028.0,0.002576332495134191
2027.0,0.0026262223149910195
2026.0,0.0026491825065154844
2025.0,0.0026641760052409577
2024.0,0.00268109028912754
2023.0,0.002680811884847298
2022.0,0.002658017613299025
2021.0,0.002635517443578924
2020.0,0.0026266473775027476
2019.0,0.002621703580238408
2018.0,0.0026158178417769657
2017.0,0.0026140959124152114
2016.0,0.002609076577573356
2015.0,0.002589154844849846
2014.0,0.002563428519424221
2013.0,0.002546341951332977
2012.0,0.002530702370441854
2011.0,0.0025067600594862387
2010.0,0.0024905464144249806
2009.0,0.002493883451801743
2008.0,0.002484981960889581
2007.0,0.002428192940930426
2006.0,0.0023465281331047595
2005.0,0.002292555767979642
2004.0,0.0022736503301357736
2003.0,0.0022582784639449353
2002.0,0.0022393231386526073
2001.0,0.0022388313004953132
2000.0,0.0022593421817829196
1999.0,0.0022787196700004707
1998.0,0.002290523468716274
1997.0,0.002307014709500177
1996.0,0.0023268174840993415
1995.0,0.002338031536280601
1994.0,0.0023474941375746894
1993.0,0.002371260308524446
1992.0,0.0023996355127718924
1991.0,0.0024125305026660862
1990.0,0.0024195440480653157
1989.0,0.0024385298377400315
1988.0,0.0024554425577464015
1987.0,0.0024492238920732685
1986.0,0.0024361186496765254
1985.0,0.002444480144648633
1984.0,0.0024638129934678376
1983.0,0.002469306652984768
1982.0,0.002479193464982474
1981.0,0.0025290072942944558
1980.0,0.0025960567268111367
1979.0,0.0026113531769324082
1978.0,0.0025530580183762094
1977.0,0.0024696670299588115
1976.0,0.002401138766909804
1975.0,0.0023441556940853006
1974.0,0.0023024200629619277
1973.0,0.0022966022712428468
1972.0,0.0023159125479565966
1971.0,0.0023223640485543137
1970.0,0.0023064570014257172
1969.0,0.0022896277202705674
1968.0,0.00227610261548924
1967.0,0.0022539045047052482
1966.0,0.0022396051489937496
1965.0,0.0022579508955029096
1964.0,0.0022853732258853424
1963.0,0.0022749754698848886
1962.0,0.0022261919936663243
1961.0,0.0021821690221615836
1960.0,0.002163219647682911
1959.0,0.0021531473110944594
1958.0,0.002147357403813729
1957.0,0.002156546290519472
1956.0,0.0021663169426548562
1955.0,0.002148323219727272
1954.0,0.002113097903466103
1953.0,0.0021014336340271726
1952.0,0.0021215869816671867
1951.0,0.0021426832000454653
1950.0,0.0021495790739646295
1949.0,0.0021574433941329166
1948.0,0.0021685688260605434
1947.0,0.0021609603211636785
1946.0,0.0021312221698465204
1945.0,0.0021076154974604493
1944.0,0.0021072867338515384
1943.0,0.0021125868013940185
1942.0,0.0021059567497773387
1941.0,0.0020963987110463283
1940.0,0.0020918778927049506
1939.0,0.002085049792136367
1938.0,0.002076663825643813
1937.0,0.0020774342249169618
1936.0,0.002083294578023405
1935.0,0.0020766449101918064
1934.0,0.0020573885447605885
1933.0,0.0020468201875087954
1932.0,0.0020557166510142746
1931.0,0.0020724846783159376
1930.0,0.002083957384099502
1929.0,0.0020849230273669193
1928.0,0.002069215809430757
1927.0,0.0020367161974183872
1926.0,0.0020066539654539552
1925.0,0.0020015874692197845
1924.0,0.002017396291129167
1923.0,0.0020277864189236256
1922.0,0.0020259888182542814
1921.0,0.002030899567148816
1920.0,0.002048580050082967
1919.0,0.0020659208803573796
1918.0,0.0020788375692790103
1917.0,0.0020970505728356696
1916.0,0.002117625123245675
1915.0,0.0021223240132299845
1914.0,0.0021065810621827413
1913.0,0.0020873961819972797
1912.0,0.0020808823497157516
1911.0,0.002088033720718938
1910.0,0.0021048433244333135
1909.0,0.002127372644607156
1908.0,0.0021443332831983654
1907.0,0.0021443263050007926
1906.0,0.0021314046644792814
1905.0,0.0021200133389349765
1904.0,0.0021160058018768178
1903.0,0.002115719556410993
1902.0,0.0021213245040736573
1901.0,0.0021393768028561354
1900.0,0.002164989472018243
1899.0,0.0021851308695871106
1898.0,0.002195571521803943
1897.0,0.002199084964012548
1896.0,0.002190746886861885
1895.0,0.0021636686472029276
1894.0,0.0021291480825506117
1893.0,0.0021068784414648174
1892.0,0.0020981189305614655
1891.0,0.0020897731541706754
1890.0,0.0020776033852891156
1889.0,0.0020684429440143057
1888.0,0.0020617371972908934
1887.0,0.002048038793980077
1886.0,0.0020271846973973586
1885.0,0.0020099124617017983
1884.0,0.0019999667957187033
1883.0,0.0019906226508700975
1882.0,0.001980061908358721
1881.0,0.001973612852679856
1880.0,0.0019713036574533103
1879.0,0.00196906167727239
1878.0,0.001969799624567945
1877.0,0.0019768509551349217
1876.0,0.0019804519630224476
1875.0,0.0019681050422553324
1874.0,0.0019449052117135384
1873.0,0.0019266312954843532
1872.0,0.0019186526711168714
1871.0,0.0019173069678231458
1870.0,0.0019268783378761035
1869.0,0.0019488111906946577
1868.0,0.0019592401573698716
1867.0,0.001940013837571928
1866.0,0.001907702806535038
1865.0,0.0018852465013896225
1864.0,0.0018763390832543874
1863.0,0.001872676891826801
1862.0,0.0018725862036347801
1861.0,0.00188070732002074
1860.0,0.0018917890499721391
1859.0,0.001893748696756088
1858.0,0.001885383450811055
1857.0,0.0018746735425700647
1856.0,0.0018635280800124877
1855.0,0.0018500874879675323
1854.0,0.001841311941141075
1853.0,0.0018456339288963203
1852.0,0.0018561937606665227
1851.0,0.0018600519677094685
1850.0,0.0018593796873488126
1849.0,0.0018642295541171198
1848.0,0.0018695951094487937
1847.0,0.0018623290245069787
1846.0,0.001847437999446279
1845.0,0.0018455088739053004
1844.0,0.0018542016266329918
1843.0,0.0018512750401062316
1842.0,0.0018400334319099586
1841.0,0.0018384652515835754
1840.0,0.0018474658897515161
1839.0,0.0018543874471910562
1838.0,0.0018512673430712448
1837.0,0.0018426149176520535
1836.0,0.001833176248920133
1835.0,0.0018228091996961699
1834.0,0.001815877354942011
1833.0,0.0018200363557524329
1832.0,0.0018345968930959156
1831.0,0.001849975872270222
1830.0,0.0018579031970386275
1829.0,0.0018596853965393667
1828.0,0.0018584507330538433
1827.0,0.0018509477455253007
1826.0,0.0018415160210299452
1825.0,0.0018419507130053821
1824.0,0.0018501674609431762
1823.0,0.0018558074867080917
1822.0,0.001859598033461115
1821.0,0.0018663256198540913
1820.0,0.001868035589362552
1819.0,0.0018514172358633884
1818.0,0.001821597999258875
1817.0,0.0018003221616725285
1816.0,0.0017974014273171462
1815.0,0.0018034065330208454
1814.0,0.0018105059498010594
1813.0,0.00181975133934767
1812.0,0.001827300886469619
1811.0,0.0018240483510417681
1810.0,0.0018142489265357456
1809.0,0.0018108974702796096
1808.0,0.0018121894974460508
1807.0,0.0018073331211056968
1806.0,0.0017980523588534796
1805.0,0.0017951658534172427
1804.0,0.0018005186736695584
1803.0,0.0018066560461508295
1802.0,0.0018125200060153364
1801.0,0.0018214375052162104
1800.0,0.001826779898447245
1799.0,0.0018218993099229888
1798.0,0.0018155220805449461
1797.0,0.0018191081068350179
1796.0,0.0018272809143245984
1795.0,0.0018258562544899615
1794.0,0.0018154903970061503
1793.0,0.0018125023173512587
1792.0,0.0018151475955510428
1791.0,0.001806046415157284
1790.0,0.001792378929271478
1789.0,0.0017893075812213963
1788.0,0.0017927193391919832
1787.0,0.0017919762836785184
1786.0,0.0017879638072871085
1785.0,0.0017913349592254453
1784.0,0.0018029226177272498
1783.0,0.0018126648919456901
1782.0,0.0018189047186576367
1781.0,0.0018280973510006473
1780.0,0.0018360446370765475
1779.0,0.001833823712519654
1778.0,0.0018274026807357515
1777.0,0.0018286388919671974
1776.0,0.001834502761684886
1775.0,0.0018327191554852686
1774.0,0.001827313313829657
1773.0,0.0018432440855540141
1772.0,0.001874927570015256
1771.0,0.001886433449187633
1770.0,0.0018796314038349575
1769.0,0.0018799279001259802
1768.0,0.0018922998235635017
1767.0,0.0019036832400749276
1766.0,0.0019087574240540697
1765.0,0.0019178144748382942
1764.0,0.0019397562900298584
1763.0,0.0019755184275263116
1762.0,0.0020192931994977583
1761.0,0.002064105431141547
1760.0,0.0021046900784853495
1759.0,0.0021392569288127316
1758.0,0.0021818795470253147
1757.0,0.002252658251734428
1756.0,0.0023391888189937256
1755.0,0.002407743327585375
1754.0,0.00245298757963001
1753.0,0.002502301563663822
1752.0,0.002585133575192618
1751.0,0.0026962979992610756
1750.0,0.002805512393396544
1749.0,0.002902673214189458
1748.0,0.002982420787993353
1747.0,0.003033062619901514
1746.0,0.0030667450138462254
1745.0,0.0031082519697881446
1744.0,0.0031575391204084775
1743.0,0.003192204792676916
1742.0,0.0032110246611138133
1741.0,0.0032422419851644156
1740.0,0.003293490151492689
1739.0,0.0033311563870178336
1738.0,0.0033361965456053066
1737.0,0.0033298983322719348
1736.0,0.0033348259284123865
1735.0,0.003361475414815714
1734.0,0.003388285187809143
1733.0,0.0033948008892495584
1732.0,0.0033966886873520617
1731.0,0.003394620661502803
1730.0,0.0033882252118216105
1729.0,0.0033939863669589254
1728.0,0.0034140448051193342
1727.0,0.0034351820986449513
1726.0,0.0034525491005313667
1725.0,0.0034733551270015846
1724.0,0.003491585454028005
1723.0,0.0034873846663133735
1722.0,0.003459466191972473
1721.0,0.0034278388559885664
1720.0,0.0034050606977410005
1719.0,0.0033904708914335407
1718.0,0.0033876633130045957
1717.0,0.0034045784135802314
1716.0,0.003427923959849157
1715.0,0.003435478935073447
1714.0,0.0034332331334957296
1713.0,0.003441846425591237
1712.0,0.0034607731378387225
1711.0,0.003474806812566635
1710.0,0.0034833847354911016
1709.0,0.0035017169672225024
1708.0,0.003536440134513772
1707.0,0.003579851195317288
1706.0,0.0036292811415190537
1705.0,0.0036868789648296656
1704.0,0.0037350703344825923
1703.0,0.003760887343172448
1702.0,0.003789833536478352
1701.0,0.0039138983296815736
1700.0,0.004138872829448033
1699.0,0.004314960241310563
1698.0,0.004409771072289658
1697.0,0.004516361027008884
1696.0,0.00465954817042956
1695.0,0.00478606300016006
1694.0,0.004876744125701755
1693.0,0.00495963232146108
1692.0,0.005050200322270569
1691.0,0.005153194108675789
1690.0,0.005269548520810069
1689.0,0.005394596199631934
1688.0,0.005501233054175146
1687.0,0.005573567366081102
1686.0,0.00563326736271424
1685.0,0.0057727294122439125
1684.0,0.005994269567553115
1683.0,0.006162718437434079
1682.0,0.00627929589347884
1681.0,0.00640256237201312
1680.0,0.006529884796758963
1679.0,0.0066411109686514815
1678.0,0.0067308338606464945
1677.0,0.0068334454089856965
1676.0,0.006980657796186675
1675.0,0.007146680941538587
1674.0,0.007279013275790403
1673.0,0.007384069238028365
1672.0,0.007493189803569114
1671.0,0.00761659872206978
1670.0,0.007748608922259851
1669.0,0.007877802573735914
1668.0,0.007994764101782308
1667.0,0.008091221514781729
1666.0,0.008174262721276268
1665.0,0.008268113458716695
1664.0,0.008392338743216255
1663.0,0.00852929365174442
1662.0,0.008640862588508163
1661.0,0.008730774246958985
1660.0,0.008819761507297259
1659.0,0.008905333329205768
1658.0,0.008976613514026153
1657.0,0.009034388233939096
1656.0,0.009081958244989287
1655.0,0.009126175276906503
1654.0,0.009165882745809324
1653.0,0.009155130860848763
1652.0,0.009127977805865195
1651.0,0.009133721721390795
1650.0,0.009138974069669879
1649.0,0.009137737308855845
1648.0,0.00912432912407743
1647.0,0.009052357440407346
1646.0,0.008938371386348712
1645.0,0.00886837453326382
1644.0,0.008843902826647168
1643.0,0.008818012324793612
1642.0,0.008779404889638598
1641.0,0.008737434511421609
1640.0,0.008700011510302164
1639.0,0.008660854823746511
1638.0,0.008613636586550054
1637.0,0.00856267290338826
1636.0,0.008494431047823095
1635.0,0.008408514727378738
1634.0,0.008349403718518084
1633.0,0.008322629373284499
1632.0,0.00830018786014433
1631.0,0.008266229017136629
1630.0,0.008215915861178221
1629.0,0.008152836515516255
1628.0,0.008075922554230584
1627.0,0.00798623761487445
1626.0,0.007893808525171003
1625.0,0.007801693611500567
1624.0,0.007686723915603289
1623.0,0.007523540521032421
1622.0,0.007342914111466108
1621.0,0.007192206129690361
1620.0,0.007064910012123326
1619.0,0.006925791631131665
1618.0,0.006741707487348921
1617.0,0.006494703052774633
1616.0,0.0062278350494887735
1615.0,0.006012495425127024
1614.0,0.00585584253721284
1613.0,0.00572223041567002
1612.0,0.005584260307169225
1611.0,0.005433738884915355
1610.0,0.005282595661461305
1609.0,0.00514253242558188
1608.0,0.0050106957042751615
1607.0,0.004884243498019957
1606.0,0.004772205496560442
1605.0,0.004678017047097782
1604.0,0.004589055032561676
1603.0,0.004495164055624723
1602.0,0.004403826906401588
1601.0,0.0043251567013500025
1600.0,0.004255841836028851
1599.0,0.00419159363255727
1598.0,0.004138454098118243
1597.0,0.004098972709093727
1596.0,0.00406110877917417
1595.0,0.00401455376933124
1594.0,0.003967372395678028
1593.0,0.003930619226302288
1592.0,0.0039002064663775722
1591.0,0.00386910954448723
1590.0,0.003841357890807083
1589.0,0.003820959862869204
1588.0,0.0038013722497868704
1587.0,0.003778607377931841
1586.0,0.003761146247474036
1585.0,0.0037552944859039965
1584.0,0.003753388343207482
1583.0,0.003748005106213349
1582.0,0.0037451693504892357
1581.0,0.003749478942887687
1580.0,0.003751784786508844
1579.0,0.0037445442516148113
1578.0,0.0037390949892314347
1577.0,0.0037531129293800515
1576.0,0.003770248161555454
1575.0,0.003776261768936681
1574.0,0.0037921098383043
1573.0,0.0038192977441361196
1572.0,0.0038425246494379383
1571.0,0.003862347011371924
1570.0,0.0038931063812180635
1569.0,0.003934019167676881
1568.0,0.003967088707020246
1567.0,0.003991744381473785
1566.0,0.0040276120325236815
1565.0,0.004082043460584277
1564.0,0.004136752757384072
1563.0,0.004157644642577892
1562.0,0.004157244485042048
1561.0,0.0041580718660690075
1560.0,0.004236027301801174
1559.0,0.004384485446210036
1558.0,0.004483640165451332
1557.0,0.0045712506210871685
1556.0,0.004655390882714995
1555.0,0.0047072860172425015
1554.0,0.0047560283182948885
1553.0,0.0048130234486623655
1552.0,0.0048675667441749225
1551.0,0.004902259034535957
1550.0,0.004928640400964534
1549.0,0.00496473663148418
1548.0,0.005005694005330672
1547.0,0.005034954335698668
1546.0,0.005056852809612407
1545.0,0.005084472420358311
1544.0,0.005103817218939791
1543.0,0.005090478549426655
1542.0,0.005069178239652235
1541.0,0.005069653153165662
1540.0,0.005004419370226259
1539.0,0.004878999902879966
1538.0,0.004827799040607341
1537.0,0.004841307022336197
1536.0,0.004853356305964375
1535.0,0.004829338976667083
1534.0,0.004761737120241394
1533.0,0.004684565104110917
1532.0,0.00462266580862398
1531.0,0.00457023361423655
1530.0,0.004522025089620076
1529.0,0.004485527041485733
1528.0,0.004448328987502308
1527.0,0.004380787777790234
1526.0,0.004295238112792806
1525.0,0.004238117666515451
1524.0,0.004205927404674499
1523.0,0.00414820774605798
1522.0,0.004050562976249684
1521.0,0.0039665750826889876
1520.0,0.0039242180318631616
1519.0,0.0038855015050985793
1518.0,0.003832144474870215
1517.0,0.0037738287815882294
1516.0,0.0037008935951492075
1515.0,0.0036112866842703227
1514.0,0.003529794300430461
1513.0,0.003475136724120494
1512.0,0.0034249704757553156
1511.0,0.003345274219247847
1510.0,0.0032433300737216555
1509.0,0.0031723383242377432
1508.0,0.003125694043860102
1507.0,0.002948396354151839
1506.0,0.0027475801433156006
1505.0,0.0027334774019354673
1504.0,0.0027761123828298263
1503.0,0.0027666548385537186
1502.0,0.002727937755753464
1501.0,0.002702067734147129
1500.0,0.002698285266555009
1499.0,0.002667224547464928
1498.0,0.002610723122554496
1497.0,0.002598886580329902
1496.0,0.0026223836472497853
1495.0,0.002604882933164342
1494.0,0.0025724613480212636
1493.0,0.002588614006193043
1492.0,0.0026405918046301462
1491.0,0.002655719301633353
1490.0,0.002639281694308099
1489.0,0.002697122420485065
1488.0,0.00281085993032883
1487.0,0.002887686009818418
1486.0,0.0029564152217881113
1485.0,0.003080870592311442
1484.0,0.0032461292885293124
1483.0,0.0034210933203115794
1482.0,0.0036607492481109823
1481.0,0.00403968765781017
1480.0,0.0045314104670660165
1479.0,0.005155447701306687
1478.0,0.006238729301076763
1477.0,0.008290713254494939
1476.0,0.011579930165817848
1475.0,0.01590067242481703
1474.0,0.020959171021002924
1473.0,0.025581797134499006
1472.0,0.027650202244679158
1471.0,0.027406820798127784
1470.0,0.026829766173618767
1469.0,0.026691674121239517
1468.0,0.026952777789671107
1467.0,0.027646167774669918
1466.0,0.02917480157520564
1465.0,0.03158051028007932
1464.0,0.033547149009552024
1463.0,0.03374586341373411
1462.0,0.03224943494775261
1461.0,0.029707171243554497
1460.0,0.02663594323404113
1459.0,0.02345539293209264
1458.0,0.020429728832179705
1457.0,0.01787054938359363
1456.0,0.0161755974278486
1455.0,0.015176541642500223
1454.0,0.01437087865619975
1453.0,0.013493273423275389
1452.0,0.012557126409805984
1451.0,0.01173193123562275
1450.0,0.011083167883999587
1449.0,0.010526964071616886
1448.0,0.010017409036116396
1447.0,0.009614993118052416
1446.0,0.009329651410195046
1445.0,0.009085071868412769
1444.0,0.008841492046198416
1443.0,0.008614307279280182
1442.0,0.008403326606411035
1441.0,0.008183840130740224
1440.0,0.007959510115839731
1439.0,0.007752349610188438
1438.0,0.00753664916592136
1437.0,0.007234934527013565
1436.0,0.006874018596534914
1435.0,0.006579520283395523
1434.0,0.006349418402839114
1433.0,0.006098476319815785
1432.0,0.00580168962608146
1431.0,0.005489137938041618
1430.0,0.005178497562918755
1429.0,0.00486738195679269
1428.0,0.004591657644430986
1427.0,0.004387424817892105
1426.0,0.004229255309591456
1425.0,0.004065949277377097
1424.0,0.0038993447527300423
1423.0,0.0037761165343544326
1422.0,0.0036980872783662546
1421.0,0.003624408266170703
1420.0,0.003548607737753584
1419.0,0.0034965088296074584
1418.0,0.0034556191579479104
1417.0,0.003399624458053688
1416.0,0.003347524490535266
1415.0,0.0033202796200519167
1414.0,0.003301506785110661
1413.0,0.0032644514597455097
1412.0,0.003213819354346309
1411.0,0.003173123470015905
1410.0,0.0031382642718726134
1409.0,0.0030899136709510154
1408.0,0.0030364398822626698
1407.0,0.003000925135893113
1406.0,0.002976385386752762
1405.0,0.0029326788619539954
1404.0,0.0028746718894190086
1403.0,0.00283484717198575
1402.0,0.0028121094396305907
1401.0,0.002783937091378536
1400.0,0.0027542907793283358
1399.0,0.0027431915562944765
1398.0,0.0027401282707312205
1397.0,0.0027186664213176416
1396.0,0.0026866726888690536
1395.0,0.002670710777905797
1394.0,0.002668511297488773
1393.0,0.0026638479695364975
1392.0,0.0026626506420615523
1391.0,0.002675022308774632
1390.0,0.00269239793700139
1389.0,0.002703700785087158
1388.0,0.002725634865293176
1387.0,0.002785550540472547
1386.0,0.002876994504323646
1385.0,0.0029860862613999917
1384.0,0.003134254636292715
1383.0,0.003352040309118948
1382.0,0.0036363322568151823
1381.0,0.003955050754851039
1380.0,0.004273580919340392
1379.0,0.004543817503099915
1378.0,0.0047005770301802195
1377.0,0.004712719216323198
1376.0,0.004611739039986184
1375.0,0.004461358252571072
1374.0,0.004323230782857157
1373.0,0.0042394739083342564
1372.0,0.004221090461091964
1371.0,0.004247383848952216
1370.0,0.004277895313961689
1369.0,0.004274446627399326
1368.0,0.004228789332048611
1367.0,0.004158975742290479
1366.0,0.004074449389806861
1365.0,0.003968609738595888
1364.0,0.003840467853125489
1363.0,0.0037027541403164325
1362.0,0.0035709301401162553
1361.0,0.0034585239017232323
1360.0,0.0033781754555915412
1359.0,0.003333284059487427
1358.0,0.0033128125959877713
1357.0,0.003302685444634548
1356.0,0.003301133361500057
1355.0,0.003312087754618607
1354.0,0.003326317702713488
1353.0,0.0033276653657137805
1352.0,0.003313586052941655
1351.0,0.0032908633234761493
1350.0,0.0032571111905188464
1349.0,0.0032054662975321236
1348.0,0.0031427427674896088
1347.0,0.003082909639384032
1346.0,0.0030276566077114156
1345.0,0.002971479381313678
1344.0,0.002918972986172747
1343.0,0.0028787699607843347
1342.0,0.0028450483089976428
1341.0,0.0028001432635932806
1340.0,0.002735613749849937
1339.0,0.0026603903148649057
1338.0,0.0025838090972185035
1337.0,0.002506804306659407
1336.0,0.002434039989839773
1335.0,0.0023746267220055846
1334.0,0.002329330892775628
1333.0,0.0022914843776149297
1332.0,0.0022600571722262205
1331.0,0.002239532859332265
1330.0,0.002227982582389987
1329.0,0.002219060241709197
1328.0,0.0022144458099620026
1327.0,0.0022206875660280745
1326.0,0.0022355574000791634
1325.0,0.00225112134148999
1324.0,0.0022676690743700548
1323.0,0.0022916717478911317
1322.0,0.0023233904176701483
1321.0,0.00235864745238219
1320.0,0.0023989732518149088
1319.0,0.002446686354203347
1318.0,0.002493937281655027
1317.0,0.0025321744916546327
1316.0,0.002566741423340647
1315.0,0.002607394964526052
1314.0,0.0026511073230593304
1313.0,0.00268734696450057
1312.0,0.002716433262916168
1311.0,0.0027476341754073376
1310.0,0.0027818025449207373
1309.0,0.002811193705994546
1308.0,0.0028332293742035315
1307.0,0.002851740999693795
1306.0,0.0028665477908339987
1305.0,0.002874040655678808
1304.0,0.00287666452516473
1303.0,0.002880201879485848
1302.0,0.002883013970873844
1301.0,0.002878494187329347
1300.0,0.0028666661207420716
1299.0,0.0028530857894433553
1298.0,0.002838158624264273
1297.0,0.002817803227297151
1296.0,0.0027930947592739617
1295.0,0.0027688731332244435
1294.0,0.0027445389302621793
1293.0,0.0027166802779070923
1292.0,0.0026887863056180203
1291.0,0.002667891220039609
1290.0,0.002653013430590481
1289.0,0.0026371467022367153
1288.0,0.0026198356700110714
1287.0,0.0026074876674736683
1286.0,0.0026020948485608575
1285.0,0.00260002940345606
1284.0,0.0026006873179285845
1283.0,0.002606297338990772
1282.0,0.0026145339999147227
1281.0,0.002620708712779615
1280.0,0.0026264992693926636
1279.0,0.0026378798838644275
1278.0,0.002655670102621288
1277.0,0.002676319033391131
1276.0,0.002699897523269986
1275.0,0.0027288520171873253
1274.0,0.002761282495646092
1273.0,0.002794285582284996
1272.0,0.0028322537119591447
1271.0,0.0028836568295928277
1270.0,0.002951523713148471
1269.0,0.003035216317322499
1268.0,0.003137733444177677
1267.0,0.003260823456736963
1266.0,0.003395230063395518
1265.0,0.003524736596950478
1264.0,0.0036374206911804906
1263.0,0.0037255806027823666
1262.0,0.0037795585938825266
1261.0,0.0037918296367772247
1260.0,0.00376608432488951
1259.0,0.0037142973386875915
1258.0,0.003645826115605793
1257.0,0.003566425994346886
1256.0,0.0034853667031175695
1255.0,0.003414159409652907
1254.0,0.003357946760264117
1253.0,0.003315227581354286
1252.0,0.003285517897028702
1251.0,0.003269970685302697
1250.0,0.0032655983754483787
1249.0,0.0032668200773285977
1248.0,0.003272235064079976
1247.0,0.003283485664555938
1246.0,0.003299350488730714
1245.0,0.003317313704962415
1244.0,0.003338343899984118
1243.0,0.003363342266885669
1242.0,0.003387901213205953
1241.0,0.0034079987491562698
1240.0,0.003427939368617425
1239.0,0.003455026802201367
1238.0,0.0034884853802199245
1237.0,0.003521052294853487
1236.0,0.003549765120067072
1235.0,0.003577793864129829
1234.0,0.0036070844274013964
1233.0,0.0036361975510025564
1232.0,0.0036645120152842604
1231.0,0.0036924533619532543
1230.0,0.0037184937832357703
1229.0,0.0037411880730648093
1228.0,0.003762868904144012
1227.0,0.003786769414344116
1226.0,0.0038122344035088026
1225.0,0.003836757965132736
1224.0,0.0038601896217010444
1223.0,0.0038829482456954095
1222.0,0.003903587472077926
1221.0,0.0039226661590184
1220.0,0.00394527713306329
1219.0,0.003974650146660179
1218.0,0.0040066347785340465
1217.0,0.004035456939501001
1216.0,0.004061195503019549
1215.0,0.004086812519989556
1214.0,0.004112219839346573
1213.0,0.004136574904490159
1212.0,0.004162284458903995
1211.0,0.004191250440508467
1210.0,0.004220954318773142
1209.0,0.004249271399732447
1208.0,0.004278872416986696
1207.0,0.004312105278860458
1206.0,0.004346329029432396
1205.0,0.004379281969329422
1204.0,0.00441383662763254
1203.0,0.004452003711107896
1202.0,0.004489654408637375
1201.0,0.004523121626277173
1200.0,0.004555923373249726
1199.0,0.004593068137463975
1198.0,0.004633555428128858
1197.0,0.004674209529907585
1196.0,0.004715791261565462
1195.0,0.004759139419945439
1194.0,0.004800181623131724
1193.0,0.004835204471069152
1192.0,0.004866991805000013
1191.0,0.004900337082240661
1190.0,0.00493603269361652
1189.0,0.004974372020774159
1188.0,0.005018799576606972
1187.0,0.00506952515629992
1186.0,0.005118896102358867
1185.0,0.005160653377833552
1184.0,0.005199699700550897
1183.0,0.005245817475208113
1182.0,0.005301199835395484
1181.0,0.005360164055966576
1180.0,0.0054176816807157725
1179.0,0.0054717392424750155
1178.0,0.0055204010704434535
1177.0,0.0055629962385937625
1176.0,0.005602178580427461
1175.0,0.005640164901539387
1174.0,0.005675432219482971
1173.0,0.005706886092950457
1172.0,0.005737561155902591
1171.0,0.005770010710453711
1170.0,0.005802016406920465
1169.0,0.005831300545068932
1168.0,0.005860470548183138
1167.0,0.00589222901117791
1166.0,0.005923130553369685
1165.0,0.005947489479297549
1164.0,0.0059651333324354
1163.0,0.005980922291118541
1162.0,0.005998944609117993
1161.0,0.006020827836927766
1160.0,0.006046988856755189
1159.0,0.006075537589681445
1158.0,0.006102004697002693
1157.0,0.006123146463832698
1156.0,0.006138862514320574
1155.0,0.006149031828056787
1154.0,0.006152727614562987
1153.0,0.0061527357583635095
1152.0,0.006155893536964662
1151.0,0.0061652731023756485
1150.0,0.006175874457103849
1149.0,0.0061816815161660306
1148.0,0.006183489328974867
1147.0,0.006186654220824807
1146.0,0.0061945509298506765
1145.0,0.00620701706767058
1144.0,0.0062217021928702675
1143.0,0.006234213470628921
1142.0,0.006240752833606656
1141.0,0.00624366067731776
1140.0,0.006251161804474631
1139.0,0.006269431026963324
1138.0,0.006297986175687608
1137.0,0.006333584210911762
1136.0,0.0063730650211147495
1135.0,0.00641066274465713
1134.0,0.006439568350759489
1133.0,0.006460013791257452
1132.0,0.006480294855891459
1131.0,0.006506478732447587
1130.0,0.0065362631912672465
1129.0,0.006565999274463124
1128.0,0.0065975299413378
1127.0,0.006633444629153256
1126.0,0.006671135536583252
1125.0,0.006706937753567175
1124.0,0.006741864908225824
1123.0,0.00677868565664331
1122.0,0.006817590830700789
1121.0,0.006858878066473447
1120.0,0.0069053686582069024
1119.0,0.006957862481358246
1118.0,0.007012563457051269
1117.0,0.007067140515886473
1116.0,0.007124729328650646
1115.0,0.007187287047794327
1114.0,0.007249265606499879
1113.0,0.007303133748956524
1112.0,0.007348097444377932
1111.0,0.007388888955434272
1110.0,0.007428682793975568
1109.0,0.007467384901066341
1108.0,0.007504739805885234
1107.0,0.00754139981991043
1106.0,0.007577719625908538
1105.0,0.007613183041805448
1104.0,0.007645834319611365
1103.0,0.007672011977296154
1102.0,0.007688947867970264
1101.0,0.007698205929876968
1100.0,0.00770384053113691
1099.0,0.007708297999407141
1098.0,0.0077121539942295115
1097.0,0.007716617179065085
1096.0,0.007722244205625624
1095.0,0.007725856907664217
1094.0,0.007723448868797134
1093.0,0.00771550780065486
1092.0,0.007704828463356861
1091.0,0.007689992475973867
1090.0,0.007666801135889078
1089.0,0.007636238162107476
1088.0,0.007605008369325908
1087.0,0.007576780915765832
1086.0,0.007547950269974108
1085.0,0.007513775152987593
1084.0,0.0074740038058000715
1083.0,0.007430472176232384
1082.0,0.007383408893329036
1081.0,0.007332217934335131
1080.0,0.007276482945422967
1079.0,0.007214636914463982
1078.0,0.007144989289646181
1077.0,0.007069453167327249
1076.0,0.006993054606117144
1075.0,0.006918556126421653
1074.0,0.006844809936029426
1073.0,0.006771566601141863
1072.0,0.006701936004931645
1071.0,0.0066379431628525686
1070.0,0.006577332496350269
1069.0,0.006517515759903386
1068.0,0.006459585285872906
1067.0,0.00640578276363578
1066.0,0.006355984118295041
1065.0,0.006309152958614599
1064.0,0.006264897275679541
1063.0,0.006220637846796298
1062.0,0.006170854754981448
1061.0,0.006113490799372506
1060.0,0.006054950940239472
1059.0,0.0060044460704691315
1058.0,0.005964235309673461
1057.0,0.0059287146132272735
1056.0,0.005892045322180808
1055.0,0.00585349433993387
1054.0,0.0058164712530787135
1053.0,0.005785344108597558
1052.0,0.005762400166485013
1051.0,0.005745496903901401
1050.0,0.005729878120602927
1049.0,0.005713797248950047
1048.0,0.005699161390846613
1047.0,0.0056851139891225
1046.0,0.00566595603518671
1045.0,0.005638264884199674
1044.0,0.005605895979243941
1043.0,0.005574943553078316
1042.0,0.005546688323078279
1041.0,0.0055184972765578745
1040.0,0.0054889032301596846
1039.0,0.005457630250357575
1038.0,0.005422494365724794
1037.0,0.00538100030016722
1036.0,0.005334696223291623
1035.0,0.005288053466705279
1034.0,0.005242552693944393
1033.0,0.005194812380751648
1032.0,0.005141048586072803
1031.0,0.005081065773426397
1030.0,0.005017499080897293
1029.0,0.00495287978291279
1028.0,0.004887484792696441
1027.0,0.004818639668690617
1026.0,0.004742732250153028
1025.0,0.004659493072213768
1024.0,0.004573400409334255
1023.0,0.004489168805306877
1022.0,0.004406994898500717
1021.0,0.004324194273073858
1020.0,0.004239878975444177
1019.0,0.00415502248852983
1018.0,0.004069551982268648
1017.0,0.003983478985044667
1016.0,0.003900215835847148
1015.0,0.0038244011967604507
1014.0,0.0037560022801228833
1013.0,0.003690172897420242
1012.0,0.0036231709410488124
1011.0,0.0035550080840720277
1010.0,0.0034865073910787282
1009.0,0.003417680761665957
1008.0,0.0033494253271132085
1007.0,0.0032829984923715915
1006.0,0.0032168773546236286
1005.0,0.0031475316295456147
1004.0,0.0030743418426184225
1003.0,0.003000926537407643
1002.0,0.0029310848332594654
1001.0,0.002866092478221338
1000.0,0.0028057835658391317
999.0,0.0027488785404981763
998.0,0.0026923486789831785
997.0,0.0026341804486465182
996.0,0.00257696262617628
995.0,0.002525180185820106
994.0,0.0024789000390818255
993.0,0.0024340860095776284
992.0,0.002389440106007368
991.0,0.002348606255126264
990.0,0.002314647217365582
989.0,0.002286223364711319
988.0,0.0022601681285198826
987.0,0.002234189543387479
986.0,0.002206334763132657
985.0,0.002175516219593605
984.0,0.0021437832932165073
983.0,0.0021154669733922512
982.0,0.002093387753801061
981.0,0.0020776080274812294
980.0,0.002066767535121267
979.0,0.0020576339492907806
978.0,0.002045059037321182
977.0,0.0020269420213269674
976.0,0.0020083828118654264
975.0,0.001996464319208155
974.0,0.0019916109931769938
973.0,0.0019886532608743754
972.0,0.001985523153685692
971.0,0.001985316475457041
970.0,0.001989729630950538
969.0,0.0019961365215396547
968.0,0.0020023781772675092
967.0,0.0020095754289878847
966.0,0.0020185712069697255
965.0,0.0020275807252240494
964.0,0.002034933310301546
963.0,0.0020410110299778433
962.0,0.0020467178412027303
961.0,0.0020531105387837302
960.0,0.002062835336933464
959.0,0.0020786385558759033
958.0,0.0021000673502457362
957.0,0.0021244943124030993
956.0,0.002150970076502592
955.0,0.0021797823784793194
954.0,0.002208959763458418
953.0,0.0022351938466492255
952.0,0.0022580856861952256
951.0,0.0022799527222874673
950.0,0.0023020680225022167
949.0,0.002324920648134927
948.0,0.002351249003323603
947.0,0.0023839096782484956
946.0,0.002420577304412589
945.0,0.00245516146449654
944.0,0.0024852624408512334
943.0,0.0025146088459326917
942.0,0.0025477357086044513
941.0,0.0025856408385501926
940.0,0.002626764376979185
939.0,0.0026684571012791985
938.0,0.0027069027612155617
937.0,0.00273906597111527
936.0,0.0027655788824446385
935.0,0.002789333031095758
934.0,0.0028113725693222065
933.0,0.0028307615713410767
932.0,0.0028477702615412343
931.0,0.0028637569723552435
930.0,0.0028781498308460066
929.0,0.002889095894030068
928.0,0.002897216671548965
927.0,0.0029052716337039947
926.0,0.0029138512773814
925.0,0.002920915935457217
924.0,0.0029261085499773746
923.0,0.0029319790778312596
922.0,0.0029400053213102535
921.0,0.0029484953850360297
920.0,0.0029553151616273712
919.0,0.0029597939975006633
918.0,0.0029612902725154704
917.0,0.0029590482117668503
916.0,0.0029545247532746077
915.0,0.0029507767232673588
914.0,0.0029478648775190627
913.0,0.002941215284845275
912.0,0.0029261895928364163
911.0,0.002902599970588598
910.0,0.0028737755268860975
909.0,0.002843034521600942
908.0,0.0028118692296587207
907.0,0.002779378668180207
906.0,0.0027424031853256854
905.0,0.002698489282325813
904.0,0.0026499828647256786
903.0,0.0026031422876739577
902.0,0.0025618344429903755
901.0,0.0025238536960506034
900.0,0.002484505150596826
899.0,0.0024418257161794668
898.0,0.002397197599289867
897.0,0.002353094751582554
896.0,0.002311787245222483
895.0,0.0022745810113876446
894.0,0.0022407484214471756
893.0,0.002208102271555926
892.0,0.0021751941607236476
891.0,0.002141834073536846
890.0,0.0021075885007935218
889.0,0.0020713926771611874
888.0,0.002032225252238541
887.0,0.001988197721348666
886.0,0.0019359779253624787
885.0,0.0018743436502207716
884.0,0.0018080225965024972
883.0,0.0017443855565004367
882.0,0.0016858097096391995
881.0,0.001628783228483853
880.0,0.001570888990604511
879.0,0.001514283378087824
878.0,0.0014614268443420174
877.0,0.0014122366833083171
876.0,0.0013669753681477858
875.0,0.001327088754973808
874.0,0.0012914892976093148
873.0,0.0012569024530841542
872.0,0.0012234365674143898
871.0,0.0011946972263430524
870.0,0.0011708393056323394
869.0,0.001146742011019586
868.0,0.0011188927918245242
867.0,0.0010891478433411532
866.0,0.001060176585663344
865.0,0.0010323177021740598
864.0,0.001006875918543153
863.0,0.0009872368137808217
862.0,0.0009736271548998793
861.0,0.0009610946100425013
860.0,0.0009457303708212542
859.0,0.0009291868242915596
858.0,0.0009145752390521877
857.0,0.0009017944192627954
856.0,0.0008896897554755065
855.0,0.0008792106248719005
854.0,0.0008713878161708305
853.0,0.0008650990847505046
852.0,0.0008592441014572077
851.0,0.0008541369033235172
850.0,0.0008490082650823925
849.0,0.0008420586814378822
848.0,0.0008351845598765424
847.0,0.0008343382231441527
846.0,0.000841974867775858
845.0,0.0008526032490653484
844.0,0.0008588778215890977
843.0,0.0008590557869565562
842.0,0.0008559986126676259
841.0,0.0008522483968429065
840.0,0.000849003126889542
839.0,0.0008468450700636301
838.0,0.0008444616332024984
837.0,0.0008392841275814484
836.0,0.0008318422533715551
835.0,0.0008264780522329634
834.0,0.0008252172741928172
833.0,0.0008245624112094885
832.0,0.000822051588334455
831.0,0.0008228262798071746
830.0,0.0008350669986923466
829.0,0.0008604669314793673
828.0,0.0008931177712307385
827.0,0.0009264809259001285
826.0,0.0009581435238371937
825.0,0.0009896028637100165
824.0,0.001024499169221739
823.0,0.001064284138340995
822.0,0.0011027190525953372
821.0,0.0011289128450179791
820.0,0.00113924812229594
819.0,0.001142466119003018
818.0,0.001149977217547071
817.0,0.0011645715944257902
816.0,0.0011819684206236304
815.0,0.0012001859376062681
814.0,0.0012219835463266847
813.0,0.001248758688193919
812.0,0.0012771938380155632
811.0,0.0013030800454719568
810.0,0.0013250886460019413
809.0,0.0013438202793069074
808.0,0.0013600215591457506
807.0,0.001374910640797447
806.0,0.0013899255779378714
805.0,0.0014048549453465472
804.0,0.001417753412178877
803.0,0.001427218525755841
802.0,0.0014331834434205802
801.0,0.0014352398407363094
800.0,0.0014320825768572188
799.0,0.0014231864607635342
798.0,0.0014094240671586541
797.0,0.0013917960726878918
796.0,0.0013712644940991627
795.0,0.0013495000057883544
794.0,0.0013270957583734022
793.0,0.001300951427925217
792.0,0.0012667245743203856
791.0,0.0012251311027328222
790.0,0.0011832150261527462
789.0,0.0011479208348244528
788.0,0.0011205217689847183
787.0,0.001098411627564353
786.0,0.001079825859097797
785.0,0.0010651465790186736
784.0,0.0010553421389685725
783.0,0.001050647165439603
782.0,0.001049903985598862
781.0,0.0010507641344136595
780.0,0.0010517266004513427
779.0,0.0010536514532659398
778.0,0.0010573167790411174
777.0,0.0010602031008885256
776.0,0.001059110029398655
775.0,0.0010563351606237396
774.0,0.0010592450100980406
773.0,0.001071813834495781
772.0,0.0010898275664475365
771.0,0.0011062223666397978
770.0,0.00111800025722852
769.0,0.0011258819668656759
768.0,0.001130661906254378
767.0,0.0011332645099844892
766.0,0.0011360003617150076
765.0,0.0011408422313550577
764.0,0.0011484031879570593
763.0,0.0011602459425640278
762.0,0.001178877698784122
761.0,0.0012033775806709111
760.0,0.0012291856587349926
759.0,0.0012548490587384032
758.0,0.0012839287117050516
757.0,0.0013166400210562449
756.0,0.0013457321045092345
755.0,0.0013665516261378327
754.0,0.0013854941691112549
753.0,0.0014108544980772828
752.0,0.0014403395070355133
751.0,0.0014666245566301499
750.0,0.0014910172039825226
749.0,0.001521610896532274
748.0,0.0015609250635659666
747.0,0.0016053457519372351
746.0,0.001654020571544769
745.0,0.0017076957872401719
744.0,0.0017616635098357996
743.0,0.0018121905574598788
742.0,0.0018678928605345782
741.0,0.001942497084780592
740.0,0.002040757601918881
739.0,0.0021668257148897015
738.0,0.002341591773449599
737.0,0.0025984325834590293
736.0,0.002984650516183231
735.0,0.0036110800127932556
734.0,0.004683728048366772
733.0,0.0063812958719806695
732.0,0.008591641614381418
731.0,0.010760256068671861
730.0,0.01213392403920182
729.0,0.012320504953220162
728.0,0.011610684242463216
727.0,0.010695007685643946
726.0,0.010145237771774326
725.0,0.0102009240813737
724.0,0.010927943157071022
723.0,0.012425007110328238
722.0,0.014760229694304225
721.0,0.017630528487358643
720.0,0.020126681439585015
719.0,0.021136428085469672
718.0,0.020213843835073457
717.0,0.017866212555721503
716.0,0.014989462585478877
715.0,0.01227531311862825
714.0,0.010043273926605159
713.0,0.008345164804966259
712.0,0.007106294900599039
711.0,0.006203813927777204
710.0,0.0055114719742399764
709.0,0.004945069859103775
708.0,0.004476537959743957
707.0,0.004098043476479622
706.0,0.0037879795820076638
705.0,0.00352159796038516
704.0,0.003292498939592414
703.0,0.003101781483234338
702.0,0.0029385454477447014
701.0,0.0027893869818532515
700.0,0.002655435950243751
699.0,0.0025417603070172017
698.0,0.002438769391935001
697.0,0.0023321166582786607
696.0,0.0022251775759588323
695.0,0.0021344179387171396
694.0,0.002065765128663104
693.0,0.002009346435377657
692.0,0.0019534424744739143
691.0,0.0018910954336677395
690.0,0.0018182348260283798
689.0,0.001740547693015388
688.0,0.0016786414688027477
687.0,0.001648335838244998
686.0,0.0016384186209382938
685.0,0.0016243684034423303
684.0,0.0015977588387831084
683.0,0.0015675606071265114
682.0,0.0015399664103026638
681.0,0.001512781671907051
680.0,0.0014866871567704866
679.0,0.0014676143545056721
678.0,0.0014560711294522482
677.0,0.001445790294657742
676.0,0.0014310358632452186
675.0,0.0014092926868119484
674.0,0.0013784301157236897
673.0,0.0013389160760949768
672.0,0.0012968479648672471
671.0,0.0012573237832755762
670.0,0.0012201232077479758
669.0,0.0011852047522978076
668.0,0.0011582176100643738
667.0,0.0011507135168217757
666.0,0.0011588397231686001
665.0,0.0011609565564573722
664.0,0.0011500233547798815
663.0,0.0011354418210794111
662.0,0.001125441544788689
661.0,0.0011199355764829062
660.0,0.0011156579199423937
659.0,0.001108623201758602
658.0,0.0010936083084604894
657.0,0.001072475778842952
656.0,0.0010556844243521505
655.0,0.0010479569173939447
654.0,0.0010388145288898819
653.0,0.0010183938989243911
652.0,0.000996050372634188
651.0,0.0009888183316259479
650.0,0.0009976228187704831
649.0,0.001009672089156082
648.0,0.0010180208804629967
647.0,0.0010210410956808433
646.0,0.001010683769068093
645.0,0.0009813079012030168
644.0,0.0009454734697508442
643.0,0.000922832913516716
642.0,0.000913415453557563
641.0,0.0008988701999803991
640.0,0.0008705350797968814
639.0,0.000839281585087784
638.0,0.000818542631564266
637.0,0.000814059161226889
636.0,0.0008287905650047433
635.0,0.0008570671009860518
634.0,0.0008762518928607312
633.0,0.0008677092687974188
632.0,0.000841287879362873
631.0,0.0008201322718595448
630.0,0.0008075800640918263
629.0,0.0007879641239949755
628.0,0.0007567735090195978
627.0,0.0007285320935551585
626.0,0.0007138909204512291
625.0,0.0007070942958907218
624.0,0.0006994609169205691
623.0,0.0006848173588430952
622.0,0.0006526863327110625
621.0,0.0006016414358067662
620.0,0.0005575044810860152
619.0,0.0005520591697491886
618.0,0.0005812765632954164
617.0,0.0006150265595697942
616.0,0.0006454869809365833
615.0,0.0006852110919850846
614.0,0.0007272386906404686
613.0,0.0007510682943631774
612.0,0.0007583217170449004
611.0,0.000766784451256781
610.0,0.0007775377742302866
609.0,0.0007796449441507456
608.0,0.0007805550248267333
607.0,0.0007989573267393052
606.0,0.0008320474922324985
605.0,0.0008630106116863062
604.0,0.0008939275293613677
603.0,0.0009351086481352131
602.0,0.0009728854636146319
601.0,0.0009832635579085085
600.0,0.0009715252178603153
599.0,0.0009661324274466978
598.0,0.0009738528512659936
597.0,0.0009707801855831794
596.0,0.0009411027610870344
595.0,0.0008981549266162322
594.0,0.0008624927312772054
593.0,0.0008424856894172025
592.0,0.000842248066376129
591.0,0.0008628432622328832
590.0,0.0008901595196269749
589.0,0.0009066972889432651
588.0,0.0009146925952191298
587.0,0.0009239200264916693
586.0,0.0009219110442153686
585.0,0.00088413133893059
584.0,0.000816883183379373
583.0,0.0007613082401043097
582.0,0.0007447618607017703
581.0,0.0007534373894615094
580.0,0.0007634787676562671
579.0,0.0007670473086362859
578.0,0.000761085453385459
577.0,0.0007434868382552013
576.0,0.000728531147807038
575.0,0.0007313601132948183
574.0,0.000732144523428004
573.0,0.0006979995154031306
572.0,0.0006328057983295897
571.0,0.0005747455502299081
570.0,0.000548837743880821
569.0,0.0005413161285970637
568.0,0.0005364859808966119
567.0,0.0005373164738597784
566.0,0.0005389350532406718
565.0,0.0005325031069166026
564.0,0.0005370936086957273
563.0,0.0005852485946797291
562.0,0.0006707990098853813
561.0,0.0007457830531896663
560.0,0.0007741877907499844
559.0,0.0007598291257087264
558.0,0.0007334678976362602
557.0,0.0007274725589544816
556.0,0.0007507508236719992
555.0,0.0007697204802271967
554.0,0.0007321555581788119
553.0,0.0006381763408806707
552.0,0.0005534865161029715
551.0,0.0005303883247568822
550.0,0.0005304736245149946
