cm-1,A
4000.0,0.0017498516119840851
3999.0,0.001763679830453859
3998.0,0.0018127368620505652
3997.0,0.0018767787224641206
3996.0,0.0019332783799189228
3995.0,0.0019661336435827306
3994.0,0.001977858351057831
3993.0,0.0019904121009165117
3992.0,0.0020264635166155932
3991.0,0.002083672454348335
3990.0,0.00213381640342495
3989.0,0.0021476429888036847
3988.0,0.0021185617093093124
3987.0,0.00206076535338901
3986.0,0.0019926783556700085
3985.0,0.001931524929045374
3984.0,0.0018950732120466603
3983.0,0.001899337491970932
3982.0,0.0019431995273709243
3981.0,0.0019993160941132355
3980.0,0.0020276022560314355
3979.0,0.0020070860908083816
3978.0,0.0019548895062837628
3977.0,0.0019117749252430625
3976.0,0.00191105252382745
3975.0,0.0019526116906636738
3974.0,0.0020099367727296983
3973.0,0.0020555474105289056
3972.0,0.0020765185589408947
3971.0,0.002072146173996205
3970.0,0.002045559295807315
3969.0,0.002006771880092238
3968.0,0.00197608822978192
3967.0,0.001976299642028549
3966.0,0.0020180682682960777
3965.0,0.0020962347255241882
3964.0,0.0022011612454005455
3963.0,0.0023208178402860952
3962.0,0.0024296330261984207
3961.0,0.0024860301573041785
3960.0,0.0024579369565912498
3959.0,0.0023590889214619333
3958.0,0.0022421028976590957
3957.0,0.002159201196517087
3956.0,0.002133821853698573
3955.0,0.002151467300333566
3954.0,0.002182205617046202
3953.0,0.0022029360874072142
3952.0,0.0022109591450733806
3951.0,0.0022196120946609207
3950.0,0.0022359076271880798
3949.0,0.0022437325092454184
3948.0,0.0022103409382565886
3947.0,0.0021275737993402648
3946.0,0.0020429390082372864
3945.0,0.002030275533190398
3944.0,0.0021272451895549584
3943.0,0.0022904314406072563
3942.0,0.0024078994875690388
3941.0,0.0024131484364552647
3940.0,0.0023668655994447604
3939.0,0.002370182300988701
3938.0,0.00243381632671324
3937.0,0.002478729521543368
3936.0,0.002444050878629738
3935.0,0.002350338236137511
3934.0,0.0022738887695509056
3933.0,0.0022662601592240324
3932.0,0.002303588079305743
3931.0,0.002309963515495351
3930.0,0.0022461809761808657
3929.0,0.0021536693425572868
3928.0,0.0020902402167195418
3927.0,0.0020920007204327535
3926.0,0.002177476568548088
3925.0,0.0023298281642112634
3924.0,0.0024674722200167653
3923.0,0.0025043309106719553
3922.0,0.0024620350286646484
3921.0,0.0024112421628676977
3920.0,0.0023743611873057093
3919.0,0.0023619806767389596
3918.0,0.0023993416482509175
3917.0,0.0024822421392796477
3916.0,0.0025587496531168704
3915.0,0.002600208352007548
3914.0,0.0026492980920703926
3913.0,0.0027402110538213773
3912.0,0.002823541015271925
3911.0,0.0028119884260437815
3910.0,0.0026746956608983546
3909.0,0.0024609022607102807
3908.0,0.00225559691941402
3907.0,0.002120916178530832
3906.0,0.002087433742511851
3905.0,0.002132967146917646
3904.0,0.002163714281108239
3903.0,0.002077778805268532
3902.0,0.0019267690313494196
3901.0,0.0018959205572205238
3900.0,0.002072334050621694
3899.0,0.002332498533673715
3898.0,0.002507040628017713
3897.0,0.0025717729613004853
3896.0,0.0025839696057339085
3895.0,0.0025467418790352534
3894.0,0.0024597704445468984
3893.0,0.0024342022207237994
3892.0,0.002582260316168511
3891.0,0.002739834982123787
3890.0,0.0026278260726397776
3889.0,0.0023048271641737334
3888.0,0.002082400542015643
3887.0,0.002119114793466226
3886.0,0.002360485030288166
3885.0,0.0025621398625389116
3884.0,0.002474921478868776
3883.0,0.0022343184750851794
3882.0,0.0021706295311990868
3881.0,0.0023556538621845027
3880.0,0.002574604068947838
3879.0,0.002557714228471626
3878.0,0.002329660771507646
3877.0,0.002163529764494825
3876.0,0.0021836167934753455
3875.0,0.002319317561636919
3874.0,0.0024336760861040016
3873.0,0.002368343798734131
3872.0,0.002166435435524917
3871.0,0.0021108571260390323
3870.0,0.002312503007960546
3869.0,0.0024530083741908315
3868.0,0.0022753204127611134
3867.0,0.0020542390954545013
3866.0,0.0021209348508129363
3865.0,0.002427588514184245
3864.0,0.002753533219414247
3863.0,0.002900878270076142
3862.0,0.0028621560733401745
3861.0,0.002793760754678
3860.0,0.0027456290184129763
3859.0,0.0026322791597547896
3858.0,0.002381235171457265
3857.0,0.001963135076051556
3856.0,0.0014483200781909462
3855.0,0.001090504153426269
3854.0,0.0013226260209937522
3853.0,0.0019326531980570277
3852.0,0.002009569687050062
3851.0,0.001676938240296035
3850.0,0.0017881419439225443
3849.0,0.002333248647520988
3848.0,0.0027820410032592313
3847.0,0.0029463536920446617
3846.0,0.0029290922758444934
3845.0,0.002854039353299211
3844.0,0.0027516940579728182
3843.0,0.002566663793114996
3842.0,0.002261062152080451
3841.0,0.0019325545459328124
3840.0,0.0017823725765753057
3839.0,0.0018963415376921687
3838.0,0.0020914745226327507
3837.0,0.0021161036134319912
3836.0,0.0019939403570644514
3835.0,0.0019451015587903867
3834.0,0.002078005102073093
3833.0,0.002324885936622283
3832.0,0.002580813453431077
3831.0,0.002760592321994191
3830.0,0.0028354858962904832
3829.0,0.002872367595823859
3828.0,0.0029561019053163384
3827.0,0.0030747549094574207
3826.0,0.00309590380923562
3825.0,0.002878500739739222
3824.0,0.0024647384218407353
3823.0,0.0020513736440317424
3822.0,0.001884374931557362
3821.0,0.002049199427323189
3820.0,0.0021371012342238406
3819.0,0.0019094391042030591
3818.0,0.0018221619972809498
3817.0,0.0021510246462455368
3816.0,0.0026064727846994602
3815.0,0.002785338510330679
3814.0,0.0026522434775253685
3813.0,0.0026186311474354785
3812.0,0.002883289860112509
3811.0,0.0031652879395799383
3810.0,0.003219204386478004
3809.0,0.0031269443199827465
3808.0,0.0031053864042354306
3807.0,0.003182432609409834
3806.0,0.0031015253537451286
3805.0,0.002761361160471383
3804.0,0.0024583397005182453
3803.0,0.0024484079215892456
3802.0,0.0026789163960963735
3801.0,0.002795554443066493
3800.0,0.0024687400226417215
3799.0,0.0020451532567533365
3798.0,0.0021184427421480755
3797.0,0.0026335657122062185
3796.0,0.003125268955858437
3795.0,0.003331840018431822
3794.0,0.0033619571541595363
3793.0,0.0034525670740111047
3792.0,0.0036410589278388925
3791.0,0.0037992823083435765
3790.0,0.0038468052132793395
3789.0,0.003804316163390776
3788.0,0.003710715259432288
3787.0,0.003591365328034472
3786.0,0.00347412077205066
3785.0,0.003381712809619585
3784.0,0.0032897393461354223
3783.0,0.0031674264146301246
3782.0,0.0030658794592738218
3781.0,0.0030928791352643264
3780.0,0.0033059591579702287
3779.0,0.0036035735731826677
3778.0,0.0037619415386433326
3777.0,0.0037242201708511304
3776.0,0.003650094621709619
3775.0,0.003621273363273926
3774.0,0.003569974164456813
3773.0,0.0034429140955586296
3772.0,0.0033076850936938976
3771.0,0.003276357670055508
3770.0,0.003338647967494561
3769.0,0.003329096793914025
3768.0,0.0031854553430163057
3767.0,0.0030858942504823255
3766.0,0.0031806492513068102
3765.0,0.0033733202128573715
3764.0,0.0034598386420860083
3763.0,0.0033915016168114456
3762.0,0.003282947281831071
3761.0,0.003219037580044266
3760.0,0.003225943099407478
3759.0,0.0033072685625255586
3758.0,0.003393332081195876
3757.0,0.003378785832088846
3756.0,0.003216063989201579
3755.0,0.0028839140581295233
3754.0,0.002394246958137664
3753.0,0.0018397867128823924
3752.0,0.001484353561755706
3751.0,0.001542885196442698
3750.0,0.001735037776445264
3749.0,0.0016990375029273296
3748.0,0.001545975294190119
3747.0,0.0015209935226262027
3746.0,0.0016909873241685025
3745.0,0.002086485504568353
3744.0,0.0025241587216356153
3743.0,0.0025891974488949305
3742.0,0.0024366260298589763
3741.0,0.0025594559138876725
3740.0,0.002799857571046378
3739.0,0.0027538125030241133
3738.0,0.002435069226402236
3737.0,0.0021413030166867863
3736.0,0.00211429103247143
3735.0,0.0022307736762820695
3734.0,0.0021989504060382194
3733.0,0.002087269844410819
3732.0,0.002171520403122777
3731.0,0.002446433518622816
3730.0,0.0027386090526554394
3729.0,0.0029707461045588935
3728.0,0.0031168799830818775
3727.0,0.0031480996068295776
3726.0,0.003077684087228986
3725.0,0.002985808741994574
3724.0,0.003005243009426408
3723.0,0.003207591990126139
3722.0,0.003484382701088062
3721.0,0.003664025713184406
3720.0,0.0037023280137499556
3719.0,0.003690295374518175
3718.0,0.003700133189196338
3717.0,0.0037094313847440353
3716.0,0.0036712810519232697
3715.0,0.0035859141382677748
3714.0,0.003488439686764878
3713.0,0.0034182879909230093
3712.0,0.0034466807176939005
3711.0,0.003558403060378439
3710.0,0.0036345366868338527
3709.0,0.0037350259778398476
3708.0,0.0040299421896506146
3707.0,0.004497002565717972
3706.0,0.004970825077636449
3705.0,0.005350927924968409
3704.0,0.005672640840083128
3703.0,0.006050193314528921
3702.0,0.006559291374185254
3701.0,0.007106637923659509
3700.0,0.007528185150562347
3699.0,0.007819553576957405
3698.0,0.008078093855096028
3697.0,0.00830994863730172
3696.0,0.00843344454784029
3695.0,0.00838485352396175
3694.0,0.00816820514430686
3693.0,0.007815947046976753
3692.0,0.007371081143717869
3691.0,0.0069567708306784645
3690.0,0.006714074106122675
3689.0,0.006574747853086288
3688.0,0.006349119467815035
3687.0,0.006120260054349789
3686.0,0.006161136127657556
3685.0,0.006488903787694324
3684.0,0.006824751998864205
3683.0,0.006919631615708598
3682.0,0.006757745538409866
3681.0,0.006484480690201445
3680.0,0.006205529303789828
3679.0,0.005888314086746043
3678.0,0.0055202920770360195
3677.0,0.005279423487017841
3676.0,0.0054267450258670274
3675.0,0.005713426056987587
3674.0,0.005561004676772991
3673.0,0.005199751883577493
3672.0,0.005188644872599913
3671.0,0.0055050380152371
3670.0,0.005936637295537402
3669.0,0.006181792902721535
3668.0,0.006082435474660407
3667.0,0.0060186328193185
3666.0,0.006243296645778563
3665.0,0.006563383359258152
3664.0,0.006798788980640612
3663.0,0.006955911363589442
3662.0,0.0071036466477474615
3661.0,0.007238739940230273
3660.0,0.007279995240968619
3659.0,0.0071575372249083336
3658.0,0.006920869380301165
3657.0,0.006745745303546307
3656.0,0.006756931887954138
3655.0,0.0068406566942745915
3654.0,0.006861329796259056
3653.0,0.006815903612103803
3652.0,0.006638043842913756
3651.0,0.006303023819237101
3650.0,0.006116842632113784
3649.0,0.0062762951277075645
3648.0,0.006454760957289233
3647.0,0.006536643889098977
3646.0,0.006765710314916164
3645.0,0.007168934832290813
3644.0,0.007569288702739048
3643.0,0.007825771109897465
3642.0,0.00791889792926448
3641.0,0.00790502487683892
3640.0,0.007861909067250754
3639.0,0.007855227833263152
3638.0,0.007903982274246584
3637.0,0.007979297980729598
3636.0,0.008066636633426447
3635.0,0.008158643812266128
3634.0,0.008200828774971894
3633.0,0.008109061692372814
3632.0,0.007895185458980826
3631.0,0.007708910342691971
3630.0,0.007778597033676088
3629.0,0.008228722380432926
3628.0,0.008666625786196364
3627.0,0.008751994590221654
3626.0,0.008881685039994659
3625.0,0.009295811277770058
3624.0,0.009682471839672363
3623.0,0.009834409864762812
3622.0,0.009848034829646458
3621.0,0.009901180550314857
3620.0,0.01003999135121186
3619.0,0.0101205175266107
3618.0,0.00997663188959955
3617.0,0.009682434878871748
3616.0,0.009457079813259195
3615.0,0.009367865500683038
3614.0,0.00932244924654996
3613.0,0.009214104217494204
3612.0,0.008999497319474779
3611.0,0.008762704460098903
3610.0,0.008661910308840217
3609.0,0.008760172163966974
3608.0,0.008939495027848795
3607.0,0.008998915667265843
3606.0,0.008901944590532486
3605.0,0.008810800840010291
3604.0,0.008829320488501546
3603.0,0.008908640985963218
3602.0,0.008967989182286215
3601.0,0.008971099136371603
3600.0,0.008919601321380966
3599.0,0.008835405777194218
3598.0,0.008762712971275958
3597.0,0.008736946000363932
3596.0,0.008764771158015923
3595.0,0.008830501390796297
3594.0,0.008883676533232914
3593.0,0.008862934278781664
3592.0,0.008758320621325059
3591.0,0.008602645485556669
3590.0,0.008433418561594365
3589.0,0.00834113821473148
3588.0,0.008457002572729817
3587.0,0.008706110296943357
3586.0,0.008829044457633006
3585.0,0.008824207375665643
3584.0,0.008885196273643632
3583.0,0.0090419745624417
3582.0,0.00920575800617651
3581.0,0.009322811088621884
3580.0,0.009384608091277516
3579.0,0.009397827653922301
3578.0,0.009384309416548395
3577.0,0.009368158492618638
3576.0,0.009354967534833352
3575.0,0.009345368975814559
3574.0,0.009351487445402077
3573.0,0.009377956618765317
3572.0,0.009388927136526762
3571.0,0.009321782809411748
3570.0,0.009151865843487823
3569.0,0.008956271787670207
3568.0,0.008909366270448766
3567.0,0.009071932737819376
3566.0,0.009229708491505888
3565.0,0.009244652421331025
3564.0,0.009273171290099486
3563.0,0.009433031046629863
3562.0,0.009662315638050735
3561.0,0.009875981115126733
3560.0,0.010033491548846555
3559.0,0.010121272924253648
3558.0,0.010154597300318384
3557.0,0.01017370978713702
3556.0,0.010203704136057019
3555.0,0.010240251336887926
3554.0,0.010278131228573923
3553.0,0.01032712049394353
3552.0,0.01037579977108767
3551.0,0.010380857373064226
3550.0,0.010331483683972298
3549.0,0.010273717489140674
3548.0,0.010261533773706706
3547.0,0.010318436333187988
3546.0,0.010418761017063492
3545.0,0.01049846323020208
3544.0,0.010523802865638716
3543.0,0.010525865426485788
3542.0,0.01055276054249317
3541.0,0.010631167134828238
3540.0,0.010763198173231837
3539.0,0.010926859566589288
3538.0,0.011082238989771405
3537.0,0.01119057526468119
3536.0,0.011242016593965534
3535.0,0.011261760013971932
3534.0,0.01129025142099463
3533.0,0.011347460433724633
3532.0,0.011412139225832932
3531.0,0.011441526674257121
3530.0,0.011420442238898383
3529.0,0.011385335065681864
3528.0,0.011387556464061569
3527.0,0.011439969502453427
3526.0,0.011513123204846291
3525.0,0.011577806328519295
3524.0,0.011627007777653518
3523.0,0.011663074677944408
3522.0,0.01168355258649867
3521.0,0.011691623047026312
3520.0,0.011704513414232618
3519.0,0.011738721732320405
3518.0,0.01179929054054429
3517.0,0.011881861752583394
3516.0,0.01197757530260391
3515.0,0.012073755553010957
3514.0,0.012156870574736146
3513.0,0.012219339324538041
3512.0,0.012260184145481424
3511.0,0.01227257061287715
3510.0,0.012240836925218577
3509.0,0.012162044902841201
3508.0,0.012064000833372057
3507.0,0.011995006736841292
3506.0,0.011992195030883336
3505.0,0.01205797892338376
3504.0,0.012155487046109024
3503.0,0.012218908625156287
3502.0,0.01220719777426709
3501.0,0.012166367709246647
3500.0,0.012187895810994803
3499.0,0.012306395080360574
3498.0,0.012474578531603851
3497.0,0.012624093271089576
3496.0,0.012724331729094207
3495.0,0.012782660884444413
3494.0,0.012811475968162286
3493.0,0.012813884978526372
3492.0,0.012792153417367056
3491.0,0.012754303762596531
3490.0,0.01271403958423916
3489.0,0.012690981421543108
3488.0,0.01270187675606597
3487.0,0.012740115714423423
3486.0,0.012773275128772913
3485.0,0.012773379825345718
3484.0,0.012744140070878629
3483.0,0.012713018961086986
3482.0,0.012704951369707533
3481.0,0.012733874198176457
3480.0,0.012816732774583745
3479.0,0.012969347744783553
3478.0,0.013171415974578101
3477.0,0.013354414318661995
3476.0,0.013446927217746964
3475.0,0.013440086492001999
3474.0,0.013404737237048311
3473.0,0.013436035000564662
3472.0,0.013574551313690127
3471.0,0.013774248421471375
3470.0,0.013942030920124339
3469.0,0.014015749017268344
3468.0,0.014007610905163267
3467.0,0.01397033397025229
3466.0,0.0139371094433407
3465.0,0.01391116116776607
3464.0,0.013899794335821648
3463.0,0.013931024483642848
3462.0,0.01402860535525519
3461.0,0.014182526529482601
3460.0,0.014355210736253999
3459.0,0.014508061518471851
3458.0,0.01461729049118412
3457.0,0.01467938851296572
3456.0,0.014715013117292362
3455.0,0.014761812084765569
3454.0,0.014852132430910159
3453.0,0.01498737868329092
3452.0,0.015130184167737738
3451.0,0.015224247764763527
3450.0,0.015233394978028478
3449.0,0.015171313616077237
3448.0,0.015094418405588322
3447.0,0.015052653536911757
3446.0,0.015046238104474807
3445.0,0.015056678612132064
3444.0,0.015096089298571671
3443.0,0.01518869812867243
3442.0,0.015318420787685756
3441.0,0.015418233570852938
3440.0,0.015426586055775765
3439.0,0.01534754704558582
3438.0,0.015241030379556438
3437.0,0.015169102714015704
3436.0,0.015163380229342396
3435.0,0.015226055932750279
3434.0,0.015338572358589628
3433.0,0.01546072394093128
3432.0,0.015544171567177807
3431.0,0.015570787754496322
3430.0,0.015574918217110316
3429.0,0.015613734861643438
3428.0,0.0157169538482603
3427.0,0.015872539376285195
3426.0,0.016044699923322102
3425.0,0.016188365010093953
3424.0,0.01625388430869939
3423.0,0.01620642746552622
3422.0,0.01606160145885669
3421.0,0.015896319428068933
3420.0,0.01580054446019321
3419.0,0.015806322274479555
3418.0,0.01587003294514565
3417.0,0.015921100434585736
3416.0,0.015924582958810402
3415.0,0.015901103213837756
3414.0,0.01589295591368463
3413.0,0.01591937562926432
3412.0,0.01596721728712199
3411.0,0.016015061488125693
3410.0,0.01605234780315773
3409.0,0.016076555609466907
3408.0,0.01608542728029765
3407.0,0.016077281996071363
3406.0,0.016049279019941177
3405.0,0.015991979657723202
3404.0,0.01589892835457825
3403.0,0.015790765336315515
3402.0,0.01572040836549525
3401.0,0.015737738808495064
3400.0,0.015845795586405385
3399.0,0.01599212151469638
3398.0,0.01610270923757548
3397.0,0.0161326842320425
3396.0,0.016096151904251975
3395.0,0.01605001640407583
3394.0,0.01604490509044672
3393.0,0.01608874865582664
3392.0,0.016150991614867063
3391.0,0.016196031905510222
3390.0,0.016211621781125857
3389.0,0.016211307801539662
3388.0,0.01622050017458764
3387.0,0.01625875470950329
3386.0,0.016323054618296518
3385.0,0.016386896302898628
3384.0,0.01642439489228273
3383.0,0.016432396981188143
3382.0,0.01642214048296626
3381.0,0.016398224833752365
3380.0,0.01636191510491898
3379.0,0.01633021707510452
3378.0,0.016332166642125025
3377.0,0.01638079092741814
3376.0,0.016459857197847295
3375.0,0.016540011428405138
3374.0,0.01659679297314552
3373.0,0.016617284267447633
3372.0,0.016605858845404057
3371.0,0.01658468806388221
3370.0,0.01657136574529031
3369.0,0.016553847086956015
3368.0,0.016508471387457646
3367.0,0.016447800768693413
3366.0,0.016421729629719113
3365.0,0.016453345222613748
3364.0,0.01650000268681956
3363.0,0.016504203856918875
3362.0,0.016465772173806834
3361.0,0.016434011356311125
3360.0,0.016437554211898475
3359.0,0.016458408911239796
3358.0,0.01647853449171911
3357.0,0.016513342983061396
3356.0,0.016579857740376472
3355.0,0.016655734694831812
3354.0,0.01669419315334542
3353.0,0.016672246365456014
3352.0,0.016610300389560337
3351.0,0.01655292151165251
3350.0,0.01654072048028892
3349.0,0.0165903645391762
3348.0,0.016682453405574445
3347.0,0.01676767747351899
3346.0,0.016801082127681936
3345.0,0.01677925998671477
3344.0,0.016739995033157817
3343.0,0.01671988880021279
3342.0,0.016715055484056836
3341.0,0.016689514923084056
3340.0,0.01662407022528479
3339.0,0.016550853530993268
3338.0,0.016529816598606417
3337.0,0.01658721282535472
3336.0,0.016684066845175965
3335.0,0.01675461919888883
3334.0,0.016770673162200787
3333.0,0.016756600997261013
3332.0,0.016747437900308054
3331.0,0.01674831686589542
3330.0,0.01673654434055633
3329.0,0.016691799861682226
3328.0,0.016619214637033784
3327.0,0.016549535605011347
3326.0,0.016519455997385777
3325.0,0.01654374983803719
3324.0,0.016602872556612247
3323.0,0.016662708443779223
3322.0,0.016706159530115828
3321.0,0.016737319260732367
3320.0,0.016756813826420715
3319.0,0.016748733254023537
3318.0,0.016700721477317385
3317.0,0.016626159280790004
3316.0,0.016553904151568648
3315.0,0.016500830964087946
3314.0,0.01646483756121253
3313.0,0.016440670734001482
3312.0,0.016431119289799817
3311.0,0.01644112231062114
3310.0,0.016466961828683728
3309.0,0.016491465604452707
3308.0,0.01648718152089492
3307.0,0.016432113040844385
3306.0,0.016333530254631762
3305.0,0.016234643394287165
3304.0,0.016186097485727982
3303.0,0.01620327602584474
3302.0,0.01625320078022651
3301.0,0.016285295885161827
3300.0,0.01627276051818826
3299.0,0.01622658462851835
3298.0,0.016178806817341438
3297.0,0.016153791599762334
3296.0,0.01614892152908471
3295.0,0.016140026390213193
3294.0,0.01610990949238472
3293.0,0.016073322670355418
3292.0,0.016067043736039927
3291.0,0.016109736145776113
3290.0,0.01617713807570905
3289.0,0.01622284952036697
3288.0,0.01621983090172091
3287.0,0.016179064604469117
3286.0,0.016134510757374182
3285.0,0.016115497038971433
3284.0,0.016127351065872996
3283.0,0.016148495025039306
3282.0,0.01614737388080381
3281.0,0.0161134976642345
3280.0,0.016074245593348108
3279.0,0.016071327363797468
3278.0,0.01611516331120016
3277.0,0.016168484877533047
3276.0,0.016181120086060458
3275.0,0.016137489865646292
3274.0,0.016064893528060755
3273.0,0.016000232372410165
3272.0,0.01595916553766476
3271.0,0.015937512900572427
3270.0,0.015930494896079526
3269.0,0.01594065996731774
3268.0,0.015966941183907225
3267.0,0.015992007493226296
3266.0,0.015988422134720345
3265.0,0.015943593122649456
3264.0,0.01587814033951914
3263.0,0.01583263848392054
3262.0,0.015832107398070165
3261.0,0.015867596388764425
3260.0,0.015911316127721602
3259.0,0.01593963001435455
3258.0,0.015938691956876704
3257.0,0.01590292972298134
3256.0,0.015840818927132877
3255.0,0.015773585266015213
3254.0,0.01571339801043978
3253.0,0.015647223893084716
3252.0,0.015559296744259984
3251.0,0.015466383067270186
3250.0,0.015410662115769413
3249.0,0.015411023983128085
3248.0,0.015434871318049576
3247.0,0.015427399108225184
3246.0,0.01536266562255242
3245.0,0.01526251384484497
3244.0,0.01517425402347804
3243.0,0.015136099897542183
3242.0,0.0151556699623949
3241.0,0.01520968965943784
3240.0,0.015264085843663611
3239.0,0.015298536972818851
3238.0,0.015309347391183697
3237.0,0.015291642917639979
3236.0,0.015233395653084469
3235.0,0.015135385982270617
3234.0,0.015025632017089414
3233.0,0.014940596054042025
3232.0,0.014896355859708402
3231.0,0.014884875978592043
3230.0,0.014889957688173288
3229.0,0.014896146501335819
3228.0,0.014891208122850837
3227.0,0.014876871014789943
3226.0,0.014874803131263756
3225.0,0.01490567965745649
3224.0,0.014958844766778605
3223.0,0.014992940527145688
3222.0,0.014969281088753634
3221.0,0.014879626124497183
3220.0,0.01474500995790478
3219.0,0.01460009271997972
3218.0,0.014481553916841666
3217.0,0.014419347932421653
3216.0,0.01442349456791174
3215.0,0.01447372903477169
3214.0,0.014527496084657754
3213.0,0.014549746344177768
3212.0,0.014541413577898284
3211.0,0.01453293293099163
3210.0,0.014541510125023988
3209.0,0.014539080516201102
3208.0,0.014479535821282793
3207.0,0.01436193406368913
3206.0,0.014244896359519504
3205.0,0.014183046672527292
3204.0,0.01416478089698929
3203.0,0.014134787146655538
3202.0,0.014068915645687085
3201.0,0.013999876091987787
3200.0,0.013968540606505424
3199.0,0.013975835751864462
3198.0,0.013990025849580371
3197.0,0.013982601049975282
3196.0,0.01394647948054482
3195.0,0.013892950472524195
3194.0,0.013840469160328876
3193.0,0.013795995096335854
3192.0,0.01374269350677642
3191.0,0.013660505677891673
3190.0,0.013566180443877841
3189.0,0.013514466136661588
3188.0,0.013542255327058175
3187.0,0.013619431366708786
3186.0,0.013669824750613575
3185.0,0.013641635616880678
3184.0,0.013550634127231738
3183.0,0.013456415733765256
3182.0,0.013402499096315551
3181.0,0.013380024241012646
3180.0,0.013345889267927753
3179.0,0.013276940701997073
3178.0,0.013202525448384014
3177.0,0.013172402823298393
3176.0,0.013195977337969836
3175.0,0.013231026895300478
3174.0,0.013231954241806272
3173.0,0.01318984615882952
3172.0,0.013122538042528673
3171.0,0.013047083770395807
3170.0,0.012975659949980387
3169.0,0.012922068035177326
3168.0,0.012891961276217223
3167.0,0.012872382104045088
3166.0,0.012845692146052317
3165.0,0.012809740371268903
3164.0,0.012773808230292933
3163.0,0.012741750450365874
3162.0,0.012710110227729882
3161.0,0.012677656223722102
3160.0,0.012646447248746237
3159.0,0.01261759952802855
3158.0,0.012592485369314411
3157.0,0.012570481075387394
3156.0,0.01253879177446371
3155.0,0.012476184291424393
3154.0,0.012379107273340182
3153.0,0.012274932249778766
3152.0,0.012196305157351105
3151.0,0.012149223528905689
3150.0,0.012118599807383714
3149.0,0.012098295437386792
3148.0,0.012099034554977024
3147.0,0.012127420965746327
3146.0,0.01217049653793703
3145.0,0.012202828862448153
3144.0,0.012201193506815498
3143.0,0.012154190117285817
3142.0,0.012067501499854076
3141.0,0.01196218452561648
3140.0,0.011864101164216552
3139.0,0.011792568562042699
3138.0,0.011755951174139178
3137.0,0.011749957498409217
3136.0,0.011756430823881099
3135.0,0.011750768569658218
3134.0,0.011717667963468039
3133.0,0.011658461703162024
3132.0,0.011586084744509194
3131.0,0.01152332228155924
3130.0,0.011503168758615404
3129.0,0.011547925425693823
3128.0,0.011632749461187617
3127.0,0.011686453295663259
3126.0,0.011652883483862637
3125.0,0.011546638270222544
3124.0,0.011434294450090879
3123.0,0.01136897313925295
3122.0,0.011353992980971226
3121.0,0.011357817937021192
3120.0,0.011344282310139491
3119.0,0.011292709726054142
3118.0,0.011211048213494626
3117.0,0.01113347692578318
3116.0,0.011092656430974696
3115.0,0.01109294891128723
3114.0,0.011117385224640503
3113.0,0.011151980638347266
3112.0,0.01118668956352077
3111.0,0.01120089366351964
3110.0,0.01117340362391795
3109.0,0.011110955333082793
3108.0,0.011050552502584228
3107.0,0.01102566936472151
3106.0,0.011038477599830074
3105.0,0.011067119207957868
3104.0,0.011089710612628059
3103.0,0.011096919517442646
3102.0,0.011086136113620986
3101.0,0.011049933325512733
3100.0,0.010977823230220249
3099.0,0.010877387560264106
3098.0,0.010787431044356434
3097.0,0.010752731703886178
3096.0,0.010778961310327151
3095.0,0.01082229631474696
3094.0,0.010832037239510617
3093.0,0.010793117930690722
3092.0,0.010720970408900032
3091.0,0.010637021933959523
3090.0,0.010566246327040582
3089.0,0.010537529325071706
3088.0,0.010560457267301695
3087.0,0.010607150519376855
3086.0,0.010637938488496911
3085.0,0.010642618943564008
3084.0,0.010638182293456496
3083.0,0.010635767252425685
3082.0,0.010632086073539534
3081.0,0.010629596196093462
3080.0,0.01063941469605994
3079.0,0.010658096318726417
3078.0,0.010664603451908538
3077.0,0.010648996514355689
3076.0,0.010626710177352743
3075.0,0.010616654229339514
3074.0,0.010617656154041165
3073.0,0.010613690088096045
3072.0,0.010591243207857513
3071.0,0.010547471929198766
3070.0,0.010491691499656751
3069.0,0.01044241399521544
3068.0,0.010413390667597175
3067.0,0.010398570977834271
3066.0,0.010378387865441983
3065.0,0.010341800301585847
3064.0,0.010294390540124921
3063.0,0.010245834475753673
3062.0,0.010202011560201481
3061.0,0.010169898645645882
3060.0,0.010156839091761651
3059.0,0.010161305825242172
3058.0,0.010172306656516809
3057.0,0.010181078653568165
3056.0,0.01018474038235134
3055.0,0.010179374783997197
3054.0,0.01015973279476664
3053.0,0.010125682387424725
3052.0,0.010078317279551116
3051.0,0.010011355221423589
3050.0,0.009919890036612913
3049.0,0.00981705951254772
3048.0,0.009728135908225105
3047.0,0.00966335866532848
3046.0,0.009612209909238549
3045.0,0.009566740585853512
3044.0,0.009534874535800243
3043.0,0.009523068026721109
3042.0,0.009520215850719865
3041.0,0.00951138258554237
3040.0,0.009496766013095924
3039.0,0.009486247270446151
3038.0,0.009479593062860064
3037.0,0.009462318558139086
3036.0,0.009420549236247197
3035.0,0.009357272294005256
3034.0,0.009295183050786983
3033.0,0.0092592151633673
3032.0,0.009250845900280852
3031.0,0.009245810401311066
3030.0,0.009225839571678975
3029.0,0.009203751485455018
3028.0,0.009197681187806587
3027.0,0.009194823618260023
3026.0,0.009167032562627339
3025.0,0.009119487062675988
3024.0,0.009090069769007924
3023.0,0.009091499561560842
3022.0,0.009089786843812788
3021.0,0.009055069603888227
3020.0,0.009007777999479931
3019.0,0.008985595358430718
3018.0,0.008991331389155125
3017.0,0.008999509326084473
3016.0,0.00900149202998691
3015.0,0.009009910793756015
3014.0,0.009026879840836794
3013.0,0.009038340633597097
3012.0,0.009041383811982776
3011.0,0.00905096604790003
3010.0,0.009076956336700139
3009.0,0.009114779770097824
3008.0,0.009159522893757523
3007.0,0.009208248096549259
3006.0,0.00924621662450383
3005.0,0.009251683519917755
3004.0,0.009223468650232903
3003.0,0.009188033760719543
3002.0,0.009171215406164739
3001.0,0.009174664340481795
3000.0,0.009185029593517718
2999.0,0.009193224610265697
2998.0,0.009197328783852371
2997.0,0.009198811749886232
2996.0,0.009203937739866901
2995.0,0.009219730777332472
2994.0,0.009243477340894047
2993.0,0.009264666464594819
2992.0,0.009282213120433834
2991.0,0.009306597210140412
2990.0,0.00934003650303668
2989.0,0.009367917864352012
2988.0,0.00938278727627363
2987.0,0.009403320795349378
2986.0,0.009453371846033311
2985.0,0.0095249899110479
2984.0,0.009579935140947567
2983.0,0.009588283532640327
2982.0,0.009556820647385058
2981.0,0.009521026091193027
2980.0,0.009518390991981677
2979.0,0.009569815869420161
2978.0,0.00966908700875229
2977.0,0.009782505362420002
2976.0,0.0098682954640207
2975.0,0.00990903090314132
2974.0,0.009925877833993456
2973.0,0.009953074714879597
2972.0,0.010004283887905188
2971.0,0.010069828766321932
2970.0,0.010142832716124968
2969.0,0.010228781152236526
2968.0,0.010326819645543552
2967.0,0.010416039804744655
2966.0,0.010477564865782212
2965.0,0.01052046998167078
2964.0,0.010571326442270185
2963.0,0.010634991821713891
2962.0,0.010684201000445067
2961.0,0.01069175344471089
2960.0,0.010664587866970316
2959.0,0.01063553530670638
2958.0,0.010628801874904411
2957.0,0.010635845791593337
2956.0,0.01062203747238526
2955.0,0.010554218171188188
2954.0,0.010434277826708348
2953.0,0.010308751104647412
2952.0,0.010233878072280093
2951.0,0.010219676178804425
2950.0,0.010216475434017278
2949.0,0.010165217622209666
2948.0,0.010053043210997292
2947.0,0.009910143980089181
2946.0,0.009766825056918938
2945.0,0.009635337104819116
2944.0,0.009528413286031656
2943.0,0.009463904312154662
2942.0,0.009440832297715767
2941.0,0.009428241605856138
2940.0,0.00939783980828592
2939.0,0.009355003441524578
2938.0,0.00932505771300907
2937.0,0.00931327430675759
2936.0,0.009297908108256673
2935.0,0.009262959394756083
2934.0,0.009219776802902592
2933.0,0.009188556771633641
2932.0,0.009166312299836159
2931.0,0.009130085738605503
2930.0,0.0090711624198142
2929.0,0.009019804948857322
2928.0,0.009021586077496351
2927.0,0.00909069184373058
2926.0,0.009187629019957372
2925.0,0.009254886083006843
2924.0,0.009268004216432032
2923.0,0.00925191249964389
2922.0,0.009244529428907215
2921.0,0.00925694460755217
2920.0,0.009269848998728701
2919.0,0.00926025570537707
2918.0,0.009222210115700338
2917.0,0.009165208824347805
2916.0,0.009102775218817976
2915.0,0.009045184993068224
2914.0,0.008998498961582892
2913.0,0.008966098819387047
2912.0,0.008949072410755429
2911.0,0.008943479981291611
2910.0,0.008936895129021152
2909.0,0.008911987285396987
2908.0,0.008859588965482607
2907.0,0.00878883540798485
2906.0,0.008721196360016519
2905.0,0.008674512837557633
2904.0,0.0086545244620439
2903.0,0.00865945298939857
2902.0,0.00868355477930595
2901.0,0.008711992139066132
2900.0,0.008721399296414318
2899.0,0.008693966474750443
2898.0,0.008638329693080047
2897.0,0.008582571322977673
2896.0,0.008549720025498777
2895.0,0.008540127384025502
2894.0,0.008540666561856824
2893.0,0.008541881349619458
2892.0,0.008540394244737477
2891.0,0.008531644381115418
2890.0,0.008510027664796744
2889.0,0.008477788655996629
2888.0,0.00844717906393616
2887.0,0.00843011979528962
2886.0,0.008428743944606095
2885.0,0.008433001655553576
2884.0,0.008426310107792755
2883.0,0.008396715887978688
2882.0,0.008352131702866004
2881.0,0.008320850025780526
2880.0,0.0083244045221182
2879.0,0.008347393270670717
2878.0,0.008344783321566917
2877.0,0.008291036403627267
2876.0,0.008210005481830488
2875.0,0.008151001620826798
2874.0,0.008137433022159083
2873.0,0.008153410689790907
2872.0,0.008172674155773508
2871.0,0.008181309277125681
2870.0,0.00817373343919068
2869.0,0.008144074874584038
2868.0,0.008095872168011732
2867.0,0.00805050528018047
2866.0,0.008031474602789811
2865.0,0.008038630568837586
2864.0,0.008047437809294873
2863.0,0.008033746229353588
2862.0,0.007997180434003697
2861.0,0.007958185595114239
2860.0,0.007935817213002426
2859.0,0.007932564875893645
2858.0,0.007937490992483592
2857.0,0.007942509768264813
2856.0,0.007949785432809154
2855.0,0.0079626131067382
2854.0,0.00797454042452843
2853.0,0.007973823139207326
2852.0,0.00795747398689485
2851.0,0.0079341970862845
2850.0,0.007911413393749001
2849.0,0.007885943027254073
2848.0,0.00784765994976612
2847.0,0.007786677380277865
2846.0,0.007698774271469691
2845.0,0.0075907179517690285
2844.0,0.00748173615329163
2843.0,0.007388653750752589
2842.0,0.0073085816345189476
2841.0,0.0072278591328812525
2840.0,0.007151050486119604
2839.0,0.007106081593930105
2838.0,0.007109562034817761
2837.0,0.007139841141079491
2836.0,0.007162276922466871
2835.0,0.007170236589130125
2834.0,0.007181308700300941
2833.0,0.007200155548436515
2832.0,0.007207000994149119
2831.0,0.007187315617879686
2830.0,0.007152893594114277
2829.0,0.007123359420948149
2828.0,0.007101685627053392
2827.0,0.007079487882103358
2826.0,0.0070550237859846425
2825.0,0.007035699310873651
2824.0,0.007029577750966905
2823.0,0.0070408251810450025
2822.0,0.007066379891080863
2821.0,0.0070905435667689976
2820.0,0.007088133808579308
2819.0,0.007044362623112603
2818.0,0.006969282804439012
2817.0,0.006889788468736148
2816.0,0.006833197113368598
2815.0,0.006814591465408706
2814.0,0.006830571865164347
2813.0,0.006858531399787846
2812.0,0.0068706262347167976
2811.0,0.006859288281061289
2810.0,0.006842361789740351
2809.0,0.006838524699859041
2808.0,0.006845679292930444
2807.0,0.006847189536794295
2806.0,0.006830391556925065
2805.0,0.006792215381228548
2804.0,0.006736774264202473
2803.0,0.006678627843346966
2802.0,0.006639220315816418
2801.0,0.006627392080899129
2800.0,0.006629579031602934
2799.0,0.006628078649614955
2798.0,0.00662215314975804
2797.0,0.006621470177763053
2796.0,0.006626162291900672
2795.0,0.006627277247147177
2794.0,0.006620818190449251
2793.0,0.00660729883791545
2792.0,0.006582169213407152
2791.0,0.0065416260427693836
2790.0,0.006495191414153022
2789.0,0.006459306210525614
2788.0,0.006440342681576524
2787.0,0.006434685475706765
2786.0,0.0064411331472800995
2785.0,0.006458283145160717
2784.0,0.006473425253246668
2783.0,0.006471482132960454
2782.0,0.006454516991686667
2781.0,0.0064375163186421724
2780.0,0.006425917234558397
2779.0,0.00641363875623068
2778.0,0.006402708349449025
2777.0,0.006404182794927384
2776.0,0.006415313488008773
2775.0,0.006416468399590236
2774.0,0.006399732511929835
2773.0,0.006383930231753654
2772.0,0.0063888838975453815
2771.0,0.0064071849329543785
2770.0,0.006414682727898609
2769.0,0.006401137126366002
2768.0,0.006378595831861086
2767.0,0.0063635377127583366
2766.0,0.006359003240798463
2765.0,0.006351634454352887
2764.0,0.006324719788468161
2763.0,0.006279050426026651
2762.0,0.006241394116954308
2761.0,0.006242952732216779
2760.0,0.006284478764947758
2759.0,0.006332828305061902
2758.0,0.006354701438722496
2757.0,0.006344338849866038
2756.0,0.006317498195689372
2755.0,0.006292920694146219
2754.0,0.006283355629594188
2753.0,0.006290827225984473
2752.0,0.006301467967100903
2751.0,0.0062963765122714095
2750.0,0.006273982010600351
2749.0,0.006252573872166884
2748.0,0.006244068156015
2747.0,0.006237646835135507
2746.0,0.0062195561571976535
2745.0,0.006196013017301211
2744.0,0.006183900832757853
2743.0,0.006187691472087986
2742.0,0.0061982256072715715
2741.0,0.006208065000039941
2740.0,0.006217460907099066
2739.0,0.00622970904578568
2738.0,0.006248865318639534
2737.0,0.006274710945694672
2736.0,0.00629215759004636
2735.0,0.006276742092053842
2734.0,0.006223137779922736
2733.0,0.006161336717019218
2732.0,0.006129499119125323
2731.0,0.006135054324793627
2730.0,0.0061527820190546735
2729.0,0.006156015926695297
2728.0,0.006138330970122829
2727.0,0.006108370582924397
2726.0,0.006078587914964146
2725.0,0.006060153860529102
2724.0,0.006057018763400219
2723.0,0.006061725658941362
2722.0,0.006063080507639488
2721.0,0.006058015222989613
2720.0,0.006051333381140367
2719.0,0.006047358862203669
2718.0,0.00604753429562285
2717.0,0.00605132155211645
2716.0,0.00605191550043178
2715.0,0.006036143492669214
2714.0,0.005998137393332584
2713.0,0.005950789811885511
2712.0,0.005916543280065519
2711.0,0.005909996495632188
2710.0,0.005933410273700139
2709.0,0.005980647399417348
2708.0,0.006034216979815622
2707.0,0.006065350551089042
2706.0,0.006050568345414498
2705.0,0.005991578637555532
2704.0,0.005913954231398151
2703.0,0.0058499905508650205
2702.0,0.005826654666339957
2701.0,0.005855995183241149
2700.0,0.005921650174004275
2699.0,0.0059806575727151
2698.0,0.005997109972568102
2697.0,0.005976327908812645
2696.0,0.005953164182376666
2695.0,0.0059495844427620735
2694.0,0.0059568123836103055
2693.0,0.005957942989606311
2692.0,0.005950957878901
2691.0,0.005943524724194586
2690.0,0.005938283857781983
2689.0,0.005931365936002627
2688.0,0.005920310717026306
2687.0,0.005908593766536178
2686.0,0.0059034509027660964
2685.0,0.005908207876459123
2684.0,0.005913936455807843
2683.0,0.00590459139198056
2682.0,0.005876503687258129
2681.0,0.005847182247457969
2680.0,0.005835051942431868
2679.0,0.005836755118453962
2678.0,0.0058347978860125395
2677.0,0.00582221287831668
2676.0,0.005806396715613276
2675.0,0.005793120160033643
2674.0,0.005783125630330909
2673.0,0.0057817597955928
2672.0,0.005794682535068161
2671.0,0.005811695499650371
2670.0,0.005812576955938934
2669.0,0.005794716669005088
2668.0,0.005781170471960695
2667.0,0.005794906612704943
2666.0,0.005835789721410193
2665.0,0.00588811058463341
2664.0,0.005938346270634542
2663.0,0.005977822518189841
2662.0,0.00599796642729794
2661.0,0.005994379725906678
2660.0,0.005973413117820029
2659.0,0.005949323416360217
2658.0,0.005935053871501511
2657.0,0.005934736784525814
2656.0,0.005939785212428503
2655.0,0.005934785340433693
2654.0,0.005914239837444099
2653.0,0.005891436126483395
2652.0,0.005880537157722729
2651.0,0.005873721651388884
2650.0,0.005849352218985668
2649.0,0.005801399178989339
2648.0,0.005745394204285579
2647.0,0.005694154516117405
2646.0,0.005646434759563958
2645.0,0.005603314075106609
2644.0,0.005577826371574199
2643.0,0.005577892011102984
2642.0,0.005594025362929742
2641.0,0.00561184862373486
2640.0,0.005624813582876254
2639.0,0.005628828247643321
2638.0,0.005620371525346245
2637.0,0.005607997102070264
2636.0,0.0056098296082115065
2635.0,0.00562784558891957
2634.0,0.005638927587427464
2633.0,0.00562272583687241
2632.0,0.00558456539923621
2631.0,0.0055402041550129425
2630.0,0.005494226550328299
2629.0,0.00544864817856135
2628.0,0.0054161316648429
2627.0,0.0054049003652023924
2626.0,0.005400624521625842
2625.0,0.005382386785228906
2624.0,0.005349497194012503
2623.0,0.005316088257084248
2622.0,0.005287843818240414
2621.0,0.00526286480645358
2620.0,0.005247956731985946
2619.0,0.005253168024195421
2618.0,0.005270168090983528
2617.0,0.005273386260511891
2616.0,0.005245208867703764
2615.0,0.0051907606107423725
2614.0,0.005131151642612245
2613.0,0.005090970920842183
2612.0,0.0050852691615381656
2611.0,0.005106686409033277
2610.0,0.005129692714698083
2609.0,0.005138585199709843
2608.0,0.005145321153601663
2607.0,0.005169541964357575
2606.0,0.005211545673408614
2605.0,0.005256301907841191
2604.0,0.005290645622179914
2603.0,0.005299498725478183
2602.0,0.005260262537156516
2601.0,0.005168951332616687
2600.0,0.005063993202388062
2599.0,0.0049960767135513425
2598.0,0.0049753579163159985
2597.0,0.004971618000092078
2596.0,0.0049642598092721184
2595.0,0.004964947023903058
2594.0,0.004987915126646825
2593.0,0.00502835064481344
2592.0,0.005076641960631874
2591.0,0.005125189472872908
2590.0,0.00514961762476565
2589.0,0.0051137361374669595
2588.0,0.005017411491931616
2587.0,0.004918053303047737
2586.0,0.004877790863137502
2585.0,0.004900723042659231
2584.0,0.004943176908387207
2583.0,0.004975217593529257
2582.0,0.005005399177769533
2581.0,0.005045341366609539
2580.0,0.005077675793316618
2579.0,0.005072947774164676
2578.0,0.005025348348330325
2577.0,0.004959788778753883
2576.0,0.004906772085394298
2575.0,0.004878707846961629
2574.0,0.004870663125406223
2573.0,0.0048773282198435065
2572.0,0.00490251491819998
2571.0,0.004949462412200684
2570.0,0.005005839946357923
2569.0,0.005044979583823243
2568.0,0.005043771567795204
2567.0,0.0049972305899645755
2566.0,0.004918472927529868
2565.0,0.00483270610563322
2564.0,0.0047706886990363665
2563.0,0.004754596983748397
2562.0,0.0047800945060714325
2561.0,0.004817721823918407
2560.0,0.0048419915588915965
2559.0,0.004857248115237822
2558.0,0.004886128196997555
2557.0,0.004933273688847855
2556.0,0.004970625351892266
2555.0,0.004963739119469148
2554.0,0.004906508704153044
2553.0,0.004824370580384752
2552.0,0.004749015573220313
2551.0,0.004698335127371081
2550.0,0.0046775859675842555
2549.0,0.004686307539141676
2548.0,0.004717492772735475
2547.0,0.004758220690958724
2546.0,0.004798147847788622
2545.0,0.004831294605451341
2544.0,0.004844711437962613
2543.0,0.004818846790491632
2542.0,0.004755898801701055
2541.0,0.004699313305426535
2540.0,0.004698979848870547
2539.0,0.004752291651598004
2538.0,0.004801884158571739
2537.0,0.004801286450572597
2536.0,0.004763898096905219
2535.0,0.004733766704222093
2534.0,0.00472917397945121
2533.0,0.004738415444068042
2532.0,0.0047550315747837925
2531.0,0.004784167833830645
2530.0,0.0048158389859796445
2529.0,0.0048235701532595345
2528.0,0.004800951983804644
2527.0,0.004777874872749896
2526.0,0.0047854188827111555
2525.0,0.0048172437685905555
2524.0,0.004837801341041892
2523.0,0.004819396652166872
2522.0,0.004761200884799255
2521.0,0.00468199169492259
2520.0,0.004608693276563945
2519.0,0.004569035952882874
2518.0,0.004581031897461824
2517.0,0.004640899873522421
2516.0,0.0047212296517572415
2515.0,0.004784791340845194
2514.0,0.004807363057950818
2513.0,0.004795317266551598
2512.0,0.004780718721503401
2511.0,0.004791456446003522
2510.0,0.004824397865428499
2509.0,0.0048521279628850975
2508.0,0.004853477430825205
2507.0,0.004828525117148995
2506.0,0.004786259824598788
2505.0,0.00473324890522636
2504.0,0.004679457072527007
2503.0,0.004641042917499047
2502.0,0.004626922869554875
2501.0,0.004629541434547028
2500.0,0.004635497384050863
2499.0,0.00463718830297931
2498.0,0.004628451148132686
2497.0,0.004602368453293445
2496.0,0.0045669558726479835
2495.0,0.004551961044199269
2494.0,0.004579599639430855
2493.0,0.004630475567676413
2492.0,0.004657913181131195
2491.0,0.0046401913307973965
2490.0,0.004601499071469136
2489.0,0.0045738646750779
2488.0,0.004554744630806386
2487.0,0.004517807556469735
2486.0,0.004456403161292497
2485.0,0.004395722242620959
2484.0,0.004358109963170403
2483.0,0.004331929049980019
2482.0,0.004286988605561828
2481.0,0.004215588099362207
2480.0,0.004146818497124161
2479.0,0.004118793964501811
2478.0,0.004144768302139651
2477.0,0.0042085595670571544
2476.0,0.004282486279853863
2475.0,0.004339829895361457
2474.0,0.004356583072677124
2473.0,0.004320345292484127
2472.0,0.004246645996117118
2471.0,0.004176225382628706
2470.0,0.004144082694528639
2469.0,0.004151791141605757
2468.0,0.0041751211090988545
2467.0,0.0041947028256418386
2466.0,0.004211229287683177
2465.0,0.004233532570064027
2464.0,0.0042621214328348415
2463.0,0.0042866259130056004
2462.0,0.004293801965989419
2461.0,0.0042784781409016745
2460.0,0.004252823941201795
2459.0,0.004242674828746342
2458.0,0.004265113148772791
2457.0,0.004308526105074158
2456.0,0.004343340949833494
2455.0,0.004353015925930049
2454.0,0.004343540493492529
2453.0,0.004322047960517228
2452.0,0.004284037646979242
2451.0,0.004232060163030042
2450.0,0.004191156151110259
2449.0,0.004185715763253783
2448.0,0.004205634150180815
2447.0,0.004213939140112917
2446.0,0.00418915800375411
2445.0,0.0041459435733107956
2444.0,0.004112011564304957
2443.0,0.004097799509670726
2442.0,0.004092542746057508
2441.0,0.004078171194029885
2440.0,0.004042067871481197
2439.0,0.003987737668513955
2438.0,0.003940358813495308
2437.0,0.00393213548610386
2436.0,0.0039719755162513255
2435.0,0.004033798476903038
2434.0,0.004080370398724576
2433.0,0.004094005083052825
2432.0,0.004081783631910213
2431.0,0.004061039504761765
2430.0,0.0040482612242543434
2429.0,0.004054126335247386
2428.0,0.004077178179127503
2427.0,0.0041041295691061725
2426.0,0.004123877286533569
2425.0,0.004138696113270723
2424.0,0.0041560155653047
2423.0,0.00417406368739435
2422.0,0.004182632991067986
2421.0,0.004172785897400736
2420.0,0.004138894751428143
2419.0,0.0040794918880948435
2418.0,0.004008184703302454
2417.0,0.0039571498480616175
2416.0,0.003953161006566353
2415.0,0.003989964602312883
2414.0,0.004036794648671384
2413.0,0.004072278930229935
2412.0,0.004096507751040516
2411.0,0.004113385475720886
2410.0,0.004121694009377255
2409.0,0.004126739496290589
2408.0,0.004139344951324602
2407.0,0.004155160082023801
2406.0,0.004155906781638143
2405.0,0.004141870547122391
2404.0,0.004139923882023753
2403.0,0.004160924692888312
2402.0,0.004169652171906391
2401.0,0.004125997893003055
2400.0,0.004047605190587314
2399.0,0.003999892839336098
2398.0,0.004020964721431468
2397.0,0.004083048266622735
2396.0,0.004135626112063964
2395.0,0.004161696611619667
2394.0,0.00417618907788852
2393.0,0.004187965195906768
2392.0,0.004184650376540021
2391.0,0.004150497891562143
2390.0,0.0040866050071730765
2389.0,0.004014926257706102
2388.0,0.003967184595448971
2387.0,0.003962389732619169
2386.0,0.003986922599569347
2385.0,0.004002008250676961
2384.0,0.003980845194791472
2383.0,0.003937256939354214
2382.0,0.003910670967643353
2381.0,0.0039244140495515445
2380.0,0.003966594320736292
2379.0,0.00401003561392365
2378.0,0.004033935651928242
2377.0,0.004019456330862627
2376.0,0.003941467434575219
2375.0,0.0037880305410137385
2374.0,0.0035937174544125663
2373.0,0.0034376116528069415
2372.0,0.0033965566201371346
2371.0,0.003494139141722763
2370.0,0.0036871712014222334
2369.0,0.0038972256193397833
2368.0,0.004064625145111162
2367.0,0.004177145961785423
2366.0,0.00423407533373753
2365.0,0.004195484736664842
2364.0,0.004022775075698178
2363.0,0.0037794831744537172
2362.0,0.0036513225575823902
2361.0,0.003802989996717839
2360.0,0.0041800148128360685
2359.0,0.00455655516094763
2358.0,0.00476858048749713
2357.0,0.004821970145712474
2356.0,0.004815565980321938
2355.0,0.004810105903527743
2354.0,0.004834891474075123
2353.0,0.004901609178524248
2352.0,0.004988343397748721
2351.0,0.005052360391074078
2350.0,0.005021534763835556
2349.0,0.004850303003669062
2348.0,0.004560227855087929
2347.0,0.0042801288292138836
2346.0,0.004185917024750758
2345.0,0.004302326372994462
2344.0,0.004465998311277915
2343.0,0.004510268622780505
2342.0,0.0044845540939276165
2341.0,0.004504803360873812
2340.0,0.004543450471029779
2339.0,0.004526122289513887
2338.0,0.004482525522599523
2337.0,0.004531899561547216
2336.0,0.0047033177898568495
2335.0,0.0048898712151052995
2334.0,0.004964553449551596
2333.0,0.00488611272189096
2332.0,0.004697362499000796
2331.0,0.00449905917292248
2330.0,0.004384450469784655
2329.0,0.004432666028218027
2328.0,0.0046433818362897
2327.0,0.0049394277759034445
2326.0,0.005216339502019147
2325.0,0.005358187422586158
2324.0,0.005316932378382442
2323.0,0.00511959816300902
2322.0,0.004886660207676534
2321.0,0.004731260926750535
2320.0,0.004680339554646241
2319.0,0.004682212313180895
2318.0,0.004661227109611151
2317.0,0.004587040704347432
2316.0,0.004472641348835249
2315.0,0.004376386867358796
2314.0,0.004352814370568758
2313.0,0.004411079741288224
2312.0,0.004494734104666846
2311.0,0.0045366721043477365
2310.0,0.004521591006945422
2309.0,0.004479792845395449
2308.0,0.004440036726882334
2307.0,0.004402318915244208
2306.0,0.004364917018082322
2305.0,0.004331985452024403
2304.0,0.004306611677464541
2303.0,0.004282707642437095
2302.0,0.0042686050331702426
2301.0,0.004292026608383162
2300.0,0.004363245715775388
2299.0,0.004439311576179945
2298.0,0.004448619129950762
2297.0,0.00436051684244322
2296.0,0.004222883643150911
2295.0,0.004122079853111282
2294.0,0.004109270099284355
2293.0,0.00416334969567356
2292.0,0.00422793078683023
2291.0,0.004270120165151769
2290.0,0.004306057105657257
2289.0,0.004359899797937779
2288.0,0.004421681605219611
2287.0,0.004449494677297658
2286.0,0.004415857165190045
2285.0,0.004332042237410639
2284.0,0.004230488878279744
2283.0,0.004138241601811476
2282.0,0.0040762952739368695
2281.0,0.00406109681847384
2280.0,0.004086349425385657
2279.0,0.004114499827472298
2278.0,0.004109402413067535
2277.0,0.0040755888024484035
2276.0,0.004043695283020901
2275.0,0.0040247503931778615
2274.0,0.003997980203752522
2273.0,0.003945886828977411
2272.0,0.0038767501931623203
2271.0,0.003809409583394093
2270.0,0.003757778693027768
2269.0,0.00373368105246336
2268.0,0.003743142894583007
2267.0,0.0037706158501936886
2266.0,0.0037872281749739877
2265.0,0.0037873675694652257
2264.0,0.0037959821494180845
2263.0,0.0038256951998372193
2262.0,0.00384661377034734
2261.0,0.003819256294151303
2260.0,0.003747164827968644
2259.0,0.0036698736673190183
2258.0,0.00361533778988861
2257.0,0.0035843835278826473
2256.0,0.0035813513811878807
2255.0,0.0036280575579972513
2254.0,0.0037282988500865824
2253.0,0.0038355966030731653
2252.0,0.0038770752394996404
2251.0,0.0038156455544257643
2250.0,0.0036805326472857253
2249.0,0.003542846210205312
2248.0,0.003461571744729563
2247.0,0.003448911175501657
2246.0,0.003479800365654412
2245.0,0.0035235709447435874
2244.0,0.0035617890834342275
2243.0,0.0035827827096329163
2242.0,0.0035813742801987123
2241.0,0.0035764183319705748
2240.0,0.003614149708271711
2239.0,0.003725464479058905
2238.0,0.0038746222567819077
2237.0,0.003968979677890007
2236.0,0.003934272921406114
2235.0,0.0037768979817984225
2234.0,0.003573410704670498
2233.0,0.0034168856315900603
2232.0,0.003364815642413864
2231.0,0.003407548826276107
2230.0,0.0034718649001961705
2229.0,0.0034778150599257224
2228.0,0.003422843704863524
2227.0,0.0033968940909367713
2226.0,0.0034895930122048327
2225.0,0.0036821773351495713
2224.0,0.003853828762753214
2223.0,0.003894500319454956
2222.0,0.0037889884980664527
2221.0,0.003606275445173962
2220.0,0.0034381794820677897
2219.0,0.003349828595233801
2218.0,0.003354526980489173
2217.0,0.0034102287954321416
2216.0,0.0034516681170075254
2215.0,0.003443767812346302
2214.0,0.003399144440860353
2213.0,0.0033457158802179966
2212.0,0.0032994056382187526
2211.0,0.0032692824690184613
2210.0,0.003262008490607373
2209.0,0.0032666685081762146
2208.0,0.0032602377747307457
2207.0,0.00324298426233776
2206.0,0.0032395957610232996
2205.0,0.003245242859730075
2204.0,0.003204443674503065
2203.0,0.0030818087460672675
2202.0,0.0029328986330587796
2201.0,0.002859809838701474
2200.0,0.002896871194131653
2199.0,0.0029789749647974027
2198.0,0.003021793196184786
2197.0,0.0029926144377302732
2196.0,0.002904153618141735
2195.0,0.0027877193238266262
2194.0,0.002700804553835889
2193.0,0.0027243961748048707
2192.0,0.0029011939061336168
2191.0,0.0031759768678986636
2190.0,0.0034167196343741317
2189.0,0.0035139412517399696
2188.0,0.0034755571259940457
2187.0,0.003416475653174007
2186.0,0.0034390598551576634
2185.0,0.003516441697951951
2184.0,0.003510829105438777
2183.0,0.0033267182292201223
2182.0,0.0030267322218398497
2181.0,0.0027667759763986446
2180.0,0.0026373518399254925
2179.0,0.002615361504079287
2178.0,0.002654318737552928
2177.0,0.002754429898809006
2176.0,0.0029206440478091017
2175.0,0.0031024229087488406
2174.0,0.0032130765666970444
2173.0,0.003195833349329507
2172.0,0.0030665716279648166
2171.0,0.0028998598993860746
2170.0,0.0027790713685910324
2169.0,0.0027411213245835454
2168.0,0.0027570495831584023
2167.0,0.002784487230474395
2166.0,0.002831559458638798
2165.0,0.0029309617482893096
2164.0,0.0030488428185785886
2163.0,0.003077073428408619
2162.0,0.002944337754467871
2161.0,0.002707944247788802
2160.0,0.002493482060929626
2159.0,0.0023482867511918806
2158.0,0.0022214081870889062
2157.0,0.00208079148014247
2156.0,0.001978335965484295
2155.0,0.0019999061974860692
2154.0,0.0021849164425739314
2153.0,0.002479712635762506
2152.0,0.0027593015921101075
2151.0,0.0029170646466380296
2150.0,0.0029336479737060717
2149.0,0.002858829086653411
2148.0,0.0027426380632685834
2147.0,0.0026015500519065526
2146.0,0.0024525797159934406
2145.0,0.0023412340829083596
2144.0,0.002305489400613215
2143.0,0.0023306217656306485
2142.0,0.002368982851378077
2141.0,0.0023984903679887377
2140.0,0.0024397339870687374
2139.0,0.0025095345211996268
2138.0,0.002574910411076062
2137.0,0.0025770094382700694
2136.0,0.0025078387771189877
2135.0,0.002439921578120811
2134.0,0.00245182254186165
2133.0,0.002535771755997868
2132.0,0.0026104813208934915
2131.0,0.002625727919381067
2130.0,0.0026199623611412788
2129.0,0.0026581358350146506
2128.0,0.00274481778394572
2127.0,0.0028314191928779132
2126.0,0.0028911737066737437
2125.0,0.0029450654043877422
2124.0,0.00301570602318025
2123.0,0.003094755856572331
2122.0,0.0031649072128431227
2121.0,0.0032224948677640713
2120.0,0.0032647164548512907
2119.0,0.0032816384701557406
2118.0,0.0032793791597905708
2117.0,0.003290052387754365
2116.0,0.0033360351048914686
2115.0,0.003398563532596645
2114.0,0.0034420837461735672
2113.0,0.0034585041288980895
2112.0,0.003466279288721124
2111.0,0.0034753510092455425
2110.0,0.003474075533512227
2109.0,0.0034447565627718497
2108.0,0.0033757819392902255
2107.0,0.003271236940098684
2106.0,0.003172629729737228
2105.0,0.003153017019150455
2104.0,0.0032503755264432833
2103.0,0.0034086990919085934
2102.0,0.0035216275887696978
2101.0,0.003538596485120796
2100.0,0.0034986784859757257
2099.0,0.0034577559613559847
2098.0,0.0034212011902857056
2097.0,0.0033682421830855728
2096.0,0.0032983990033969624
2095.0,0.00322194512178863
2094.0,0.0031358747732626664
2093.0,0.0030461119603772445
2092.0,0.0029920260123644524
2091.0,0.003011154119618012
2090.0,0.003088717889436093
2089.0,0.003173808460902708
2088.0,0.0032409831234474825
2087.0,0.0032946972887476366
2086.0,0.0033184183156426423
2085.0,0.0032778544207422936
2084.0,0.0031962615878821333
2083.0,0.003172669585664512
2082.0,0.003274901733216682
2081.0,0.0034396099633634395
2080.0,0.003529161903768463
2079.0,0.003482827883493407
2078.0,0.003359759800712434
2077.0,0.0032341770758621048
2076.0,0.0031102016403189757
2075.0,0.002966230023008684
2074.0,0.0028366958387085477
2073.0,0.0027909947262799704
2072.0,0.002847493550675734
2071.0,0.002953854202549996
2070.0,0.003047240120055006
2069.0,0.003094970688574509
2068.0,0.0030818047894400915
2067.0,0.0030050542487978253
2066.0,0.002900227532549367
2065.0,0.00284399815435751
2064.0,0.0028911133648501517
2063.0,0.003010915659016253
2062.0,0.0031074535749641037
2061.0,0.0030979410699978117
2060.0,0.002976379488876758
2059.0,0.0028150974351256923
2058.0,0.002701483999153696
2057.0,0.00267010660700166
2056.0,0.002699286687999123
2055.0,0.002770118221331653
2054.0,0.0029033086438209304
2053.0,0.003106482505946693
2052.0,0.0033046021665549753
2051.0,0.003366110651312525
2050.0,0.0032121196854526246
2049.0,0.0029015882898808993
2048.0,0.0025893903322942147
2047.0,0.0023990543491022795
2046.0,0.0023603782197366163
2045.0,0.0024269614347533232
2044.0,0.002522011923211589
2043.0,0.0026048094287977443
2042.0,0.0026999918785701343
2041.0,0.002826506320446209
2040.0,0.0029102023862454416
2039.0,0.002841662400069657
2038.0,0.0026310571957765755
2037.0,0.002436583147949648
2036.0,0.002395056589227045
2035.0,0.002472889081407272
2034.0,0.0025380728497223747
2033.0,0.0025119755135505316
2032.0,0.0023911002246474224
2031.0,0.0021928465908837504
2030.0,0.0019680381745581297
2029.0,0.0018172651534700574
2028.0,0.0017959363808357544
2027.0,0.0018351334315702455
2026.0,0.0018349298811519304
2025.0,0.0017939129823772576
2024.0,0.0017815524427681508
2023.0,0.0018285439153863303
2022.0,0.0019265418418709381
2021.0,0.002084160908252985
2020.0,0.0022759747852365408
2019.0,0.0023748046881808373
2018.0,0.0022455645033657044
2017.0,0.0019329543390129887
2016.0,0.0016489041497148233
2015.0,0.0015356557227806861
2014.0,0.0015698314309803131
2013.0,0.0016878385569244585
2012.0,0.001857519969937032
2011.0,0.002018260919401454
2010.0,0.002065878371190698
2009.0,0.001961229500092482
2008.0,0.0017930215168282778
2007.0,0.0016701140917477386
2006.0,0.0016174558811850573
2005.0,0.0016191994056485148
2004.0,0.0016772958896105763
2003.0,0.0017761060749611796
2002.0,0.0018572540392834444
2001.0,0.0018945069963934612
2000.0,0.0019500353995034608
1999.0,0.002100955683834063
1998.0,0.002323529224783017
1997.0,0.002505610416133995
1996.0,0.0025683566369406785
1995.0,0.0025200368305679085
1994.0,0.0024102883264203174
1993.0,0.0023114384093797305
1992.0,0.0023208488371773152
1991.0,0.0024796955258022725
1990.0,0.0026991469241384913
1989.0,0.0028297685606760337
1988.0,0.0028038684162097678
1987.0,0.0026858907216848926
1986.0,0.002588982348246166
1985.0,0.0025781136729084203
1984.0,0.0026530891826771507
1983.0,0.002771531620473323
1982.0,0.002868477504317866
1981.0,0.00289787289752486
1980.0,0.002872823745973012
1979.0,0.002833639042296413
1978.0,0.0027636753856550445
1977.0,0.0026063530542446934
1976.0,0.0023824760534126082
1975.0,0.002206767106180435
1974.0,0.0021716037099129663
1973.0,0.002267697417134594
1972.0,0.0024218347616738723
1971.0,0.0025598300500244225
1970.0,0.002620111490606018
1969.0,0.00256973465251072
1968.0,0.002453585058019671
1967.0,0.002374934277191891
1966.0,0.0023778116982275557
1965.0,0.0024065652030276934
1964.0,0.0024103426138585723
1963.0,0.0024110049428280413
1962.0,0.0024392262905861117
1961.0,0.0024528900455330774
1960.0,0.002380007363512783
1959.0,0.0022352678195010976
1958.0,0.0021301838173070444
1957.0,0.0021609120224504296
1956.0,0.00231405694556069
1955.0,0.0024881641747929615
1954.0,0.0025926158649038984
1953.0,0.0026164242050373135
1952.0,0.0026126807990315584
1951.0,0.0026243241443765415
1950.0,0.002645339558414392
1949.0,0.0026477461992193254
1948.0,0.0026247099062955428
1947.0,0.0026028076212196217
1946.0,0.0026101230527467694
1945.0,0.0026407395813700984
1944.0,0.002653725008292004
1943.0,0.0026057560866453882
1942.0,0.0024952836547095917
1941.0,0.0023773955955673355
1940.0,0.002313107764838046
1939.0,0.0023079590808426577
1938.0,0.0023270084080948246
1937.0,0.0023515736132434933
1936.0,0.00239806352343258
1935.0,0.0024824287142144325
1934.0,0.0025771959390479336
1933.0,0.002623167439195324
1932.0,0.002586937848450872
1931.0,0.0024816445851724043
1930.0,0.00234882363810084
1929.0,0.002234669182024037
1928.0,0.0021702192869205274
1927.0,0.002163190006159661
1926.0,0.0021820754466144086
1925.0,0.0021797489430280355
1924.0,0.002130939598132341
1923.0,0.002058729921076304
1922.0,0.0020154091646395504
1921.0,0.0020303774035303757
1920.0,0.002092718381118426
1919.0,0.0021784096514124726
1918.0,0.0022747129385160525
1917.0,0.0023536309487800985
1916.0,0.002375230157336588
1915.0,0.0023291521973710376
1914.0,0.002238895145105889
1913.0,0.0021601329840379062
1912.0,0.0021465014552120923
1911.0,0.002190562583692333
1910.0,0.0022314119679628986
1909.0,0.00222066354349432
1908.0,0.0021749149490389893
1907.0,0.002146811317155323
1906.0,0.0021459257664115943
1905.0,0.002147485997140082
1904.0,0.002142500605312084
1903.0,0.0021535116213462877
1902.0,0.0022032344291557306
1901.0,0.0022650631343042976
1900.0,0.0022796836575793094
1899.0,0.0022220139270889582
1898.0,0.0021205413309142804
1897.0,0.0020296234583773703
1896.0,0.001981403799849026
1895.0,0.0019631355865520656
1894.0,0.0019491894210833063
1893.0,0.001937036844665715
1892.0,0.0019385729178591537
1891.0,0.0019531124083171352
1890.0,0.0019690152862923537
1889.0,0.001976699037492747
1888.0,0.0019858453765544642
1887.0,0.002014140901340114
1886.0,0.0020489170819835167
1885.0,0.0020626933691475073
1884.0,0.00205324534596601
1883.0,0.0020388578169549167
1882.0,0.0020293499154703065
1881.0,0.002011485033086882
1880.0,0.00197193164902512
1879.0,0.0019230923429582386
1878.0,0.0018889684887475836
1877.0,0.0018897651753823326
1876.0,0.0019366377346329258
1875.0,0.0020143746745839575
1874.0,0.0020814425734608025
1873.0,0.002103444806461297
1872.0,0.002082728996398731
1871.0,0.0020449228537560288
1870.0,0.0020076033718542437
1869.0,0.001965508558148552
1868.0,0.001902758528376995
1867.0,0.0018453418569731816
1866.0,0.0018395937266999468
1865.0,0.001876547352316953
1864.0,0.001916552431099458
1863.0,0.0019403607660511205
1862.0,0.0019512359484916866
1861.0,0.0019612527520592657
1860.0,0.0019785578955483748
1859.0,0.0019982234070438313
1858.0,0.0020006783031618998
1857.0,0.001972473326442855
1856.0,0.0019335474640481145
1855.0,0.0019253402994945721
1854.0,0.0019641440468934554
1853.0,0.0020232256092395412
1852.0,0.002060286251809474
1851.0,0.002066655496065711
1850.0,0.0020417688669158024
1849.0,0.0019794145779068865
1848.0,0.00190329045831082
1847.0,0.0018713261912736987
1846.0,0.0019207289866830035
1845.0,0.002022474952988776
1844.0,0.0020967378571480444
1843.0,0.0020906590307659197
1842.0,0.002057133196008861
1841.0,0.0020595291043913515
1840.0,0.0020873826810984637
1839.0,0.002109626381074731
1838.0,0.00210522738864596
1837.0,0.0020763270003191555
1836.0,0.002044641309016661
1835.0,0.002033979090450537
1834.0,0.002052777115646727
1833.0,0.002093023716990016
1832.0,0.00213975281396486
1831.0,0.0021742174249317647
1830.0,0.0021600881322944676
1829.0,0.002088393315129278
1828.0,0.0020434596230362334
1827.0,0.002088850813930646
1826.0,0.0021645236137759795
1825.0,0.0021810364959481006
1824.0,0.002127838718647569
1823.0,0.00207439868780791
1822.0,0.0020651133271434585
1821.0,0.0020719550044500912
1820.0,0.002066465188192649
1819.0,0.002055079235795659
1818.0,0.0020484257972494995
1817.0,0.002048934493124169
1816.0,0.0020548497618101723
1815.0,0.002070294881275993
1814.0,0.0020985991270699726
1813.0,0.002124790020507456
1812.0,0.0021372839729843366
1811.0,0.00213221319124688
1810.0,0.0021178761661128347
1809.0,0.002115173380928764
1808.0,0.0021280091890261642
1807.0,0.0021457003852265446
1806.0,0.0021662979709313464
1805.0,0.002198996637542232
1804.0,0.002250191681979033
1803.0,0.0023080763853853097
1802.0,0.0023451861761090926
1801.0,0.0023302228556124527
1800.0,0.0022806755654884965
1799.0,0.0022414595901091906
1798.0,0.00222369829225
1797.0,0.0022096336572973514
1796.0,0.0022023359655776137
1795.0,0.002231424631252295
1794.0,0.002300922103522527
1793.0,0.002365900450423855
1792.0,0.0023807635781320515
1791.0,0.0023397245444824323
1790.0,0.00229443839021227
1789.0,0.0022841196833610143
1788.0,0.0023020237061579575
1787.0,0.00234299017936898
1786.0,0.0023982942634931614
1785.0,0.0024337177464228018
1784.0,0.002427482081539205
1783.0,0.0024045052477877794
1782.0,0.0023882239298699437
1781.0,0.0023512378044654304
1780.0,0.0023007684406754036
1779.0,0.0022815836057106216
1778.0,0.0023011467111102375
1777.0,0.0023132840803329006
1776.0,0.002292726544966216
1775.0,0.0022831745992147323
1774.0,0.0023088738389512938
1773.0,0.0023354791892071245
1772.0,0.0023335944750781054
1771.0,0.002330063537784219
1770.0,0.0023792765064402656
1769.0,0.0024656419598765413
1768.0,0.0025386380210577998
1767.0,0.0025905833702394064
1766.0,0.002635799498221623
1765.0,0.0026890109117912574
1764.0,0.0027678557356427425
1763.0,0.0028841821932077266
1762.0,0.002995759489571208
1761.0,0.0030148971852574846
1760.0,0.0029937219543879935
1759.0,0.0030570435488651727
1758.0,0.003228650235974846
1757.0,0.0034269027440425722
1756.0,0.0035800967179073565
1755.0,0.003726478597434966
1754.0,0.003915247349960803
1753.0,0.004127782159715492
1752.0,0.004374159741030214
1751.0,0.004725803941983926
1750.0,0.0051738940114235965
1749.0,0.005672480048364555
1748.0,0.0062636093240392
1747.0,0.0070073530409791515
1746.0,0.007891368792408402
1745.0,0.008900313422761388
1744.0,0.01008821134877226
1743.0,0.011461938262022842
1742.0,0.012968699583318583
1741.0,0.014683792678359075
1740.0,0.016763441431543152
1739.0,0.01901486127771632
1738.0,0.02095575932455625
1737.0,0.022525909887058666
1736.0,0.024119057361993466
1735.0,0.026430910805462414
1734.0,0.02961084634367881
1733.0,0.03232401686634972
1732.0,0.03413927209154974
1731.0,0.03589137034494462
1730.0,0.03788724114423173
1729.0,0.03991193702929249
1728.0,0.04176026059621737
1727.0,0.04347690513631202
1726.0,0.04515974197488061
1725.0,0.04681998188392494
1724.0,0.04845888099604451
1723.0,0.05004339685932744
1722.0,0.051483115328782365
1721.0,0.052718425132718724
1720.0,0.05381901359300006
1719.0,0.05499106700993442
1718.0,0.05632922886843692
1717.0,0.05740226126690338
1716.0,0.05795857677362702
1715.0,0.05841613968212743
1714.0,0.058855098323535464
1713.0,0.05896699018372056
1712.0,0.05862681864797565
1711.0,0.057917321238162164
1710.0,0.056881134680089096
1709.0,0.05545605795546128
1708.0,0.05359333750640432
1707.0,0.05118406849528203
1706.0,0.048058536936898266
1705.0,0.04462900269034267
1704.0,0.04185300685759425
1703.0,0.039994113160265396
1702.0,0.038366393209787325
1701.0,0.035783988531737476
1700.0,0.032090192904437743
1699.0,0.029010779146337543
1698.0,0.027213547225464672
1697.0,0.02576417004850565
1696.0,0.02393316635299455
1695.0,0.02206958186713252
1694.0,0.020806999684031838
1693.0,0.02007953742528979
1692.0,0.01949187039806863
1691.0,0.018785280550690883
1690.0,0.01796814698143066
1689.0,0.017236084890681676
1688.0,0.016719576632971075
1687.0,0.016378149512582377
1686.0,0.016054830582668645
1685.0,0.015633998743433353
1684.0,0.015058732389043178
1683.0,0.014430599890102248
1682.0,0.01404870773833317
1681.0,0.013841723851658695
1680.0,0.013591324565308545
1679.0,0.013300575721774774
1678.0,0.013070853027134462
1677.0,0.012932704977744418
1676.0,0.012797918461781252
1675.0,0.012552143731709558
1674.0,0.012217190093836261
1673.0,0.011934224667123286
1672.0,0.011756021245919965
1671.0,0.011601960219076864
1670.0,0.011422440468425651
1669.0,0.011228369957878922
1668.0,0.011046178355370155
1667.0,0.010900405417412884
1666.0,0.010788493727728398
1665.0,0.010702459613066961
1664.0,0.010623998268428613
1663.0,0.010507233227121458
1662.0,0.010341671184005571
1661.0,0.010182721383787575
1660.0,0.010082609428751218
1659.0,0.010014290206683327
1658.0,0.009946913156473065
1657.0,0.009881866919598654
1656.0,0.009840434682155298
1655.0,0.00977549645482245
1654.0,0.009737109971941712
1653.0,0.009829758452495325
1652.0,0.009709703262452232
1651.0,0.009537434781417761
1650.0,0.009495216666361397
1649.0,0.00950663170129135
1648.0,0.00951226570722207
1647.0,0.009489105932744706
1646.0,0.009420173100178347
1645.0,0.009375974353799896
1644.0,0.00939174041350952
1643.0,0.009396962803296095
1642.0,0.009373580961551511
1641.0,0.009323594873314031
1640.0,0.009250110965968691
1639.0,0.009174118207099645
1638.0,0.009125393121248528
1637.0,0.00915712861926298
1636.0,0.009256171354338968
1635.0,0.009244393997249745
1634.0,0.00912269814120252
1633.0,0.009050649528199534
1632.0,0.009014702301674107
1631.0,0.008962994362935715
1630.0,0.008889127107337906
1629.0,0.008808628476063084
1628.0,0.008722571256801448
1627.0,0.008619840686286198
1626.0,0.00852742700855136
1625.0,0.008470664681825682
1624.0,0.008440249003326452
1623.0,0.00838898172161438
1622.0,0.008292739848854168
1621.0,0.008206824271432364
1620.0,0.008176375361017865
1619.0,0.008181942554780122
1618.0,0.008206821718852828
1617.0,0.008265244949341317
1616.0,0.008292120755458213
1615.0,0.008252522697896853
1614.0,0.008219896481464178
1613.0,0.008187358530740966
1612.0,0.008090943888405781
1611.0,0.007913066984260248
1610.0,0.007696605051667048
1609.0,0.007485666168974196
1608.0,0.007286745097595778
1607.0,0.007095612622756306
1606.0,0.006929333874768118
1605.0,0.006790095805132117
1604.0,0.0066620463061948035
1603.0,0.006532312350315091
1602.0,0.006407069398500031
1601.0,0.006302815232091951
1600.0,0.006216051932536229
1599.0,0.0061300805252559026
1598.0,0.00603954798636573
1597.0,0.005950692333487384
1596.0,0.005863906105563459
1595.0,0.005777378288898419
1594.0,0.005710010200814996
1593.0,0.0056832720799487296
1592.0,0.005689463144944857
1591.0,0.005703116050544629
1590.0,0.005715599561838
1589.0,0.0057368979926146636
1588.0,0.005778964373171562
1587.0,0.005854802976356066
1586.0,0.0059858665681837495
1585.0,0.006188676983186947
1584.0,0.006460152805861815
1583.0,0.006797875204608951
1582.0,0.00716956305412776
1581.0,0.0075150813948863925
1580.0,0.007788713247385061
1579.0,0.007974078380543639
1578.0,0.008031054036653829
1577.0,0.007893663816096949
1576.0,0.0075281303963182986
1575.0,0.007065003026950534
1574.0,0.006741613199486988
1573.0,0.006592756508024551
1572.0,0.006506541508854441
1571.0,0.00639013182198632
1570.0,0.006217733036068113
1569.0,0.0060120721929444974
1568.0,0.005838261839608172
1567.0,0.005750462893079964
1566.0,0.005712461368460571
1565.0,0.005683652531521774
1564.0,0.005648964299726764
1563.0,0.005628280265555374
1562.0,0.005632832576742039
1561.0,0.005626459275357784
1560.0,0.005580379498221148
1559.0,0.005597862088002623
1558.0,0.005525514071501175
1557.0,0.005533574105476793
1556.0,0.00568709766810049
1555.0,0.005784647989780416
1554.0,0.0058216887532315225
1553.0,0.005832740077376835
1552.0,0.005858706287671945
1551.0,0.005898778657018856
1550.0,0.005932218788146343
1549.0,0.005970051175392815
1548.0,0.00602766295299105
1547.0,0.006099020468159858
1546.0,0.006146459910953127
1545.0,0.006163064067256335
1544.0,0.006169216070127876
1543.0,0.006186350661774524
1542.0,0.0062304846090227
1541.0,0.006347113110492322
1540.0,0.006506620955359203
1539.0,0.0065287588537147785
1538.0,0.006531747999500952
1537.0,0.0066238411689767285
1536.0,0.006754965952161138
1535.0,0.006891881043092435
1534.0,0.007051275470147073
1533.0,0.0072096067919820254
1532.0,0.007304519947265515
1531.0,0.007372585932150533
1530.0,0.00744153665333052
1529.0,0.0075122574266294866
1528.0,0.007574948109993939
1527.0,0.007613492868612947
1526.0,0.00764249932922084
1525.0,0.007689449784916223
1524.0,0.007758041779311758
1523.0,0.00782660893945399
1522.0,0.007911993838880473
1521.0,0.008006312216245511
1520.0,0.008045946056428919
1519.0,0.008093215872355588
1518.0,0.00817550371117599
1517.0,0.008272793255478191
1516.0,0.008354125840323174
1515.0,0.00843540420656532
1514.0,0.008581355230751165
1513.0,0.008780356223644389
1512.0,0.00898650713872232
1511.0,0.009157742772536372
1510.0,0.009313513675645212
1509.0,0.009536555593794557
1508.0,0.010067070067685199
1507.0,0.01117970405708423
1506.0,0.012150108634617289
1505.0,0.012526601886275648
1504.0,0.012525043193954258
1503.0,0.012242273501057072
1502.0,0.011802551027388291
1501.0,0.011308216669763525
1500.0,0.010836519312418497
1499.0,0.010419976439749384
1498.0,0.010053485891792089
1497.0,0.009769768639384876
1496.0,0.009592917374311933
1495.0,0.009493832771137916
1494.0,0.009483791496864442
1493.0,0.009568388454128973
1492.0,0.00969232257385885
1491.0,0.009767081657522748
1490.0,0.00976064580483414
1489.0,0.009748483349462288
1488.0,0.009814093651405039
1487.0,0.009943357934229863
1486.0,0.010106878405821763
1485.0,0.010292286992793703
1484.0,0.010469364760812207
1483.0,0.010623619460562662
1482.0,0.010759106742723066
1481.0,0.010901342170686388
1480.0,0.011054554611237014
1479.0,0.011209622502421066
1478.0,0.011362151000250035
1477.0,0.011511701461075387
1476.0,0.011639347101890008
1475.0,0.011727883168440248
1474.0,0.011829645398734028
1473.0,0.012010468896587334
1472.0,0.01221437454196787
1471.0,0.012360624408174446
1470.0,0.012510439039103108
1469.0,0.012694999066193688
1468.0,0.012897132835508807
1467.0,0.013105736884474004
1466.0,0.013360807004835242
1465.0,0.013706980388270201
1464.0,0.014084281253826703
1463.0,0.014404673225339677
1462.0,0.014683100098734966
1461.0,0.014970615837089762
1460.0,0.015273463384209578
1459.0,0.01557593614983558
1458.0,0.015932276304246137
1457.0,0.01639772407746329
1456.0,0.01673581364385864
1455.0,0.01691149802932669
1454.0,0.0170653059258437
1453.0,0.017219062701906377
1452.0,0.01732142251349083
1451.0,0.017339290928654223
1450.0,0.017311048588477942
1449.0,0.01727552711684481
1448.0,0.017220223232290253
1447.0,0.017143955556762267
1446.0,0.017107155455264304
1445.0,0.017122631661195865
1444.0,0.0171455965849198
1443.0,0.01713080648134399
1442.0,0.017080280903793342
1441.0,0.017023606880431634
1440.0,0.016974183743693583
1439.0,0.01691683182587622
1438.0,0.016797113153374198
1437.0,0.016537411281402944
1436.0,0.016117288511803114
1435.0,0.015684875645545868
1434.0,0.015364120176181894
1433.0,0.015120257855100967
1432.0,0.014865285526892931
1431.0,0.014561469594637992
1430.0,0.014247113486068736
1429.0,0.01399467936047281
1428.0,0.013833582304446191
1427.0,0.0137430052727396
1426.0,0.013692835640475218
1425.0,0.013648449537941202
1424.0,0.013604276174967341
1423.0,0.013593847012889963
1422.0,0.013668401884797739
1421.0,0.013847382338490824
1420.0,0.01413726274377498
1419.0,0.014559892599641657
1418.0,0.01511280356975869
1417.0,0.015848593370682944
1416.0,0.016825864952311972
1415.0,0.018045839193250268
1414.0,0.0195353045167342
1413.0,0.021329792841041726
1412.0,0.023325968891712505
1411.0,0.02518820329956533
1410.0,0.02654339379457732
1409.0,0.027225722719014914
1408.0,0.02719689456329563
1407.0,0.026434063370619817
1406.0,0.025020942956277926
1405.0,0.02323071830220213
1404.0,0.021482558167093907
1403.0,0.020091179148372832
1402.0,0.01907384214868691
1401.0,0.018250829243374827
1400.0,0.01742116625728382
1399.0,0.01653170916754893
1398.0,0.015727009949144322
1397.0,0.015107165960681769
1396.0,0.014573987040240162
1395.0,0.014010099421180974
1394.0,0.013456786261509125
1393.0,0.013009432781553854
1392.0,0.012664101476391663
1391.0,0.012360587264239893
1390.0,0.012063504562989803
1389.0,0.011751883895870154
1388.0,0.011404691820855255
1387.0,0.011045796516218521
1386.0,0.010763377781172846
1385.0,0.010606905480715545
1384.0,0.010537087820114031
1383.0,0.010499912330102739
1382.0,0.010484479020711913
1381.0,0.010513194735619588
1380.0,0.010598188673103975
1379.0,0.010730187524354635
1378.0,0.010891202654090009
1377.0,0.011069043683251832
1376.0,0.011260365729482701
1375.0,0.011467502513826063
1374.0,0.011680479592240743
1373.0,0.011865948346716195
1372.0,0.011991438899495582
1371.0,0.012016840109500371
1370.0,0.011895262325053675
1369.0,0.011594087306664929
1368.0,0.011135419623602873
1367.0,0.010591878029870277
1366.0,0.01001734444680646
1365.0,0.009397730318155408
1364.0,0.008684928061614328
1363.0,0.007894581910156458
1362.0,0.007168575666844227
1361.0,0.006643702896442118
1360.0,0.006305412615797163
1359.0,0.006066149202137765
1358.0,0.00587627382545115
1357.0,0.005725218565405362
1356.0,0.00560820138381019
1355.0,0.005519975420505313
1354.0,0.005464717466686435
1353.0,0.005451212459648632
1352.0,0.005479814592487642
1351.0,0.005546511201082285
1350.0,0.005659070695226576
1349.0,0.005822942901444632
1348.0,0.006038831432176765
1347.0,0.0063051838008361324
1346.0,0.006621476716442622
1345.0,0.00697437264380576
1344.0,0.007330683097082763
1343.0,0.007652289552329338
1342.0,0.007911887350313257
1341.0,0.008082911503573792
1340.0,0.008121974441492978
1339.0,0.007991924291595457
1338.0,0.007716489975869404
1337.0,0.007358608957983712
1336.0,0.0069577837254305875
1335.0,0.006536528570253232
1334.0,0.006126975359680046
1333.0,0.005765347177308835
1332.0,0.0054772985141657935
1331.0,0.005275251706671898
1330.0,0.005159865657053862
1329.0,0.00512061460796334
1328.0,0.005144687343882754
1327.0,0.0052258889328870815
1326.0,0.005364354516316915
1325.0,0.005555539999377374
1324.0,0.005787796697626156
1323.0,0.006044142304327831
1322.0,0.006311006282828937
1321.0,0.006585438149136064
1320.0,0.006870530515178809
1319.0,0.0071636390894949074
1318.0,0.007456447471160903
1317.0,0.007748149161838757
1316.0,0.008048242914129478
1315.0,0.008369400476347825
1314.0,0.00872453290670989
1313.0,0.009122366960868253
1312.0,0.009556742139752949
1311.0,0.010009354662176426
1310.0,0.010469358232084253
1309.0,0.0109416270126457
1308.0,0.011430598112004486
1307.0,0.01192582015012027
1306.0,0.012417388434973524
1305.0,0.01291543065196724
1304.0,0.01344784871365676
1303.0,0.014045361185969656
1302.0,0.014740783667077186
1301.0,0.015565296682983659
1300.0,0.01652920553475489
1299.0,0.017613142423036948
1298.0,0.01878990804857235
1297.0,0.02003972883887219
1296.0,0.021331176370338916
1295.0,0.022614732926040916
1294.0,0.023859884843609677
1293.0,0.02507353809476305
1292.0,0.026259175167023974
1291.0,0.027389032468126615
1290.0,0.02844059093456581
1289.0,0.02942308777724998
1288.0,0.030338922105752723
1287.0,0.03116098137317548
1286.0,0.03187997590662808
1285.0,0.03252824852212261
1284.0,0.03312588620799129
1283.0,0.03365076217077211
1282.0,0.03408798195982343
1281.0,0.034462267561814496
1280.0,0.034794513246055626
1279.0,0.035078541136354065
1278.0,0.03533177226125384
1277.0,0.03562093033444284
1276.0,0.03600623271513946
1275.0,0.03650677750941421
1274.0,0.0371445570619366
1273.0,0.0379717623253379
1272.0,0.039016892529099505
1271.0,0.04024315649827428
1270.0,0.041597044570583636
1269.0,0.04305387999547955
1268.0,0.04457434660083607
1267.0,0.04607511233865425
1266.0,0.047494546561405275
1265.0,0.048834604728841366
1264.0,0.05009065022273738
1263.0,0.05120670924530303
1262.0,0.05214746294629512
1261.0,0.05293929497780277
1260.0,0.05359039374709344
1259.0,0.05405672298973358
1258.0,0.054343482212595745
1257.0,0.054550465619576834
1256.0,0.054763786203061396
1255.0,0.05499108744476045
1254.0,0.05524343055288038
1253.0,0.05559158798696269
1252.0,0.0560853780402943
1251.0,0.05669712521540664
1250.0,0.057399438246734116
1249.0,0.058222513512643376
1248.0,0.059178916612813035
1247.0,0.06020974116739346
1246.0,0.06126449944454532
1245.0,0.06235791224703313
1244.0,0.06348689319007382
1243.0,0.06457774920248602
1242.0,0.06557962856687241
1241.0,0.06651579360320953
1240.0,0.06737473841729741
1239.0,0.06804901302206842
1238.0,0.0684498505045368
1237.0,0.06858263676568636
1236.0,0.06844565770577897
1235.0,0.0679706782305832
1234.0,0.06713228813167664
1233.0,0.06600452921169828
1232.0,0.06465074337697584
1231.0,0.06306681343185572
1230.0,0.0612742069706643
1229.0,0.059353141974426996
1228.0,0.05734294597685845
1227.0,0.05521318006201191
1226.0,0.052965076322252384
1225.0,0.050670874990613825
1224.0,0.048389492604101775
1223.0,0.04612587466270888
1222.0,0.04388846744528168
1221.0,0.041711201504755865
1220.0,0.039606424286346795
1219.0,0.037561282889403164
1218.0,0.035592422037434276
1217.0,0.033749838073512374
1216.0,0.03205655221551448
1215.0,0.030488087013082407
1214.0,0.029015848663297233
1213.0,0.027634335990574188
1212.0,0.026342913186541805
1211.0,0.02513392738291624
1210.0,0.02400461881170075
1209.0,0.022955044124394367
1208.0,0.02197204751170872
1207.0,0.021036495226613428
1206.0,0.02014728553941798
1205.0,0.019319768945273645
1204.0,0.01856016951547783
1203.0,0.017856079342868158
1202.0,0.01718952787472474
1201.0,0.016546934138765988
1200.0,0.01591973569578508
1199.0,0.015308078020179736
1198.0,0.014721843371470613
1197.0,0.014168904812884048
1196.0,0.013646059748902782
1195.0,0.013148683474404805
1194.0,0.012683103415444277
1193.0,0.012260817792184
1192.0,0.011886434570969572
1191.0,0.011558898220762923
1190.0,0.01128029614850197
1189.0,0.011056869874668307
1188.0,0.010894714918844781
1187.0,0.01079959220857991
1186.0,0.01077857398706859
1185.0,0.01083774241382943
1184.0,0.01097788013630678
1183.0,0.011192295586516712
1182.0,0.01146718343732319
1181.0,0.011784000482956514
1180.0,0.012122947053404599
1179.0,0.012466646801891686
1178.0,0.012800463639208129
1177.0,0.013106224745168291
1176.0,0.013355166569828436
1175.0,0.013513428948133312
1174.0,0.013557580734130409
1173.0,0.01347898561750744
1172.0,0.013275570324014569
1171.0,0.012954182708358474
1170.0,0.012544413037932432
1169.0,0.012097250552986247
1168.0,0.011665735410023605
1167.0,0.011289980823658279
1166.0,0.01099142828737562
1165.0,0.010769707890070711
1164.0,0.01061005451721718
1163.0,0.010501851019836451
1162.0,0.010446417810979776
1161.0,0.010443371496883354
1160.0,0.010480237774685947
1159.0,0.010546172984072642
1158.0,0.010648506788533577
1157.0,0.010803344482525495
1156.0,0.011014896200057637
1155.0,0.011277994859665949
1154.0,0.011597557047245043
1153.0,0.011989363644535601
1152.0,0.01245970912546428
1151.0,0.012999646725916764
1150.0,0.013603745273874542
1149.0,0.014278539903789318
1148.0,0.015024876518812388
1147.0,0.015828507704601317
1146.0,0.016678035236863356
1145.0,0.017573555246939383
1144.0,0.01850433306409209
1143.0,0.01943830243920096
1142.0,0.02035075662292698
1141.0,0.02124308943322381
1140.0,0.022115341280955
1139.0,0.02294628860663747
1138.0,0.02372293605194988
1137.0,0.024462051008566233
1136.0,0.025179501082649682
1135.0,0.025868523210494238
1134.0,0.026531254464284774
1133.0,0.027197397208547226
1132.0,0.027888402218878394
1131.0,0.028602519950915506
1130.0,0.02936197975208603
1129.0,0.030232330939159273
1128.0,0.03125941537731312
1127.0,0.03242225379561907
1126.0,0.03368096498901024
1125.0,0.035030590500016015
1124.0,0.03646413527808534
1123.0,0.03792373159965691
1122.0,0.039340247047255555
1121.0,0.04068301559495347
1120.0,0.04191872865697003
1119.0,0.04296712735913
1118.0,0.04375426860551279
1117.0,0.044266457751991756
1116.0,0.0445098530247337
1115.0,0.04448123097394969
1114.0,0.04422973041966544
1113.0,0.043891719377007046
1112.0,0.043628120421137714
1111.0,0.04357657435891962
1110.0,0.04386625155428546
1109.0,0.04459356482588413
1108.0,0.04574611819052186
1107.0,0.04721107696297752
1106.0,0.048898171303090245
1105.0,0.050797341417905074
1104.0,0.05288221926917779
1103.0,0.0550446688766542
1102.0,0.05718893795603952
1101.0,0.05930748003648695
1100.0,0.06139220660481097
1099.0,0.06336404415279463
1098.0,0.06517264438740146
1097.0,0.06685903918531574
1096.0,0.06842979363738247
1095.0,0.06978201494762737
1094.0,0.07084637867911031
1093.0,0.07168033663262013
1092.0,0.07233000819523058
1091.0,0.07273912946287182
1090.0,0.07288397942166695
1089.0,0.07285444360200224
1088.0,0.07271582218306333
1087.0,0.07243163219389984
1086.0,0.0719949655175467
1085.0,0.07148724849940631
1084.0,0.07093215252307532
1083.0,0.07023488914304223
1082.0,0.06933109484810834
1081.0,0.06825269129554541
1080.0,0.06699524790317732
1079.0,0.06547900063070365
1078.0,0.06369984148869871
1077.0,0.06177140441610958
1076.0,0.05977209888827911
1075.0,0.05768873776351888
1074.0,0.05553872795411099
1073.0,0.0534150750417543
1072.0,0.05138238473376428
1071.0,0.04944003480042343
1070.0,0.04760272151437963
1069.0,0.04591134241734593
1068.0,0.04435080203968559
1067.0,0.042854175499869834
1066.0,0.041404948984099826
1065.0,0.040054414329412154
1064.0,0.038830624478998925
1063.0,0.03771070110276881
1062.0,0.03669142878364624
1061.0,0.03581310548452092
1060.0,0.03509921317611096
1059.0,0.034532802669695904
1058.0,0.03410291280959982
1057.0,0.033819016207420616
1056.0,0.033671044487890434
1055.0,0.03363231753936819
1054.0,0.03371641310615172
1053.0,0.033974485780149305
1052.0,0.03441348671399668
1051.0,0.03497286235171871
1050.0,0.0356079873057447
1049.0,0.036325761510353
1048.0,0.03710439717534763
1047.0,0.037862163027423366
1046.0,0.038543936294501216
1045.0,0.039162422256490546
1044.0,0.039726460347698306
1043.0,0.04020338474579141
1042.0,0.040576504236480924
1041.0,0.04086683641699827
1040.0,0.04107065855306254
1039.0,0.04114840859033413
1038.0,0.04110363955048984
1037.0,0.040999926648056274
1036.0,0.040875100231644666
1035.0,0.040711669969424595
1034.0,0.04050990189521234
1033.0,0.04031159142190193
1032.0,0.04012445243802299
1031.0,0.03989627774039247
1030.0,0.039594394186784676
1029.0,0.03924561130066714
1028.0,0.038878232927030944
1027.0,0.03850600917855816
1026.0,0.038207502507272485
1025.0,0.038160484934400093
1024.0,0.03857062822334371
1023.0,0.03961182455510034
1022.0,0.04143299643779816
1021.0,0.044129805439697134
1020.0,0.047627043981293866
1019.0,0.05158799523856502
1018.0,0.05546849505333662
1017.0,0.0586436235612218
1016.0,0.06049955002734431
1015.0,0.06060723621875844
1014.0,0.059007084946819235
1013.0,0.0562420718766557
1012.0,0.05301109675449746
1011.0,0.04984118733663628
1010.0,0.04701899662558823
1009.0,0.04463663519605194
1008.0,0.04263792535375634
1007.0,0.04090763871154153
1006.0,0.0393809966132688
1005.0,0.038058556032870866
1004.0,0.036926066011413586
1003.0,0.03591764986098789
1002.0,0.03497128645635954
1001.0,0.03407050015330359
1000.0,0.03321433898616691
999.0,0.032391236484820285
998.0,0.03159920024602545
997.0,0.030851257768369895
996.0,0.03014478363672557
995.0,0.029458355947244767
994.0,0.028789272068622127
993.0,0.028162745998110625
992.0,0.02759527197135847
991.0,0.027078139876753927
990.0,0.02660236026770664
989.0,0.0261685461615603
988.0,0.025767113031614573
987.0,0.02538166548570251
986.0,0.025018728264808852
985.0,0.024702715332889695
984.0,0.02443508615890886
983.0,0.02418764149659217
982.0,0.023940398934874027
981.0,0.023696271274013195
980.0,0.023454896337231863
979.0,0.023205552863402184
978.0,0.022953349332922746
977.0,0.022718926402427606
976.0,0.022501825845511747
975.0,0.02227338499443671
974.0,0.022012808556214226
973.0,0.021720344435117944
972.0,0.021390669708561003
971.0,0.021008955083375563
970.0,0.020582524901683233
969.0,0.020142623242463544
968.0,0.019703521341454047
967.0,0.01924906931418833
966.0,0.018768428560966437
965.0,0.018276072490547576
964.0,0.017786252512311244
963.0,0.0172958159719561
962.0,0.01680483741349138
961.0,0.016330409238575063
960.0,0.015887967514440472
959.0,0.015477193137501677
958.0,0.01509383467609534
957.0,0.014738782719653749
956.0,0.014410392654201493
955.0,0.014103474301229699
954.0,0.013818847154102896
953.0,0.013558695052103168
952.0,0.013312644708908136
951.0,0.013067122485113877
950.0,0.012829741719455369
949.0,0.012624302950311854
948.0,0.012458628005446705
947.0,0.01231648277693758
946.0,0.012183921050999608
945.0,0.012063719989515907
944.0,0.011959613918481663
943.0,0.011866027124444446
942.0,0.011779338576925952
941.0,0.0117010889756675
940.0,0.011623652492456692
939.0,0.011530139348628256
938.0,0.011416389438836862
937.0,0.011298148983438921
936.0,0.011189838945051985
935.0,0.01108991373234363
934.0,0.010990705369144167
933.0,0.010887678044967757
932.0,0.010776269850167414
931.0,0.010655829734302773
930.0,0.01053941694332072
929.0,0.010442727348966917
928.0,0.010360576906360889
927.0,0.010272000880884542
926.0,0.010172612239352143
925.0,0.010084557504078225
924.0,0.010029514284680206
923.0,0.010007638762514707
922.0,0.010005995770028222
921.0,0.010010979618279611
920.0,0.010010276491114713
919.0,0.010002799050463869
918.0,0.010012360788204645
917.0,0.010072030208313928
916.0,0.010188317550564097
915.0,0.010337909935221906
914.0,0.010503547334969814
913.0,0.010691641597715462
912.0,0.010906940248552429
911.0,0.01113426354282284
910.0,0.011359591586295594
909.0,0.011588134830863211
908.0,0.011826810242942978
907.0,0.012069499738608328
906.0,0.012313655070635757
905.0,0.012568111888644797
904.0,0.012827176337997324
903.0,0.013059371403711363
902.0,0.013241039280052217
901.0,0.013380896272672027
900.0,0.013493290855456096
899.0,0.013568162633631808
898.0,0.013585287777513777
897.0,0.013538203091161164
896.0,0.01342992862416385
895.0,0.01326960282862611
894.0,0.013088778411952648
893.0,0.012934693397319466
892.0,0.012828777336452386
891.0,0.012752284859744327
890.0,0.012688002524198522
889.0,0.012656204128664087
888.0,0.012695052828852617
887.0,0.012826854408680474
886.0,0.01306081827610716
885.0,0.013409433886803834
884.0,0.013881591508803557
883.0,0.014474699735000967
882.0,0.01519351676886686
881.0,0.016060055331161574
880.0,0.017080849202821952
879.0,0.018220395696496094
878.0,0.01943195202732402
877.0,0.020690678952107064
876.0,0.02195797614148004
875.0,0.02313279469834687
874.0,0.024074214790903277
873.0,0.024645357764300477
872.0,0.02471191621627984
871.0,0.024171865647213936
870.0,0.023059539303563217
869.0,0.02157790590877952
868.0,0.019980955235654962
867.0,0.018448710689898718
866.0,0.017067411832662905
865.0,0.015868274073964538
864.0,0.014855653104949317
863.0,0.014019430692287792
862.0,0.01334376570900522
861.0,0.012806670691368954
860.0,0.012373583092426248
859.0,0.012003580402411392
858.0,0.011668426375075903
857.0,0.011359547478965868
856.0,0.011075379376721772
855.0,0.010811564953732814
854.0,0.010565861371763925
853.0,0.010343199813985498
852.0,0.01015257063394552
851.0,0.010003148584728446
850.0,0.009897926357861308
849.0,0.009822079524933622
848.0,0.0097453233286202
847.0,0.009650739627572423
846.0,0.009556546224835198
845.0,0.00949308331615046
844.0,0.009463994628032393
843.0,0.009447667452188054
842.0,0.009429199950934549
841.0,0.009407115522741646
840.0,0.009371379337265145
839.0,0.009302258765643966
838.0,0.009194103504925947
837.0,0.009056168489825947
836.0,0.00888868025786059
835.0,0.008684758198701247
834.0,0.008459453632034993
833.0,0.00824760922259989
832.0,0.00806378120391975
831.0,0.007888014857428748
830.0,0.0076990874049044766
829.0,0.00749981365052956
828.0,0.007302120985498518
827.0,0.0071133488336642785
826.0,0.006948076313296976
825.0,0.006825405542547933
824.0,0.006741770253012388
823.0,0.006674243983602697
822.0,0.006620522742861339
821.0,0.0066029713579640395
820.0,0.0066250447943101
819.0,0.006656437362273218
818.0,0.006670235667313016
817.0,0.006669598549290211
816.0,0.006668924500971804
815.0,0.006670114805523403
814.0,0.006667967252430965
813.0,0.006662096813966133
812.0,0.006654775907034546
811.0,0.006651670299980077
810.0,0.006668646961676279
809.0,0.006718307837406019
808.0,0.006783657959704387
807.0,0.00682576564718591
806.0,0.006827244763099389
805.0,0.00680921363814865
804.0,0.006796798327164136
803.0,0.0067889042179125805
802.0,0.006773908279379598
801.0,0.006760552689889182
800.0,0.006787349740528845
799.0,0.006917844292018209
798.0,0.007223080181427878
797.0,0.0077314833380568455
796.0,0.008370262445633662
795.0,0.00896848272116917
794.0,0.009346728850528098
793.0,0.0094156683097875
792.0,0.009195181570555482
791.0,0.008770953056874354
790.0,0.00824565328278946
789.0,0.007695300538505721
788.0,0.007145334142915778
787.0,0.006594557465656957
786.0,0.006058960043085334
785.0,0.005574388298709524
784.0,0.005162170055099204
783.0,0.004816998326437009
782.0,0.004528434085608471
781.0,0.004292187843228726
780.0,0.004098972549733864
779.0,0.003933161865884235
778.0,0.0037843933847862728
777.0,0.0036422931658062416
776.0,0.003483615705218915
775.0,0.003291880412251034
774.0,0.003091964178787956
773.0,0.002934694243670377
772.0,0.0028387438103192227
771.0,0.002772554726914957
770.0,0.0026999953752376675
769.0,0.0026175554636815555
768.0,0.00253602264829619
767.0,0.00245471848454314
766.0,0.00237269309859996
765.0,0.002302307153859054
764.0,0.0022517183833257303
763.0,0.0022104709408030023
762.0,0.0021685481412613908
761.0,0.0021334176958058993
760.0,0.002113016952215647
759.0,0.002098363876330703
758.0,0.0020788624562620775
757.0,0.002059966845280618
756.0,0.0020504720082790105
755.0,0.0020458328504181778
754.0,0.0020385716561413803
753.0,0.0020325827790205874
752.0,0.002033719590506274
751.0,0.0020399300955560324
750.0,0.00205458683819891
749.0,0.00209727481319668
748.0,0.002189945309511082
747.0,0.002344914694844708
746.0,0.002576016174233812
745.0,0.0029097524054994117
744.0,0.0033824858723821433
743.0,0.004048482657712179
742.0,0.004998864917637865
741.0,0.006342747804306711
740.0,0.008142143243581364
739.0,0.010373376078320656
738.0,0.012962496152689861
737.0,0.015833561697322245
736.0,0.01890290550930538
735.0,0.02207336284977851
734.0,0.02529547522056181
733.0,0.028615507235749592
732.0,0.03211728471534125
731.0,0.035847175935079356
730.0,0.03983296419636699
729.0,0.04410954356873954
728.0,0.0486389782662155
727.0,0.05321458494221042
726.0,0.057467951415537705
725.0,0.06090957988773367
724.0,0.06296236104378812
723.0,0.06313081861707702
722.0,0.061278814354151334
721.0,0.057737812158718524
720.0,0.053158017543557694
719.0,0.04824147132968129
718.0,0.043501412028409604
717.0,0.03919724025188059
716.0,0.03544325735643446
715.0,0.032306942207586106
714.0,0.02979397557445572
713.0,0.027803832890459207
712.0,0.026170347791478546
711.0,0.024763159415170988
710.0,0.023536843321917217
709.0,0.02248438169507758
708.0,0.02157110798778876
707.0,0.020739165266278097
706.0,0.01996200409567397
705.0,0.01925507570849742
704.0,0.018621804609667156
703.0,0.018017734692078822
702.0,0.017384613996266528
701.0,0.01669456965988291
700.0,0.015942818080902022
699.0,0.015126566576757036
698.0,0.014261649858579743
697.0,0.013406674159529296
696.0,0.012640934621493967
695.0,0.012012180928023811
694.0,0.011513986348417882
693.0,0.01110798969803541
692.0,0.010754914224430534
691.0,0.01042725051987406
690.0,0.010109333938607756
689.0,0.009797737322348992
688.0,0.00950115152126741
687.0,0.009235741764082268
686.0,0.009020385561948757
685.0,0.008871507377603852
684.0,0.008791377256898575
683.0,0.008759795324811841
682.0,0.008739772426233285
681.0,0.00869498149697142
680.0,0.008602684201350932
679.0,0.008455590073399761
678.0,0.008249106632156666
677.0,0.007976459341753218
676.0,0.0076508784736898545
675.0,0.00730608103175593
674.0,0.0069868708618982915
673.0,0.006731900607817283
672.0,0.006551921218212438
671.0,0.0064245554461148605
670.0,0.006313873805636234
669.0,0.006166096417820044
668.0,0.005869913837627973
667.0,0.005480444874810629
666.0,0.005215280783740206
665.0,0.005077378441581012
664.0,0.004950313295150693
663.0,0.004795388418780123
662.0,0.004632278328188695
661.0,0.004507834974061594
660.0,0.0044416495125035645
659.0,0.00442240765843294
658.0,0.004423607098035758
657.0,0.004425845471023305
656.0,0.004419162425312746
655.0,0.00437706738910788
654.0,0.004266275739778695
653.0,0.004088597485299883
652.0,0.0038881256354219053
651.0,0.003724389892337275
650.0,0.0036374684093475
649.0,0.003625770369064059
648.0,0.003650206871407732
647.0,0.003659007100995714
646.0,0.0036177522927803556
645.0,0.0035246607293209237
644.0,0.003401610097525626
643.0,0.003281356381353887
642.0,0.0031952334477908986
641.0,0.003155667519049346
640.0,0.003147731079808704
639.0,0.0031433888993147602
638.0,0.003131384337369217
637.0,0.0031373601295156903
636.0,0.0032179842716172913
635.0,0.003426126076019118
634.0,0.0037483683349183745
633.0,0.004066563989276172
632.0,0.004207831417352896
631.0,0.0040703673088951665
630.0,0.0037230657986053912
629.0,0.0033421644226428217
628.0,0.0030450240165187763
627.0,0.0028340381062095937
626.0,0.0026770082474387707
625.0,0.002573490267619459
624.0,0.0025230158564310597
623.0,0.002479571772827198
622.0,0.00238783691227714
621.0,0.0022460335130158066
620.0,0.002103483605385762
619.0,0.0020134130107655624
618.0,0.001998938630982031
617.0,0.0020382502151360393
616.0,0.002069953573241556
615.0,0.0020412923872476334
614.0,0.0019641004261990846
613.0,0.001900330932581764
612.0,0.0018935358246682243
611.0,0.001933101283365924
610.0,0.001983083846087655
609.0,0.00201880959128058
608.0,0.002021525290201
607.0,0.0019773588329728992
606.0,0.0019133093965893432
605.0,0.0018945842918851995
604.0,0.001952295308837105
603.0,0.002047440786477164
602.0,0.0021297005497146696
601.0,0.0021915569506042436
600.0,0.0022372953972090055
599.0,0.0022437517908704633
598.0,0.0021959493183923862
597.0,0.002125975007621104
596.0,0.0020730207462223704
595.0,0.0020307474203193274
594.0,0.0019667433967282596
593.0,0.001874040298862215
592.0,0.0017776373390718542
591.0,0.0017146639645516572
590.0,0.0017168284951409613
589.0,0.001777039584106417
588.0,0.0018278849246663557
587.0,0.0017917266603696483
586.0,0.001687328677845261
585.0,0.0016361658150593344
584.0,0.001702928044881511
583.0,0.0017890721451279054
582.0,0.0017623245014969941
581.0,0.0016513915277888962
580.0,0.001611763557489522
579.0,0.0017147306960124224
578.0,0.001873835381116521
577.0,0.0019742165332669436
576.0,0.001971561395758884
575.0,0.0018737725831764716
574.0,0.0017245210050780124
573.0,0.001600487551225072
572.0,0.0015705633377167336
571.0,0.0016466466345637087
570.0,0.0017762272586004779
569.0,0.0018910663146766028
568.0,0.0019458400709549944
567.0,0.0019278945823628102
566.0,0.0018804182972995132
565.0,0.0018714782993441894
564.0,0.0018945312603522342
563.0,0.001850147686157615
562.0,0.0016890737824090448
561.0,0.00150975950209567
560.0,0.001446330130753088
559.0,0.0015392287768053545
558.0,0.0017382845445605352
557.0,0.0019681724334102684
556.0,0.0021432867833981704
555.0,0.0021711475813364026
554.0,0.002062569280340201
553.0,0.001958039130945565
552.0,0.0019425995190261395
551.0,0.001935933742233751
550.0,0.001833343250268623
