cm-1,A
4000.0,0.004207023356789415
3999.0,0.00410292759963168
3998.0,0.0040683506061769455
3997.0,0.004098365291462361
3996.0,0.004161923636869671
3995.0,0.004233121077165763
3994.0,0.004309531187077956
3993.0,0.004398835958468617
3992.0,0.004489422240655794
3991.0,0.00454328410460181
3990.0,0.004527029701208508
3989.0,0.004448258825287812
3988.0,0.0043536661492666
3987.0,0.004291731729131606
3986.0,0.00428173666394009
3985.0,0.004314236765952533
3984.0,0.004368303413697903
3983.0,0.004424428407102459
3982.0,0.0044697420567703944
3981.0,0.0044979022806789955
3980.0,0.004505809857236339
3979.0,0.004490918755846823
3978.0,0.0044552197126964
3977.0,0.004412466634656397
3976.0,0.004386620880431907
3975.0,0.004395194707345694
3974.0,0.00443385210696408
3973.0,0.0044791405545516055
3972.0,0.00450495434441631
3971.0,0.004497453127573037
3970.0,0.004464432924496024
3969.0,0.004437963291469373
3968.0,0.004456912873702984
3967.0,0.004535695120627728
3966.0,0.0046461284968452
3965.0,0.004734352986028123
3964.0,0.004758270424511921
3963.0,0.0047178432022099565
3962.0,0.004657057167840303
3961.0,0.00463526590386229
3960.0,0.004685305952069464
3959.0,0.004785550385822981
3958.0,0.0048712880474809424
3957.0,0.004885060123064888
3956.0,0.004816856393408691
3955.0,0.004703367007662742
3954.0,0.004593902963688229
3953.0,0.00452416456019236
3952.0,0.004507085921923086
3951.0,0.004531445729401432
3950.0,0.004567916724179423
3949.0,0.004580009578053336
3948.0,0.004546582390206661
3947.0,0.004482826088364731
3946.0,0.004433511524440752
3945.0,0.004433946913329753
3944.0,0.004480270904950904
3943.0,0.004531158789362905
3942.0,0.004548450499428248
3941.0,0.004552257640815165
3940.0,0.004598355113815986
3939.0,0.004688634754496209
3938.0,0.00476307686580375
3937.0,0.004785797806254863
3936.0,0.004781306378405606
3935.0,0.0047910503206841995
3934.0,0.004817859729259199
3933.0,0.004836698658688233
3932.0,0.004835556664647066
3931.0,0.004822269282265909
3930.0,0.004812653923469435
3929.0,0.004813565826183509
3928.0,0.004824165056814402
3927.0,0.004848527386936224
3926.0,0.004881327959258008
3925.0,0.004888535409703956
3924.0,0.004836641579772575
3923.0,0.004752052175484791
3922.0,0.004693241097670319
3921.0,0.004673941474475796
3920.0,0.00469091949875565
3919.0,0.004773827475623094
3918.0,0.004918150252035791
3917.0,0.005028059667755208
3916.0,0.005019224911016022
3915.0,0.0049368055682635845
3914.0,0.004892783134076494
3913.0,0.004926268628670582
3912.0,0.0049837532796631855
3911.0,0.004999051314868967
3910.0,0.0049334141564561975
3909.0,0.004789830708882939
3908.0,0.004604892863304184
3907.0,0.004462404696369373
3906.0,0.0044601799107790475
3905.0,0.004621855325929201
3904.0,0.004820062538507754
3903.0,0.004905465366273908
3902.0,0.004906725162397532
3901.0,0.004942452939524571
3900.0,0.005007171315025828
3899.0,0.005005067499880288
3898.0,0.004928631785717697
3897.0,0.004863008634252257
3896.0,0.004837231429067291
3895.0,0.004801795185506899
3894.0,0.004759417271690568
3893.0,0.00479642764412342
3892.0,0.004900930498316167
3891.0,0.004901660131576726
3890.0,0.00474572191881369
3889.0,0.004646815385000695
3888.0,0.004734075048376786
3887.0,0.0048933897032920615
3886.0,0.004937570113426859
3885.0,0.004750342918947064
3884.0,0.004436717934153206
3883.0,0.004277016599338495
3882.0,0.0043740815198648735
3881.0,0.004598852445428948
3880.0,0.004755923395765506
3879.0,0.004766405325458925
3878.0,0.004769159966933884
3877.0,0.004851909620631345
3876.0,0.004893403364510834
3875.0,0.004778946610899747
3874.0,0.0045247621807835755
3873.0,0.004287074315643312
3872.0,0.004280468280681599
3871.0,0.004511190568355427
3870.0,0.004680361612961573
3869.0,0.004553551923415776
3868.0,0.004355054525418636
3867.0,0.004431696138540163
3866.0,0.004714131121957236
3865.0,0.004949956069156793
3864.0,0.0050541634039576785
3863.0,0.005060886503238531
3862.0,0.005035833696393604
3861.0,0.005014071100864322
3860.0,0.004959560803313917
3859.0,0.004835457614022931
3858.0,0.004598322747273785
3857.0,0.004237856408677415
3856.0,0.0038496519434281437
3855.0,0.0037269441314828292
3854.0,0.004075489341841248
3853.0,0.0043580464149638835
3852.0,0.0041331780444335275
3851.0,0.004064291971863615
3850.0,0.004506991120245524
3849.0,0.0050095396294053025
3848.0,0.005274739957979245
3847.0,0.005355554627966901
3846.0,0.005365533271492834
3845.0,0.00532119576963308
3844.0,0.005164398802101724
3843.0,0.004838761160489076
3842.0,0.004384935210207854
3841.0,0.003974768086867484
3840.0,0.0037846930614371093
3839.0,0.003846680047904458
3838.0,0.0039860464451224546
3837.0,0.004039847654399192
3836.0,0.004072775878614494
3835.0,0.004237368728937464
3834.0,0.004538819335209384
3833.0,0.00485450270604163
3832.0,0.005056060001511452
3831.0,0.005108425935782309
3830.0,0.005097967405415868
3829.0,0.005134907169260542
3828.0,0.005224666109151345
3827.0,0.005257055122753271
3826.0,0.005119266220924009
3825.0,0.004855832937517856
3824.0,0.004638945577635233
3823.0,0.0045851479556703635
3822.0,0.004669662760587409
3821.0,0.004665063310862359
3820.0,0.004380357464925929
3819.0,0.004178606198565464
3818.0,0.0044312000968155015
3817.0,0.004907694617584828
3816.0,0.005185445826386427
3815.0,0.005115172147006663
3814.0,0.004997305797449803
3813.0,0.0051367211072310525
3812.0,0.0053764793036742385
3811.0,0.005438849920863178
3810.0,0.005330033896433654
3809.0,0.005228221117229936
3808.0,0.005214447549703408
3807.0,0.005145994397011418
3806.0,0.0048795522033228764
3805.0,0.004594853497206654
3804.0,0.004551534456698005
3803.0,0.004716471902364523
3802.0,0.00486375236152925
3801.0,0.004722315341277917
3800.0,0.00434757751069656
3799.0,0.004241589510604556
3798.0,0.0045627751093204275
3797.0,0.00498511833755098
3796.0,0.005255217526258805
3795.0,0.005381348291756632
3794.0,0.005517940247333951
3793.0,0.005719501871952722
3792.0,0.005892467515173066
3791.0,0.005955856025122356
3790.0,0.0059146840414609075
3789.0,0.005804579893424741
3788.0,0.005672360617753074
3787.0,0.005575956353653719
3786.0,0.005545246252640251
3785.0,0.005530854057882275
3784.0,0.005462791491170033
3783.0,0.005361197319605233
3782.0,0.005307095890077759
3781.0,0.0053225909123531
3780.0,0.0053559923748514
3779.0,0.005349395733688176
3778.0,0.005327921392224105
3777.0,0.005404487345090912
3776.0,0.005585760396826877
3775.0,0.005717020710700942
3774.0,0.0056837623327393606
3773.0,0.005552746291215351
3772.0,0.005467496059184795
3771.0,0.005469753713268461
3770.0,0.005449359481060118
3769.0,0.0053213822456093796
3768.0,0.005196401852227086
3767.0,0.005219825793506733
3766.0,0.005334813580050219
3765.0,0.0053773442706298025
3764.0,0.005308490972697125
3763.0,0.005243292121291777
3762.0,0.00525517416948652
3761.0,0.005291340728675669
3760.0,0.005298817234025586
3759.0,0.005261484000290055
3758.0,0.005149372575807221
3757.0,0.0049688487781034876
3756.0,0.004760109569003159
3755.0,0.004536603367650896
3754.0,0.004263791378497554
3753.0,0.003966464452609186
3752.0,0.0038460473641023177
3751.0,0.004021812728657467
3750.0,0.004211426823742759
3749.0,0.004187224508730091
3748.0,0.0041033330461569
3747.0,0.0041129276104599835
3746.0,0.004215380382399457
3745.0,0.004373173591472957
3744.0,0.00441161876192025
3743.0,0.004302789742090437
3742.0,0.00444128379462016
3741.0,0.0048222983685914066
3740.0,0.004976001438165602
3739.0,0.004775085271833212
3738.0,0.004472891766567226
3737.0,0.004334912705710209
3736.0,0.004390185476251845
3735.0,0.004470232964783497
3734.0,0.00451031951084253
3733.0,0.004631431352699731
3732.0,0.004838680807221159
3731.0,0.005011313016683078
3730.0,0.005134906337072616
3729.0,0.0052518918182706195
3728.0,0.005342341936306977
3727.0,0.005378189483550186
3726.0,0.005391372241883836
3725.0,0.005438097846041882
3724.0,0.005533175712390577
3723.0,0.005607180973221684
3722.0,0.005590810916462501
3721.0,0.005509137658097418
3720.0,0.0054491022641896154
3719.0,0.005455219836185278
3718.0,0.005481683148097513
3717.0,0.005466254232194616
3716.0,0.005405984820162961
3715.0,0.005339338191397647
3714.0,0.0052860491458756355
3713.0,0.00527142155338527
3712.0,0.005317111313410762
3711.0,0.005356561045695641
3710.0,0.005383008344651687
3709.0,0.005558719902220181
3708.0,0.005930029700432483
3707.0,0.006332079493318139
3706.0,0.006613105004453355
3705.0,0.0067767118623684695
3704.0,0.0069380002613507585
3703.0,0.007197785216836693
3702.0,0.007520567087289844
3701.0,0.007762626774664404
3700.0,0.007893923089664752
3699.0,0.008040952837926186
3698.0,0.008256313320302636
3697.0,0.008441077847531661
3696.0,0.00849022739670635
3695.0,0.008393778043163963
3694.0,0.008187551352972163
3693.0,0.007879188350114866
3692.0,0.007499337821403211
3691.0,0.00715914745989394
3690.0,0.006929287026733509
3689.0,0.006705910694588023
3688.0,0.006432461296194533
3687.0,0.0063222660989032415
3686.0,0.006541019594340586
3685.0,0.0069239526251622645
3684.0,0.007181487933981634
3683.0,0.007190844117065045
3682.0,0.007014186095435663
3681.0,0.006732937175731814
3680.0,0.006338608570606405
3679.0,0.005844942644367223
3678.0,0.005435145192495985
3677.0,0.005372747594445658
3676.0,0.005638806793532758
3675.0,0.005712466101819233
3674.0,0.00543634876542678
3673.0,0.005353224629383698
3672.0,0.005610662612068032
3671.0,0.0059272695984160535
3670.0,0.006165768597552933
3669.0,0.0062636380616712655
3668.0,0.00638905441160862
3667.0,0.006774915440618456
3666.0,0.007273856843442868
3665.0,0.0076156169843571535
3664.0,0.007724670760648734
3663.0,0.00767546383913012
3662.0,0.007566394634455896
3661.0,0.0074597066183915775
3660.0,0.007391316976388371
3659.0,0.007399019050212643
3658.0,0.007499885581270061
3657.0,0.0076134766318408115
3656.0,0.0075548760294443865
3655.0,0.007252760926650123
3654.0,0.006887752760136163
3653.0,0.006605206835491824
3652.0,0.0064121303311720605
3651.0,0.006429927844333444
3650.0,0.006798783754022392
3649.0,0.0071749385289336005
3648.0,0.00717896795035268
3647.0,0.0070871880091450176
3646.0,0.007230080556385609
3645.0,0.007549285898567357
3644.0,0.007846095040788174
3643.0,0.008003186905924314
3642.0,0.008032417329957622
3641.0,0.00801842847614501
3640.0,0.008032365197996992
3639.0,0.008078541377240095
3638.0,0.00811482521489493
3637.0,0.008138059844461233
3636.0,0.008191628829532395
3635.0,0.008263174913504073
3634.0,0.008260298269064922
3633.0,0.008131912440889174
3632.0,0.007982782798777122
3631.0,0.008004645648042392
3630.0,0.008372568332292683
3629.0,0.008941329023257474
3628.0,0.00920162986215884
3627.0,0.009183337344855722
3626.0,0.00932999074352377
3625.0,0.00958070217875416
3624.0,0.00967565204079878
3623.0,0.009611532031197429
3622.0,0.009546545912573255
3621.0,0.009601144962436036
3620.0,0.009734868334920804
3619.0,0.009756000673019674
3618.0,0.009568693217851846
3617.0,0.009362565456318386
3616.0,0.009342654616880799
3615.0,0.00947515276872643
3614.0,0.00958593785613354
3613.0,0.009538589853580212
3612.0,0.009360170057288602
3611.0,0.009217785663125455
3610.0,0.009236042880479708
3609.0,0.009391446895562044
3608.0,0.009560227869742415
3607.0,0.009643170997090725
3606.0,0.009671958817801219
3605.0,0.009717819201003418
3604.0,0.00976993185663917
3603.0,0.009790350809030622
3602.0,0.0097792900015361
3601.0,0.00974989190833546
3600.0,0.00970619508103436
3599.0,0.009669320618372775
3598.0,0.009678040487227573
3597.0,0.009756671545332713
3596.0,0.009907062277074814
3595.0,0.01008144297419013
3594.0,0.010190250769419242
3593.0,0.010191675141498917
3592.0,0.010141305478847689
3591.0,0.010109031340675048
3590.0,0.010129960955440548
3589.0,0.01022332220554831
3588.0,0.01035856052490845
3587.0,0.010414701657431115
3586.0,0.010376754538854692
3585.0,0.010412308879492323
3584.0,0.010583903378704509
3583.0,0.010784557498943454
3582.0,0.010930548215344237
3581.0,0.011019037485094783
3580.0,0.011070353078410113
3579.0,0.011097316797016027
3578.0,0.011118441903755437
3577.0,0.011155746856411157
3576.0,0.011219729331067376
3575.0,0.01129154297978377
3574.0,0.011331093858664498
3573.0,0.01130574220263491
3572.0,0.011212786174726697
3571.0,0.011080018801154003
3570.0,0.010961476763639063
3569.0,0.010932897494177321
3568.0,0.011041371473291482
3567.0,0.011189382809466067
3566.0,0.011220369903774844
3565.0,0.011189135873440031
3564.0,0.011248789597396832
3563.0,0.011406295844594627
3562.0,0.01159844429660965
3561.0,0.011798194567720813
3560.0,0.011993451131216293
3559.0,0.012157386348938488
3558.0,0.01226445206898533
3557.0,0.012309503919830513
3556.0,0.012307815138136422
3555.0,0.012290155779123998
3554.0,0.012284941216785035
3553.0,0.012295158028108759
3552.0,0.012301983916262367
3551.0,0.012312447021110035
3550.0,0.012370962479358146
3549.0,0.012502496507166394
3548.0,0.012681633100259347
3547.0,0.012862056413036966
3546.0,0.01300276385040771
3545.0,0.013090967420759873
3544.0,0.01315906544028974
3543.0,0.013249708836808788
3542.0,0.013366608362975034
3541.0,0.013479878318184944
3540.0,0.013566650292536897
3539.0,0.013637432065350494
3538.0,0.01371678229910753
3537.0,0.013802511741031618
3536.0,0.013854337641351428
3535.0,0.013843811911350465
3534.0,0.013800042918839218
3533.0,0.013776578763591906
3532.0,0.013783274333387982
3531.0,0.013763679855756154
3530.0,0.01365292566589623
3529.0,0.013469553476902079
3528.0,0.013344970334007968
3527.0,0.013420943488968065
3526.0,0.013714173707022655
3525.0,0.014094906453230187
3524.0,0.014405281565950188
3523.0,0.0145925229966848
3522.0,0.014720225976336446
3521.0,0.014860659971115495
3520.0,0.015005146591499985
3519.0,0.01508837929529953
3518.0,0.015077614691960336
3517.0,0.015018685470811605
3516.0,0.014993130198063823
3515.0,0.015043014812870126
3514.0,0.01514523050624288
3513.0,0.01524717182694436
3512.0,0.015314190166536693
3511.0,0.015344826322346891
3510.0,0.0153571837684389
3509.0,0.015368258126370007
3508.0,0.01539267275608074
3507.0,0.015447049618398878
3506.0,0.015537740784464602
3505.0,0.015650012080581352
3504.0,0.015758543499438084
3503.0,0.015848693125222402
3502.0,0.01593546430468222
3501.0,0.016045558618836164
3500.0,0.01616800246913068
3499.0,0.01625272677131272
3498.0,0.016274186092800864
3497.0,0.01627091828237632
3496.0,0.016302711385399293
3495.0,0.01637794906256119
3494.0,0.016448071317815137
3493.0,0.016473396811936217
3492.0,0.016474320914315006
3491.0,0.016513639321453874
3490.0,0.01663610548608779
3489.0,0.01682523935746477
3488.0,0.017011320853380172
3487.0,0.017123177457261402
3486.0,0.017138263486016037
3485.0,0.017088923651629624
3484.0,0.01703230129099069
3483.0,0.01701465488518278
3482.0,0.017047030725433444
3481.0,0.017105316550679196
3480.0,0.01716398186396521
3479.0,0.01722662793724848
3478.0,0.0173172868943943
3477.0,0.017447310457030095
3476.0,0.01759204013983206
3475.0,0.017702368848218696
3474.0,0.017747084380843735
3473.0,0.017740970248884644
3472.0,0.01772575369456339
3471.0,0.017734910732128906
3470.0,0.017788758284281253
3469.0,0.017907210021710192
3468.0,0.01809643493757559
3467.0,0.018317286032819104
3466.0,0.018489959457044527
3465.0,0.018550448838056368
3464.0,0.01850335774593204
3463.0,0.018419352561417992
3462.0,0.01838461708073003
3461.0,0.01844535103473492
3460.0,0.018586783726013145
3459.0,0.01875475112181563
3458.0,0.01889513656897072
3457.0,0.018983022634764354
3456.0,0.019025419233462793
3455.0,0.019048315603277757
3454.0,0.019084051486578626
3453.0,0.019156008862325432
3452.0,0.019259771878930923
3451.0,0.019360411257509213
3450.0,0.019421155546050513
3449.0,0.019435754335019935
3448.0,0.019428528072784522
3447.0,0.01941664915741648
3446.0,0.01939220266391231
3445.0,0.019354100228354973
3444.0,0.019332629943983926
3443.0,0.019367882555465392
3442.0,0.01947197859674838
3441.0,0.019619324643841446
3440.0,0.01977633172007254
3439.0,0.019930125979774466
3438.0,0.020079557137109322
3437.0,0.02021196722550465
3436.0,0.020303177990200462
3435.0,0.020341407221170008
3434.0,0.020341743972380304
3433.0,0.0203328261180036
3432.0,0.02033934481986681
3431.0,0.020379822276433333
3430.0,0.020468841103829277
3429.0,0.02060475664386227
3428.0,0.020756760388445296
3427.0,0.020873339015227848
3426.0,0.02091293627754791
3425.0,0.020873034551072516
3424.0,0.020793430261941463
3423.0,0.020731539659812472
3422.0,0.02072647227537953
3421.0,0.0207766959181531
3420.0,0.020849849501897912
3419.0,0.020917371534882212
3418.0,0.020979126553923807
3417.0,0.021057756772852664
3416.0,0.021174371751852238
3415.0,0.02132250397191808
3414.0,0.0214597478179044
3413.0,0.02153394351661822
3412.0,0.021528802805286365
3411.0,0.021482068192632493
3410.0,0.021450820802011872
3409.0,0.021458577032681187
3408.0,0.021485390465446425
3407.0,0.02151177957621633
3406.0,0.0215582834705273
3405.0,0.021665064511011675
3404.0,0.021828798354647037
3403.0,0.021976322732047096
3402.0,0.022021119684668303
3401.0,0.021948427152604463
3400.0,0.021830426207388134
3399.0,0.021754581977766776
3398.0,0.02175057619492101
3397.0,0.021790864247796346
3396.0,0.021841602018131328
3395.0,0.02188847475802538
3394.0,0.021923259172013633
3393.0,0.021937148934187998
3392.0,0.021936998439668745
3391.0,0.021949009980193036
3390.0,0.02199333893971283
3389.0,0.02206306458608856
3388.0,0.022134543888409648
3387.0,0.022190567695488144
3386.0,0.022227592711623053
3385.0,0.022248831735720908
3384.0,0.02225705761457619
3383.0,0.022252375180608824
3382.0,0.022237466076232938
3381.0,0.022228956810842894
3380.0,0.02225727297988807
3379.0,0.02233942974632658
3378.0,0.022452523861884406
3377.0,0.02254975675311488
3376.0,0.02260811874197307
3375.0,0.022647118783209734
3374.0,0.022695702829116888
3373.0,0.02275479767750384
3372.0,0.02280095904895246
3371.0,0.022815152992760525
3370.0,0.022797623321516473
3369.0,0.022763970769957915
3368.0,0.022736964505400612
3367.0,0.02273484402054567
3366.0,0.022754879269923298
3365.0,0.02277275814226164
3364.0,0.022768988079275774
3363.0,0.02275214011860793
3362.0,0.022745596167657655
3361.0,0.022754416387781223
3360.0,0.02275792247185033
3359.0,0.022736371620930826
3358.0,0.022694492073961934
3357.0,0.02265649475738943
3356.0,0.022649091416286234
3355.0,0.02269336435639604
3354.0,0.022799472827620633
3353.0,0.022953443921910982
3352.0,0.02310956340362419
3351.0,0.023211609446758326
3350.0,0.023235697234020622
3349.0,0.02321159477131439
3348.0,0.023192214576465
3347.0,0.023198218414687423
3346.0,0.023198162836774252
3345.0,0.023148117928531647
3344.0,0.023044736614167803
3343.0,0.022930865306467874
3342.0,0.022852482444014072
3341.0,0.022823428557085735
3340.0,0.02283331771360748
3339.0,0.022871778494879588
3338.0,0.022930979980772263
3337.0,0.022992068682233347
3336.0,0.0230283437945939
3335.0,0.023029423339972117
3334.0,0.0230145297641046
3333.0,0.023014101019914017
3332.0,0.02303735553725534
3331.0,0.02305854723378271
3330.0,0.023037211683689104
3329.0,0.022957525232531875
3328.0,0.02285146087562321
3327.0,0.02277866450372228
3326.0,0.022776843082706735
3325.0,0.02283217084188996
3324.0,0.022898565048467337
3323.0,0.022940644384765754
3322.0,0.022956011697851414
3321.0,0.022965047869884785
3320.0,0.022987911062840975
3319.0,0.02302658738620616
3318.0,0.023061087777148836
3317.0,0.0230652202351641
3316.0,0.023033499597227728
3315.0,0.02299180421288701
3314.0,0.022974304036215396
3313.0,0.022988190095386992
3312.0,0.023006488462554032
3311.0,0.022996652875024035
3310.0,0.022952852948024183
3309.0,0.022900855094137394
3308.0,0.022875726319067476
3307.0,0.02289386010258863
3306.0,0.022939430053139868
3305.0,0.022973973615892204
3304.0,0.022963344837675544
3303.0,0.022902945160643715
3302.0,0.02282211725979909
3301.0,0.02276593635716686
3300.0,0.022767335933860315
3299.0,0.022824293111593053
3298.0,0.0228949266767498
3297.0,0.02292202435902779
3296.0,0.02287857612243969
3295.0,0.022794649584321237
3294.0,0.022734387318643128
3293.0,0.022742161701693606
3292.0,0.02280989268777268
3291.0,0.022893653142456775
3290.0,0.022954175278246572
3289.0,0.02297669759390701
3288.0,0.02296209631558296
3287.0,0.022914781699994863
3286.0,0.022844664584237354
3285.0,0.022774455541725372
3284.0,0.022734699986492662
3283.0,0.022743350015875703
3282.0,0.02278827534927638
3281.0,0.022833161229891267
3280.0,0.022843015922600626
3279.0,0.02280554244003492
3278.0,0.02273284155059029
3277.0,0.022648831083648558
3276.0,0.02257415977591062
3275.0,0.022515214165979874
3274.0,0.022462109070237057
3273.0,0.02240106044073093
3272.0,0.022333234465651847
3271.0,0.022278530634072344
3270.0,0.022256809059635764
3269.0,0.022267544092764126
3268.0,0.022291780961867867
3267.0,0.02231074065327124
3266.0,0.022316942834796443
3265.0,0.022310741773381042
3264.0,0.022295963987475444
3263.0,0.022279202722009343
3262.0,0.022264075365088003
3261.0,0.02224096224708577
3260.0,0.022188574716424114
3259.0,0.022096053796763077
3258.0,0.02198608949452332
3257.0,0.02190886727741505
3256.0,0.02190330079996922
3255.0,0.021960232213504495
3254.0,0.022024167475325745
3253.0,0.02203512189621114
3252.0,0.021971646758943423
3251.0,0.021856485370613542
3250.0,0.021727637278575282
3249.0,0.021608606110321255
3248.0,0.021504070796390835
3247.0,0.021416052133394058
3246.0,0.02135602358069221
3245.0,0.021336809472719934
3244.0,0.021355132037262647
3243.0,0.021388157111198784
3242.0,0.021409827727771197
3241.0,0.021408586789093454
3240.0,0.021387808785013947
3239.0,0.021352303919710786
3238.0,0.02130199461589017
3237.0,0.021241292808591293
3236.0,0.02118686023748939
3235.0,0.021157901799646342
3234.0,0.021158041297620327
3233.0,0.02117103894728391
3232.0,0.02117420611017972
3231.0,0.021152452483393015
3230.0,0.021101684535579347
3229.0,0.021026930118328912
3228.0,0.020940579680371777
3227.0,0.02085605148249435
3226.0,0.02077750221692875
3225.0,0.020699031349637693
3224.0,0.020619966496042818
3223.0,0.02055784622914072
3222.0,0.020536956479295283
3221.0,0.020559988491476226
3220.0,0.020596734147098283
3219.0,0.020608399405165387
3218.0,0.020583133619465496
3217.0,0.020541265916592184
3216.0,0.020506605916373925
3215.0,0.020482240308439825
3214.0,0.020456437801755833
3213.0,0.02042166224610087
3212.0,0.02037767018230069
3211.0,0.020321927840201218
3210.0,0.020251775630579127
3209.0,0.02017776642131206
3208.0,0.02012258156891379
3207.0,0.020100346111154615
3206.0,0.02010358201751855
3205.0,0.020113818961137463
3204.0,0.02011743667983779
3203.0,0.020106924485344766
3202.0,0.02007710583427247
3201.0,0.02003002595297567
3200.0,0.019976494978416102
3199.0,0.01992123124904174
3198.0,0.019850812411774152
3197.0,0.01975029870418418
3196.0,0.019631106424706085
3195.0,0.019528590658186826
3194.0,0.019467857408424778
3193.0,0.019440309901393702
3192.0,0.019414386638593552
3191.0,0.01936084436398463
3190.0,0.019268480385885117
3189.0,0.01915006325814362
3188.0,0.019042109757160624
3187.0,0.018987412476447457
3186.0,0.019001721099915714
3185.0,0.019054516006806004
3184.0,0.019090053175416552
3183.0,0.01907163555705734
3182.0,0.019005204254999897
3181.0,0.018924766013383235
3180.0,0.018860861871812896
3179.0,0.018819815851736466
3178.0,0.0187843123463771
3177.0,0.018731658224646362
3176.0,0.01865358862503327
3175.0,0.018558431003753935
3174.0,0.018455612723695343
3173.0,0.018344787976202894
3172.0,0.018225390055507752
3171.0,0.018113342969326884
3170.0,0.018038190968065908
3169.0,0.018017457451104443
3168.0,0.018036803155144276
3167.0,0.018060345979092996
3166.0,0.018060445045713948
3165.0,0.01803336904109682
3164.0,0.017986535525499777
3163.0,0.01791911576530034
3162.0,0.017823870020414592
3161.0,0.01770691331120232
3160.0,0.017595199460479282
3159.0,0.017516012611917642
3158.0,0.01746979921100395
3157.0,0.017429411884635673
3156.0,0.0173681032843948
3155.0,0.017285011679640278
3154.0,0.017202799045926667
3153.0,0.017144997911813946
3152.0,0.017117191331165897
3151.0,0.017105386775776027
3150.0,0.01708892071661838
3149.0,0.017057408770733282
3148.0,0.017017930993382082
3147.0,0.016983936110898355
3146.0,0.016956278577171423
3145.0,0.01691931758835847
3144.0,0.016857740638119883
3143.0,0.01677255702797498
3142.0,0.016677416934335672
3141.0,0.016585465686082854
3140.0,0.016505284712132886
3139.0,0.016443412852924888
3138.0,0.016400814130272594
3137.0,0.016367219354489277
3136.0,0.016326618096534847
3135.0,0.01627154877572606
3134.0,0.01620976321828464
3133.0,0.01615587311293968
3132.0,0.016119253738515294
3131.0,0.016101614722902786
3130.0,0.01610161008962895
3129.0,0.016114909878109575
3128.0,0.01612817580170971
3127.0,0.016117740845316617
3126.0,0.01606217933219631
3125.0,0.01596083812464829
3124.0,0.015839284104607623
3123.0,0.015732564606015007
3122.0,0.015659306664651575
3121.0,0.01561246806222509
3120.0,0.01557435468031252
3119.0,0.01553347296576325
3118.0,0.015485115458906573
3117.0,0.015426366028429485
3116.0,0.015360225272041342
3115.0,0.015301351831929669
3114.0,0.015267341365233576
3113.0,0.01526082668433339
3112.0,0.01526388525929261
3111.0,0.015252270086260376
3110.0,0.01521539282848628
3109.0,0.015165288297285202
3108.0,0.015127207225194974
3107.0,0.015115276140296924
3106.0,0.01511182580369664
3105.0,0.015076144976986946
3104.0,0.014985970390785294
3103.0,0.014870338532627717
3102.0,0.014789494571217171
3101.0,0.014778505350492733
3100.0,0.01481961327656732
3099.0,0.01487009258710282
3098.0,0.01490208248880033
3097.0,0.014910403969248448
3096.0,0.014896265073707761
3095.0,0.014856844446287435
3094.0,0.01478974817914943
3093.0,0.014701928213032858
3092.0,0.01461211240931094
3091.0,0.014542086660316554
3090.0,0.014499377615684136
3089.0,0.014468244049571217
3088.0,0.014426145903053973
3087.0,0.014370623477354839
3086.0,0.014320509789199479
3085.0,0.014286714150623187
3084.0,0.014252980396603516
3083.0,0.014196655152162126
3082.0,0.014124188117385132
3081.0,0.014073600026870359
3080.0,0.01407649352653418
3079.0,0.01412202848835422
3078.0,0.014164569951962597
3077.0,0.014166566542249546
3076.0,0.014128841527362407
3075.0,0.014078815660799396
3074.0,0.014035787289529346
3073.0,0.013995146961910208
3072.0,0.0139446871330287
3071.0,0.013883862837202488
3070.0,0.013819822478140186
3069.0,0.01375496252244747
3068.0,0.013692482292071442
3067.0,0.013648871035002248
3066.0,0.013642298840399619
3065.0,0.013664002823586551
3064.0,0.013676240227125144
3063.0,0.013647729992798122
3062.0,0.013584396146779972
3061.0,0.013520542726130812
3060.0,0.013484896202457464
3059.0,0.013476780287614377
3058.0,0.01346878905165486
3057.0,0.013431755376312374
3056.0,0.01336293234212246
3055.0,0.013290940372947608
3054.0,0.013247466190678275
3053.0,0.01323416353023614
3052.0,0.01322388139072652
3051.0,0.013192675079408862
3050.0,0.013141741650253256
3049.0,0.013087290073825895
3048.0,0.013040608845687002
3047.0,0.01300448512046417
3046.0,0.012979740711494617
3045.0,0.012964122753709662
3044.0,0.012947452652257625
3043.0,0.012916911494432672
3042.0,0.012869118373005396
3041.0,0.012812811198877255
3040.0,0.012758129058785529
3039.0,0.012705872793219245
3038.0,0.012648766582854397
3037.0,0.012582572080046319
3036.0,0.012514516942503117
3035.0,0.012458455632119433
3034.0,0.012421011532289113
3033.0,0.01239552746129932
3032.0,0.012370742015944427
3031.0,0.01234125793454427
3030.0,0.012306814867816766
3029.0,0.012267667141814778
3028.0,0.01222820179418502
3027.0,0.01220110043698469
3026.0,0.012197193512092952
3025.0,0.012209555341513956
3024.0,0.01221749901975853
3023.0,0.012208605594846334
3022.0,0.012187640794682077
3021.0,0.0121624115843097
3020.0,0.012132062613643314
3019.0,0.012093589814580924
3018.0,0.012050177854916315
3017.0,0.012007366286941256
3016.0,0.011968835905421412
3015.0,0.011940283778136879
3014.0,0.01192809557814167
3013.0,0.011927849061936393
3012.0,0.011922237015116265
3011.0,0.011898830209682455
3010.0,0.01186521643476282
3009.0,0.011840982997202825
3008.0,0.011839789105485143
3007.0,0.011862867683574948
3006.0,0.01190150353581085
3005.0,0.011938700338078576
3004.0,0.011955932692178739
3003.0,0.01194822575332299
3002.0,0.011929415828184313
3001.0,0.011915790350570981
3000.0,0.011909076739264397
2999.0,0.011902240341120937
2998.0,0.011897256275288379
2997.0,0.011906994116045733
2996.0,0.011939018773558362
2995.0,0.011984845371225357
2994.0,0.012027856748714053
2993.0,0.012058901877975826
2992.0,0.012084014143551921
2991.0,0.012120453056481134
2990.0,0.012185617626324342
2989.0,0.012286952858733519
2988.0,0.012420275168880423
2987.0,0.01257506231732791
2986.0,0.012738164558199507
2985.0,0.012895898729406016
2984.0,0.013043592097985782
2983.0,0.013198070673313394
2982.0,0.013391267766963921
2981.0,0.013641242359471312
2980.0,0.013934324296645133
2979.0,0.01424699216984195
2978.0,0.014583850808549011
2977.0,0.01498332191593501
2976.0,0.015484735265882128
2975.0,0.016098226701004276
2974.0,0.016809051051356792
2973.0,0.017602438833864427
2972.0,0.018476107681099647
2971.0,0.019430316403447098
2970.0,0.02045362388709392
2969.0,0.021525538974365314
2968.0,0.02263452225700586
2967.0,0.023786950152216157
2966.0,0.02498808695350859
2965.0,0.026210388941207734
2964.0,0.027387256058960495
2963.0,0.028445954706524987
2962.0,0.02934802206714887
2961.0,0.03009974469985322
2960.0,0.03073794101377071
2959.0,0.031325359484797914
2958.0,0.03196050766415827
2957.0,0.03276673376210354
2956.0,0.03384172228797049
2955.0,0.035202693669999736
2954.0,0.036774735357102774
2953.0,0.03842050083167522
2952.0,0.03996765657855929
2951.0,0.04121337024721162
2950.0,0.04193569342465008
2949.0,0.04194439950676549
2948.0,0.041155748938639485
2947.0,0.03963787218329666
2946.0,0.037592177292459845
2945.0,0.0352849590946088
2944.0,0.032973516587257
2943.0,0.03085898205936223
2942.0,0.02907457416383502
2941.0,0.027693419673553828
2940.0,0.02673978594636533
2939.0,0.026203045997586268
2938.0,0.026052114603202906
2937.0,0.026244981109705693
2936.0,0.026734126320006373
2935.0,0.027474245700780255
2934.0,0.028432564654256455
2933.0,0.02959413762323826
2932.0,0.03095555290499627
2931.0,0.03250920568178345
2930.0,0.03422639211720862
2929.0,0.03605006528630506
2928.0,0.03790642350776705
2927.0,0.039731744843771226
2926.0,0.04149560646986209
2925.0,0.04320267251188029
2924.0,0.044875999304803696
2923.0,0.0465401969684544
2922.0,0.048208991772384635
2921.0,0.04986101137060312
2920.0,0.051404220551655
2919.0,0.052667532640041224
2918.0,0.05345488348819044
2917.0,0.05363268902826552
2916.0,0.05317592070491952
2915.0,0.05215239536134419
2914.0,0.05069063861616277
2913.0,0.04896416660575631
2912.0,0.04716517427625731
2911.0,0.04544762951270053
2910.0,0.04388373300794332
2909.0,0.04247174527566381
2908.0,0.04117641390932144
2907.0,0.0399569271178054
2906.0,0.038773657183948075
2905.0,0.03759591466852596
2904.0,0.03641412405063721
2903.0,0.03524216366546254
2902.0,0.03410426760758108
2901.0,0.03302019114989903
2900.0,0.03199531194467909
2899.0,0.03102456495845194
2898.0,0.030105264506995875
2897.0,0.02924888889630204
2896.0,0.028479660913626973
2895.0,0.027817532018418304
2894.0,0.02726844052943121
2893.0,0.026833426560254173
2892.0,0.026519165083359737
2891.0,0.02632909951103767
2890.0,0.026246873772159254
2889.0,0.02624007147541738
2888.0,0.026284446868454794
2887.0,0.02637872443411871
2886.0,0.026534855259973882
2885.0,0.026762058833727686
2884.0,0.027063566783578467
2883.0,0.027439417054836508
2882.0,0.02788017844396493
2881.0,0.028355155851942856
2880.0,0.028810044620549487
2879.0,0.029180008173695274
2878.0,0.029412949682852074
2877.0,0.0294920899787429
2876.0,0.029445098073317306
2875.0,0.029332376322615074
2874.0,0.029224938644700195
2873.0,0.02919011660240023
2872.0,0.029284369911194125
2871.0,0.02953661119466021
2870.0,0.029920592367950492
2869.0,0.030340051442499592
2868.0,0.030646925584925017
2867.0,0.03068198800629658
2866.0,0.030315199753951687
2865.0,0.02948021255112119
2864.0,0.028201228438801455
2863.0,0.026597779766442495
2862.0,0.024853599515566708
2861.0,0.023158593548721323
2860.0,0.02165619275884964
2859.0,0.02042017421256605
2858.0,0.019463161563713346
2857.0,0.018761311563155313
2856.0,0.018278248337108567
2855.0,0.017980619898861128
2854.0,0.017843034032313056
2853.0,0.017846125508050963
2852.0,0.01797373460496793
2851.0,0.0182126052329427
2850.0,0.01855584063884795
2849.0,0.01900858208796255
2848.0,0.019588827612316607
2847.0,0.020315581712164976
2846.0,0.021190632692257527
2845.0,0.022191254124393777
2844.0,0.023278218670849372
2843.0,0.02440348378196028
2842.0,0.025506037012697994
2841.0,0.02650808427850833
2840.0,0.027321920086388757
2839.0,0.027859187421581277
2838.0,0.02803469200664629
2837.0,0.027777572300208747
2836.0,0.027061440827199964
2835.0,0.025933401801484398
2834.0,0.024512950701961744
2833.0,0.02295752517738081
2832.0,0.02141813918393125
2831.0,0.020006799970683258
2830.0,0.018782252580943817
2829.0,0.017753389193175192
2828.0,0.01689874304862452
2827.0,0.016191625456993968
2826.0,0.015612656910555533
2825.0,0.015144650411779752
2824.0,0.014764822447263928
2823.0,0.014447806281759873
2822.0,0.014174932056350092
2821.0,0.013938494423516058
2820.0,0.01373611488010867
2819.0,0.013560205571184182
2818.0,0.013393898649393679
2817.0,0.013223083599953642
2816.0,0.013055609477770085
2815.0,0.012919698478990056
2814.0,0.012832657566369534
2813.0,0.012775038656458028
2812.0,0.01270865257982001
2811.0,0.012619416820114268
2810.0,0.012527606474783983
2809.0,0.012451968129714448
2808.0,0.01237851157449784
2807.0,0.012275088245264408
2806.0,0.012127279787695
2805.0,0.01194904680403244
2804.0,0.011765300370652447
2803.0,0.011597046584673948
2802.0,0.011461008619348916
2801.0,0.011368906502089935
2800.0,0.0113194088621839
2799.0,0.011295256841714634
2798.0,0.011273154303716575
2797.0,0.011238076262066948
2796.0,0.01119027822955264
2795.0,0.011140711986640453
2794.0,0.011098141261766718
2793.0,0.011058262372024242
2792.0,0.011006709983163401
2791.0,0.010934519182022779
2790.0,0.010848393847337493
2789.0,0.010763421341493174
2788.0,0.010687787202746102
2787.0,0.01061797192482266
2786.0,0.010548109437204934
2785.0,0.01048093206655253
2784.0,0.010427531475888003
2783.0,0.010395393889959189
2782.0,0.010376995538546478
2781.0,0.0103538244098925
2780.0,0.010314780132010374
2779.0,0.010266982895490159
2778.0,0.010223114087241083
2777.0,0.010182304945326997
2776.0,0.010133493993091314
2775.0,0.010077136264367226
2774.0,0.010031620397019339
2773.0,0.010013079720075325
2772.0,0.010017573679317476
2771.0,0.010028245843842973
2770.0,0.010031917945161688
2769.0,0.010022577023141606
2768.0,0.009997326089419781
2767.0,0.00995878551832145
2766.0,0.009916720027934459
2765.0,0.009878559661459193
2764.0,0.009841597012209876
2763.0,0.009802455091867312
2762.0,0.009770603083810532
2761.0,0.009762585778225046
2760.0,0.009782861815880471
2759.0,0.009818104485378322
2758.0,0.009850176695634013
2757.0,0.009867626230630649
2756.0,0.009864785975844776
2755.0,0.009839011733853056
2754.0,0.009794117759490196
2753.0,0.009742182535391374
2752.0,0.009697033462959253
2751.0,0.009665852048573856
2750.0,0.009647440043103146
2749.0,0.00963665259978076
2748.0,0.00962987433310893
2747.0,0.00962786028372729
2746.0,0.009633806573695959
2745.0,0.009647598679801028
2744.0,0.009662322732628738
2743.0,0.00966826089063832
2742.0,0.00966116348143317
2741.0,0.009646296008758468
2740.0,0.009634215734643995
2739.0,0.009632101373860717
2738.0,0.009638635705262709
2737.0,0.009648113565086124
2736.0,0.009660003834264345
2735.0,0.009681676617195262
2734.0,0.009718654783598034
2733.0,0.009764856894840211
2732.0,0.009807782762062721
2731.0,0.009842655837848475
2730.0,0.009875974119790873
2729.0,0.009915148804308794
2728.0,0.009960265447193185
2727.0,0.010006213340114107
2726.0,0.010046557397506593
2725.0,0.010074204915143273
2724.0,0.010084810918346527
2723.0,0.010081290175108323
2722.0,0.010068717474401741
2721.0,0.010043791824457101
2720.0,0.009997750169697697
2719.0,0.009932427216710253
2718.0,0.009864314023248966
2717.0,0.009807254018892372
2716.0,0.009758820754534048
2715.0,0.009709282149018606
2714.0,0.009655795290355892
2713.0,0.009600787684367038
2712.0,0.009544398456769741
2711.0,0.00948806590848779
2710.0,0.009439499438877098
2709.0,0.00940355991892489
2708.0,0.009371849774349603
2707.0,0.009331679267294012
2706.0,0.009283685454025255
2705.0,0.009241579461605835
2704.0,0.009215480062297712
2703.0,0.009203439993287274
2702.0,0.009198119075408073
2701.0,0.009192951343760098
2700.0,0.00918117754370993
2699.0,0.009157099312144626
2698.0,0.00912162755297913
2697.0,0.009082879744980087
2696.0,0.009050505830601812
2695.0,0.009031749924932352
2694.0,0.009030515305764288
2693.0,0.009044897852606771
2692.0,0.009066271290375624
2691.0,0.009084655542858913
2690.0,0.009093735671745677
2689.0,0.009089289258204725
2688.0,0.009069187966509124
2687.0,0.009041235014581355
2686.0,0.009024696478012774
2685.0,0.009033096258010935
2684.0,0.00905673780042773
2683.0,0.009071126055129828
2682.0,0.009062421135876703
2681.0,0.009036759374647279
2680.0,0.009006219298261195
2679.0,0.008976200429585681
2678.0,0.008948757100983919
2677.0,0.00892844927240845
2676.0,0.00891930902293388
2675.0,0.00892085387673876
2674.0,0.008929779714687475
2673.0,0.008941059030873198
2672.0,0.00894653335352811
2671.0,0.008939488958411698
2670.0,0.008924399342019778
2669.0,0.008916914758241912
2668.0,0.008929279030091795
2667.0,0.008957825653172612
2666.0,0.00898721716773711
2665.0,0.009005040601850619
2664.0,0.009010892932438553
2663.0,0.009013690992318727
2662.0,0.009021771687020246
2661.0,0.009034306019512306
2660.0,0.009042571188704792
2659.0,0.009041164763630743
2658.0,0.009035854883051161
2657.0,0.00903598321477618
2656.0,0.009040211769969745
2655.0,0.009035497227714462
2654.0,0.009011230183954822
2653.0,0.008969848874577104
2652.0,0.008922349646378162
2651.0,0.008877873010644816
2650.0,0.00883918064643856
2649.0,0.008803850484062263
2648.0,0.008766637014879288
2647.0,0.008722341913268258
2646.0,0.008668586717803805
2645.0,0.008607309991158933
2644.0,0.008547192472072968
2643.0,0.008505555173190849
2642.0,0.00849908133033403
2641.0,0.008522187184489362
2640.0,0.008538623204577109
2639.0,0.008509398389745175
2638.0,0.008434317671232917
2637.0,0.008357059901468946
2636.0,0.00832331171902445
2635.0,0.008340195611434094
2634.0,0.008380010950869243
2633.0,0.008413775955119641
2632.0,0.008432403867313157
2631.0,0.008441093455113995
2630.0,0.008444934409333736
2629.0,0.008441852362189072
2628.0,0.008423919957880442
2627.0,0.008384574453943656
2626.0,0.008327815609923067
2625.0,0.008269357175585405
2624.0,0.008224257786495784
2623.0,0.008192836136560818
2622.0,0.008161836625389602
2621.0,0.008119651726182918
2620.0,0.008067554986439511
2619.0,0.008016013197271047
2618.0,0.007973977300128055
2617.0,0.007944610230338559
2616.0,0.007929517744483746
2615.0,0.00793180873135597
2614.0,0.007950753181219733
2613.0,0.007974421836393172
2612.0,0.007983583555605814
2611.0,0.007967950805507867
2610.0,0.007937433094789729
2609.0,0.007912566048116075
2608.0,0.007901690511410122
2607.0,0.007889573589338146
2606.0,0.007851275128623401
2605.0,0.007778730560967969
2604.0,0.0076939162689240535
2603.0,0.00763383087285336
2602.0,0.007618721817925316
2601.0,0.00763306826354976
2600.0,0.007640087143715588
2599.0,0.007617692124795268
2598.0,0.007579480554614031
2597.0,0.007559061610770813
2596.0,0.007575249605020035
2595.0,0.007614494242282952
2594.0,0.007645969347121893
2593.0,0.007650976270607849
2592.0,0.007637010580389335
2591.0,0.007625319263752968
2590.0,0.007629166233507671
2589.0,0.007647854270776078
2588.0,0.007678193638157575
2587.0,0.007720471546205011
2586.0,0.007767426463740753
2585.0,0.007797327675711429
2584.0,0.007790870525169238
2583.0,0.007752033858441313
2582.0,0.007701448401137954
2581.0,0.007652872974891358
2580.0,0.007609652761373174
2579.0,0.0075807101150783315
2578.0,0.00757870011430338
2577.0,0.0075951880551039744
2576.0,0.007595848991798248
2575.0,0.007554660525918149
2574.0,0.007484679212058176
2573.0,0.007425476750439095
2572.0,0.007406723557142255
2571.0,0.007428919925111285
2570.0,0.007467828132112829
2569.0,0.007489140679541841
2568.0,0.007471335564771503
2567.0,0.00742672446372152
2566.0,0.00739181980764338
2565.0,0.00738654148116228
2564.0,0.007392122174028683
2563.0,0.007380127490274908
2562.0,0.007351228967568513
2561.0,0.007328362945611519
2560.0,0.007319471516804316
2559.0,0.0073074825154074135
2558.0,0.007278024641182072
2557.0,0.00724137522850361
2556.0,0.00722140174071057
2555.0,0.007229406941641224
2554.0,0.007250501390307664
2553.0,0.007253077397572076
2552.0,0.007215970001690277
2551.0,0.0071502697964450825
2550.0,0.007088975548240967
2549.0,0.007053016836798955
2548.0,0.007037121061668953
2547.0,0.007031016296112134
2546.0,0.007036681964410249
2545.0,0.007055018059739704
2544.0,0.007075046884898482
2543.0,0.007093696879991663
2542.0,0.007129071423554506
2541.0,0.0071902266484292435
2540.0,0.007245493427758206
2539.0,0.007248792238531622
2538.0,0.007194955981186831
2537.0,0.00712567327739169
2536.0,0.007081103801699767
2535.0,0.007066684461902121
2534.0,0.007066597310340612
2533.0,0.007065861120068032
2532.0,0.007054744605844463
2531.0,0.007032787542845056
2530.0,0.007016039055971328
2529.0,0.007023668444797652
2528.0,0.007050703531044568
2527.0,0.007068301204360973
2526.0,0.00705598389822858
2525.0,0.007019533991691019
2524.0,0.0069734101418163184
2523.0,0.006922794651667867
2522.0,0.006871521736341911
2521.0,0.006832735334591184
2520.0,0.006819031062943718
2519.0,0.006828631801621514
2518.0,0.006848380030371897
2517.0,0.006864727996502161
2516.0,0.006869224669775924
2515.0,0.006862114094161537
2514.0,0.0068546877641574785
2513.0,0.006860505269346369
2512.0,0.006880930258425415
2511.0,0.006905311922774845
2510.0,0.006924184093637117
2509.0,0.0069321394592011115
2508.0,0.006919500744689059
2507.0,0.006877773796859018
2506.0,0.006819951812685817
2505.0,0.006781881014959856
2504.0,0.006791336507803208
2503.0,0.0068392851122281405
2502.0,0.006887220216727989
2501.0,0.0069002520370271755
2500.0,0.006872797326077575
2499.0,0.006828556112361784
2498.0,0.006797444245145943
2497.0,0.00678713513538947
2496.0,0.006777254098397412
2495.0,0.006748441951841764
2494.0,0.006713917273706996
2493.0,0.006709162957704608
2492.0,0.006747610749422208
2491.0,0.006800017631725089
2490.0,0.006826100322020363
2489.0,0.006818050211630046
2488.0,0.006803635794911948
2487.0,0.006810112984085605
2486.0,0.006834749204687912
2485.0,0.006853553245235941
2484.0,0.006853762428539915
2483.0,0.006848743476002875
2482.0,0.006853694994606939
2481.0,0.006852221647071301
2480.0,0.006804883601597984
2479.0,0.006699966957428749
2478.0,0.006581243772948193
2477.0,0.0065083000643118335
2476.0,0.006496189068385214
2475.0,0.006511132290640885
2474.0,0.006520698519559669
2473.0,0.006526768041258398
2472.0,0.006547237194148621
2471.0,0.006585082475202596
2470.0,0.00662385434427588
2469.0,0.006641331795823161
2468.0,0.006622514353061204
2467.0,0.006572225798603308
2466.0,0.0065212885226091965
2465.0,0.006507464915185109
2464.0,0.006539546710381877
2463.0,0.0065871873597245076
2462.0,0.006614643153675138
2461.0,0.006619592768063818
2460.0,0.006632008722853132
2459.0,0.0066771477701864385
2458.0,0.006744721248801145
2457.0,0.0067943853597331825
2456.0,0.00679178357370944
2455.0,0.00674061992033499
2454.0,0.0066770441125753345
2453.0,0.006631449399637646
2452.0,0.006603147969020469
2451.0,0.006577763203601166
2450.0,0.006556955243501514
2449.0,0.006555186600874666
2448.0,0.00657418792105246
2447.0,0.006600128802091785
2446.0,0.006624249896769537
2445.0,0.006646061345212684
2444.0,0.006654398642142833
2443.0,0.006627473734370648
2442.0,0.006562130903943433
2441.0,0.0064882036872632
2440.0,0.0064427842621943105
2439.0,0.006438684737926531
2438.0,0.006463117616512568
2437.0,0.006495078894947974
2436.0,0.006518414422460461
2435.0,0.006530690897537667
2434.0,0.006546727129874913
2433.0,0.006582064207378028
2432.0,0.006627031665371503
2431.0,0.006650528239274069
2430.0,0.006636822902868908
2429.0,0.006603340551897022
2428.0,0.006571484275742168
2427.0,0.006536840338007828
2426.0,0.006486795778587188
2425.0,0.006435350047578792
2424.0,0.00641533848000851
2423.0,0.006435793752575416
2422.0,0.006466446106739549
2421.0,0.006470742408723484
2420.0,0.006442834731839486
2419.0,0.006406758124818954
2418.0,0.006388331815211877
2417.0,0.006393988673321764
2416.0,0.00641150161701727
2415.0,0.006424226919883106
2414.0,0.0064241291946735965
2413.0,0.006413761874030494
2412.0,0.0063988570053988125
2411.0,0.006382497330016298
2410.0,0.006367045470916611
2409.0,0.00635664448745533
2408.0,0.006353148387105203
2407.0,0.006351987382721546
2406.0,0.006347142667106406
2405.0,0.0063400537179925725
2404.0,0.0063399016287790004
2403.0,0.006353991495131932
2402.0,0.006379241785192995
2401.0,0.006403209080403757
2400.0,0.006412740267786906
2399.0,0.0064025338215004035
2398.0,0.006377065522758821
2397.0,0.006346299382965308
2396.0,0.006321318689055354
2395.0,0.006313204611605172
2394.0,0.006330091398412076
2393.0,0.006368903110529797
2392.0,0.006411523993925277
2391.0,0.0064367158737473245
2390.0,0.006439843745784112
2389.0,0.0064382595577351116
2388.0,0.006454304266317821
2387.0,0.006493647315087544
2386.0,0.006541558807900838
2385.0,0.0065792064575075
2384.0,0.00660179094330961
2383.0,0.006618437279450518
2382.0,0.006632077542166361
2381.0,0.0066228931549595855
2380.0,0.006562861269851006
2379.0,0.006454091525214124
2378.0,0.006343144823592014
2377.0,0.006280459284234591
2376.0,0.006266537018133974
2375.0,0.0062582245733988975
2374.0,0.0062313615456272625
2373.0,0.00622001394821248
2372.0,0.006278443421024584
2371.0,0.006417873204365488
2370.0,0.006596274385652843
2369.0,0.006760659154783537
2368.0,0.0068775547805390545
2367.0,0.006926126449285699
2366.0,0.006886323785061889
2365.0,0.006758697812521611
2364.0,0.006598955746334922
2363.0,0.006522660455666297
2362.0,0.006625137405866145
2361.0,0.006861504439056391
2360.0,0.0070537185884240045
2359.0,0.007048446298299323
2358.0,0.006866828643108922
2357.0,0.006675165005995316
2356.0,0.006584418260402039
2355.0,0.006572290654090532
2354.0,0.0065614262518034795
2353.0,0.006547023179216508
2352.0,0.006597871243971722
2351.0,0.0067354421510263385
2350.0,0.006899708288422452
2349.0,0.00700246425271544
2348.0,0.007017310427361339
2347.0,0.007004592769183826
2346.0,0.007037630319488454
2345.0,0.007137362520852382
2344.0,0.007245667486408617
2343.0,0.007331246103131102
2342.0,0.0073699648406696395
2341.0,0.007333068644644877
2340.0,0.007232746948843426
2339.0,0.0071099772828355084
2338.0,0.0070153377578956394
2337.0,0.006965821828631
2336.0,0.006960644809855561
2335.0,0.006967361974531355
2334.0,0.006961544325825773
2333.0,0.006925869837672115
2332.0,0.006889104389710168
2331.0,0.006869164973606667
2330.0,0.0069079432734360045
2329.0,0.007028725068545647
2328.0,0.007248707878693594
2327.0,0.007520731397696554
2326.0,0.007740468879325366
2325.0,0.00781701270240209
2324.0,0.007723674017004993
2323.0,0.007514410848141301
2322.0,0.0072599329694896225
2321.0,0.007014948136682774
2320.0,0.006838431180470078
2319.0,0.00677420124572256
2318.0,0.006837637430877346
2317.0,0.006973197407168412
2316.0,0.007122636976214665
2315.0,0.007242070711185966
2314.0,0.007332956136623386
2313.0,0.007387471921955761
2312.0,0.007409417656338582
2311.0,0.007405571269728533
2310.0,0.007400723686715287
2309.0,0.007390716191157727
2308.0,0.007352718120326084
2307.0,0.007265299341152798
2306.0,0.007151493439327164
2305.0,0.0070574938300788075
2304.0,0.007024801192101552
2303.0,0.0070518329607172515
2302.0,0.007104461593941366
2301.0,0.007130085730966441
2300.0,0.007109054149388413
2299.0,0.0070657122080998854
2298.0,0.007048932401500756
2297.0,0.007069703718781987
2296.0,0.007097359860479056
2295.0,0.007101168095049763
2294.0,0.0070885203364979684
2293.0,0.007075400791925449
2292.0,0.007047768769153103
2291.0,0.006981014838786973
2290.0,0.00689007435894757
2289.0,0.006830556025288405
2288.0,0.006837364651299105
2287.0,0.006888187345677466
2286.0,0.006931690162521074
2285.0,0.00693871011583096
2284.0,0.0069102608125197985
2283.0,0.00685441505170899
2282.0,0.006771581836715262
2281.0,0.006666169046579321
2280.0,0.006561183909896889
2279.0,0.0064954656735861
2278.0,0.006500238473719016
2277.0,0.006568414486475118
2276.0,0.006647364223920772
2275.0,0.006667031799823246
2274.0,0.006587456348194349
2273.0,0.0064276347499843695
2272.0,0.006259213991629328
2271.0,0.0061645022796140165
2270.0,0.006180248711193851
2269.0,0.006266194513122442
2268.0,0.006336318368161204
2267.0,0.006333099047503377
2266.0,0.006267608783217893
2265.0,0.006189246424369575
2264.0,0.006139956820764308
2263.0,0.006147434167486286
2262.0,0.00623094392331517
2261.0,0.006378304850681143
2260.0,0.006523815279650923
2259.0,0.0065852449120092455
2258.0,0.006528506207613664
2257.0,0.006386985214374903
2256.0,0.006224357591806367
2255.0,0.0060945362504109726
2254.0,0.006030306583936827
2253.0,0.00603555934731343
2252.0,0.006079851978612465
2251.0,0.006118852816524895
2250.0,0.0061336840205657925
2249.0,0.006142617205414592
2248.0,0.006174244666723338
2247.0,0.00623533294488168
2246.0,0.00630319239263763
2245.0,0.006342203703993321
2244.0,0.00633176636436135
2243.0,0.006284165652314558
2242.0,0.006230443744208903
2241.0,0.0061884300007978505
2240.0,0.006155794839650556
2239.0,0.006132649118172125
2238.0,0.006123877051929858
2237.0,0.006110947560095744
2236.0,0.006057035136631106
2235.0,0.005965445218732636
2234.0,0.005902319207038735
2233.0,0.0059272413355720924
2232.0,0.006021616805420855
2231.0,0.00611969186556618
2230.0,0.006185923809118274
2229.0,0.00622322730904458
2228.0,0.006232622038905171
2227.0,0.006218794762506486
2226.0,0.006224605931214686
2225.0,0.0063010633113568274
2224.0,0.006431386177093338
2223.0,0.006526560761952585
2222.0,0.006506508472049883
2221.0,0.006360470712271564
2220.0,0.006133208002212967
2219.0,0.00588779303721566
2218.0,0.005684669541846189
2217.0,0.00555750364731857
2216.0,0.005498109396266682
2215.0,0.0054926343915694285
2214.0,0.005564192066255349
2213.0,0.0057388282847789214
2212.0,0.005976756738063969
2211.0,0.006186738411713996
2210.0,0.006309320876793295
2209.0,0.006345535850826597
2208.0,0.0063103953396081575
2207.0,0.006209609118746201
2206.0,0.0060696680722663494
2205.0,0.005937190219123646
2204.0,0.005827491836415674
2203.0,0.005719546372210548
2202.0,0.005620531942668733
2201.0,0.005588084433737216
2200.0,0.0056641102282863065
2199.0,0.005826229585088748
2198.0,0.00602019034219575
2197.0,0.00619441870832843
2196.0,0.006288655669206809
2195.0,0.006244130877298575
2194.0,0.0060654695672461584
2193.0,0.005843859217291796
2192.0,0.005682769925121313
2191.0,0.005620882629990179
2190.0,0.005646999718869869
2189.0,0.0057435609195125754
2188.0,0.0058777895814184685
2187.0,0.005985299065495777
2186.0,0.006007079170614893
2185.0,0.005937537843738387
2184.0,0.005822048375441057
2183.0,0.005725827004347951
2182.0,0.005711911362634215
2181.0,0.005799552030888815
2180.0,0.005914964983958467
2179.0,0.005931636575022287
2178.0,0.005797999576533612
2177.0,0.005599538043649111
2176.0,0.005458071519150189
2175.0,0.005401512269422154
2174.0,0.005383719374813479
2173.0,0.005389274059578919
2172.0,0.005450782261321304
2171.0,0.005579494958202243
2170.0,0.005734908855260184
2169.0,0.005860937538367356
2168.0,0.005917514505542803
2167.0,0.0058893852835354985
2166.0,0.005813006788697847
2165.0,0.005785597902518214
2164.0,0.005867265137455935
2163.0,0.005946204424601554
2162.0,0.005766752872185316
2161.0,0.00517327962480251
2160.0,0.004343519917177316
2159.0,0.003687501440877934
2158.0,0.00348600310134943
2157.0,0.0036884387895624346
2156.0,0.0040310591352294275
2155.0,0.004276748370383509
2154.0,0.004360862700096856
2153.0,0.0043845158004183595
2152.0,0.004477749705387636
2151.0,0.0046471028305486205
2150.0,0.0047691802682463605
2149.0,0.004744439821651296
2148.0,0.004629857884993567
2147.0,0.004576448382607208
2146.0,0.004654774001579072
2145.0,0.004794115626024394
2144.0,0.004893263813466998
2143.0,0.004935192349848016
2142.0,0.004966752153954822
2141.0,0.005013257433372229
2140.0,0.005050561951924236
2139.0,0.0050365376835151176
2138.0,0.004937205902142356
2137.0,0.0047450211885438015
2136.0,0.004507676857040132
2135.0,0.004320713634241541
2134.0,0.004255580538615178
2133.0,0.004302209739603076
2132.0,0.004407391190913771
2131.0,0.004550967621476915
2130.0,0.004743536934892256
2129.0,0.004959285129147373
2128.0,0.005122877164020773
2127.0,0.005181233526110693
2126.0,0.005158243010299288
2125.0,0.005123190422442865
2124.0,0.005122563049445822
2123.0,0.0051529360050587645
2122.0,0.005183805868698732
2121.0,0.005193049005561296
2120.0,0.005189340037174147
2119.0,0.005205641152983729
2118.0,0.00526366573358289
2117.0,0.005347885652589788
2116.0,0.005427992688507519
2115.0,0.005499058579958492
2114.0,0.005573387804528437
2113.0,0.005635938015074841
2112.0,0.005642835131264846
2111.0,0.005573011599688315
2110.0,0.005452443515496016
2109.0,0.005320860052879187
2108.0,0.005206228250594438
2107.0,0.005142530657690532
2106.0,0.005169684383027646
2105.0,0.0052810833313958645
2104.0,0.005400729413961786
2103.0,0.005452262973291573
2102.0,0.005434531887868677
2101.0,0.00540047595013572
2100.0,0.005379539502176326
2099.0,0.005356413190974273
2098.0,0.005317901503503795
2097.0,0.005281155820148772
2096.0,0.005266667696984027
2095.0,0.005270872418336915
2094.0,0.005275776980885021
2093.0,0.005269037061362662
2092.0,0.0052465102006281055
2091.0,0.005205606386420087
2090.0,0.005146902382013866
2089.0,0.005086803517753647
2088.0,0.005066142684271113
2087.0,0.005131713448476029
2086.0,0.005290898907953398
2085.0,0.005485130602420051
2084.0,0.00563002584382011
2083.0,0.005685648458647567
2082.0,0.005671318583681636
2081.0,0.0056233829351585015
2080.0,0.00556854919046079
2079.0,0.005531995278945001
2078.0,0.005528615161832492
2077.0,0.005534882041214065
2076.0,0.005507601456875372
2075.0,0.005446244692649005
2074.0,0.00539630547232122
2073.0,0.005377636500449986
2072.0,0.0053569147010621545
2071.0,0.005313118099550757
2070.0,0.005280803406504375
2069.0,0.005290759211701716
2068.0,0.005313951997012655
2067.0,0.00530919842457221
2066.0,0.005286843959840776
2065.0,0.0052757929925134365
2064.0,0.005261004443875936
2063.0,0.005213215785629152
2062.0,0.005154265459553372
2061.0,0.005136419751287862
2060.0,0.005173047441768417
2059.0,0.005231047119473193
2058.0,0.005273202030643324
2057.0,0.005272409872512464
2056.0,0.005220578847811643
2055.0,0.0051723720545384854
2054.0,0.005237643412485525
2053.0,0.005455879324094803
2052.0,0.005699528015973733
2051.0,0.005776250508217922
2050.0,0.0056382263590037075
2049.0,0.00543619054100536
2048.0,0.005330901925209591
2047.0,0.005320815182801089
2046.0,0.005307806928048038
2045.0,0.005235684058311057
2044.0,0.005105862271346134
2043.0,0.004926993538713432
2042.0,0.004724788285704619
2041.0,0.004576911080424931
2040.0,0.004574194173404162
2039.0,0.004740885847136425
2038.0,0.005003319046786331
2037.0,0.005214231161372122
2036.0,0.005233339518874262
2035.0,0.00503949369347366
2034.0,0.004762468938784268
2033.0,0.004570558692757561
2032.0,0.004522012515288097
2031.0,0.004559280408534282
2030.0,0.004626466072268068
2029.0,0.004725358654858154
2028.0,0.004858597718613772
2027.0,0.00497534041959122
2026.0,0.005000566696699538
2025.0,0.004905061280030916
2024.0,0.004747529015355181
2023.0,0.0046385435204272145
2022.0,0.004651571792695263
2021.0,0.004753684642977172
2020.0,0.004836107320117987
2019.0,0.0048195936598975355
2018.0,0.00470143618121749
2017.0,0.004505486350710299
2016.0,0.004241660713074054
2015.0,0.003947067802203553
2014.0,0.0037267188384865163
2013.0,0.0037053919348036314
2012.0,0.003924495047143906
2011.0,0.0042918395791656004
2010.0,0.004625619231499004
2009.0,0.0047666102385454144
2008.0,0.004717527838314791
2007.0,0.004650536966222694
2006.0,0.004699987660416743
2005.0,0.004785229224799769
2004.0,0.0047329782019685206
2003.0,0.004534961780645749
2002.0,0.004364112321384135
2001.0,0.004335253581625956
2000.0,0.0043719097648325655
1999.0,0.004363882887706943
1998.0,0.004326858160475339
1997.0,0.0043299607613164716
1996.0,0.00436280594491439
1995.0,0.004380818647871888
1994.0,0.004410465514844365
1993.0,0.004501863779463962
1992.0,0.004608508237113363
1991.0,0.004639512483249733
1990.0,0.004610140134467367
1989.0,0.004607913506050171
1988.0,0.004655735495620618
1987.0,0.004713415449267531
1986.0,0.004778758396758975
1985.0,0.004887907094120575
1984.0,0.005028816515891534
1983.0,0.005144343197327061
1982.0,0.005215994952343966
1981.0,0.005262281798372371
1980.0,0.005257380010446153
1979.0,0.005141819407431135
1978.0,0.004921620410501928
1977.0,0.004677214147010958
1976.0,0.004456255967796902
1975.0,0.004259734934740185
1974.0,0.0041272755646808955
1973.0,0.0041212129498931355
1972.0,0.004217497991585875
1971.0,0.004315138819126716
1970.0,0.004365745248765798
1969.0,0.004413784417734394
1968.0,0.004496191913011702
1967.0,0.004564314782261473
1966.0,0.004545640099907476
1965.0,0.004437026346757673
1964.0,0.004295482735170452
1963.0,0.004182555118840138
1962.0,0.004130740240030156
1961.0,0.004119093676658312
1960.0,0.004097548434109881
1959.0,0.004070035582879419
1958.0,0.004114544012400671
1957.0,0.004275052691990406
1956.0,0.004467240495683091
1955.0,0.004550380998953883
1954.0,0.004479707714183121
1953.0,0.004339644491593424
1952.0,0.004236287552642402
1951.0,0.0042100484669864964
1950.0,0.004251187909335053
1949.0,0.004326917797594561
1948.0,0.0043888224098640035
1947.0,0.004397274070259975
1946.0,0.004349410207550316
1945.0,0.00426867558817169
1944.0,0.004181170360919812
1943.0,0.004124721389150441
1942.0,0.004143286168876574
1941.0,0.004228051097559601
1940.0,0.004305530743411759
1939.0,0.0043127258922875215
1938.0,0.004261880223402067
1937.0,0.004213545733727998
1936.0,0.004193277256328599
1935.0,0.004171083923859069
1934.0,0.004123654060358518
1933.0,0.004076378293773538
1932.0,0.00406930316222453
1931.0,0.004109727568891431
1930.0,0.004173621393966639
1929.0,0.004220292230412578
1928.0,0.004225827936824436
1927.0,0.004215962877888514
1926.0,0.004249726771247877
1925.0,0.004362259508892942
1924.0,0.004507742675979871
1923.0,0.004594396855401024
1922.0,0.0045744500148358295
1921.0,0.004482919428418709
1920.0,0.00437999482734039
1919.0,0.00432166184089755
1918.0,0.00435390756861568
1917.0,0.004452874447206633
1916.0,0.004530706658971776
1915.0,0.004534629020208055
1914.0,0.004484457523045182
1913.0,0.0044419180824318396
1912.0,0.004453018007298576
1911.0,0.004525578743362664
1910.0,0.004639750425828091
1909.0,0.004741690619216191
1908.0,0.004768914767731342
1907.0,0.0047084031250734775
1906.0,0.004605775006030637
1905.0,0.004521648127084371
1904.0,0.004475632731069512
1903.0,0.004464142501434869
1902.0,0.004489156326702129
1901.0,0.004539805711038231
1900.0,0.004579629994153711
1899.0,0.004582182613810679
1898.0,0.004559548646354276
1897.0,0.004541422074154554
1896.0,0.004531726556622254
1895.0,0.004524607679509772
1894.0,0.0045349450076806255
1893.0,0.004573820764820849
1892.0,0.0046149479999429924
1891.0,0.004623821260311572
1890.0,0.004603435485848264
1889.0,0.004575964850468557
1888.0,0.004541590618675364
1887.0,0.004494778061457431
1886.0,0.004453782349311233
1885.0,0.00444746559040498
1884.0,0.00447015729019268
1883.0,0.00448571372642242
1882.0,0.004480426882418294
1881.0,0.004466830718382208
1880.0,0.004448490378173296
1879.0,0.0044128912716978625
1878.0,0.00436307977567245
1877.0,0.004332608617132945
1876.0,0.004342846309118331
1875.0,0.004371902626955658
1874.0,0.004386275002520727
1873.0,0.004375342871397417
1872.0,0.004347491951057502
1871.0,0.004317388661949311
1870.0,0.004310129965019698
1869.0,0.004342697131949262
1868.0,0.004387354869412376
1867.0,0.004420999514571074
1866.0,0.004453731243630948
1865.0,0.004480338226601963
1864.0,0.004482005844053059
1863.0,0.004461709687561414
1862.0,0.004448715268552502
1861.0,0.004458902460885278
1860.0,0.004467581057058213
1859.0,0.004445710174959213
1858.0,0.004402420098170733
1857.0,0.004365467667889259
1856.0,0.004337623792010903
1855.0,0.004303505749324643
1854.0,0.004269565689798387
1853.0,0.004262161247990071
1852.0,0.004292725874988488
1851.0,0.004346703471988739
1850.0,0.004388530185913927
1849.0,0.0043996437488905745
1848.0,0.0043889053186940315
1847.0,0.004379869478368886
1846.0,0.004385142881725272
1845.0,0.00439827452520454
1844.0,0.004391674554753755
1843.0,0.0043548882811430285
1842.0,0.004327311324937709
1841.0,0.004317326386913066
1840.0,0.004293140457806296
1839.0,0.004243603165260712
1838.0,0.004194062737743053
1837.0,0.0041731624536179715
1836.0,0.004172186390957657
1835.0,0.004172494707542576
1834.0,0.004175273784834375
1833.0,0.004185175255732167
1832.0,0.004192163936364048
1831.0,0.0041920660490666894
1830.0,0.00420386969199714
1829.0,0.0042485922452080984
1828.0,0.004322786703884788
1827.0,0.004394320716003672
1826.0,0.004428589163341178
1825.0,0.004425558904661862
1824.0,0.004398931305419413
1823.0,0.004361484475264317
1822.0,0.004321803688607057
1821.0,0.004279480025809445
1820.0,0.0042330536266461105
1819.0,0.004184075509526301
1818.0,0.004150689841242889
1817.0,0.004155872606528471
1816.0,0.004188197449982421
1815.0,0.004221430082588691
1814.0,0.004247799791338257
1813.0,0.004276074936274756
1812.0,0.004310846266035401
1811.0,0.004342877716038772
1810.0,0.004382292889383456
1809.0,0.004440066417471952
1808.0,0.004489605670437276
1807.0,0.004498679639385198
1806.0,0.004471560738561906
1805.0,0.004433874236439759
1804.0,0.00439522934452122
1803.0,0.0043570636005060125
1802.0,0.004338836666442882
1801.0,0.004360549895952834
1800.0,0.004404781239362034
1799.0,0.004428673311350874
1798.0,0.00443264305819112
1797.0,0.004442724628682674
1796.0,0.0044655284885129765
1795.0,0.004478554116120017
1794.0,0.004456875254647586
1793.0,0.004409097316022469
1792.0,0.004372399884602166
1791.0,0.004366381990593335
1790.0,0.004400229581768225
1789.0,0.00445232421698884
1788.0,0.004482997456907911
1787.0,0.004476958799261795
1786.0,0.00445211374099393
1785.0,0.004429577880760186
1784.0,0.004408015104288703
1783.0,0.004384744511663363
1782.0,0.004364220422382289
1781.0,0.004350858221066623
1780.0,0.004351043112745469
1779.0,0.004349740989144472
1778.0,0.004340983324363101
1777.0,0.004323105889914906
1776.0,0.004304559303723098
1775.0,0.004294508982247364
1774.0,0.004287251471940379
1773.0,0.004289323415873321
1772.0,0.004303011723463323
1771.0,0.004315459104992864
1770.0,0.004350734735509547
1769.0,0.004409095833936932
1768.0,0.004452702781281598
1767.0,0.004462398068546261
1766.0,0.004462239404267978
1765.0,0.004480410660727975
1764.0,0.004507487381733558
1763.0,0.004516655975269972
1762.0,0.0045004994230459575
1761.0,0.00448358448044747
1760.0,0.00450515285274083
1759.0,0.004555648064265376
1758.0,0.004599723213930441
1757.0,0.004607143547796758
1756.0,0.004581759072225658
1755.0,0.0045559038527988975
1754.0,0.004547654727445476
1753.0,0.004550840076219543
1752.0,0.004569040254443684
1751.0,0.00459736593857534
1750.0,0.00461279653981099
1749.0,0.004629378986243838
1748.0,0.004667579262007051
1747.0,0.004725267346514389
1746.0,0.004779890862899748
1745.0,0.004814418392415951
1744.0,0.004823475391280901
1743.0,0.004806900124038073
1742.0,0.004791121401066083
1741.0,0.004806489228244291
1740.0,0.004842762591929628
1739.0,0.0048628018636204
1738.0,0.004885054743114958
1737.0,0.004943237826189108
1736.0,0.0050064674107159575
1735.0,0.005044305907474437
1734.0,0.005040691515251754
1733.0,0.004984877503620733
1732.0,0.004975365420748847
1731.0,0.005018724221384926
1730.0,0.0050545172288151965
1729.0,0.005074693708516502
1728.0,0.005100610070995899
1727.0,0.005140230797031809
1726.0,0.005178154168058831
1725.0,0.005211015109795563
1724.0,0.0052391556447543616
1723.0,0.00524601877697448
1722.0,0.005244199610594571
1721.0,0.005257458802004598
1720.0,0.0052807432992653565
1719.0,0.005305589095272577
1718.0,0.005378562721092448
1717.0,0.005509369608540476
1716.0,0.005618533313889234
1715.0,0.005679084984701297
1714.0,0.005713868561280586
1713.0,0.005748829160508554
1712.0,0.005787145037502233
1711.0,0.005822921881263496
1710.0,0.005862592253989698
1709.0,0.005914308333678766
1708.0,0.0059739874431619655
1707.0,0.006025447522018201
1706.0,0.006068787005086973
1705.0,0.006121808766309616
1704.0,0.006188246978329125
1703.0,0.006258259955584447
1702.0,0.006307597277151184
1701.0,0.006417427103016322
1700.0,0.006638609681733275
1699.0,0.006842462864043652
1698.0,0.007039142662381072
1697.0,0.007264166125712384
1696.0,0.007464633198779247
1695.0,0.007556811403494091
1694.0,0.007617508497722672
1693.0,0.007734171314816402
1692.0,0.00787691092780992
1691.0,0.008022835618845954
1690.0,0.008184815948595754
1689.0,0.008357614286963844
1688.0,0.008513613977266786
1687.0,0.008630126658489064
1686.0,0.008710335705345282
1685.0,0.00888993980851865
1684.0,0.009185925728569445
1683.0,0.009376370397866526
1682.0,0.009537247772156974
1681.0,0.009722454246807656
1680.0,0.009896743172378032
1679.0,0.010051843602576611
1678.0,0.010193311803831907
1677.0,0.010339205386568507
1676.0,0.010510676517303443
1675.0,0.010682449110478666
1674.0,0.010802518166663524
1673.0,0.010898813447944349
1672.0,0.011008162939987909
1671.0,0.01114103584388585
1670.0,0.011325692756809037
1669.0,0.011532109888940325
1668.0,0.011714141261587055
1667.0,0.011864172119725637
1666.0,0.011980291035507696
1665.0,0.012079051738382689
1664.0,0.012193773709250458
1663.0,0.012337337881530411
1662.0,0.01247611828970645
1661.0,0.012593407812463549
1660.0,0.012715229581273739
1659.0,0.012825348111015331
1658.0,0.012897250758021034
1657.0,0.012930225071492503
1656.0,0.012953612644888868
1655.0,0.01297210850395419
1654.0,0.013114174994386605
1653.0,0.013338829749254547
1652.0,0.013314571648594675
1651.0,0.013275419138862593
1650.0,0.013279752445505978
1649.0,0.013249914230873707
1648.0,0.013237456971814736
1647.0,0.013300085379862714
1646.0,0.013346569752560804
1645.0,0.013346987591507363
1644.0,0.013344899095650719
1643.0,0.013328882063038897
1642.0,0.013288840273895377
1641.0,0.013231590220157631
1640.0,0.013182616837736824
1639.0,0.01315755520064383
1638.0,0.013148804087974426
1637.0,0.013160343540923996
1636.0,0.01317440611511832
1635.0,0.013103774160507274
1634.0,0.012985199554498145
1633.0,0.012909184768557532
1632.0,0.01284611710624027
1631.0,0.012768934810535862
1630.0,0.01267635685484861
1629.0,0.012571086639453857
1628.0,0.012455825441449327
1627.0,0.012343308155691042
1626.0,0.01224361100688174
1625.0,0.012140261106515449
1624.0,0.012013551710079827
1623.0,0.01185869744692739
1622.0,0.011701240855339315
1621.0,0.011580231758499787
1620.0,0.011496960820616615
1619.0,0.011410986389956355
1618.0,0.01129199518555777
1617.0,0.011129039324403055
1616.0,0.01093301932788016
1615.0,0.010777440983703118
1614.0,0.010697035378018556
1613.0,0.010640736384382659
1612.0,0.010567359654530886
1611.0,0.010475466572802364
1610.0,0.010366617629670933
1609.0,0.010236890656577551
1608.0,0.010104415050720818
1607.0,0.010001345308895073
1606.0,0.009930499449636256
1605.0,0.009863676564436145
1604.0,0.009792484327212005
1603.0,0.009726556977916126
1602.0,0.009670176052457635
1601.0,0.009616094513356224
1600.0,0.009560371908682615
1599.0,0.009507994225464389
1598.0,0.009459594312107694
1597.0,0.009408319639133984
1596.0,0.009348008052283382
1595.0,0.009281084330001892
1594.0,0.009214357180904409
1593.0,0.009149608401144349
1592.0,0.009089036757035979
1591.0,0.009041250889621544
1590.0,0.009012293045046305
1589.0,0.008993743770913961
1588.0,0.0089736009611803
1587.0,0.008949345414285517
1586.0,0.008924516464922982
1585.0,0.008894213552794152
1584.0,0.00885841829271834
1583.0,0.008829232587716195
1582.0,0.008805127891192924
1581.0,0.008781624697558091
1580.0,0.008763725392772615
1579.0,0.008752034626617236
1578.0,0.0087242622149419
1577.0,0.008678159808627399
1576.0,0.00862923232358586
1575.0,0.008607746326480115
1574.0,0.008652244148131972
1573.0,0.008724360597294279
1572.0,0.008762662807471734
1571.0,0.0087636384122543
1570.0,0.008775227815405707
1569.0,0.008803162811841498
1568.0,0.008833632710370106
1567.0,0.00886718797281489
1566.0,0.00888785781944867
1565.0,0.008886837654552386
1564.0,0.008888223652201082
1563.0,0.008902114286048415
1562.0,0.008924342489065146
1561.0,0.008896420463243728
1560.0,0.008896976918201148
1559.0,0.009055039706495498
1558.0,0.009097153179792965
1557.0,0.009114366560457915
1556.0,0.009202460059274824
1555.0,0.009278832876286917
1554.0,0.00932490264735252
1553.0,0.009352932708596561
1552.0,0.009382399893993004
1551.0,0.009408948270867471
1550.0,0.009429280184237627
1549.0,0.009452402589802617
1548.0,0.009479553365181786
1547.0,0.009505238887576447
1546.0,0.009517691267195535
1545.0,0.009530248117702996
1544.0,0.009546989352870806
1543.0,0.009549160048718228
1542.0,0.009533095558102115
1541.0,0.00954702435066249
1540.0,0.009534472175001113
1539.0,0.009418947447403618
1538.0,0.009354136759411475
1537.0,0.009384235766078032
1536.0,0.009415951577367
1535.0,0.009404647842405136
1534.0,0.009369677206559585
1533.0,0.009339112351653927
1532.0,0.009317100255174786
1531.0,0.009303080531834176
1530.0,0.009288720029554366
1529.0,0.009276327121416397
1528.0,0.009266571167308538
1527.0,0.009248043287319896
1526.0,0.009221789317948762
1525.0,0.009208158702228833
1524.0,0.00921034887584354
1523.0,0.00920172861616376
1522.0,0.009187028169950151
1521.0,0.009171903467878167
1520.0,0.009151677796461446
1519.0,0.009143545485734192
1518.0,0.00914018799199862
1517.0,0.009148559017183852
1516.0,0.009157927300011701
1515.0,0.009153558131222298
1514.0,0.009145402748239427
1513.0,0.00913222888252877
1512.0,0.009112367868257948
1511.0,0.0090781089125415
1510.0,0.009042729405095535
1509.0,0.009013072971467487
1508.0,0.009015890483402744
1507.0,0.009011195851282778
1506.0,0.008928832393053233
1505.0,0.008908687153415472
1504.0,0.008966149737356233
1503.0,0.009003564020783233
1502.0,0.009002387163866964
1501.0,0.008986941332235217
1500.0,0.008983450476829434
1499.0,0.008990777065546372
1498.0,0.009014349877726037
1497.0,0.009081326752097841
1496.0,0.009151270322387394
1495.0,0.009171034281371756
1494.0,0.009173191229626981
1493.0,0.009192534831229872
1492.0,0.009220544665158313
1491.0,0.009245384417644255
1490.0,0.009288115440396741
1489.0,0.009363574799127562
1488.0,0.009441644787699086
1487.0,0.00950182777025658
1486.0,0.009574110304104006
1485.0,0.009670249928945515
1484.0,0.009768467073727855
1483.0,0.009853104845527745
1482.0,0.009940914440892597
1481.0,0.010062907631280694
1480.0,0.010207497690126549
1479.0,0.01035570320369899
1478.0,0.010535792610417058
1477.0,0.010800699514156875
1476.0,0.011140343234767602
1475.0,0.011516445173761604
1474.0,0.012025351583712733
1473.0,0.01283743581790289
1472.0,0.01379958789629722
1471.0,0.014617778715486716
1470.0,0.015341051218971408
1469.0,0.01611026662451844
1468.0,0.01696650684489086
1467.0,0.01794180139956664
1466.0,0.019124463625303116
1465.0,0.020486909644023672
1464.0,0.021699656492707393
1463.0,0.022514388385781816
1462.0,0.023037078234270533
1461.0,0.023428616265225674
1460.0,0.02374451652081079
1459.0,0.023991478825006577
1458.0,0.024227489456754403
1457.0,0.024413928303076916
1456.0,0.024398440204367045
1455.0,0.024287946354807237
1454.0,0.02419769553005329
1453.0,0.0240777701324282
1452.0,0.023853851012330795
1451.0,0.023490101434114088
1450.0,0.022962309301681413
1449.0,0.02217961485076429
1448.0,0.021098100702332055
1447.0,0.019907167618910926
1446.0,0.018848163444364473
1445.0,0.01796173779275077
1444.0,0.017197046497005833
1443.0,0.016546551727704122
1442.0,0.016045344161533893
1441.0,0.015703827878241407
1440.0,0.01550637161232244
1439.0,0.015437812230449578
1438.0,0.015495718042721908
1437.0,0.015620090791796042
1436.0,0.015616676221697951
1435.0,0.015377057124791007
1434.0,0.01496852849242106
1433.0,0.014452832834626974
1432.0,0.013883575415290693
1431.0,0.013356496038616649
1430.0,0.012942645537939973
1429.0,0.012643061645051109
1428.0,0.012427448292876302
1427.0,0.012277351873585732
1426.0,0.012157833442740455
1425.0,0.012031211781094618
1424.0,0.011915356222088759
1423.0,0.011847244171526555
1422.0,0.011816645846745182
1421.0,0.01176783158492845
1420.0,0.011678331104347817
1419.0,0.011583692108401282
1418.0,0.01151023319788089
1417.0,0.011455372993726802
1416.0,0.011404729537253171
1415.0,0.011343013066965016
1414.0,0.0112560553332226
1413.0,0.011139262022803612
1412.0,0.011009905600749825
1411.0,0.010889702111560677
1410.0,0.010774452806532164
1409.0,0.01064982893695554
1408.0,0.010517953577728095
1407.0,0.010394144023377056
1406.0,0.010273079919860524
1405.0,0.010133938610328314
1404.0,0.010000857520311619
1403.0,0.009915001051354656
1402.0,0.009862524296092072
1401.0,0.009791276241960271
1400.0,0.009687758288416724
1399.0,0.009590241161814611
1398.0,0.009515152229770143
1397.0,0.009432075234792763
1396.0,0.009328901123578976
1395.0,0.009238969906709336
1394.0,0.00917105176842071
1393.0,0.009104685382014716
1392.0,0.009051038168830778
1391.0,0.009035190890913007
1390.0,0.009058089658884397
1389.0,0.009110056015464323
1388.0,0.00922819842467181
1387.0,0.00948629859220868
1386.0,0.009910338093549664
1385.0,0.010515395812320806
1384.0,0.011404333108241007
1383.0,0.012719605239432675
1382.0,0.014550262023104655
1381.0,0.01696550182615284
1380.0,0.02006607591578666
1379.0,0.02377269419358581
1378.0,0.027570288554896752
1377.0,0.03066485244226362
1376.0,0.03227413506134375
1375.0,0.031722902023202375
1374.0,0.02901287512352841
1373.0,0.02529344089570036
1372.0,0.021772068924640623
1371.0,0.018793654227531906
1370.0,0.016284807259455848
1369.0,0.014249347611497251
1368.0,0.012771793414163598
1367.0,0.011831903027895553
1366.0,0.011292914223704459
1365.0,0.011028760985842764
1364.0,0.010978229935932856
1363.0,0.01111537259657132
1362.0,0.011382679588414792
1361.0,0.011673058914587387
1360.0,0.011876963377972949
1359.0,0.011915739640619333
1358.0,0.011752804455900248
1357.0,0.01139706925440651
1356.0,0.01089055074009538
1355.0,0.01029766321362333
1354.0,0.009700273140566333
1353.0,0.009169046835605939
1352.0,0.008725536404063436
1351.0,0.008357487302378688
1350.0,0.008055809477107344
1349.0,0.007817796722704454
1348.0,0.007632138911446306
1347.0,0.007474046210641679
1346.0,0.007325359616849561
1345.0,0.007183691763769635
1344.0,0.007056158863945106
1343.0,0.00694948008548526
1342.0,0.0068660521842454775
1341.0,0.006801560581613594
1340.0,0.0067444239845233876
1339.0,0.006685996259248032
1338.0,0.006635231447250924
1337.0,0.006606096098655614
1336.0,0.0065966802009471935
1335.0,0.006597145462181032
1334.0,0.006606652718345795
1333.0,0.006632918565570876
1332.0,0.006677541350527958
1331.0,0.006725840511917384
1330.0,0.006753147063913776
1329.0,0.006742175378559855
1328.0,0.006693441872970551
1327.0,0.006620453941567446
1326.0,0.00653627359844553
1325.0,0.006446636027013702
1324.0,0.006355552758032458
1323.0,0.006268756050777806
1322.0,0.006191508498726404
1321.0,0.006124510045218759
1320.0,0.006065259842377059
1319.0,0.006011560741287171
1318.0,0.005963131835544306
1317.0,0.005921245103310942
1316.0,0.005887995910515061
1315.0,0.005864995069410947
1314.0,0.0058507076381140045
1313.0,0.005839818187375782
1312.0,0.005827606735428335
1311.0,0.00581567860451088
1310.0,0.005812258780013322
1309.0,0.005829507358423358
1308.0,0.005877437374855072
1307.0,0.005953233500520492
1306.0,0.006033536171853416
1305.0,0.006084879127253468
1304.0,0.0060888832789690785
1303.0,0.006056408764844591
1302.0,0.006018456888745938
1301.0,0.0060018008997161885
1300.0,0.006013732162132204
1299.0,0.006044380561390519
1298.0,0.006077653429790905
1297.0,0.00609943078797591
1296.0,0.006101006895245028
1295.0,0.006079580315202291
1294.0,0.006037057294001981
1293.0,0.005979324400884355
1292.0,0.00591536789735757
1291.0,0.005854384713754213
1290.0,0.005801655569785484
1289.0,0.0057582394908344894
1288.0,0.005724791300111019
1287.0,0.005702104493610197
1286.0,0.0056867887196191316
1285.0,0.005671597412894887
1284.0,0.005653494899256874
1283.0,0.00563836244767358
1282.0,0.005634470748925939
1281.0,0.005642429977297268
1280.0,0.005655115064541756
1279.0,0.005665404567006056
1278.0,0.005670034498108465
1277.0,0.005667991376319466
1276.0,0.005660337056268101
1275.0,0.005653321614117256
1274.0,0.00565712397598492
1273.0,0.005678544185151195
1272.0,0.005714890854609082
1271.0,0.005756089489377085
1270.0,0.005793058976666524
1269.0,0.005823967068868769
1268.0,0.00585376410848738
1267.0,0.0058897852302014445
1266.0,0.005937600526251013
1265.0,0.0059980273283014255
1264.0,0.006066091147850068
1263.0,0.0061349143100082396
1262.0,0.006203096915283425
1261.0,0.00627745989864192
1260.0,0.0063670882544157
1259.0,0.006474836766241358
1258.0,0.006594978960717746
1257.0,0.0067158440778075125
1256.0,0.006821006533096023
1255.0,0.006893715313251517
1254.0,0.0069288943733108385
1253.0,0.006940479293058424
1252.0,0.006951120576922886
1251.0,0.0069744369228233755
1250.0,0.0070092162754507095
1249.0,0.007048280439288618
1248.0,0.007087942869177324
1247.0,0.007129365383724927
1246.0,0.007176791422654908
1245.0,0.0072358263909905254
1244.0,0.00730795624724459
1243.0,0.007384960927057212
1242.0,0.007452998196844085
1241.0,0.007504840494676887
1240.0,0.0075459719005015
1239.0,0.007588386864147329
1238.0,0.0076401949194230875
1237.0,0.007700570178017757
1236.0,0.007762277237295539
1235.0,0.007818717706976838
1234.0,0.007870429342449674
1233.0,0.007924513477241806
1232.0,0.007985824849795702
1231.0,0.008049317264403959
1230.0,0.008103481059030257
1229.0,0.008141678653639094
1228.0,0.008169122715553333
1227.0,0.00819968991587688
1226.0,0.008245870451968331
1225.0,0.008309490399595944
1224.0,0.008382065294108211
1223.0,0.008455534051445831
1222.0,0.008530121281700753
1221.0,0.008607098954536676
1220.0,0.008676342269309044
1219.0,0.008719785681881385
1218.0,0.008729576044559092
1217.0,0.008715421718685263
1216.0,0.0086917115247566
1215.0,0.008666387662158928
1214.0,0.00864478382106495
1213.0,0.008633173445223453
1212.0,0.008631408453380321
1211.0,0.008630336682133576
1210.0,0.008624962664397598
1209.0,0.008623887279941995
1208.0,0.00863816052921505
1207.0,0.008666108901189346
1206.0,0.00869643235630671
1205.0,0.008721647054088788
1204.0,0.008741342622783388
1203.0,0.008757080051782967
1202.0,0.008772150429752983
1201.0,0.008792246126672058
1200.0,0.008818005475479892
1199.0,0.008839423139718137
1198.0,0.00884576836948302
1197.0,0.008840188878999969
1196.0,0.008838301851565202
1195.0,0.008854058748637799
1194.0,0.008890748194720523
1193.0,0.008941480910233536
1192.0,0.008992501411697473
1191.0,0.009029631198010066
1190.0,0.009049590753237125
1189.0,0.00906408119509841
1188.0,0.009087999664348187
1187.0,0.009126204366248525
1186.0,0.00917514277607794
1185.0,0.009231521111675689
1184.0,0.009292430842921626
1183.0,0.009352313484346236
1182.0,0.009409043675477067
1181.0,0.009470177982419422
1180.0,0.009545272857818785
1179.0,0.009634855214958124
1178.0,0.00973462690546764
1177.0,0.009847639254171512
1176.0,0.009984722303088011
1175.0,0.010155972001587053
1174.0,0.010368245694717905
1173.0,0.010625717563796665
1172.0,0.010922420192626335
1171.0,0.011235067207333466
1170.0,0.011531332744140456
1169.0,0.011783686178275335
1168.0,0.011970773126878696
1167.0,0.012077027722445375
1166.0,0.012105942165046044
1165.0,0.012087166345355631
1164.0,0.01205686078405479
1163.0,0.012033936824073874
1162.0,0.012021152204548169
1161.0,0.01201878764390016
1160.0,0.012025500713370385
1159.0,0.012034057255531206
1158.0,0.012041409055742873
1157.0,0.012059562628998266
1156.0,0.012103246051633041
1155.0,0.012168500108382151
1154.0,0.012233619370418381
1153.0,0.012278079310189774
1152.0,0.012290366877432958
1151.0,0.0122638210142851
1150.0,0.012201849406375047
1149.0,0.012126981753869559
1148.0,0.012069502804974376
1147.0,0.012040819240039809
1146.0,0.012024324044328637
1145.0,0.011995860343626503
1144.0,0.011947977578863574
1143.0,0.011892207003304837
1142.0,0.011843835225066891
1141.0,0.011809568058851957
1140.0,0.01178842251856912
1139.0,0.01177924350186966
1138.0,0.011783222483608902
1137.0,0.011799525252253461
1136.0,0.011823656474786172
1135.0,0.011854382576829883
1134.0,0.011898728160769066
1133.0,0.011963277597024837
1132.0,0.012041879167654847
1131.0,0.012119571049344958
1130.0,0.01218905124183673
1129.0,0.01225598313480424
1128.0,0.012328565666010772
1127.0,0.012411770195581607
1126.0,0.012511676059867726
1125.0,0.012632680405835817
1124.0,0.012767604332370616
1123.0,0.012903479051211173
1122.0,0.013041949042335875
1121.0,0.01320031443848423
1120.0,0.013385629885642028
1119.0,0.0135816101200526
1118.0,0.013769964235935711
1117.0,0.013951694474692754
1116.0,0.014137187894698474
1115.0,0.014327815759641697
1114.0,0.014517548392100513
1113.0,0.014700903654763783
1112.0,0.014870491838908002
1111.0,0.015020660097268223
1110.0,0.015162503854490611
1109.0,0.015320054461892312
1108.0,0.01550161129008137
1107.0,0.015690587179126546
1106.0,0.015873141107394934
1105.0,0.016053769257975126
1104.0,0.016231926869569112
1103.0,0.01638691407861726
1102.0,0.01650307312193757
1101.0,0.0165881754073572
1100.0,0.01664793321101583
1099.0,0.016666737343147785
1098.0,0.016638335621261005
1097.0,0.016596330528425095
1096.0,0.0165872265337751
1095.0,0.016621797490759156
1094.0,0.016673906620671884
1093.0,0.016719198195704974
1092.0,0.01675483981586227
1091.0,0.01678669491696055
1090.0,0.01681692368507358
1089.0,0.01684458906955215
1088.0,0.01686804880729489
1087.0,0.016888456145359058
1086.0,0.01691467616677288
1085.0,0.016956066227864695
1084.0,0.017006092776134893
1083.0,0.017044806595904714
1082.0,0.017062829965999206
1081.0,0.017069629249916295
1080.0,0.017073088774098785
1079.0,0.017067245373483128
1078.0,0.01704681054241011
1077.0,0.017016709670191546
1076.0,0.01697905922066266
1075.0,0.016927104962106893
1074.0,0.01686035269200701
1073.0,0.016790155222497508
1072.0,0.016723498166461057
1071.0,0.016656204300448355
1070.0,0.01658661041997065
1069.0,0.016520379468224197
1068.0,0.016458904937618035
1067.0,0.016399998696502993
1066.0,0.016351017368469476
1065.0,0.016319888400254903
1064.0,0.01629073386180791
1063.0,0.01623347813980569
1062.0,0.016145193163300466
1061.0,0.016057797353358747
1060.0,0.015995775749260078
1059.0,0.01595021285610039
1058.0,0.015904635960869898
1057.0,0.015861568170428993
1056.0,0.015828228042961835
1055.0,0.015797451589554205
1054.0,0.015761215109949506
1053.0,0.015727051722292426
1052.0,0.015702833128476455
1051.0,0.01568067394915504
1050.0,0.01565703399506251
1049.0,0.015650804775122484
1048.0,0.015676113998982145
1047.0,0.01571497037923823
1046.0,0.01573973516003986
1045.0,0.015746101369272156
1044.0,0.015745971957627586
1043.0,0.015743598304465704
1042.0,0.01573645344530747
1041.0,0.01572880860084919
1040.0,0.015727492784657023
1039.0,0.01573027685732962
1038.0,0.015732036707078904
1037.0,0.015736176548449388
1036.0,0.01574698148196695
1035.0,0.01575623459869962
1034.0,0.015749580332113895
1033.0,0.01572186358662542
1032.0,0.015676662026720488
1031.0,0.015616335177742406
1030.0,0.015541352313310532
1029.0,0.015453187152141019
1028.0,0.01534918167765268
1027.0,0.015219998132895554
1026.0,0.015060135569411763
1025.0,0.014877024428515653
1024.0,0.014684740911015029
1023.0,0.014493969055709582
1022.0,0.01431191539605967
1021.0,0.014145604747991043
1020.0,0.013999807693122687
1019.0,0.01387484226865092
1018.0,0.01376959851240989
1017.0,0.013684581241044713
1016.0,0.013621624694120999
1015.0,0.013584597402892803
1014.0,0.013579413771478258
1013.0,0.013606443624807361
1012.0,0.013652833834857821
1011.0,0.01370139498802489
1010.0,0.013749624634600853
1009.0,0.013809912889632087
1008.0,0.013886090384144172
1007.0,0.013960095827459839
1006.0,0.014009944860084916
1005.0,0.014033858892288593
1004.0,0.01405067282181098
1003.0,0.014085355629099544
1002.0,0.014159004065435212
1001.0,0.01427709418225434
1000.0,0.01440876073875915
999.0,0.014480401063443886
998.0,0.014409294584771172
997.0,0.01415607724060455
996.0,0.013747443440053308
995.0,0.013255373001798614
994.0,0.012757464132942702
993.0,0.012306438623642724
992.0,0.011923267427056896
991.0,0.011607299332535554
990.0,0.01134663486104108
989.0,0.011123560802398612
988.0,0.010921353022805612
987.0,0.010733366314133096
986.0,0.010565500865259578
985.0,0.010427866373967571
984.0,0.010325501629338159
983.0,0.010259417832432035
982.0,0.01023576816824791
981.0,0.01027115662002041
980.0,0.010385980566837595
979.0,0.01058915649843486
978.0,0.010866681845189078
977.0,0.011183816323432969
976.0,0.011495199375373672
975.0,0.011749200227425014
974.0,0.011885563683182776
973.0,0.011841630744980219
972.0,0.011580573833211929
971.0,0.01112865117508329
970.0,0.010578563659654908
969.0,0.010038406275478178
968.0,0.009572830070276145
967.0,0.009191703422647645
966.0,0.008878835628869234
965.0,0.008618054000841494
964.0,0.00839888212754956
963.0,0.00821388520362111
962.0,0.008056829298869726
961.0,0.007919540675707083
960.0,0.0077902934056868454
959.0,0.007660283123956455
958.0,0.007532574978015964
957.0,0.0074198851316469114
956.0,0.007331215896679915
955.0,0.007262570118470556
954.0,0.00720123159564455
953.0,0.007137270153934068
952.0,0.007070663300172267
951.0,0.007009364031988281
950.0,0.006961430331039482
949.0,0.006928357127069979
948.0,0.006906180430064314
947.0,0.006892771270716032
946.0,0.0068910385882109924
945.0,0.006902569536466195
944.0,0.006920843693794877
943.0,0.0069354716286308855
942.0,0.006943062807373734
941.0,0.006948621194378651
940.0,0.0069532607374840506
939.0,0.006943871789550101
938.0,0.006899509343460036
937.0,0.006809675017040207
936.0,0.006686845436700272
935.0,0.006562029622622553
934.0,0.006466140644982051
933.0,0.006411289383623862
932.0,0.006387239611168218
931.0,0.0063736974518652095
930.0,0.0063555266137345166
929.0,0.006329856551956125
928.0,0.0063038662204718265
927.0,0.006287364616205856
926.0,0.006283787337950361
925.0,0.006285906826120907
924.0,0.006283164302012416
923.0,0.006274557139257449
922.0,0.006269628092664299
921.0,0.006274014771616735
920.0,0.006280754385428241
919.0,0.006282707803311615
918.0,0.006288093656001265
917.0,0.0063128462237924555
916.0,0.006357977327606347
915.0,0.006404201246346856
914.0,0.006430870564981565
913.0,0.006432072386637216
912.0,0.006412114160416413
911.0,0.006375884838574639
910.0,0.006329819127543088
909.0,0.006284037987859434
908.0,0.00624657760950941
907.0,0.006220965599918174
906.0,0.006214953877934866
905.0,0.006245540956473608
904.0,0.00632717219299098
903.0,0.006455754966393841
902.0,0.00660688206300601
901.0,0.0067444120180000285
900.0,0.006825478568748138
899.0,0.006807510091545763
898.0,0.006668370238079266
897.0,0.006423604642124157
896.0,0.006118483401329597
895.0,0.005803931637926902
894.0,0.005519904585850163
893.0,0.005291302055963136
892.0,0.0051265123284957425
891.0,0.005015231260535127
890.0,0.004935256283046011
889.0,0.004870242091356813
888.0,0.004819802757311163
887.0,0.004789043393023837
886.0,0.0047740640878385626
885.0,0.004766679402132604
884.0,0.004770917027286768
883.0,0.004802750831441535
882.0,0.0048684979541405195
881.0,0.004950811685770622
880.0,0.005022782320145349
879.0,0.005073000349835629
878.0,0.005112805019871356
877.0,0.0051623217152099565
876.0,0.005234530041356425
875.0,0.0053283444945908046
874.0,0.005424831493125054
873.0,0.005486906703158996
872.0,0.005474545411554635
871.0,0.005374236726356183
870.0,0.005214650559506167
869.0,0.005046011384826668
868.0,0.004905147002753562
867.0,0.004803717501825061
866.0,0.004739916552227788
865.0,0.004707563176520088
864.0,0.004693769105548031
863.0,0.004680106963990174
862.0,0.004654717344251434
861.0,0.004619783088379507
860.0,0.004581977227014132
859.0,0.004539410774065939
858.0,0.0044836447729770575
857.0,0.004412629033479484
856.0,0.0043364135288488145
855.0,0.004269651395788962
854.0,0.0042202772579046175
853.0,0.004184326878425723
852.0,0.004150928647040973
851.0,0.004114905241722913
850.0,0.0040859973298015256
849.0,0.004082204226482726
848.0,0.004113022692211617
847.0,0.0041778755670971515
846.0,0.004288178568509842
845.0,0.0044789448429939545
844.0,0.0047731996071560204
843.0,0.0051236684393292705
842.0,0.005407185201116041
841.0,0.005502366553160665
840.0,0.005380805150691118
839.0,0.005123071100747658
838.0,0.004850408549648589
837.0,0.0046410837209026005
836.0,0.0045032535218453
835.0,0.004407568351046998
834.0,0.004329747815331821
833.0,0.00426612318945983
832.0,0.004223842367062896
831.0,0.004206030866611862
830.0,0.004205227604504482
829.0,0.004206698359153134
828.0,0.0041979079008760516
827.0,0.004178521964517179
826.0,0.004162446032448671
825.0,0.0041670934728553245
824.0,0.004198873596805267
823.0,0.0042498629640455865
822.0,0.004307102291923394
821.0,0.0043603919830413704
820.0,0.004402423308184265
819.0,0.004431584170100858
818.0,0.004460256558324086
817.0,0.0045141975655610105
816.0,0.004616223469835978
815.0,0.004770722136365471
814.0,0.004966940443229512
813.0,0.005192819684545083
812.0,0.005435962088337271
811.0,0.005671067323760446
810.0,0.005858165919795395
809.0,0.005960319017370543
808.0,0.00596164573149701
807.0,0.005872184930769249
806.0,0.0057223324725426735
805.0,0.00554992888345621
804.0,0.005385337205224034
803.0,0.005244240972762574
802.0,0.005131576673968526
801.0,0.005048240809351999
800.0,0.004990628879208304
799.0,0.004946458057339634
798.0,0.004900349386799518
797.0,0.004849297532980927
796.0,0.0048075683760981595
795.0,0.0047893586395787256
794.0,0.004787683603582787
793.0,0.0047768134922830975
792.0,0.004737568747910198
791.0,0.004675848851686863
790.0,0.0046142844291388666
789.0,0.004569586292860009
788.0,0.00454118237773655
787.0,0.004517974961755806
786.0,0.00449005253632212
785.0,0.004454949401233869
784.0,0.004418691256803086
783.0,0.004392241358690971
782.0,0.00438180578892826
781.0,0.004379921488994843
780.0,0.0043702704702105535
779.0,0.004344424885151544
778.0,0.004310172659783064
777.0,0.0042790887995119535
776.0,0.004250248363121125
775.0,0.004213791243050435
774.0,0.004169447475077756
773.0,0.004132982697958549
772.0,0.0041203450735109014
771.0,0.004130336516539344
770.0,0.0041467337084519565
769.0,0.004154713174886511
768.0,0.004152105617429357
767.0,0.004147137858399066
766.0,0.0041498199285305605
765.0,0.0041651574411038055
764.0,0.004190924818507318
763.0,0.004220515573716423
762.0,0.00424846607515262
761.0,0.004272987092368608
760.0,0.004293769617098446
759.0,0.004310580393936499
758.0,0.004325939735650959
757.0,0.004345889565348088
756.0,0.004374227052183837
755.0,0.004407934363171455
754.0,0.004442283428307152
753.0,0.0044780716927337785
752.0,0.004516858886117366
751.0,0.004548784019765731
750.0,0.00455361368890831
749.0,0.004519999175007115
748.0,0.004461021933374849
747.0,0.004405232698612652
746.0,0.004371380813193899
745.0,0.004355449910966565
744.0,0.004343170490629444
743.0,0.0043289266149201585
742.0,0.004316514703414391
741.0,0.004304687137583477
740.0,0.004281965478052763
739.0,0.004240603157331761
738.0,0.004190718807188753
737.0,0.004154086059316407
736.0,0.004144140087807962
735.0,0.0041550999850379355
734.0,0.004169503034926993
733.0,0.004173052916755678
732.0,0.004162114645208704
731.0,0.004141960742973997
730.0,0.004123108495484916
729.0,0.004118376753841194
728.0,0.004136172115743178
727.0,0.004171329571326821
726.0,0.004205146429081971
725.0,0.004220173359200231
724.0,0.004217037363506312
723.0,0.004213440340357172
722.0,0.0042245139499054556
721.0,0.004246733705776972
720.0,0.004265932262908457
719.0,0.004280657540884228
718.0,0.004306088061786482
717.0,0.004353422768055108
716.0,0.0044184532796492405
715.0,0.004490502698520528
714.0,0.0045609732161690005
713.0,0.004619599843849459
712.0,0.0046527454644458115
711.0,0.004656322462299044
710.0,0.004644964688538259
709.0,0.004638209299371027
708.0,0.004641788325600072
707.0,0.004650759971587854
706.0,0.004665322217625837
705.0,0.004690611025309897
704.0,0.004724476945288767
703.0,0.004760063430873582
702.0,0.0047970195850953554
701.0,0.004835711296280935
700.0,0.004863658962682564
699.0,0.004864225439255559
698.0,0.0048424495840862156
697.0,0.004825577834379849
696.0,0.0048297422503960005
695.0,0.004839595183207115
694.0,0.004827386278457309
693.0,0.004784301792839184
692.0,0.004728227264855131
691.0,0.004686492654581067
690.0,0.004676526426759805
689.0,0.004694491762111178
688.0,0.004716944628615199
687.0,0.004721523419991075
686.0,0.004705565338974253
685.0,0.0046790608151509455
684.0,0.004649305313498128
683.0,0.004621633451262352
682.0,0.004604865152941716
681.0,0.004601119117632439
680.0,0.00459609121114766
679.0,0.004576407326331499
678.0,0.004555132048641853
677.0,0.004563215964613164
676.0,0.0046091998486711295
675.0,0.004663801260355312
674.0,0.004696361401043769
673.0,0.004696041997667938
672.0,0.004651675553574852
671.0,0.004525696613622289
670.0,0.004295948360250712
669.0,0.0039958995273591865
668.0,0.003749191958293671
667.0,0.003775020619060326
666.0,0.004045090244641954
665.0,0.004307570403323718
664.0,0.004449364044500845
663.0,0.004487815115287069
662.0,0.004480716462317411
661.0,0.004477776889941994
660.0,0.004490506486519512
659.0,0.004509577664764276
658.0,0.004527601074346082
657.0,0.00454208910172524
656.0,0.004538627184618867
655.0,0.004503453296518346
654.0,0.004459443567868643
653.0,0.004454959736210471
652.0,0.004500828642843941
651.0,0.004548895248536694
650.0,0.004549847794377702
649.0,0.0045083535031806635
648.0,0.004459877224724016
647.0,0.004421017187095862
646.0,0.0043885820226420465
645.0,0.004363015560189004
644.0,0.004349429923350294
643.0,0.004346908190144423
642.0,0.004350063708753045
641.0,0.00435687092330808
640.0,0.004366448515635045
639.0,0.004375205591327248
638.0,0.00438174601468028
637.0,0.00438487407833928
636.0,0.004373889359500808
635.0,0.004336712267665245
634.0,0.004280370950025118
633.0,0.004224923237585212
632.0,0.004177570996726906
631.0,0.004134842789467774
630.0,0.004106150436173118
629.0,0.004107677491192268
628.0,0.004132574700205258
627.0,0.004153658784583606
626.0,0.004159574888338718
625.0,0.004163449045167883
624.0,0.0041727037511071294
623.0,0.004183057971408402
622.0,0.0042082871285341085
621.0,0.004273231497774636
620.0,0.0043590126773348295
619.0,0.004393549254835122
618.0,0.004330298576446331
617.0,0.004211001173353719
616.0,0.004115508155052631
615.0,0.0040768802219525325
614.0,0.0040767605492155155
613.0,0.004093750800398392
612.0,0.004119498888162458
611.0,0.004148212651880218
610.0,0.0041819065481239395
609.0,0.00423045501044131
608.0,0.004288890092365173
607.0,0.004333782466641296
606.0,0.004359093835017499
605.0,0.004388577677933056
604.0,0.004432430571336309
603.0,0.004466665410104145
602.0,0.004472675374339886
601.0,0.0044594897596769885
600.0,0.004429628759285277
599.0,0.004369286947972974
598.0,0.004300793358994798
597.0,0.00428797976836762
596.0,0.004353093307782871
595.0,0.004431972344639887
594.0,0.004450006962744094
593.0,0.004413491734918342
592.0,0.0043774418500744285
591.0,0.0043543389419417045
590.0,0.0043163117984734815
589.0,0.004265507817809877
588.0,0.004235791192967934
587.0,0.004230216087708093
586.0,0.004210229329444971
585.0,0.004157200382214513
584.0,0.004110304381640921
583.0,0.004129391075571103
582.0,0.004229197083179455
581.0,0.004349427047366674
580.0,0.004390857828626542
579.0,0.004302233232700424
578.0,0.004139195819316247
577.0,0.004014983801523693
576.0,0.003997159243412781
575.0,0.004065556062957165
574.0,0.004159736455997138
573.0,0.004230449883647824
572.0,0.0042329360918602135
571.0,0.0041508342610221075
570.0,0.00406776762457812
569.0,0.004119110422919285
568.0,0.004315140741160562
567.0,0.0044879934036260085
566.0,0.0044916442023262195
565.0,0.004379111654844796
564.0,0.004289780864579186
563.0,0.004272379731466066
562.0,0.004290666703403379
561.0,0.004319290349432002
560.0,0.004348838344945595
559.0,0.004333579046066346
558.0,0.004233609146923138
557.0,0.004085126079686986
556.0,0.00395668886898335
555.0,0.00388112091233574
554.0,0.0038737258231062582
553.0,0.003960986707791225
552.0,0.0041334817843805445
551.0,0.004295016815935597
550.0,0.004341714219194392
