cm-1,A
4000.0,0.0015471115311225803
3999.0,0.001561079256222674
3998.0,0.0015667628546240549
3997.0,0.0015639552447429643
3996.0,0.0015557915661654435
3995.0,0.0015483517768603546
3994.0,0.001553623498081749
3993.0,0.0015839722069548173
3992.0,0.0016386582546607858
3991.0,0.0016982519844223557
3990.0,0.0017356717895483298
3989.0,0.0017331319583003182
3988.0,0.001690726841339368
3987.0,0.0016255064919824987
3986.0,0.001566853259690945
3985.0,0.0015451272150149046
3984.0,0.0015726417018726447
3983.0,0.0016327804499881443
3982.0,0.0016925840271213057
3981.0,0.0017277599605080105
3980.0,0.0017338140125662625
3979.0,0.0017162682567084106
3978.0,0.001678985022414971
3977.0,0.0016264639403140739
3976.0,0.001571969863815607
3975.0,0.0015330538482851127
3974.0,0.001516821344498931
3973.0,0.0015142714345276458
3972.0,0.0015121607927694788
3971.0,0.001507634757592231
3970.0,0.0015113535994364727
3969.0,0.0015361689750844915
3968.0,0.001581629480332478
3967.0,0.0016335536377164337
3966.0,0.0016785054027507896
3965.0,0.0017156839505780416
3964.0,0.001748604357318567
3963.0,0.0017690880354977604
3962.0,0.001760044219569835
3961.0,0.0017203271735929358
3960.0,0.0016768905127389636
3959.0,0.0016575124027646115
3958.0,0.0016626856004759334
3957.0,0.0016749941348567759
3956.0,0.0016853245766880257
3955.0,0.0017012810189208699
3954.0,0.001727948741286311
3953.0,0.0017556890754316934
3952.0,0.001767519765601422
3951.0,0.0017583053333161593
3950.0,0.001740935759221028
3949.0,0.0017235389906336187
3948.0,0.0016951210686132123
3947.0,0.0016470687758478554
3946.0,0.0015935245381544132
3945.0,0.0015537960983922645
3944.0,0.0015344145151086376
3943.0,0.0015298019782389568
3942.0,0.0015373117768195735
3941.0,0.0015748919135666868
3940.0,0.0016516159063885002
3939.0,0.001721140072471511
3938.0,0.0017213869274307408
3937.0,0.001653209738800435
3936.0,0.0015759848872271979
3935.0,0.0015392030474917157
3934.0,0.0015387917884972114
3933.0,0.0015506320101395547
3932.0,0.0015688008297544088
3931.0,0.0016002566884787987
3930.0,0.001649073438760933
3929.0,0.0017065222443110725
3928.0,0.0017603388520097346
3927.0,0.0018066981943477356
3926.0,0.0018419044611937378
3925.0,0.001854076292718082
3924.0,0.0018408754268113142
3923.0,0.001828942732841148
3922.0,0.0018318791613798468
3921.0,0.0018176323872299048
3920.0,0.001778548284468385
3919.0,0.0017747519956328997
3918.0,0.001847489957855073
3917.0,0.0019467731610619612
3916.0,0.0020087489622437624
3915.0,0.002047880458434153
3914.0,0.0021048635552558355
3913.0,0.0021619203850379064
3912.0,0.002175322001136004
3911.0,0.002141553198361769
3910.0,0.002085906343415536
3909.0,0.002024259743484181
3908.0,0.0019459314718380727
3907.0,0.0018484280762114166
3906.0,0.0017466143903994997
3905.0,0.0016544157018379283
3904.0,0.0015543235291326472
3903.0,0.0014528469034020292
3902.0,0.0014289066119827498
3901.0,0.0015248444537097564
3900.0,0.001657079210255685
3899.0,0.0017292361104217996
3898.0,0.001758231788807959
3897.0,0.0018056135279348904
3896.0,0.0018478705909970704
3895.0,0.00181277239174343
3894.0,0.0017224786596038077
3893.0,0.0016977616986547763
3892.0,0.0017676441539477223
3891.0,0.001790882050538416
3890.0,0.0017159263368345572
3889.0,0.0016984678704174121
3888.0,0.0017962196404786492
3887.0,0.0019093766656459472
3886.0,0.0019485733256945862
3885.0,0.0018893073453906482
3884.0,0.001818267521734169
3883.0,0.0018570021208843112
3882.0,0.0019502923854610122
3881.0,0.0019705155858758946
3880.0,0.001881914447674147
3879.0,0.0017765467990416657
3878.0,0.001808211029430155
3877.0,0.0019571706810793347
3876.0,0.0020283508325647888
3875.0,0.00189992662352452
3874.0,0.0016170662103405908
3873.0,0.0013641589760015052
3872.0,0.0013225000697362705
3871.0,0.0014540386052932994
3870.0,0.0015247805421134296
3869.0,0.0014369779972424768
3868.0,0.0014300153406570067
3867.0,0.001677086993813361
3866.0,0.0019577280600212767
3865.0,0.0020392886250466258
3864.0,0.001961891444413744
3863.0,0.0018722137095478547
3862.0,0.0018491035571161687
3861.0,0.0018665088768373313
3860.0,0.0018555486339804153
3859.0,0.0017850389841225006
3858.0,0.0016384753746493926
3857.0,0.0014341209053643023
3856.0,0.001260648305669066
3855.0,0.0013200386135318477
3854.0,0.0016551976120704574
3853.0,0.001745662970351415
3852.0,0.001422924350670175
3851.0,0.0013687986837659007
3850.0,0.001735748929488583
3849.0,0.0020751632155350244
3848.0,0.0021807219067720585
3847.0,0.0021230646715788533
3846.0,0.002017490254582438
3845.0,0.00192431505535614
3844.0,0.0018599171804160406
3843.0,0.001804110743102192
3842.0,0.0017485360030319586
3841.0,0.001720169394965475
3840.0,0.0017271918906628467
3839.0,0.0017327035861439237
3838.0,0.0016688960502335573
3837.0,0.0015458782961510669
3836.0,0.0014896931645955857
3835.0,0.001601980339716663
3834.0,0.0018385900837077467
3833.0,0.002069105874736684
3832.0,0.0021723058464427104
3831.0,0.002121472708036758
3830.0,0.002004929012205327
3829.0,0.001929016400557911
3828.0,0.0019120406449520538
3827.0,0.0018808265175666566
3826.0,0.001767892272205085
3825.0,0.001628309971259177
3824.0,0.0015814934596659908
3823.0,0.0016661782705753641
3822.0,0.0018236953247219656
3821.0,0.0018670911186144945
3820.0,0.0016953876497383625
3819.0,0.0016251037286252974
3818.0,0.0018263818871662816
3817.0,0.002016168292517442
3816.0,0.0019434970300431552
3815.0,0.0016733190158606708
3814.0,0.0015328445108794275
3813.0,0.0016604631444997733
3812.0,0.0018152875788038265
3811.0,0.0018052098705650128
3810.0,0.001725261462886902
3809.0,0.0017429876002448674
3808.0,0.0018518885053403662
3807.0,0.001848472918596477
3806.0,0.0016388662423869136
3805.0,0.0014581240987563823
3804.0,0.001516938237918002
3803.0,0.00172716424119758
3802.0,0.001880497327801974
3801.0,0.0017817564490074673
3800.0,0.0015445390440593405
3799.0,0.0015420565584400346
3798.0,0.0017574480273816213
3797.0,0.0018960071049853753
3796.0,0.0018654216674183948
3795.0,0.0017947138773023444
3794.0,0.0018284394796268411
3793.0,0.0019457873879817258
3792.0,0.00203621070804673
3791.0,0.0020630179442922376
3790.0,0.0020635342107853775
3789.0,0.002060322778002721
3788.0,0.0020576753404174383
3787.0,0.002068732254571497
3786.0,0.0020943858919449283
3785.0,0.00208494469324106
3784.0,0.0019989906776489543
3783.0,0.0018854959473451442
3782.0,0.0018320522418108923
3781.0,0.00186169997283694
3780.0,0.0019321013229896232
3779.0,0.0019813116496340214
3778.0,0.002006069099780898
3777.0,0.0020708929024996813
3776.0,0.002160020147163516
3775.0,0.002171372910432761
3774.0,0.0020812573323746395
3773.0,0.0019964501391931903
3772.0,0.002013782004823824
3771.0,0.0020914604651070803
3770.0,0.002086228790186795
3769.0,0.0019489497523628016
3768.0,0.001811336258301553
3767.0,0.001786657273245523
3766.0,0.0018158351488873955
3765.0,0.0018006809289771242
3764.0,0.0017578530578126281
3763.0,0.0017718190416676936
3762.0,0.0018329501571611936
3761.0,0.0018570845305098333
3760.0,0.0018509651536883602
3759.0,0.001874369955450178
3758.0,0.0018972956526797256
3757.0,0.0018535475739872012
3756.0,0.0017285056957004816
3755.0,0.0015396549967705763
3754.0,0.0013038025553540932
3753.0,0.0011263040184242472
3752.0,0.001246395355200055
3751.0,0.001672070035995358
3750.0,0.001964395772737805
3749.0,0.0019044464268996595
3748.0,0.0017480839351382595
3747.0,0.0017139264806146004
3746.0,0.001803879759663605
3745.0,0.0019006850968903343
3744.0,0.0017737642517116747
3743.0,0.0014917134689089468
3742.0,0.0014718615421796099
3741.0,0.001651207170004534
3740.0,0.00165765969278485
3739.0,0.0014759456214444178
3738.0,0.0013394319557952228
3737.0,0.001408778369136567
3736.0,0.0016081904257768008
3735.0,0.0017331516086638238
3734.0,0.0017426675748074142
3733.0,0.0017765661686518245
3732.0,0.0018616599118967698
3731.0,0.00194401294842542
3730.0,0.0020532122517996363
3729.0,0.0021989119005655965
3728.0,0.0022883562151942757
3727.0,0.0022376705060798514
3726.0,0.0020884027561364612
3725.0,0.0019779482976879518
3724.0,0.0019957300466461195
3723.0,0.0020873479813953892
3722.0,0.002151426350725986
3721.0,0.002153475328822674
3720.0,0.0021251789846834157
3719.0,0.0020886012605758958
3718.0,0.0020212311520720434
3717.0,0.001910114812076296
3716.0,0.001789509587465492
3715.0,0.0017074671974890779
3714.0,0.00169621645197174
3713.0,0.0018192872899109314
3712.0,0.002101196141092914
3711.0,0.002377019785147313
3710.0,0.002512337476809956
3709.0,0.0026170164482421793
3708.0,0.002777877573136604
3707.0,0.0029359266669502114
3706.0,0.003038789543954602
3705.0,0.0031079796689362418
3704.0,0.0031902591106899468
3703.0,0.003300395141457714
3702.0,0.003405715728523144
3701.0,0.00347394776152827
3700.0,0.003560983005936144
3699.0,0.00374566411306563
3698.0,0.003975672945384422
3697.0,0.0041129773630480294
3696.0,0.004099242941809542
3695.0,0.003991836027754976
3694.0,0.003849644341428731
3693.0,0.0036643832226522354
3692.0,0.003439789076867112
3691.0,0.0032566031545424546
3690.0,0.0031700953951074575
3689.0,0.003092534138678679
3688.0,0.0029743254807612935
3687.0,0.0029738882556118477
3686.0,0.0031887040396687922
3685.0,0.0034692784158483906
3684.0,0.003626730219545804
3683.0,0.00363635686657136
3682.0,0.0035862879604624687
3681.0,0.0035135776765269676
3680.0,0.0033610330818594734
3679.0,0.0031292269436139055
3678.0,0.0029555202118002827
3677.0,0.002972588272099747
3676.0,0.0030762451787159422
3675.0,0.0029438005433261886
3674.0,0.002703884592962018
3673.0,0.0028328157682816777
3672.0,0.003255666567495725
3671.0,0.003599869688320016
3670.0,0.0036875240156238366
3669.0,0.0035091686235055666
3668.0,0.0033228078447273797
3667.0,0.0033434118471243205
3666.0,0.003452874138395852
3665.0,0.0035150992943313196
3664.0,0.0035491829088876133
3663.0,0.0036000929143072593
3662.0,0.0036435260324842794
3661.0,0.0036339025754521586
3660.0,0.0035874844331149312
3659.0,0.0035846463211672364
3658.0,0.0036815097844699997
3657.0,0.003824144326627259
3656.0,0.003873511174941978
3655.0,0.003810412301722378
3654.0,0.003784711591119782
3653.0,0.003825238898906398
3652.0,0.0038180464592029962
3651.0,0.0037902688458255705
3650.0,0.00390280102625107
3649.0,0.0040233916782310706
3648.0,0.0039148674136766735
3647.0,0.003752129503545129
3646.0,0.0037652970940025114
3645.0,0.003926844386629508
3644.0,0.004105476492969818
3643.0,0.004212779230789295
3642.0,0.004249695114190547
3641.0,0.004272650858370754
3640.0,0.004324203751685173
3639.0,0.004393033049217423
3638.0,0.0044483352403705614
3637.0,0.004511608775285513
3636.0,0.004622113260523449
3635.0,0.004735969523565206
3634.0,0.004750509633254817
3633.0,0.004650340011664551
3632.0,0.004562487345255292
3631.0,0.004621960557778538
3630.0,0.004872568821328251
3629.0,0.005101937336830743
3628.0,0.005005970378309552
3627.0,0.0048379563730893485
3626.0,0.004965793248368301
3625.0,0.0052234423997571874
3624.0,0.005365957916761862
3623.0,0.0053865808840714985
3622.0,0.0053819238035790265
3621.0,0.005404578129303202
3620.0,0.005427320852558136
3619.0,0.005374425186729584
3618.0,0.005240262906690593
3617.0,0.005151043726263075
3616.0,0.005170942742228336
3615.0,0.005209340381530007
3614.0,0.005165588175886743
3613.0,0.005037067329585596
3612.0,0.004927525776537987
3611.0,0.004964719980989024
3610.0,0.005171717463695807
3609.0,0.005436009447471017
3608.0,0.005593665563707113
3607.0,0.005574397191230224
3606.0,0.005474170045955415
3605.0,0.005408241660726109
3604.0,0.005394127459123512
3603.0,0.005407342088434523
3602.0,0.005420305078313597
3601.0,0.005383636210368846
3600.0,0.005261449553855588
3599.0,0.005098723554174086
3598.0,0.004989306731021229
3597.0,0.004994634596393285
3596.0,0.005112042380437127
3595.0,0.005273838184447276
3594.0,0.005396031981587097
3593.0,0.005456717423997724
3592.0,0.005489014638174717
3591.0,0.005490708874927494
3590.0,0.005419537212520829
3589.0,0.0052713151065582955
3588.0,0.005106622191019237
3587.0,0.004971443126183531
3586.0,0.004922171002330429
3585.0,0.005036765734549042
3584.0,0.00526613060558398
3583.0,0.005469290725932708
3582.0,0.005568011789880702
3581.0,0.005562469349249095
3580.0,0.005485413707904261
3579.0,0.005385614512884532
3578.0,0.005319502257446564
3577.0,0.005322414381792732
3576.0,0.00539411997108827
3575.0,0.005504016186562915
3574.0,0.005608078008787267
3573.0,0.005659967564706882
3572.0,0.005621775409695386
3571.0,0.0054835418817581316
3570.0,0.005291342046695367
3569.0,0.005159717925347702
3568.0,0.0052046674096998535
3567.0,0.005357799800321758
3566.0,0.00542369886696422
3565.0,0.005410627242858979
3564.0,0.005447476149789285
3563.0,0.005538800244945987
3562.0,0.005629182661357571
3561.0,0.005697822998561152
3560.0,0.005753897340260284
3559.0,0.0058138819069894175
3558.0,0.005892668828075438
3557.0,0.005994435230235944
3556.0,0.006108898178655507
3555.0,0.006219505032847423
3554.0,0.006305324343101916
3553.0,0.006343036264959818
3552.0,0.006325804298384119
3551.0,0.006289156710920868
3550.0,0.0062851558805626755
3549.0,0.00632725440565692
3548.0,0.006394282812368207
3547.0,0.006472299827012489
3546.0,0.0065510940816581285
3545.0,0.0066111283515327916
3544.0,0.006646193100480336
3543.0,0.006670764362864855
3542.0,0.006698858516148414
3541.0,0.006736661169020617
3540.0,0.006787227361575939
3539.0,0.006851656134301757
3538.0,0.0069234262133355835
3537.0,0.006988740972362465
3536.0,0.0070303066833033185
3535.0,0.0070358054869994035
3534.0,0.007001046545026061
3533.0,0.006928529673300841
3532.0,0.006836613933082618
3531.0,0.006764322382834913
3530.0,0.006748697137479083
3529.0,0.00679103727785944
3528.0,0.006862999845089682
3527.0,0.0069411177363461075
3526.0,0.007018701366940813
3525.0,0.007082938437777277
3524.0,0.007109940921997385
3523.0,0.007090870202538083
3522.0,0.007049931241486314
3521.0,0.007026471662796876
3520.0,0.007042988878963437
3519.0,0.007096857595954669
3518.0,0.007169367336436401
3517.0,0.007233135828669808
3516.0,0.00726241559472233
3515.0,0.0072544938500905785
3514.0,0.00724166783446706
3513.0,0.0072682374448518865
3512.0,0.007343931703466136
3511.0,0.007424988960200463
3510.0,0.007457524067163521
3509.0,0.007439917764410955
3508.0,0.007430175419010886
3507.0,0.007482725173019528
3506.0,0.007595014602113072
3505.0,0.007722713846739242
3504.0,0.007826867012048391
3503.0,0.007890412548824591
3502.0,0.00791139983849361
3501.0,0.007899716900799068
3500.0,0.007873221242586083
3499.0,0.007856373711472195
3498.0,0.007877537181184889
3497.0,0.0079486991541062
3496.0,0.008049277781289324
3495.0,0.008144119876174485
3494.0,0.008216978007744423
3493.0,0.008275276573392408
3492.0,0.008327619787205089
3491.0,0.008367211469414697
3490.0,0.008375666871641175
3489.0,0.008338254732914066
3488.0,0.008259707690029466
3487.0,0.00817317742530108
3486.0,0.00813097431794175
3485.0,0.008175376371050412
3484.0,0.008308310587699196
3483.0,0.008482335120769851
3482.0,0.008622931314860905
3481.0,0.008679104596817951
3480.0,0.00866635710269258
3479.0,0.00864857666541702
3478.0,0.008674747467926906
3477.0,0.008737022434021928
3476.0,0.008785816500570474
3475.0,0.008785782355652272
3474.0,0.008759058227801157
3473.0,0.008767230453488243
3472.0,0.008849366391164237
3471.0,0.008986922913347031
3470.0,0.009127220049718094
3469.0,0.009226933423221171
3468.0,0.009271753032990404
3467.0,0.009272563179523886
3466.0,0.009256703482402623
3465.0,0.009251815370348557
3464.0,0.009260433759208788
3463.0,0.009255154374174497
3462.0,0.009213710084799268
3461.0,0.009159812678209436
3460.0,0.009153560323615058
3459.0,0.009234980894791899
3458.0,0.009385971163997224
3457.0,0.00954638337579523
3456.0,0.00965797108829514
3455.0,0.009698441368056162
3454.0,0.009687547884046068
3453.0,0.009669660640947927
3452.0,0.009684963383425121
3451.0,0.009744927178754139
3450.0,0.00982834854814112
3449.0,0.009898268692578639
3448.0,0.00993055989842595
3447.0,0.009930323741414334
3446.0,0.009925997449038796
3445.0,0.009947097732060785
3444.0,0.0100026560086875
3443.0,0.01007851540219333
3442.0,0.010148436572364273
3441.0,0.010185550668388579
3440.0,0.010177895786329333
3439.0,0.010143709460582346
3438.0,0.010126196108166525
3437.0,0.010162037741530695
3436.0,0.010248163899210164
3435.0,0.010345657604620856
3434.0,0.010419058849506755
3433.0,0.010466495725277546
3432.0,0.010511204298437781
3431.0,0.010570075392722873
3430.0,0.010637142732147466
3429.0,0.01069547151299792
3428.0,0.010737185927724205
3427.0,0.01076230215218519
3426.0,0.01076422977339337
3425.0,0.010731931911924137
3424.0,0.010673428027998142
3423.0,0.010626793226926045
3422.0,0.010633922758010075
3421.0,0.010701590807513966
3420.0,0.010795354191212846
3419.0,0.010871054761489914
3418.0,0.01090008548410247
3417.0,0.010871694660014357
3416.0,0.010796249059957914
3415.0,0.010710234558124818
3414.0,0.010658775421848296
3413.0,0.010659701552333797
3412.0,0.010691564996448688
3411.0,0.01072372942374707
3410.0,0.010750543069102851
3409.0,0.010786093911668893
3408.0,0.010830344981240188
3407.0,0.010855787224493561
3406.0,0.010835563125136624
3405.0,0.010780676597002959
3404.0,0.010738283838428552
3403.0,0.010747473628928795
3402.0,0.010801629027445702
3401.0,0.0108616782378411
3400.0,0.01090188052536142
3399.0,0.010932165435705535
3398.0,0.010975284359689304
3397.0,0.011031472013461123
3396.0,0.011073273416021231
3395.0,0.011071789466174741
3394.0,0.01102600867419065
3393.0,0.010972342876666829
3392.0,0.010965071429903966
3391.0,0.011035949774841604
3390.0,0.01116475510253264
3389.0,0.011291058468956668
3388.0,0.011362160724998035
3387.0,0.011373066428793894
3386.0,0.011357794094524965
3385.0,0.011344846811738255
3384.0,0.011331843722712735
3383.0,0.011307464408015465
3382.0,0.011284002176028792
3381.0,0.011292921189053192
3380.0,0.011348768550220462
3379.0,0.011427983439068827
3378.0,0.011489625538076986
3377.0,0.011510892974417201
3376.0,0.011495783151181473
3375.0,0.01145374226690847
3374.0,0.011384329373282936
3373.0,0.011289852531227591
3372.0,0.011194643456953248
3371.0,0.011137913871571922
3370.0,0.011142042455446876
3369.0,0.011191660943970368
3368.0,0.011249568432134222
3367.0,0.011293880139562647
3366.0,0.011334320797827365
3365.0,0.011390462479043401
3364.0,0.011462392938319679
3363.0,0.011531900229421013
3362.0,0.011587865442780572
3361.0,0.011637677314149091
3360.0,0.011689006927421617
3359.0,0.011730145377326707
3358.0,0.011738763057652726
3357.0,0.011707607368751798
3356.0,0.011654044442040667
3355.0,0.01160509024448976
3354.0,0.011579424446005682
3353.0,0.011582297267190629
3352.0,0.011606776783626916
3351.0,0.011634988837117085
3350.0,0.011647283759705742
3349.0,0.01163938992471361
3348.0,0.01162863014190596
3347.0,0.01163794155773476
3346.0,0.011673652652114388
3345.0,0.011720520922910897
3344.0,0.011753598460705474
3343.0,0.011752790452109845
3342.0,0.011714880707474166
3341.0,0.011661513295647104
3340.0,0.011631199160215018
3339.0,0.011649660818137089
3338.0,0.01170441195820879
3337.0,0.011755331649913289
3336.0,0.011774015951802693
3335.0,0.011767498827552401
3334.0,0.011762021314651759
3333.0,0.011774122444438056
3332.0,0.011802656546656808
3331.0,0.011838415644881037
3330.0,0.01187183471625766
3329.0,0.01189601264623115
3328.0,0.011910350532005945
3327.0,0.01191872351434869
3326.0,0.011919328325699868
3325.0,0.011902929319846121
3324.0,0.011868359498726416
3323.0,0.011833006735184858
3322.0,0.011817156986835147
3321.0,0.011821302983731694
3320.0,0.011828858556837529
3319.0,0.01182903032414184
3318.0,0.011827254588934133
3317.0,0.0118342576930384
3316.0,0.01185557664601816
3315.0,0.01189086014442679
3314.0,0.011930263350445645
3313.0,0.011949822907256739
3312.0,0.011927199855848197
3311.0,0.011871875090212765
3310.0,0.011828182968592482
3309.0,0.01183402671555129
3308.0,0.011880611932038721
3307.0,0.011923194412197422
3306.0,0.01192688179111218
3305.0,0.011893040998023826
3304.0,0.011848713092494198
3303.0,0.011824726621513966
3302.0,0.01184224428670337
3301.0,0.011905119234662294
3300.0,0.011994557493675064
3299.0,0.01207371315040653
3298.0,0.012106060998379057
3297.0,0.012078396333984947
3296.0,0.012012695207008251
3295.0,0.011954264767958933
3294.0,0.01193838611118625
3293.0,0.011959027534769531
3292.0,0.011972488680495498
3291.0,0.011940416651556963
3290.0,0.011868926122091405
3289.0,0.011799394862894419
3288.0,0.011765133293975086
3287.0,0.011764094749991053
3286.0,0.011769431303106712
3285.0,0.011757780749363225
3284.0,0.011729356577130179
3283.0,0.011709261745196129
3282.0,0.01172956293836383
3281.0,0.011801733751249125
3280.0,0.011903047620357847
3279.0,0.011993927511772555
3278.0,0.012048374465093083
3277.0,0.012063249155046729
3276.0,0.012042355895723824
3275.0,0.011984720117001654
3274.0,0.011892708156221841
3273.0,0.01178165518609738
3272.0,0.011674923572737576
3271.0,0.011594493513138326
3270.0,0.011556724182252563
3269.0,0.01156613207007058
3268.0,0.011608144695466617
3267.0,0.011656651405309745
3266.0,0.011694415044356442
3265.0,0.01172005137876723
3264.0,0.011733039556874745
3263.0,0.011724022344586783
3262.0,0.0116906602229831
3261.0,0.011653077652290561
3260.0,0.011637734947866964
3259.0,0.011647959206599258
3258.0,0.011661323423721065
3257.0,0.011654792133288336
3256.0,0.011624464677060827
3255.0,0.011584885749271733
3254.0,0.011556662304274028
3253.0,0.011549960607953167
3252.0,0.011550047818528204
3251.0,0.011523230112075317
3250.0,0.011449799779356479
3249.0,0.011351049934856661
3248.0,0.011273307949956691
3247.0,0.011244615403466952
3246.0,0.011255983115845027
3245.0,0.01128299546774121
3244.0,0.011310979123097215
3243.0,0.011333608457654971
3242.0,0.011341838082969794
3241.0,0.011327583009617474
3240.0,0.011293384443850602
3239.0,0.01125003662162255
3238.0,0.011207000474031708
3237.0,0.011168041495447641
3236.0,0.011131281704992507
3235.0,0.011090778072073038
3234.0,0.011043499208289124
3233.0,0.010999806220992154
3232.0,0.010982571924061157
3231.0,0.011009161414523964
3230.0,0.011073737693949643
3229.0,0.011148416628341307
3228.0,0.011200753805821568
3227.0,0.0112122368883563
3226.0,0.011185972733915587
3225.0,0.01113949285722848
3224.0,0.011088744996521677
3223.0,0.011038060710502217
3222.0,0.010986278249199226
3221.0,0.010939196443251337
3220.0,0.010909694488371788
3219.0,0.010905402948455944
3218.0,0.010921735931695419
3217.0,0.010944138946265457
3216.0,0.010949301249459701
3215.0,0.010910678154671073
3214.0,0.010820344624892569
3213.0,0.01070915259022809
3212.0,0.01062936868431035
3211.0,0.010606797071669017
3210.0,0.010616497064209817
3209.0,0.010613741894825222
3208.0,0.010584555032140461
3207.0,0.010555685132193278
3206.0,0.010556921088835913
3205.0,0.010584708090969994
3204.0,0.010606037787874834
3203.0,0.010592674932226155
3202.0,0.010548217508412871
3201.0,0.010502407050386374
3200.0,0.01048027874843937
3199.0,0.01047743689416737
3198.0,0.010466379389520183
3197.0,0.010426841981330705
3196.0,0.010366846378035297
3195.0,0.010312941898085154
3194.0,0.01028306114652844
3193.0,0.01027083268551265
3192.0,0.010253346004119129
3191.0,0.010213441409632412
3190.0,0.010157243225342488
3189.0,0.010110046658400991
3188.0,0.010092050107926223
3187.0,0.010097837319362549
3186.0,0.010104208625999719
3185.0,0.010098172073616494
3184.0,0.010090417041051484
3183.0,0.010097784476803581
3182.0,0.010118359718800821
3181.0,0.010129883684242518
3180.0,0.010110951378097739
3179.0,0.010060319022481825
3178.0,0.009996155108827747
3177.0,0.009940513335114524
3176.0,0.009906340546846101
3175.0,0.009895538191807057
3174.0,0.009901400085172195
3173.0,0.009908056620325076
3172.0,0.00989184684354109
3171.0,0.009834628503911468
3170.0,0.009743129014978202
3169.0,0.009651550485052866
3168.0,0.00959726577849572
3167.0,0.009591514946378986
3166.0,0.009615188130622345
3165.0,0.009639140714932475
3164.0,0.009644413124125013
3163.0,0.00962873008403167
3162.0,0.009603682908581386
3161.0,0.009586127956779258
3160.0,0.009584215458663812
3159.0,0.009588306061524969
3158.0,0.009578337937060553
3157.0,0.00954053750274986
3156.0,0.009474836511191038
3155.0,0.009390871611644617
3154.0,0.009306034033339487
3153.0,0.00924525230729345
3152.0,0.009227755582265627
3151.0,0.009246516289480517
3150.0,0.009269055442077241
3149.0,0.00926545507655028
3148.0,0.009230054501046046
3147.0,0.00917258729376037
3146.0,0.009100050030258482
3145.0,0.009018638870837441
3144.0,0.008945132147023239
3143.0,0.008899874119322814
3142.0,0.00888763090790154
3141.0,0.008896639125056817
3140.0,0.008916366158440037
3139.0,0.008944262504817887
3138.0,0.008973646348890519
3137.0,0.008988143810671985
3136.0,0.008974930282495458
3135.0,0.00893702152851185
3134.0,0.00888875977940271
3133.0,0.008844939034605754
3132.0,0.008817149028081806
3131.0,0.008812055943374605
3130.0,0.008823855469917092
3129.0,0.008831118242623302
3128.0,0.008810513810796602
3127.0,0.008757479988086297
3126.0,0.008690636436129008
3125.0,0.008634291172146452
3124.0,0.00859882651333773
3123.0,0.008576155877344846
3122.0,0.008548893746734678
3121.0,0.008505374384911462
3120.0,0.008450760486942445
3119.0,0.008402472702787848
3118.0,0.008371369213676852
3117.0,0.008350571926673232
3116.0,0.008330181350392577
3115.0,0.00832198432913513
3114.0,0.008356170112160844
3113.0,0.00844467827375109
3112.0,0.008554702662315828
3111.0,0.008629136333925041
3110.0,0.008634000186714008
3109.0,0.008581390558273104
3108.0,0.008508446881724394
3107.0,0.008444021167878141
3106.0,0.008399019759411186
3105.0,0.008376658268982607
3104.0,0.008376884962010517
3103.0,0.008386608508959162
3102.0,0.008376037099907583
3101.0,0.008320263043112291
3100.0,0.00822913793562557
3099.0,0.00814619123465854
3098.0,0.008112241189013969
3097.0,0.008134611651700898
3096.0,0.008190675333011677
3095.0,0.00825038477078416
3094.0,0.008289078108365844
3093.0,0.008288958504640231
3092.0,0.008245764035025055
3091.0,0.008177809642465414
3090.0,0.008117290584464178
3089.0,0.008086729191654709
3088.0,0.008088795019963643
3087.0,0.008117723314015658
3086.0,0.008167829149677326
3085.0,0.008226109856067827
3084.0,0.008269894328237215
3083.0,0.008283230092528678
3082.0,0.00827029500299097
3081.0,0.00824500227696032
3080.0,0.008213509539158656
3079.0,0.00817623514317013
3078.0,0.008140802055981016
3077.0,0.008118367232121398
3076.0,0.008106634342498255
3075.0,0.008089764551251545
3074.0,0.008059602831859353
3073.0,0.008027811243701125
3072.0,0.008011241441758217
3071.0,0.008010481700348961
3070.0,0.008008527564970969
3069.0,0.007988313703334849
3068.0,0.007946864949647659
3067.0,0.007893047681739688
3066.0,0.007836999737187596
3065.0,0.007786107488989587
3064.0,0.007749773997015983
3063.0,0.007740072415461079
3062.0,0.007760629380653732
3061.0,0.007796769403827572
3060.0,0.007823977714835478
3059.0,0.00782882263992717
3058.0,0.007817683688242526
3057.0,0.007803178977681482
3056.0,0.007787551743059132
3055.0,0.00776473478833388
3054.0,0.007734067216058
3053.0,0.007704415399044122
3052.0,0.0076863415310506975
3051.0,0.007684255612392504
3050.0,0.007692282008854469
3049.0,0.007693455640224054
3048.0,0.007668178074778429
3047.0,0.007611184966450234
3046.0,0.007538832624182038
3045.0,0.007473526779469074
3044.0,0.00742322945106518
3043.0,0.007382396389876467
3042.0,0.007349059483625157
3041.0,0.007328275740683518
3040.0,0.007316231919156568
3039.0,0.007293674267632931
3038.0,0.007243637238536063
3037.0,0.007170222458079186
3036.0,0.007094968993305289
3035.0,0.0070401702051297275
3034.0,0.007019484288975123
3033.0,0.007035847931774189
3032.0,0.007077470608926478
3031.0,0.007119541499488754
3030.0,0.007140556782772773
3029.0,0.007137054258358325
3028.0,0.0071182414630452575
3027.0,0.007092290380141246
3026.0,0.007064984141162509
3025.0,0.007045621184198008
3024.0,0.007043142498179481
3023.0,0.0070548162237142106
3022.0,0.007065919369824999
3021.0,0.007064064643806876
3020.0,0.00705117385828335
3019.0,0.007039922413604212
3018.0,0.007039780874215439
3017.0,0.00704683459159491
3016.0,0.0070468346121591585
3015.0,0.007030179565110213
3014.0,0.007004942565740744
3013.0,0.0069914511811024
3012.0,0.007000740531134121
3011.0,0.007022314206362585
3010.0,0.007038287067044126
3009.0,0.007045502082465023
3008.0,0.007056748645936759
3007.0,0.007082623386195653
3006.0,0.007119150288434116
3005.0,0.007152894005107909
3004.0,0.007172366362564162
3003.0,0.0071744047776334755
3002.0,0.007165719729681998
3001.0,0.00716002129960931
3000.0,0.007167362869258613
2999.0,0.007181309093156072
2998.0,0.007180730878479034
2997.0,0.007150046596905149
2996.0,0.007096959124186151
2995.0,0.00704700473640101
2994.0,0.007020749288476085
2993.0,0.007018282825551701
2992.0,0.007026214156840837
2991.0,0.00703719576793381
2990.0,0.007059496660662468
2989.0,0.007105213284624112
2988.0,0.0071700632609314734
2987.0,0.007230672004702369
2986.0,0.007267294131599263
2985.0,0.007287283053501025
2984.0,0.007319482874215076
2983.0,0.007384025670186147
2982.0,0.007471481582448697
2981.0,0.007552606314018908
2980.0,0.0076053325146382585
2979.0,0.007631450244669748
2978.0,0.007651470071478497
2977.0,0.007687889704673543
2976.0,0.0077518756562736345
2975.0,0.007840204923129306
2974.0,0.007939564512824305
2973.0,0.008032218991631083
2972.0,0.008101627410808008
2971.0,0.00813990157888901
2970.0,0.008153258861777953
2969.0,0.008156298151154436
2968.0,0.008156717945813357
2967.0,0.008148300474804089
2966.0,0.00812314856433139
2965.0,0.008087070060909914
2964.0,0.008056453904832802
2963.0,0.008042503826191113
2962.0,0.008044803424675038
2961.0,0.008057095787262856
2960.0,0.008070202445557811
2959.0,0.00807010200743106
2958.0,0.008043679537493353
2957.0,0.007989901114069973
2956.0,0.007919234249982999
2955.0,0.007841393522499806
2954.0,0.007761639960815686
2953.0,0.007689233524101429
2952.0,0.0076365960413908845
2951.0,0.0076027479229480565
2950.0,0.007566095128226943
2949.0,0.00750417827503147
2948.0,0.007419029212797202
2947.0,0.007337189758280949
2946.0,0.007285264804105332
2945.0,0.007267810696311815
2944.0,0.007266831038240532
2943.0,0.007260322742896754
2942.0,0.007244187547688196
2941.0,0.00723688968492304
2940.0,0.0072578595361635564
2939.0,0.007300923194625469
2938.0,0.007337655827807274
2937.0,0.007350480486001823
2936.0,0.007351425093592618
2935.0,0.007359195414019368
2934.0,0.007368664379384085
2933.0,0.007359350893297796
2932.0,0.00733056426065954
2931.0,0.007311658386155101
2930.0,0.007333185887776735
2929.0,0.007397885189631387
2928.0,0.007483193089057968
2927.0,0.007562503286053178
2926.0,0.007618458336087427
2925.0,0.007644754000141427
2924.0,0.007646072327435697
2923.0,0.00763634945362196
2922.0,0.007631103726882391
2921.0,0.007636672226990221
2920.0,0.007643518222200885
2919.0,0.007628990992684782
2918.0,0.0075726317135041184
2917.0,0.007477378166313617
2916.0,0.007375827512976699
2915.0,0.0073079636911458565
2914.0,0.0072891747418877915
2913.0,0.007302675926305298
2912.0,0.007322161501555388
2911.0,0.007335324417263927
2910.0,0.007343440268256715
2909.0,0.007347734209055486
2908.0,0.007344094898122893
2907.0,0.007327496809792182
2906.0,0.007294261650996611
2905.0,0.007240632256566197
2904.0,0.0071655263776157305
2903.0,0.007077034406751143
2902.0,0.006990739190584324
2901.0,0.006919229385068816
2900.0,0.006861515316119896
2899.0,0.00680866217983846
2898.0,0.006755365094326093
2897.0,0.0067035528814310096
2896.0,0.006657844130514163
2895.0,0.0066192819465339305
2894.0,0.006586880524972289
2893.0,0.006561951490286971
2892.0,0.006546979015679095
2891.0,0.006539825757679189
2890.0,0.0065331884994511355
2889.0,0.0065224146006296335
2888.0,0.0065111092537373395
2887.0,0.006504882699085028
2886.0,0.006500498593278378
2885.0,0.00648597493001709
2884.0,0.006453110133264439
2883.0,0.006406734737046808
2882.0,0.006360090710860803
2881.0,0.006323891288842507
2880.0,0.006301875010960993
2879.0,0.0062939570525921106
2878.0,0.006298898611779895
2877.0,0.006313101343410968
2876.0,0.006329310628384328
2875.0,0.0063384129913749004
2874.0,0.006333686154859564
2873.0,0.006315156088611619
2872.0,0.00629072098088169
2871.0,0.006270713447448506
2870.0,0.006258441890651847
2869.0,0.006246411634904506
2868.0,0.006223944898208508
2867.0,0.006188691148723896
2866.0,0.006149202452730441
2865.0,0.006116905834117172
2864.0,0.006098600231819237
2863.0,0.006097103832985493
2862.0,0.006114707343987669
2861.0,0.006150474171531816
2860.0,0.006193400344138986
2859.0,0.006222965798981026
2858.0,0.006222731695174462
2857.0,0.006196723113734535
2856.0,0.006170504325938341
2855.0,0.006171091444717983
2854.0,0.0062024262351988695
2853.0,0.006240802370811564
2852.0,0.0062554595865750885
2851.0,0.00623314024725379
2850.0,0.006183493190054954
2849.0,0.006124575584739654
2848.0,0.006066808528953707
2847.0,0.006010122704777302
2846.0,0.0059516087137551415
2845.0,0.0058923852552799656
2844.0,0.00583687338898962
2843.0,0.005786940410685261
2842.0,0.005739016669499075
2841.0,0.005689284655446187
2840.0,0.005641810412079459
2839.0,0.00560795990655077
2838.0,0.005594378148935856
2837.0,0.005593209653050801
2836.0,0.005587720195724636
2835.0,0.005567258822244505
2834.0,0.005534847005645463
2833.0,0.005502576863544313
2832.0,0.005484073183976174
2831.0,0.005488559139851258
2830.0,0.005512993919905087
2829.0,0.005536613631679218
2828.0,0.005530663350362606
2827.0,0.005481650278212875
2826.0,0.005405031111811124
2825.0,0.00533324730515922
2824.0,0.005291402995164579
2823.0,0.005284555029571228
2822.0,0.005301872464205702
2821.0,0.005325937111148909
2820.0,0.00534084391874524
2819.0,0.005340044258622615
2818.0,0.005329389388762215
2817.0,0.005319452948585343
2816.0,0.005313573220553719
2815.0,0.005305560740547312
2814.0,0.00528833863944779
2813.0,0.005261535437834614
2812.0,0.005231305549724664
2811.0,0.005206771257236743
2810.0,0.005196400582010632
2809.0,0.0052027491123522685
2808.0,0.005218896694714608
2807.0,0.0052336904747363935
2806.0,0.005241782454283898
2805.0,0.005245160200771522
2804.0,0.005244348217862218
2803.0,0.005233577335039245
2802.0,0.005208332501264983
2801.0,0.005173967681049561
2800.0,0.005142412887673622
2799.0,0.005121416251594596
2798.0,0.005109112642204016
2797.0,0.005097199037415243
2796.0,0.005077597284671501
2795.0,0.005049099263266735
2794.0,0.005020633458041053
2793.0,0.005005323210033843
2792.0,0.005007600361314453
2791.0,0.005018631534296722
2790.0,0.005029044081732665
2789.0,0.005043600552756173
2788.0,0.005075482119387427
2787.0,0.005124108504287543
2786.0,0.005165207439365535
2785.0,0.005168877043318713
2784.0,0.005126808155636755
2783.0,0.005059222114626959
2782.0,0.004996483600075924
2781.0,0.004956579760161927
2780.0,0.00493818127851129
2779.0,0.004929959960463841
2778.0,0.004923216267548794
2777.0,0.004917333237945445
2776.0,0.004916561129777682
2775.0,0.0049226981536659884
2774.0,0.004930282999910141
2773.0,0.00492927294970679
2772.0,0.00491418124242763
2771.0,0.004891050308769381
2770.0,0.004873415578962324
2769.0,0.004869855309427943
2768.0,0.004876659753611294
2767.0,0.00488376034936959
2766.0,0.004885664962784075
2765.0,0.004883757711282227
2764.0,0.004880029888804906
2763.0,0.004873876680751175
2762.0,0.00486595136587649
2761.0,0.004860029266582431
2760.0,0.004857369277758974
2759.0,0.004852083841377841
2758.0,0.004836131973247808
2757.0,0.00480835225079175
2756.0,0.0047762817214945935
2755.0,0.004750317063080885
2754.0,0.004738193534889114
2753.0,0.0047423175263277655
2752.0,0.004757666717593201
2751.0,0.004772514744940252
2750.0,0.0047761904860084275
2749.0,0.004768244204773851
2748.0,0.004757474691727722
2747.0,0.004751366642134316
2746.0,0.004749805527156213
2745.0,0.004750540817142664
2744.0,0.004756415783067382
2743.0,0.004772807849161087
2742.0,0.004798996587561961
2741.0,0.004825375890908892
2740.0,0.004839368398600383
2739.0,0.004832988644562321
2738.0,0.004806813715834693
2737.0,0.004770231526996732
2736.0,0.00473748262709729
2735.0,0.0047193473936174134
2734.0,0.004716152798758744
2733.0,0.004719710844965432
2732.0,0.00472217196414847
2731.0,0.004721368992139082
2730.0,0.004717504093221313
2729.0,0.0047081941198817276
2728.0,0.004690041374029035
2727.0,0.004664467592317662
2726.0,0.004639423294690717
2725.0,0.004623737077279306
2724.0,0.004619416675824182
2723.0,0.004619429874848464
2722.0,0.004614145816783498
2721.0,0.004601670569009236
2720.0,0.004591205976634342
2719.0,0.0045937758456525155
2718.0,0.004609608046646124
2717.0,0.004628348384380915
2716.0,0.004642604545262411
2715.0,0.004655777438253669
2714.0,0.004672338195107058
2713.0,0.004685765762144714
2712.0,0.004685017008340647
2711.0,0.004671924933096072
2710.0,0.004662361631714412
2709.0,0.004666311873338146
2708.0,0.0046742917736396035
2707.0,0.004669729757384485
2706.0,0.004649722649968478
2705.0,0.004626090948335096
2704.0,0.004608603652698101
2703.0,0.004595320329117903
2702.0,0.004580163936987887
2701.0,0.004562922836781072
2700.0,0.0045486472892128415
2699.0,0.0045416422644419955
2698.0,0.004542988364398855
2697.0,0.004550721095008662
2696.0,0.00455933132490363
2695.0,0.004561421472494229
2694.0,0.004553184643518322
2693.0,0.004537707296858654
2692.0,0.0045211785683665585
2691.0,0.004507114319741663
2690.0,0.004496555899232773
2689.0,0.004492730400104079
2688.0,0.004501736048351386
2687.0,0.004525987108538968
2686.0,0.0045568255430009745
2685.0,0.004575752346012358
2684.0,0.004566676924170807
2683.0,0.004530200830235199
2682.0,0.004485482768031588
2681.0,0.004455041729007112
2680.0,0.0044464205978971254
2679.0,0.004450027645148951
2678.0,0.004454481023076265
2677.0,0.004459582777364976
2676.0,0.004471885907156376
2675.0,0.004491401917652567
2674.0,0.004508415027938998
2673.0,0.004513849364707659
2672.0,0.004508798423981789
2671.0,0.00450188861021849
2670.0,0.004499727723569695
2669.0,0.004502031272189402
2668.0,0.004504813163603969
2667.0,0.004506392937677146
2666.0,0.004510707580349518
2665.0,0.004525811615907683
2664.0,0.004557705790131944
2663.0,0.004602963271426088
2662.0,0.004647006744123625
2661.0,0.004672238289443276
2660.0,0.004670324909742311
2659.0,0.004647179192551357
2658.0,0.004616541978463064
2657.0,0.004589832152695839
2656.0,0.004571412482633098
2655.0,0.004559701785287483
2654.0,0.004550014098522733
2653.0,0.004538364563664618
2652.0,0.004526063305622298
2651.0,0.004519849369321185
2650.0,0.004523833061030225
2649.0,0.004531373190509383
2648.0,0.004529090159524273
2647.0,0.004510275842728964
2646.0,0.004481329765003063
2645.0,0.0044538604716840065
2644.0,0.004433911693564419
2643.0,0.004420301032327636
2642.0,0.004408981741162249
2641.0,0.004395652517812004
2640.0,0.00437724989405377
2639.0,0.004354548541554978
2638.0,0.004331454223818261
2637.0,0.004309878055365235
2636.0,0.004289123096578275
2635.0,0.004272630679596707
2634.0,0.004268524436691177
2633.0,0.004276352896760119
2632.0,0.004278266500016437
2631.0,0.004254391536315733
2630.0,0.004207927293982804
2629.0,0.004166834163681469
2628.0,0.004157421143579266
2627.0,0.004179874400060561
2626.0,0.004209429050656115
2625.0,0.0042164520293890145
2624.0,0.004187991079188073
2623.0,0.004139683266543372
2622.0,0.004108082765574731
2621.0,0.004120462084022623
2620.0,0.004165335831060476
2619.0,0.004198743596462294
2618.0,0.0041856145706310076
2617.0,0.004131854330778826
2616.0,0.004073362749622787
2615.0,0.004040472767531252
2614.0,0.004038408426870495
2613.0,0.00405424343686578
2612.0,0.004071354323313206
2611.0,0.00407772859968258
2610.0,0.004070048458867203
2609.0,0.004055084935754742
2608.0,0.00404443871457581
2607.0,0.004043612148689787
2606.0,0.004043853872259263
2605.0,0.004025375482405212
2604.0,0.003974143599456169
2603.0,0.0039011457980081344
2602.0,0.0038413003949790284
2601.0,0.003823129672949511
2600.0,0.003838497907530908
2599.0,0.0038526180516270337
2598.0,0.0038466680795053746
2597.0,0.003838554439531465
2596.0,0.0038556180215094096
2595.0,0.003899314786583314
2594.0,0.003947001279084251
2593.0,0.003977326659277146
2592.0,0.00397954410119853
2591.0,0.003946546624652478
2590.0,0.0038790241269607718
2589.0,0.0037972665769331997
2588.0,0.003732132874645802
2587.0,0.0036995016200013922
2586.0,0.003694128986505594
2585.0,0.0037087248137502417
2584.0,0.003743516072789373
2583.0,0.003791524485258679
2582.0,0.003829726705114665
2581.0,0.0038376168332788724
2580.0,0.0038180684096601105
2579.0,0.0037903074063849124
2578.0,0.003767505051622786
2577.0,0.003750458887904178
2576.0,0.003739439829382265
2575.0,0.003741387930659629
2574.0,0.003762716957531992
2573.0,0.0037990839157497087
2572.0,0.003833418447660752
2571.0,0.003843800346491036
2570.0,0.0038176256960623916
2569.0,0.003762638699546167
2568.0,0.0037024940137112055
2567.0,0.0036589878363911758
2566.0,0.0036405185902755434
2565.0,0.003646285611224217
2564.0,0.0036714252351267374
2563.0,0.0037015578721037307
2562.0,0.003711643918758269
2561.0,0.003684254975859038
2560.0,0.003628980944714871
2559.0,0.0035742860342393035
2558.0,0.0035404202256521904
2557.0,0.0035291312940436675
2556.0,0.0035376132500842816
2555.0,0.003566694897432529
2554.0,0.003608416626759191
2553.0,0.0036388099316206996
2552.0,0.003636964196617156
2551.0,0.0036072050255873817
2550.0,0.003571956644189386
2549.0,0.003545729743744716
2548.0,0.0035265697338885023
2547.0,0.0035111975973880797
2546.0,0.0035057071669761094
2545.0,0.00351768196127271
2544.0,0.0035469015388570543
2543.0,0.003587235726081107
2542.0,0.0036287676205424427
2541.0,0.0036548830177438006
2540.0,0.003650204666289342
2539.0,0.003621694056434379
2538.0,0.0036022108845608124
2537.0,0.0036180799847984812
2536.0,0.0036563277518855027
2535.0,0.003678945369554325
2534.0,0.003669409072623549
2533.0,0.003648395491309934
2532.0,0.0036380597920442435
2531.0,0.003628697282196231
2530.0,0.0035968285818227252
2529.0,0.0035465579688810393
2528.0,0.0035122215748269988
2527.0,0.0035174976872293694
2526.0,0.0035472448068643294
2525.0,0.003567070448997234
2524.0,0.0035604383378738756
2523.0,0.0035376526411317506
2522.0,0.003516541399973592
2521.0,0.0035078588149141804
2520.0,0.003518537492052458
2519.0,0.003554793538555102
2518.0,0.003612150510188622
2517.0,0.0036667915518092545
2516.0,0.0036871462618346578
2515.0,0.003658838303917618
2514.0,0.0035977316818134406
2513.0,0.0035387235217001862
2512.0,0.0035123825833280756
2511.0,0.003528429500654796
2510.0,0.0035726297280257533
2509.0,0.0036133328475758822
2508.0,0.003615990341702684
2507.0,0.003564077147600377
2506.0,0.003474743635068408
2505.0,0.0033921040007045085
2504.0,0.0033563576716949756
2503.0,0.003373283668831977
2502.0,0.003413289945681631
2501.0,0.00344036746869649
2500.0,0.003440313961932409
2499.0,0.0034218805488223933
2498.0,0.0033987006506131495
2497.0,0.003379491922135638
2496.0,0.003373569552501005
2495.0,0.0033928043286894144
2494.0,0.0034371840707565493
2493.0,0.0034817885510845465
2492.0,0.0034901097995628924
2491.0,0.0034471932456464054
2490.0,0.0033779439626430586
2489.0,0.0033291997927087065
2488.0,0.0033310275864116817
2487.0,0.0033725514299577887
2486.0,0.0034134491665377626
2485.0,0.0034201855714960563
2484.0,0.0033939299534125186
2483.0,0.003363445269992058
2482.0,0.0033520891338246544
2481.0,0.003357783548376028
2480.0,0.0033666319236679365
2479.0,0.0033746310820150826
2478.0,0.0033837071265159493
2477.0,0.003383618383036367
2476.0,0.0033575696233237706
2475.0,0.0033094439779274435
2474.0,0.003268299348363821
2473.0,0.003256499492406708
2472.0,0.0032662920073594304
2471.0,0.0032784498780340805
2470.0,0.0032907124211718703
2469.0,0.0033110643531753985
2468.0,0.003331799053773933
2467.0,0.003331401229080301
2466.0,0.0033031996552451443
2465.0,0.0032658845671352755
2464.0,0.003242105301103548
2463.0,0.003239087032298183
2462.0,0.003252781928911287
2461.0,0.0032764150850193297
2460.0,0.0032980277182574408
2459.0,0.003301150340291184
2458.0,0.003277324557183506
2457.0,0.0032330805297480737
2456.0,0.0031811953775109482
2455.0,0.003133562027427788
2454.0,0.003106562777280426
2453.0,0.0031201769086082022
2452.0,0.0031790480178740905
2451.0,0.0032597245567180496
2450.0,0.00332664295772019
2449.0,0.003358820991452613
2448.0,0.0033563332101539016
2447.0,0.003328774373975352
2446.0,0.003288248768514433
2445.0,0.0032492469419890292
2444.0,0.0032232833273933793
2443.0,0.0032137660030432877
2442.0,0.0032235327691362455
2441.0,0.0032618206397537807
2440.0,0.0033297182244434566
2439.0,0.0033996682156823225
2438.0,0.0034264313537275765
2437.0,0.0033880239968144925
2436.0,0.0033082882958878606
2435.0,0.0032322673929289936
2434.0,0.0031853148367130355
2433.0,0.0031608937991452176
2432.0,0.0031401250581377495
2431.0,0.003114702109272331
2430.0,0.0030942338732290646
2429.0,0.003098122141982097
2428.0,0.0031373598568025995
2427.0,0.0031983218697426395
2426.0,0.0032478948436434575
2425.0,0.003262657265540885
2424.0,0.0032517932974211244
2423.0,0.0032435760718402913
2422.0,0.0032499862443806865
2421.0,0.0032538140430187785
2420.0,0.003232216890257258
2419.0,0.0031839412360102617
2418.0,0.003128527602061945
2417.0,0.0030859716467005116
2416.0,0.0030638268035056743
2415.0,0.0030596407175259247
2414.0,0.0030673670509244987
2413.0,0.0030799437558832084
2412.0,0.0030895543817437525
2411.0,0.003087850151528109
2410.0,0.00306920608338683
2409.0,0.003040098257372344
2408.0,0.003024832535698817
2407.0,0.0030494154425548567
2406.0,0.0031099436738550317
2405.0,0.0031648012415308323
2404.0,0.0031721677649324976
2403.0,0.003133865007557614
2402.0,0.003090506838100579
2401.0,0.003074449007754351
2400.0,0.003081522812414905
2399.0,0.00309081389072063
2398.0,0.0030947705524928836
2397.0,0.0030989786510611573
2396.0,0.0031053030507209533
2395.0,0.0031112797908714822
2394.0,0.003120579265500947
2393.0,0.003139069895443492
2392.0,0.0031625409641480493
2391.0,0.0031826420235290774
2390.0,0.003207249273882308
2389.0,0.0032613077881980465
2388.0,0.0033591240592643233
2387.0,0.0034822821586019334
2386.0,0.0035925857984835906
2385.0,0.0036650565335943214
2384.0,0.003703799372911017
2383.0,0.003724767950764574
2382.0,0.00372420816481742
2381.0,0.0036674813419579604
2380.0,0.0035164110034609126
2379.0,0.0032740636224073555
2378.0,0.0029999572646376154
2377.0,0.0027738298977254966
2376.0,0.002647579654621706
2375.0,0.0026354536148883584
2374.0,0.0027321657851186376
2373.0,0.0029208546193019605
2372.0,0.0031555530023381507
2371.0,0.0033638849620985416
2370.0,0.003486757587655605
2369.0,0.003516282587584715
2368.0,0.0034878261033676177
2367.0,0.0034454022496760786
2366.0,0.003416670507707626
2365.0,0.0034071298616442413
2364.0,0.0034019512728716535
2363.0,0.0034002198551965467
2362.0,0.0034258326784770672
2361.0,0.003513323874850767
2360.0,0.003690348865410281
2359.0,0.0038771330831619258
2358.0,0.003891269872813934
2357.0,0.003641483467281636
2356.0,0.0032420819783640998
2355.0,0.002928898102452315
2354.0,0.0027994307161272056
2353.0,0.002835357921011218
2352.0,0.003005035975289686
2351.0,0.003252086332058144
2350.0,0.0034857362917147207
2349.0,0.003587574583997514
2348.0,0.0035299182809393767
2347.0,0.0034049291856921597
2346.0,0.0033830214802896275
2345.0,0.0035851678710377395
2344.0,0.003894582017269491
2343.0,0.004134070556160243
2342.0,0.00411308089452413
2341.0,0.0038016184001573583
2340.0,0.003400926230706141
2339.0,0.0031482321456939087
2338.0,0.0031201261754163177
2337.0,0.0032015855340765944
2336.0,0.003292624551097257
2335.0,0.0033509508601899376
2334.0,0.0033884018233549503
2333.0,0.0033800057346766235
2332.0,0.0033587520538055846
2331.0,0.003347981001572237
2330.0,0.003448065595963992
2329.0,0.003664048174071328
2328.0,0.003992793596601666
2327.0,0.004327255174581685
2326.0,0.004554995486374412
2325.0,0.004610320939662365
2324.0,0.004500334065189861
2323.0,0.004309783549324122
2322.0,0.004111561601898393
2321.0,0.003960095700389501
2320.0,0.0038884024915967234
2319.0,0.003878671031902526
2318.0,0.003909635395338862
2317.0,0.0039327461965207346
2316.0,0.003967784313198315
2315.0,0.0040217213939931825
2314.0,0.0041361700281695385
2313.0,0.004279556216515854
2312.0,0.004425267196129474
2311.0,0.00450738381992663
2310.0,0.004522733077802021
2309.0,0.004478965656590921
2308.0,0.004421794021949636
2307.0,0.004354033015891373
2306.0,0.004276937549139871
2305.0,0.004183310746297926
2304.0,0.004106819327839019
2303.0,0.0040735211539478875
2302.0,0.004103931581064405
2301.0,0.004167540106987442
2300.0,0.00423011202379978
2299.0,0.004250809260883861
2298.0,0.00423454014042811
2297.0,0.0042021219539115934
2296.0,0.004193207267079125
2295.0,0.0042140369681237565
2294.0,0.004243561555788855
2293.0,0.004242996534945767
2292.0,0.004201731256189195
2291.0,0.0041465014554330605
2290.0,0.004113649376806071
2289.0,0.004108110285789324
2288.0,0.004092297173320462
2287.0,0.004026715698893926
2286.0,0.003907009905954158
2285.0,0.0037713647510542094
2284.0,0.003663622942241762
2283.0,0.0036081042839873215
2282.0,0.003601786432237862
2281.0,0.003626039250365188
2280.0,0.0036531474760755182
2279.0,0.0036573396257019563
2278.0,0.003624754316734276
2277.0,0.003558823362786609
2276.0,0.0034804834806265537
2275.0,0.0034165801694669563
2274.0,0.003386283293450476
2273.0,0.003384027230138197
2272.0,0.0033853488847528593
2271.0,0.003370423747884633
2270.0,0.0033436889063159438
2269.0,0.0033209324537157854
2268.0,0.0033040248649147006
2267.0,0.003280059971705523
2266.0,0.0032494751353821503
2265.0,0.0032376303918632042
2264.0,0.0032694948689313994
2263.0,0.003337939550626393
2262.0,0.003407959886468414
2261.0,0.0034521384010675403
2260.0,0.0034683906433783237
2259.0,0.003466080667355178
2258.0,0.0034372123501861217
2257.0,0.003357123371822354
2256.0,0.0032139970730111294
2255.0,0.0030349067253871934
2254.0,0.0028773056131171613
2253.0,0.0027869103988553807
2252.0,0.0027676442443639003
2251.0,0.0027903875919512424
2250.0,0.0028340154859883074
2249.0,0.0029041483032330446
2248.0,0.0030125769689632108
2247.0,0.0031415186466373047
2246.0,0.0032389382058820924
2245.0,0.003254458189343173
2244.0,0.0031788940416108903
2243.0,0.0030457861343866958
2242.0,0.00290199818965152
2241.0,0.002785646564622013
2240.0,0.0027221610322224685
2239.0,0.0027200818382129882
2238.0,0.0027633980051087093
2237.0,0.0028262435322249195
2236.0,0.002907908716592686
2235.0,0.0030343228530106173
2234.0,0.0032009468992045924
2233.0,0.003331177936469324
2232.0,0.0033292995031236282
2231.0,0.0031784419876487386
2230.0,0.0029607386574268314
2229.0,0.002781195209459232
2228.0,0.0026929222302638687
2227.0,0.002691042063213127
2226.0,0.0027397806216211567
2225.0,0.002787600889006933
2224.0,0.0027916260845679223
2223.0,0.0027532820979692084
2222.0,0.002712093317499062
2221.0,0.0026912998616521085
2220.0,0.002673809955417708
2219.0,0.002646291293924995
2218.0,0.0026366675413108695
2217.0,0.0026821526626088356
2216.0,0.002780951532395567
2215.0,0.0028960549793260303
2214.0,0.00298283074095911
2213.0,0.002998321251458383
2212.0,0.0029217718759320145
2211.0,0.002793727136909289
2210.0,0.002701786012880895
2209.0,0.0026934275471681007
2208.0,0.0027289702086882813
2207.0,0.0027528700339028234
2206.0,0.0027712334824381533
2205.0,0.0028138802336720686
2204.0,0.0028637144233032465
2203.0,0.002892215493567107
2202.0,0.0029338238629459485
2201.0,0.003040871861538628
2200.0,0.0031702475930870523
2199.0,0.0032016725675007274
2198.0,0.0030879151173869137
2197.0,0.0029202507510015844
2196.0,0.002817559828628049
2195.0,0.0028062565200974317
2194.0,0.0028406180500464675
2193.0,0.002877340324166197
2192.0,0.0028820715415976837
2191.0,0.0028098606023395875
2190.0,0.002643185407738829
2189.0,0.0024422018660274756
2188.0,0.0023152668584969613
2187.0,0.002333806259410523
2186.0,0.0024820926873125775
2185.0,0.0026605924714394064
2184.0,0.0027321156087998944
2183.0,0.0026146045278962896
2182.0,0.002365252505733074
2181.0,0.0021503338239575683
2180.0,0.0020961186151378947
2179.0,0.002189540789259463
2178.0,0.0023362292436389744
2177.0,0.002464670443445033
2176.0,0.002546223159496902
2175.0,0.0025580437306978775
2174.0,0.002490966785221108
2173.0,0.0023942148942554787
2172.0,0.002356517942792329
2171.0,0.0024194230871752258
2170.0,0.0025365633802407923
2169.0,0.0026344663149862227
2168.0,0.002701306362790966
2167.0,0.0027996785939360044
2166.0,0.0029979232687873036
2165.0,0.0032992235297844732
2164.0,0.0036197470937290883
2163.0,0.003800680267910494
2162.0,0.0036442805122768327
2161.0,0.0030396860410722777
2160.0,0.00215234858424577
2159.0,0.0014008606048930162
2158.0,0.0011049602731129926
2157.0,0.0011964041047654685
2156.0,0.0013652620706263846
2155.0,0.0014259603859593684
2154.0,0.001447905858627216
2153.0,0.0015703379364166137
2152.0,0.0017889121629929455
2151.0,0.0019725555811136077
2150.0,0.002026815607462282
2149.0,0.0019667283649599378
2148.0,0.0018540062990931713
2147.0,0.0017313951929193495
2146.0,0.0016291678524208793
2145.0,0.0015804117600050596
2144.0,0.0015987426599584364
2143.0,0.0016615928669526463
2142.0,0.001728486469494141
2141.0,0.0017701918354326586
2140.0,0.0017882836083702527
2139.0,0.0018162425568832605
2138.0,0.001890873307766119
2137.0,0.0020102517150615853
2136.0,0.0021289286825967135
2135.0,0.002200994918869756
2134.0,0.0022093568580284794
2133.0,0.0021548268356779564
2132.0,0.002055240263191506
2131.0,0.0019675234080469904
2130.0,0.0019676738049400474
2129.0,0.0020715747495400837
2128.0,0.002199277137271692
2127.0,0.002257257104371492
2126.0,0.002241887632330688
2125.0,0.0022329101153355443
2124.0,0.002300711273546866
2123.0,0.002450673532945923
2122.0,0.002639644778199231
2121.0,0.002803181451628663
2120.0,0.0028776357940073563
2119.0,0.0028428689742014688
2118.0,0.002751523556612064
2117.0,0.0026870322801484927
2116.0,0.0026856587004536903
2115.0,0.0027217263285237705
2114.0,0.002760869763688211
2113.0,0.0027878572231143407
2112.0,0.002785423702524955
2111.0,0.002737491081127078
2110.0,0.0026685880068005106
2109.0,0.002635846483461724
2108.0,0.0026598949434411103
2107.0,0.0027013342461109716
2106.0,0.002722901315833682
2105.0,0.002732175440353449
2104.0,0.002743286392074823
2103.0,0.002745719487859712
2102.0,0.002743932240152668
2101.0,0.0027784990665172646
2100.0,0.0028586134771337924
2099.0,0.002911293880047729
2098.0,0.0028577726110137415
2097.0,0.00272262025899379
2096.0,0.00260856806447583
2095.0,0.002571145343416066
2094.0,0.0025764177373324136
2093.0,0.0025774309857080646
2092.0,0.002571144043916685
2091.0,0.002568342190317908
2090.0,0.0025579060947429487
2089.0,0.0025308295995218615
2088.0,0.0025136393433276664
2087.0,0.002547638301160248
2086.0,0.002641581218181586
2085.0,0.0027577818836292873
2084.0,0.0028424805969888786
2083.0,0.0028676491712701555
2082.0,0.0028493212472215103
2081.0,0.0028276675749232616
2080.0,0.002823588469944394
2079.0,0.0028206546783120217
2078.0,0.002799372643419424
2077.0,0.002775730424328396
2076.0,0.0027794547434785754
2075.0,0.0028004005814951573
2074.0,0.002789347686565768
2073.0,0.0027224213081336406
2072.0,0.0026389885882236023
2071.0,0.002596082812030365
2070.0,0.0026079235192349027
2069.0,0.002645450761227881
2068.0,0.002675446121126336
2067.0,0.0026772169906484123
2066.0,0.0026345603442516855
2065.0,0.002546275485374181
2064.0,0.0024479611234768817
2063.0,0.0023909421041893846
2062.0,0.0023883965234661694
2061.0,0.00240332505886365
2060.0,0.002400025329123545
2059.0,0.002390663319996658
2058.0,0.00240956705852982
2057.0,0.0024559547445491873
2056.0,0.0024992521333232326
2055.0,0.002543711754270735
2054.0,0.0026414370342732864
2053.0,0.0028128791508695307
2052.0,0.0029863375196522257
2051.0,0.003051075637836877
2050.0,0.002962676107052202
2049.0,0.0027725432134103347
2048.0,0.0025524702909200145
2047.0,0.0023325225496065665
2046.0,0.002136240150119349
2045.0,0.0020163320971615735
2044.0,0.002014276051575868
2043.0,0.002122327317267795
2042.0,0.0023040032717021462
2041.0,0.0025084516443005106
2040.0,0.002660992364273394
2039.0,0.002700033561937144
2038.0,0.0026480769517377395
2037.0,0.0026029874976888157
2036.0,0.0026104177684404184
2035.0,0.0025740127994055037
2034.0,0.002360682139135627
2033.0,0.0019864810031754955
2032.0,0.0016297196472013116
2031.0,0.0014512220843005128
2030.0,0.0014581672644983206
2029.0,0.0015321417134476158
2028.0,0.0015538846171612186
2027.0,0.001506742821777753
2026.0,0.0014703437100635035
2025.0,0.0015102537469154312
2024.0,0.0015862661734716973
2023.0,0.001602336952038577
2022.0,0.0015411878466221264
2021.0,0.0014917751696613723
2020.0,0.00152744755373993
2019.0,0.001616521709038493
2018.0,0.0016926564103320648
2017.0,0.0017603190728356331
2016.0,0.001867289612776471
2015.0,0.0019989225567495538
2014.0,0.0020769105412023594
2013.0,0.0020578170250697444
2012.0,0.0019788510356113322
2011.0,0.001895542273830905
2010.0,0.0018199277394631548
2009.0,0.001740523890300372
2008.0,0.0016653220704568271
2007.0,0.0016147222871631757
2006.0,0.0015930758553072823
2005.0,0.0015934181358570232
2004.0,0.001622637596130589
2003.0,0.001695056045569458
2002.0,0.0018041926369268177
2001.0,0.0019193251108085181
2000.0,0.0020227745903547423
1999.0,0.002136306385829522
1998.0,0.0022749391891464287
1997.0,0.0023910817934300194
1996.0,0.0023998861376722884
1995.0,0.0022698255419458303
1994.0,0.002070770661882095
1993.0,0.0019338475290893832
1992.0,0.0019411395333343226
1991.0,0.00205331800292717
1990.0,0.0021673791206430733
1989.0,0.002207399878276351
1988.0,0.0021593830580287697
1987.0,0.0020660141426503864
1986.0,0.0019975373709734427
1985.0,0.002001286365736229
1984.0,0.002063055613785825
1983.0,0.0021247980850180046
1982.0,0.002141567265316675
1981.0,0.002108889122318784
1980.0,0.0020364413550872876
1979.0,0.0019226152820119068
1978.0,0.0017706311642690779
1977.0,0.001620837365010045
1976.0,0.001526790407272316
1975.0,0.0015046633051302549
1974.0,0.0015275075515280348
1973.0,0.001561664387061984
1972.0,0.0015996875761012251
1971.0,0.0016609021452209782
1970.0,0.0017576915067749272
1969.0,0.001857596343767122
1968.0,0.0018926690227555575
1967.0,0.0018363680437143808
1966.0,0.0017588029641074044
1965.0,0.0017447619150943359
1964.0,0.0017709419909748229
1963.0,0.0017339492083706855
1962.0,0.0016014522009657301
1961.0,0.0014903073782076043
1960.0,0.001549640937213284
1959.0,0.0017829404844153765
1958.0,0.002039710407256271
1957.0,0.0021730963131270033
1956.0,0.002172862345740072
1955.0,0.002143782807513985
1954.0,0.0021767057295191887
1953.0,0.0022587003228778375
1952.0,0.0023029344921005187
1951.0,0.002243524921005392
1950.0,0.0020941336332412266
1949.0,0.0019154605238446095
1948.0,0.001753562041373378
1947.0,0.0016273393163276073
1946.0,0.0015537698588208135
1945.0,0.001551183720760198
1944.0,0.001612479248706227
1943.0,0.0016916784212063028
1942.0,0.0017359308130163757
1941.0,0.0017391655343484236
1940.0,0.0017314256700943051
1939.0,0.001724539364931873
1938.0,0.0017141314351599452
1937.0,0.0017077998443667192
1936.0,0.0017297812141238004
1935.0,0.0018013644612013295
1934.0,0.0019117207380883248
1933.0,0.002006436014906386
1932.0,0.0020188401132681883
1931.0,0.0019269599930394382
1930.0,0.001781746054318612
1929.0,0.0016587241567810758
1928.0,0.0015951739939352757
1927.0,0.0015792332909185807
1926.0,0.0015795098589967784
1925.0,0.0015758257368752083
1924.0,0.0015574179724924188
1923.0,0.0015356833408535294
1922.0,0.001543283904915863
1921.0,0.0015978473997222873
1920.0,0.001665704653531267
1919.0,0.0016946972918611756
1918.0,0.0016742216163479142
1917.0,0.0016404137999008086
1916.0,0.001623594604307315
1915.0,0.001616971839921203
1914.0,0.0016091168665540714
1913.0,0.0016160000805052342
1912.0,0.0016505144421263803
1911.0,0.0016944884478555886
1910.0,0.0017219117122929967
1909.0,0.001726977312990586
1908.0,0.001723419636482166
1907.0,0.0017191877224193588
1906.0,0.0017071493757223194
1905.0,0.0016889025898743472
1904.0,0.0016723087071218706
1903.0,0.001668788572101466
1902.0,0.001686008598490467
1901.0,0.0017146871136901904
1900.0,0.0017292911808366824
1899.0,0.0017075258936917526
1898.0,0.0016513051434703763
1897.0,0.0015938774526384272
1896.0,0.001566863846808748
1895.0,0.0015711579781487392
1894.0,0.001582289455932306
1893.0,0.0015782424168474677
1892.0,0.0015528656630840057
1891.0,0.0015217131525705947
1890.0,0.0015214276614620055
1889.0,0.001573544348676946
1888.0,0.0016595734502901551
1887.0,0.0017409396476864834
1886.0,0.0017846442381968144
1885.0,0.0017849918071256108
1884.0,0.0017574337176433099
1883.0,0.0017182995817907783
1882.0,0.0016806333413974268
1881.0,0.0016564624417524957
1880.0,0.0016568533334941622
1879.0,0.0016795498955639865
1878.0,0.0017023752506112452
1877.0,0.0017034377094497862
1876.0,0.0016777359386133859
1875.0,0.0016367509983256853
1874.0,0.0016039419581049268
1873.0,0.0015979292775911134
1872.0,0.0016098948447238648
1871.0,0.0016040179769039173
1870.0,0.0015485215529640246
1869.0,0.0014565418838693978
1868.0,0.001395340829057924
1867.0,0.0014304559641426166
1866.0,0.001548497689397135
1865.0,0.001674219127647664
1864.0,0.001749523407657559
1863.0,0.0017636464228723459
1862.0,0.0017358205079289948
1861.0,0.001691537884929126
1860.0,0.0016530800644678927
1859.0,0.0016395879346105253
1858.0,0.0016588882205046287
1857.0,0.0016962792400451415
1856.0,0.0017243895023603766
1855.0,0.0017298788848916532
1854.0,0.0017233651123028442
1853.0,0.0017198955934038152
1852.0,0.0017186181578209732
1851.0,0.0017067031058698163
1850.0,0.0016637372324555754
1849.0,0.0015960356133207431
1848.0,0.0015432463953543273
1847.0,0.001548628883103091
1846.0,0.001619921559478208
1845.0,0.0017172291123663482
1844.0,0.0017693530511348945
1843.0,0.0017565536755519582
1842.0,0.001740408267446264
1841.0,0.0017464184510893699
1840.0,0.0017522377558162397
1839.0,0.0017429521793510426
1838.0,0.0017244169448281592
1837.0,0.0017165841859575026
1836.0,0.001727806596842722
1835.0,0.0017524447145844434
1834.0,0.0017805237536237658
1833.0,0.0018020799712645157
1832.0,0.0018036483287146824
1831.0,0.0017682762795778661
1830.0,0.0016875996802014868
1829.0,0.0016023968950147631
1828.0,0.001577379406542019
1827.0,0.0016021860156987771
1826.0,0.001624321305109375
1825.0,0.00163793996861889
1824.0,0.001664575517791957
1823.0,0.0017066966454696423
1822.0,0.0017359161686143396
1821.0,0.0017248435831006543
1820.0,0.0016762687180297592
1819.0,0.0016068011770889344
1818.0,0.0015399244259616672
1817.0,0.0015087859241416871
1816.0,0.0015261382577143293
1815.0,0.0015720608212149057
1814.0,0.0016122179541701843
1813.0,0.0016274338176010968
1812.0,0.0016229544531533575
1811.0,0.0016053269138890545
1810.0,0.0015909610205219024
1809.0,0.001601908666185222
1808.0,0.0016381555207086334
1807.0,0.0016812432535966864
1806.0,0.0017159619111216731
1805.0,0.0017384295012013353
1804.0,0.0017471829768805646
1803.0,0.0017364715907220054
1802.0,0.0016975865398220036
1801.0,0.0016348066915939322
1800.0,0.0015882501424411763
1799.0,0.0015932426964505044
1798.0,0.001645558822426462
1797.0,0.0017104360405755872
1796.0,0.0017639690698349414
1795.0,0.0018032356731555125
1794.0,0.0018239449115850532
1793.0,0.0018122589762439552
1792.0,0.0017632286679254462
1791.0,0.0017045646038411433
1790.0,0.00168899559257084
1789.0,0.001711770093482045
1788.0,0.0017299435014215521
1787.0,0.001720878767780389
1786.0,0.0016905330946998761
1785.0,0.0016607665922923702
1784.0,0.0016536294735994164
1783.0,0.001674561089047768
1782.0,0.0016961174292618709
1781.0,0.0016857145913450641
1780.0,0.0016577150363064177
1779.0,0.0016401174541996158
1778.0,0.0016396472589630304
1777.0,0.0016365693386583284
1776.0,0.0016342998894561221
1775.0,0.0016545934715206882
1774.0,0.0016889558496853015
1773.0,0.0017099087592363435
1772.0,0.0017006248097619562
1771.0,0.0016808700037874067
1770.0,0.0016893245261624707
1769.0,0.0017143864375085442
1768.0,0.0017381682333361824
1767.0,0.0017630421637461337
1766.0,0.001791511772437718
1765.0,0.001821410967069905
1764.0,0.0018554860902134994
1763.0,0.0018991200273248982
1762.0,0.0019301979804699234
1761.0,0.0019315195786904255
1760.0,0.0019536302963341803
1759.0,0.0020203775011187284
1758.0,0.0021056607758222533
1757.0,0.0021809468318319813
1756.0,0.0022581156510043015
1755.0,0.002360723667806696
1754.0,0.002465797533554878
1753.0,0.0025485030470246313
1752.0,0.0026618602684589533
1751.0,0.0028807987939058703
1750.0,0.003189659150628639
1749.0,0.003544582893205946
1748.0,0.003942724207319544
1747.0,0.004386164106154293
1746.0,0.004859792863093373
1745.0,0.005387113303586471
1744.0,0.006013193072287781
1743.0,0.006709599096572098
1742.0,0.007442937263704454
1741.0,0.008319551816587153
1740.0,0.00944949041729128
1739.0,0.010605288582431274
1738.0,0.011409558871850032
1737.0,0.011863924527643174
1736.0,0.01236100884290533
1735.0,0.01359242243804248
1734.0,0.015673898263036903
1733.0,0.01738577081099667
1732.0,0.018323656295283722
1731.0,0.01909491223457112
1730.0,0.02000521063939089
1729.0,0.02096018088286736
1728.0,0.021791670689093014
1727.0,0.022497274473130314
1726.0,0.023186357390145528
1725.0,0.02397994670880942
1724.0,0.024895874264929518
1723.0,0.02573757368765622
1722.0,0.026245728962700467
1721.0,0.02636620904192212
1720.0,0.026363464840057752
1719.0,0.026823987723329987
1718.0,0.028311167285097746
1717.0,0.030272275227179124
1716.0,0.03159694981583948
1715.0,0.03226230279401352
1714.0,0.032540648673926864
1713.0,0.032416863332227916
1712.0,0.03193739631734177
1711.0,0.03127589615456856
1710.0,0.030538126039287482
1709.0,0.029667617630343854
1708.0,0.028609839488403628
1707.0,0.027444230854375133
1706.0,0.026285732594205545
1705.0,0.02511392193149886
1704.0,0.023859719839086385
1703.0,0.02255493441852096
1702.0,0.02124847431916172
1701.0,0.020058068515849143
1700.0,0.019072055399062496
1699.0,0.018186583988855313
1698.0,0.017357176553621966
1697.0,0.016601015675611862
1696.0,0.01594979286420716
1695.0,0.015373803559751525
1694.0,0.01485792139479514
1693.0,0.014363739977932475
1692.0,0.01384990964754294
1691.0,0.013355994152775753
1690.0,0.012955983290712366
1689.0,0.012655373509585503
1688.0,0.012370902948763801
1687.0,0.01203783347610636
1686.0,0.011692030454322147
1685.0,0.01159903203770888
1684.0,0.01180646284610918
1683.0,0.011857419604014157
1682.0,0.011736960632162893
1681.0,0.011552392305425587
1680.0,0.011335801467156254
1679.0,0.011120371983741559
1678.0,0.0109137263998685
1677.0,0.010736416172778696
1676.0,0.010642612517204678
1675.0,0.010628207112554498
1674.0,0.010585929094496394
1673.0,0.010474684407108614
1672.0,0.010335147671217388
1671.0,0.01023572687642296
1670.0,0.010225794601730195
1669.0,0.010228691701030277
1668.0,0.010181266342315174
1667.0,0.010102099827837245
1666.0,0.009997149392123992
1665.0,0.009883303002258778
1664.0,0.009798765581280398
1663.0,0.009761950665337221
1662.0,0.009735988817008887
1661.0,0.009690616225262698
1660.0,0.00964186386586498
1659.0,0.009587644287473204
1658.0,0.009518933670179433
1657.0,0.009426218146707195
1656.0,0.009319536470829455
1655.0,0.009220686905671703
1654.0,0.009288888106764275
1653.0,0.00945522615710864
1652.0,0.009410969266679675
1651.0,0.009359373806861224
1650.0,0.009262735743263088
1649.0,0.009113067859785128
1648.0,0.009017369113805572
1647.0,0.00901799173150291
1646.0,0.00901777006116815
1645.0,0.009015378010232833
1644.0,0.009014905040013942
1643.0,0.008973866686301462
1642.0,0.008909024062165228
1641.0,0.008843036071923839
1640.0,0.008778393171941628
1639.0,0.008704174864343092
1638.0,0.008619797945814042
1637.0,0.008570213840911346
1636.0,0.008579071969689222
1635.0,0.008574515051735492
1634.0,0.008562232097474053
1633.0,0.00855515366280079
1632.0,0.00850012666904822
1631.0,0.008405985110149334
1630.0,0.008306083297507453
1629.0,0.008216369600117297
1628.0,0.008130472870463392
1627.0,0.008045860127274916
1626.0,0.007971484676376803
1625.0,0.007900186763185331
1624.0,0.007816606248136272
1623.0,0.007706431070272147
1622.0,0.007587592681607079
1621.0,0.007497190153916927
1620.0,0.007432755151707469
1619.0,0.0073756052601637
1618.0,0.0073475370171222215
1617.0,0.0073662764859578605
1616.0,0.007375115841381865
1615.0,0.0073544542549652415
1614.0,0.007319892546449882
1613.0,0.0072510740534995205
1612.0,0.0071415034334292755
1611.0,0.00701134910140744
1610.0,0.0068801024503147516
1609.0,0.0067528402726999975
1608.0,0.0066302263381738166
1607.0,0.006515558360636284
1606.0,0.0064058895662438
1605.0,0.006289808890083667
1604.0,0.0061693151104134925
1603.0,0.0060518116459626
1602.0,0.005940828209993166
1601.0,0.005836571346104996
1600.0,0.005740379393176138
1599.0,0.005655991186107184
1598.0,0.005583855077740833
1597.0,0.005519312383672438
1596.0,0.005454663060953562
1595.0,0.005387998401479818
1594.0,0.005327714378101551
1593.0,0.005281084046517517
1592.0,0.0052469171374718146
1591.0,0.0052209500881286505
1590.0,0.00520165535921532
1589.0,0.005188062009169669
1588.0,0.005182655817542955
1587.0,0.005192436777280822
1586.0,0.005225412132045192
1585.0,0.005281297451265796
1584.0,0.005360631256182871
1583.0,0.005467903728387949
1582.0,0.005588075881437641
1581.0,0.005697425183557019
1580.0,0.005784932579804336
1579.0,0.005850897008328979
1578.0,0.005887629461297998
1577.0,0.005880923337914391
1576.0,0.005784494044487491
1575.0,0.0056206302856282135
1574.0,0.005485724899463574
1573.0,0.005372088251778671
1572.0,0.00524274726751889
1571.0,0.005107422187978207
1570.0,0.00499582805654143
1569.0,0.0049075916132229076
1568.0,0.004854210818282483
1567.0,0.0048312501981047145
1566.0,0.004795000545763202
1565.0,0.004729535956649747
1564.0,0.004670009322481764
1563.0,0.004636124546845931
1562.0,0.0046291094882869605
1561.0,0.004593057538343775
1560.0,0.004607014161837428
1559.0,0.004718242482471373
1558.0,0.004689072186468665
1557.0,0.0047430714579099024
1556.0,0.004835267286369425
1555.0,0.004849333072230474
1554.0,0.004841508499050313
1553.0,0.004854077699203194
1552.0,0.004885816725454288
1551.0,0.004909724572145477
1550.0,0.004925538253267341
1549.0,0.004953632969981424
1548.0,0.005000446997384467
1547.0,0.005044700356526224
1546.0,0.005062339684640494
1545.0,0.00506825376288798
1544.0,0.0050741172214239065
1543.0,0.005072766600809601
1542.0,0.005067170301565237
1541.0,0.005078980455102498
1540.0,0.005042902342312659
1539.0,0.004976937454507745
1538.0,0.005036118473172294
1537.0,0.0051406361571212315
1536.0,0.005182374574447429
1535.0,0.005170858488342232
1534.0,0.005154987722944395
1533.0,0.005153232687717616
1532.0,0.005167590502559686
1531.0,0.005200365867683651
1530.0,0.005225817411060459
1529.0,0.005237957690873317
1528.0,0.005244376458618515
1527.0,0.005247371257914336
1526.0,0.00525167147072826
1525.0,0.005264304097461611
1524.0,0.005273148198474029
1523.0,0.005251403582657053
1522.0,0.005208343904266518
1521.0,0.005167796531681056
1520.0,0.005167570795594876
1519.0,0.005216219114229712
1518.0,0.005258643210736174
1517.0,0.005280551815547598
1516.0,0.005298102255934509
1515.0,0.005348296393472939
1514.0,0.005438771615975434
1513.0,0.005526802610832739
1512.0,0.005604676062735974
1511.0,0.00566505953501611
1510.0,0.0057509567992347944
1509.0,0.005921340617221221
1508.0,0.0064398969355552085
1507.0,0.007344418462296439
1506.0,0.007943893597378711
1505.0,0.00810870697168906
1504.0,0.008014610892914489
1503.0,0.007690425537989874
1502.0,0.007253713014316179
1501.0,0.006804155032876461
1500.0,0.006407892461509704
1499.0,0.00608130256434997
1498.0,0.005825040421283553
1497.0,0.0056557276039192975
1496.0,0.0055564004598269365
1495.0,0.005504165404741933
1494.0,0.005502831322609585
1493.0,0.005537798670024109
1492.0,0.005572515933762257
1491.0,0.005577085074143047
1490.0,0.005564615478723016
1489.0,0.005585595843902381
1488.0,0.005664186019029722
1487.0,0.005779401694948805
1486.0,0.005924954921588205
1485.0,0.006095519081653717
1484.0,0.00627412564754273
1483.0,0.006449095045477032
1482.0,0.006620636608776962
1481.0,0.006793003552331615
1480.0,0.006952195896104763
1479.0,0.007089463937162893
1478.0,0.007213872903771162
1477.0,0.0073418811295009045
1476.0,0.007463478419967284
1475.0,0.007558558777073832
1474.0,0.007642515786762486
1473.0,0.007725575293723917
1472.0,0.0077704575398671195
1471.0,0.0077897339753586585
1470.0,0.007827395341171085
1469.0,0.00786629921693083
1468.0,0.007890640828458726
1467.0,0.007910500658671767
1466.0,0.007953889133494943
1465.0,0.00803019890986436
1464.0,0.008112483355774334
1463.0,0.00817905680119891
1462.0,0.008229321687070712
1461.0,0.00826021277364542
1460.0,0.008276217969170685
1459.0,0.00829400515079792
1458.0,0.00837166336012477
1457.0,0.008495353392289752
1456.0,0.008566513237738587
1455.0,0.008611848143530955
1454.0,0.00863846921672862
1453.0,0.008638304833011146
1452.0,0.008624348282909436
1451.0,0.008597407449880148
1450.0,0.008558990830552652
1449.0,0.008507940259881809
1448.0,0.008437686747607994
1447.0,0.00836210915041243
1446.0,0.008313182284134923
1445.0,0.00829377146053277
1444.0,0.008284890905035789
1443.0,0.008264573102350509
1442.0,0.008229651258930834
1441.0,0.008187784777925275
1440.0,0.008144641433721659
1439.0,0.00809043320703306
1438.0,0.008013176970881403
1437.0,0.0079093283822493
1436.0,0.0077855496380424775
1435.0,0.007679767414005709
1434.0,0.007603691501555409
1433.0,0.007529169688904729
1432.0,0.007439844190670463
1431.0,0.00733851331018511
1430.0,0.007239327795956714
1429.0,0.0071704992057476154
1428.0,0.007145801790442847
1427.0,0.007151504747286399
1426.0,0.0071578031317279505
1425.0,0.007148914947075523
1424.0,0.007145296830763027
1423.0,0.007175426748485982
1422.0,0.007255441692976192
1421.0,0.007380281485356658
1420.0,0.007563139019954817
1419.0,0.007824613316368736
1418.0,0.008165883991770154
1417.0,0.008610936082143202
1416.0,0.00916228574740979
1415.0,0.00980208650655103
1414.0,0.010541616412319788
1413.0,0.011400496748977928
1412.0,0.012335913279179184
1411.0,0.013209167154854241
1410.0,0.01387327414073965
1409.0,0.014257258223940712
1408.0,0.014318765754376447
1407.0,0.014024459861386757
1406.0,0.013403014914547623
1405.0,0.012567055894203531
1404.0,0.011688247987861111
1403.0,0.010906955132062695
1402.0,0.010253566815648301
1401.0,0.009672520231195835
1400.0,0.009105654969655305
1399.0,0.008563256837001713
1398.0,0.008112862065424534
1397.0,0.007769282441632226
1396.0,0.0074614626010531745
1395.0,0.007141940666520307
1394.0,0.006854435601515784
1393.0,0.006656968338326349
1392.0,0.006531085092111092
1391.0,0.006422542702927303
1390.0,0.0063073508259276715
1389.0,0.006186545446851035
1388.0,0.006063755391127619
1387.0,0.005943786217690136
1386.0,0.005848745239077677
1385.0,0.005795050808834022
1384.0,0.005767654482882878
1383.0,0.005742904370715531
1382.0,0.005713446167140672
1381.0,0.0056818693650687035
1380.0,0.005647081524680804
1379.0,0.005607799107523945
1378.0,0.005567622244247259
1377.0,0.005531450613659412
1376.0,0.005498950220824143
1375.0,0.0054666174663683745
1374.0,0.005425393711687612
1373.0,0.005373404222518816
1372.0,0.005315515633630558
1371.0,0.00524071132938541
1370.0,0.0051325069508289245
1369.0,0.004987360523851852
1368.0,0.004820129706891477
1367.0,0.004650236858484898
1366.0,0.004481724112421152
1365.0,0.004296836903502672
1364.0,0.0040761555460479305
1363.0,0.0038298266176741026
1362.0,0.003613353887231211
1361.0,0.003480961321823333
1360.0,0.003423855585624795
1359.0,0.0033956985494191187
1358.0,0.00336908860574682
1357.0,0.0033454846895584044
1356.0,0.0033389091065627865
1355.0,0.0033621023387935545
1354.0,0.0034224710554284464
1353.0,0.003522388349491679
1352.0,0.0036606589188410907
1351.0,0.0038449220195778573
1350.0,0.004091633560984971
1349.0,0.0044098978068218
1348.0,0.004802646969494584
1347.0,0.005280277352643812
1346.0,0.005866377554987638
1345.0,0.006565910605998983
1344.0,0.007337227393631209
1343.0,0.008123911835244987
1342.0,0.008917851810505136
1341.0,0.009759199145462352
1340.0,0.010626977743127753
1339.0,0.011339890700805795
1338.0,0.011690455146005755
1337.0,0.011624685144461577
1336.0,0.01118749748739677
1335.0,0.010430380726122606
1334.0,0.009420222066453843
1333.0,0.008259988017989455
1332.0,0.007078663176630447
1331.0,0.006000503610325593
1330.0,0.005107529209400684
1329.0,0.004420114196295139
1328.0,0.003917258200846327
1327.0,0.0035683530312014024
1326.0,0.003340877611924087
1325.0,0.003199200416841936
1324.0,0.0031145799294096587
1323.0,0.0030698489285008266
1322.0,0.003055885783765898
1321.0,0.0030679756073166376
1320.0,0.0031051121518010996
1319.0,0.0031635272859288034
1318.0,0.003232362816755688
1317.0,0.0033030759815737033
1316.0,0.003378838806240245
1315.0,0.0034686975236402073
1314.0,0.0035758431620654518
1313.0,0.0036958377495053645
1312.0,0.0038258390325314907
1311.0,0.003970325877518237
1310.0,0.00413302391503907
1309.0,0.0043081887018766325
1308.0,0.004482035409669046
1307.0,0.004644655125675731
1306.0,0.004800133265752394
1305.0,0.004962871102790908
1304.0,0.0051450496943902906
1303.0,0.005349289669685181
1302.0,0.005576443541522551
1301.0,0.005833033005585627
1300.0,0.006126772232237331
1299.0,0.006458390846569352
1298.0,0.006823981280071341
1297.0,0.007219209372646361
1296.0,0.007634612178133129
1295.0,0.00805329250285308
1294.0,0.008462019658658334
1293.0,0.00886000480331895
1292.0,0.009249555349378576
1291.0,0.009626904675867699
1290.0,0.009989681467756957
1289.0,0.010342472423065747
1288.0,0.010684569976018587
1287.0,0.011002937837617658
1286.0,0.011288953865389466
1285.0,0.011551984466094567
1284.0,0.01180747438207666
1283.0,0.012062901225457334
1282.0,0.012321852843861749
1281.0,0.012588630401685473
1280.0,0.012862397693589881
1279.0,0.013140132642988429
1278.0,0.013433088858752596
1277.0,0.013766689261791799
1276.0,0.014156805268661726
1275.0,0.014602256730862705
1274.0,0.015107069008885064
1273.0,0.015690278920856206
1272.0,0.01635863390162628
1271.0,0.017086650128996857
1270.0,0.017841935342253482
1269.0,0.018612562327530516
1268.0,0.019390592475426367
1267.0,0.020151356588633318
1266.0,0.020871235077909916
1265.0,0.021544899777580572
1264.0,0.022166710819601466
1263.0,0.022721009836280986
1262.0,0.023207214955609
1261.0,0.023643272594099807
1260.0,0.024027273804929066
1259.0,0.02433226510370101
1258.0,0.024560620275444825
1257.0,0.02476566924423263
1256.0,0.024999902841958188
1255.0,0.02527781455305522
1254.0,0.025603432775067977
1253.0,0.02599533413622326
1252.0,0.026461127879146194
1251.0,0.026981943369163597
1250.0,0.027547006092042157
1249.0,0.028170234571871157
1248.0,0.028849486895959557
1247.0,0.029548335454409325
1246.0,0.03024687824516443
1245.0,0.030970396867905883
1244.0,0.03173411424859961
1243.0,0.03249973742582435
1242.0,0.0332214459738594
1241.0,0.033892814287662866
1240.0,0.034512619039071275
1239.0,0.0350502855658497
1238.0,0.03548352037920856
1237.0,0.03582672683742142
1236.0,0.036087806046764016
1235.0,0.03624306386456312
1234.0,0.03628722723070561
1233.0,0.036259882334966645
1232.0,0.036190994040872594
1231.0,0.036067073988803766
1230.0,0.03587815111703054
1229.0,0.03564952006580141
1228.0,0.03540019601208468
1227.0,0.03511697289256029
1226.0,0.034794586236233174
1225.0,0.03445672332620533
1224.0,0.03411425020954898
1223.0,0.03374630128214268
1222.0,0.03334313443186469
1221.0,0.03292407146586059
1220.0,0.03249465834031914
1219.0,0.032028447048717365
1218.0,0.031510238867388005
1217.0,0.030959098880668813
1216.0,0.030392862772112082
1215.0,0.0298080305598959
1214.0,0.02920663515564355
1213.0,0.028605009474827324
1212.0,0.028004994026336015
1211.0,0.02739294642535893
1210.0,0.026775294561304834
1209.0,0.026176471916266854
1208.0,0.025594662538191152
1207.0,0.024998032190757958
1206.0,0.024373732328412466
1205.0,0.023745265843419596
1204.0,0.023133027673385202
1203.0,0.022531943082449272
1202.0,0.02193600698783417
1201.0,0.021351836983973634
1200.0,0.02077771046134549
1199.0,0.020197774546642785
1198.0,0.019607624994673254
1197.0,0.019021829093768355
1196.0,0.018449131754811863
1195.0,0.01788424228182962
1194.0,0.017329812597425186
1193.0,0.01680290090163623
1192.0,0.0163121269124007
1191.0,0.01584819122684722
1190.0,0.015404416423619696
1189.0,0.01498912706913328
1188.0,0.014610959528063582
1187.0,0.014268707412028066
1186.0,0.013964172815931986
1185.0,0.013710822062437029
1184.0,0.013520142529557504
1183.0,0.0133891798473467
1182.0,0.013307674448633094
1181.0,0.013267640891734836
1180.0,0.013260009184321714
1179.0,0.013272556011495885
1178.0,0.013298692310408596
1177.0,0.013337093558863571
1176.0,0.01337380294631663
1175.0,0.013376479939772735
1174.0,0.013317859904169976
1173.0,0.013195864866648675
1172.0,0.013021607878913335
1171.0,0.012801120172678194
1170.0,0.01254178999761085
1169.0,0.01226603520375421
1168.0,0.012005555027535173
1167.0,0.011786032031795738
1166.0,0.011622817996255783
1165.0,0.011523393209628727
1164.0,0.011483520259642856
1163.0,0.011482648768298319
1162.0,0.011492925484529504
1161.0,0.01149756604324249
1160.0,0.011499586325523566
1159.0,0.011513591190181558
1158.0,0.011550341506927141
1157.0,0.011607896990073124
1156.0,0.011677331988906237
1155.0,0.01175723528582942
1154.0,0.011857791104602888
1153.0,0.011985261105198812
1152.0,0.012128396055575641
1151.0,0.012271686143529938
1150.0,0.012419595624951676
1149.0,0.01259353028716418
1148.0,0.012804120061028056
1147.0,0.01304117594298056
1146.0,0.013293475624443763
1145.0,0.013562607815130488
1144.0,0.013852094303293185
1143.0,0.014159421085839903
1142.0,0.014486890477598716
1141.0,0.014844844854862652
1140.0,0.01523534844601851
1139.0,0.01564778972194885
1138.0,0.016079021187361875
1137.0,0.016541590098418782
1136.0,0.017044157520600258
1135.0,0.017583925206164634
1134.0,0.018168566857082933
1133.0,0.01882135320821747
1132.0,0.019548054168129797
1131.0,0.020320847269663076
1130.0,0.02111347976979913
1129.0,0.021930420729871673
1128.0,0.022781496617349323
1127.0,0.023653180906787794
1126.0,0.024529185652500594
1125.0,0.02541430164153615
1124.0,0.026312333370041366
1123.0,0.02720481636405054
1122.0,0.0280743135040483
1121.0,0.02891988081339967
1120.0,0.029726914367063026
1119.0,0.03045572588759994
1118.0,0.031082631890058665
1117.0,0.03161368953579766
1116.0,0.032039321013895054
1115.0,0.032328330231917723
1114.0,0.032495450250046645
1113.0,0.03262439660109712
1112.0,0.032797552331794905
1111.0,0.03305112556778959
1110.0,0.03341584657690931
1109.0,0.03394134335941747
1108.0,0.034646820123139487
1107.0,0.03549485854385962
1106.0,0.03644392667273526
1105.0,0.0374771759089663
1104.0,0.03855079181450043
1103.0,0.03957865775265963
1102.0,0.040516494591963305
1101.0,0.041405924975203616
1100.0,0.04228900379650238
1099.0,0.043139911576361455
1098.0,0.04392191604060099
1097.0,0.044642553294564444
1096.0,0.04530450321475296
1095.0,0.045866702036663896
1094.0,0.046305228099165444
1093.0,0.046651422450913395
1092.0,0.04693201121675608
1091.0,0.04713883306345976
1090.0,0.04728607864261345
1089.0,0.0474181552887482
1088.0,0.0475321743196841
1087.0,0.04757623992971267
1086.0,0.04755184926172485
1085.0,0.04752829336075479
1084.0,0.047527083994808185
1083.0,0.047485601319335054
1082.0,0.04736687310238434
1081.0,0.04721036949389415
1080.0,0.047038930611860784
1079.0,0.046812041792941725
1078.0,0.04651065914259375
1077.0,0.046176582250955
1076.0,0.04583029520211165
1075.0,0.045439459439814284
1074.0,0.04500283650271251
1073.0,0.044575730561302714
1072.0,0.044178736466221724
1071.0,0.04376557758703595
1070.0,0.04331150291302046
1069.0,0.042852895556550856
1068.0,0.04241066148323593
1067.0,0.041953110767447614
1066.0,0.04146388832243388
1065.0,0.04097409785113099
1064.0,0.04050189073038594
1063.0,0.04002866788053997
1062.0,0.03955430479544272
1061.0,0.039106903558968654
1060.0,0.038679717227380596
1059.0,0.038226400613761084
1058.0,0.037737988117145585
1057.0,0.03726104892764467
1056.0,0.036824341413962396
1055.0,0.0364105851633186
1054.0,0.036015466223740786
1053.0,0.0356708229634723
1052.0,0.03538604335879138
1051.0,0.03512787600902381
1050.0,0.034886043950870645
1049.0,0.0346912365237717
1048.0,0.034542125195656505
1047.0,0.03438896232110861
1046.0,0.03420796726881808
1045.0,0.03402208657891016
1044.0,0.033838715148018846
1043.0,0.0336286319546033
1042.0,0.03337440820466538
1041.0,0.03308410245569577
1040.0,0.032748871827481735
1039.0,0.03234357699168309
1038.0,0.03187925534651725
1037.0,0.031398904375964445
1036.0,0.03091258818443915
1035.0,0.03039050452430323
1034.0,0.029824684562678824
1033.0,0.029240639074224438
1032.0,0.02864216938183642
1031.0,0.028005488228295558
1030.0,0.027345944613982313
1029.0,0.026745917884431744
1028.0,0.026308335907799435
1027.0,0.02612352886705821
1026.0,0.026277560667305216
1025.0,0.026834757907788137
1024.0,0.02778769718672984
1023.0,0.02905766240223591
1022.0,0.030566078571089304
1021.0,0.032273279110689
1020.0,0.03411974883918463
1019.0,0.03596481505002367
1018.0,0.03761964969236477
1017.0,0.038913049933743976
1016.0,0.03971123596662506
1015.0,0.03994877169817719
1014.0,0.039692497075197626
1013.0,0.03911667646920088
1012.0,0.038377057853728434
1011.0,0.037551115683857945
1010.0,0.03669196721668181
1009.0,0.03585648670185857
1008.0,0.03505909346145335
1007.0,0.03426674846744063
1006.0,0.03346867755916516
1005.0,0.03270133607996623
1004.0,0.03198712846693302
1003.0,0.031301070940148334
1002.0,0.030619564657423763
1001.0,0.02995508741167014
1000.0,0.02932008172283291
999.0,0.028698681154108056
998.0,0.028077214899315403
997.0,0.027467011647966444
996.0,0.02687686792143363
995.0,0.026295726022065667
994.0,0.02572161985329343
993.0,0.02517855461016153
992.0,0.024686715116045352
991.0,0.024239193030331053
990.0,0.023820237342181815
989.0,0.023423608913820126
988.0,0.023044037793716006
987.0,0.022676516585573955
986.0,0.022335896742065386
985.0,0.02205369159305823
984.0,0.02184381458422964
983.0,0.021690511150511377
982.0,0.021576583741585855
981.0,0.021502361607039326
980.0,0.021470885564965056
979.0,0.021478334505807748
978.0,0.021527254397817205
977.0,0.02162491076091269
976.0,0.021758279844752954
975.0,0.02189337696489768
974.0,0.02200920125368544
973.0,0.022109406138333374
972.0,0.0221926719189691
971.0,0.022239428841859483
970.0,0.022238602568455414
969.0,0.0221987653975204
968.0,0.022120190978434255
967.0,0.02198365204736906
966.0,0.021779553543911576
965.0,0.021521891534362673
964.0,0.0212235776523229
963.0,0.020886056343017368
962.0,0.02052197080516175
961.0,0.020157612370672658
960.0,0.019801394656467415
959.0,0.01943692523165589
958.0,0.01905759391179662
957.0,0.018682092399073116
956.0,0.018325994302204017
955.0,0.01798393768349174
954.0,0.017650807985063032
953.0,0.01733593068245448
952.0,0.01704375056123616
951.0,0.016761715020732492
950.0,0.016479535788158077
949.0,0.016202806656556597
948.0,0.01593879341664846
947.0,0.015686952688764622
946.0,0.015450545144520541
945.0,0.015238109956361164
944.0,0.015045524535303435
943.0,0.01485494460145291
942.0,0.014659213756530447
941.0,0.014469399649782728
940.0,0.014291460307741578
939.0,0.014115038717424266
938.0,0.013933932178810247
937.0,0.013758923276688557
936.0,0.013600233864002234
935.0,0.013453158080869432
934.0,0.013309177435288512
933.0,0.013165225461821198
932.0,0.013014415979530094
931.0,0.012845328861704017
930.0,0.01266051918529016
929.0,0.012480102138213049
928.0,0.012317316665390408
927.0,0.012163924884734795
926.0,0.012007125178734031
925.0,0.011846807368199503
924.0,0.011689139154607321
923.0,0.011538307762653889
922.0,0.011402655722555017
921.0,0.0112941567575875
920.0,0.011212426644586129
919.0,0.01114168722638978
918.0,0.011071925411346037
917.0,0.011010964583728952
916.0,0.010967512406455868
915.0,0.010934810038531383
914.0,0.010900330500233351
913.0,0.010859882541730457
912.0,0.010812122265309337
911.0,0.010750653962798291
910.0,0.010673769702173642
909.0,0.010594334176957466
908.0,0.01053006478325626
907.0,0.010488374089784615
906.0,0.010463835833691745
905.0,0.010442237076355769
904.0,0.01040461501187551
903.0,0.010338964592396756
902.0,0.010253045399422019
901.0,0.010165105911523222
900.0,0.010078973800947754
899.0,0.00998027656580952
898.0,0.009858738817424495
897.0,0.009719652162246028
896.0,0.009570257376357545
895.0,0.009410634090279653
894.0,0.009243770006313996
893.0,0.009080827672297107
892.0,0.00893107463837
891.0,0.008798514093096354
890.0,0.008691831328077253
889.0,0.008625295160517455
888.0,0.008606633419751663
887.0,0.00863639438884883
886.0,0.008723006282469387
885.0,0.008885689841273792
884.0,0.009137482173758437
883.0,0.009478793993841071
882.0,0.009914807891453992
881.0,0.010463683435115018
880.0,0.011133268801091778
879.0,0.011900859845472622
878.0,0.01273378381532059
877.0,0.013621156313128574
876.0,0.014559530752241777
875.0,0.015498554879634245
874.0,0.016304213109114316
873.0,0.016777090296850084
872.0,0.016733632291131385
871.0,0.016130175641695135
870.0,0.015128156249313445
869.0,0.013998095958880252
868.0,0.012952057733508021
867.0,0.012080594735529474
866.0,0.011401770468769383
865.0,0.010906262165516045
864.0,0.01055661546676672
863.0,0.010295906941210978
862.0,0.010087177924677244
861.0,0.009927744851937481
860.0,0.00981435934442746
859.0,0.009719480347125782
858.0,0.009619479495525246
857.0,0.009525210115092827
856.0,0.00946379707917977
855.0,0.009444350551243656
854.0,0.009459501249176404
853.0,0.009508862326745464
852.0,0.009601993429325245
851.0,0.009742271032014752
850.0,0.009919023975707996
849.0,0.010109505947150887
848.0,0.01028110003292395
847.0,0.010402798070010023
846.0,0.010464831011858324
845.0,0.010477764884339352
844.0,0.010448613496747607
843.0,0.010374151427895509
842.0,0.010260167203803568
841.0,0.010124623841836499
840.0,0.00997510493615019
839.0,0.009805145705269091
838.0,0.009620166685974076
837.0,0.009443438892259647
836.0,0.009285391767439422
835.0,0.009128569613672574
834.0,0.008956039731659624
833.0,0.008775609153641353
832.0,0.008601583732266063
831.0,0.00843059384658457
830.0,0.008253625209428253
829.0,0.008079050601890101
828.0,0.007924711057392179
827.0,0.007794204383517116
826.0,0.007676174468353777
825.0,0.007562770398960642
824.0,0.007458161779568071
823.0,0.007373369693341283
822.0,0.0073174823769478255
821.0,0.007284880274524206
820.0,0.007250889979422526
819.0,0.007193570978572955
818.0,0.007119123370307519
817.0,0.007050302882070623
816.0,0.0069910970183091545
815.0,0.006923718030842836
814.0,0.006844573170154151
813.0,0.006779834291013292
812.0,0.006752875961479806
811.0,0.006753734062412791
810.0,0.006754212075797366
809.0,0.006739880533828959
808.0,0.006714578325467645
807.0,0.006686161719317917
806.0,0.006660475394510333
805.0,0.006638129078910744
804.0,0.006605753998731588
803.0,0.006541418722038792
802.0,0.006442602685317742
801.0,0.006342595338425563
800.0,0.006292068368963535
799.0,0.006333284642631699
798.0,0.006493819167572815
797.0,0.0067839623720808775
796.0,0.0071772018192729995
795.0,0.007595463014174507
794.0,0.007935149045245376
793.0,0.008120436492768928
792.0,0.008132923891439287
791.0,0.008002296573863157
790.0,0.00778035424826215
789.0,0.007513165469220545
788.0,0.007223597504214403
787.0,0.0069185874480064205
786.0,0.006610179247007044
785.0,0.00632162271196458
784.0,0.006073852631924219
783.0,0.005873514118286856
782.0,0.005712436340559403
781.0,0.005571798141104327
780.0,0.005431429098783261
779.0,0.005285835631686789
778.0,0.005148661584648414
777.0,0.005030833222183416
776.0,0.004918382271346399
775.0,0.004784476606144856
774.0,0.004620048716171473
773.0,0.004438228338172364
772.0,0.004250781278279327
771.0,0.004057233707153222
770.0,0.0038579161246797677
769.0,0.003661080664066214
768.0,0.003473510639748694
767.0,0.003297204870848603
766.0,0.0031382546384536632
765.0,0.0030072719357803774
764.0,0.0029077275199558637
763.0,0.0028312098368072497
762.0,0.0027631774399539764
761.0,0.0026872372168411963
760.0,0.002590230079652164
759.0,0.0024748984111491023
758.0,0.0023620998901547705
757.0,0.0022660154158385647
756.0,0.002172803639313964
755.0,0.002060600942373439
754.0,0.0019345138179799656
753.0,0.0018198099660657208
752.0,0.0017236421559543493
751.0,0.001629834308121159
750.0,0.0015338364808837046
749.0,0.0014561365588135426
748.0,0.0014123470150207307
747.0,0.0013932971683267951
746.0,0.0013887046493969175
745.0,0.001416159330842567
744.0,0.0015189309000649218
743.0,0.001753380325001266
742.0,0.002187684240124105
741.0,0.0028905646712190057
740.0,0.003900220424352655
739.0,0.005210989998534206
738.0,0.006800711103568365
737.0,0.008656797304091163
736.0,0.010759551502180994
735.0,0.01305809465781653
734.0,0.015489239352567116
733.0,0.018009240686081996
732.0,0.020589420021350877
731.0,0.023208197231346595
730.0,0.02587275925794498
729.0,0.02860654202973631
728.0,0.03136124464523349
727.0,0.0339542383826223
726.0,0.036123263690787874
725.0,0.037629694834622245
724.0,0.038320967679303874
723.0,0.03816591486534414
722.0,0.03726788321803171
721.0,0.035818671969066525
720.0,0.034027330555076764
719.0,0.03209335252283324
718.0,0.030197461288638254
717.0,0.02846004675977991
716.0,0.02690769945450379
715.0,0.02549228972434915
714.0,0.02414933005380559
713.0,0.022849399824679636
712.0,0.021608809207530798
711.0,0.020471623681814537
710.0,0.019477555293076352
709.0,0.01862479195872541
708.0,0.0178618528313851
707.0,0.017131246012013226
706.0,0.0164252651894819
705.0,0.01578105082045758
704.0,0.015220368246023647
703.0,0.01471830767700525
702.0,0.014227715644235042
701.0,0.013707802954578078
700.0,0.013129835169026476
699.0,0.012487448469721715
698.0,0.011820215788548548
697.0,0.011200151052396235
696.0,0.01067268728746397
695.0,0.010224161084803209
694.0,0.009809113272455507
693.0,0.009395869085350148
692.0,0.008983785993182336
691.0,0.008595239980895241
690.0,0.008266465863541496
689.0,0.008023294795555531
688.0,0.007845026862814044
687.0,0.007674129940641355
686.0,0.007478381087479929
685.0,0.007283168651925798
684.0,0.007132525113386731
683.0,0.007040941812412244
682.0,0.006996184796626188
681.0,0.00698043810647905
680.0,0.006968519200799793
679.0,0.006919274546660942
678.0,0.006799704170075055
677.0,0.006615646368993654
676.0,0.006392436812921554
675.0,0.006151630935524455
674.0,0.005914697898312381
673.0,0.005686331204795662
672.0,0.005432094973863254
671.0,0.0050656893394152944
670.0,0.0045485025897832355
669.0,0.003949454574055891
668.0,0.0035479712922634205
667.0,0.003690218494746114
666.0,0.0041228652611833404
665.0,0.00441382046058417
664.0,0.004511156993002082
663.0,0.0044929307777260615
662.0,0.004423561311887229
661.0,0.004329895692391105
660.0,0.004230243204777219
659.0,0.004144929085169733
658.0,0.00407988035874789
657.0,0.004033185647396444
656.0,0.004000746712006328
655.0,0.003982330966601916
654.0,0.003969016475674962
653.0,0.003934705007900757
652.0,0.0038566215649241693
651.0,0.003745558519301846
650.0,0.0036420484017194946
649.0,0.0035679185715901413
648.0,0.003495826198098049
647.0,0.003388890071059336
646.0,0.003255778926981435
645.0,0.003137392945027108
644.0,0.0030606859995551544
643.0,0.0030288176817918344
642.0,0.0030325172413446493
641.0,0.0030494776974812846
640.0,0.003040988003277012
639.0,0.0029785062531427903
638.0,0.0028842992351701003
637.0,0.002820427233408449
636.0,0.0028346557822876445
635.0,0.0029349342794891126
634.0,0.0031000056956083204
633.0,0.0032864590913643608
632.0,0.0034238640195988525
631.0,0.0034385429147418475
630.0,0.0033155620980080767
629.0,0.0031169099848968543
628.0,0.0029163371350497923
627.0,0.0027427892296887028
626.0,0.0025910605735228534
625.0,0.002451052381928824
624.0,0.002319466103057428
623.0,0.0022045161852159764
622.0,0.0021294148202008565
621.0,0.0021176769480985916
620.0,0.0021659101535858698
619.0,0.0022349648027702364
618.0,0.0022730368904926856
617.0,0.0022525918277125304
616.0,0.002185282653394318
615.0,0.0021087408905463966
614.0,0.002060112863634731
613.0,0.002050723459447139
612.0,0.0020620822976443673
611.0,0.0020680236397820975
610.0,0.0020558194449248526
609.0,0.002017427855873605
608.0,0.0019377476043073213
607.0,0.0018216552331524402
606.0,0.001720161373840427
605.0,0.001685177722526585
604.0,0.001708947969882177
603.0,0.0017466194051972903
602.0,0.0017830989885491404
601.0,0.0018357618961587219
600.0,0.0018999938839562806
599.0,0.0019419818394183115
598.0,0.0019500498904954488
597.0,0.0019439043372396145
596.0,0.001924667148507848
595.0,0.0018654765370368469
594.0,0.0017671872384844942
593.0,0.0016799013847760835
592.0,0.0016523439535250945
591.0,0.0016894949944901583
590.0,0.0017670969583925156
589.0,0.0018539963304728645
588.0,0.0019081225634275355
587.0,0.0018942314888765934
586.0,0.001827608820879175
585.0,0.001761360799289605
584.0,0.001714962693190129
583.0,0.0016631699540174683
582.0,0.0016026992583386534
581.0,0.0015637558260951298
580.0,0.0015459636838776828
579.0,0.001513847738967504
578.0,0.0014749882614437677
577.0,0.0014873354473146517
576.0,0.0015540268785359315
575.0,0.001588203586235331
574.0,0.0015368176318039592
573.0,0.001457961710399868
572.0,0.0014329637691706167
571.0,0.0014791807585662464
570.0,0.0015691229551325677
569.0,0.0016798562841838262
568.0,0.0017778188753666633
567.0,0.0018140754582646884
566.0,0.0017968045259053114
565.0,0.0017992370134644522
564.0,0.0018555521706547628
563.0,0.001909761275918978
562.0,0.001904313636382434
561.0,0.0018542743073105394
560.0,0.00179555850962438
559.0,0.0017532070840310353
558.0,0.0017791292097252224
557.0,0.0019210384500668344
556.0,0.00211957574642342
555.0,0.0022109675518552207
554.0,0.00210780364361016
553.0,0.0018944563462736826
552.0,0.001681820858405873
551.0,0.0015114025961149875
550.0,0.0014165265999844853
