cm-1,A
4000.0,-0.00012069700317235421
3999.0,-9.971398304900285e-05
3998.0,-0.00010094648354108324
3997.0,-0.0001253988874976358
3996.0,-0.0001529413069240159
3995.0,-0.00016735308075862924
3994.0,-0.00017030432257747474
3993.0,-0.00016880185091580884
3992.0,-0.0001566270522579353
3991.0,-0.00011820325365779257
3990.0,-5.386099781119931e-05
3989.0,7.283722433667865e-06
3988.0,2.983104154618242e-05
3987.0,6.122311168773806e-06
3986.0,-3.837715455735739e-05
3985.0,-7.349132752074942e-05
3984.0,-9.125933252166103e-05
3983.0,-0.00010297413743120317
3982.0,-0.00011779218325061284
3981.0,-0.00013392520315090497
3980.0,-0.00014851907361029815
3979.0,-0.00016369135933035767
3978.0,-0.00017672313818518567
3977.0,-0.000173050511526128
3976.0,-0.0001404470344734737
3975.0,-9.088793668470766e-05
3974.0,-5.575056413458911e-05
3973.0,-5.7159844758588804e-05
3972.0,-8.998965780416483e-05
3971.0,-0.00013198060607575324
3970.0,-0.00016435734539591365
3969.0,-0.00018031910886684
3968.0,-0.00018159794964163565
3967.0,-0.0001700472305989232
3966.0,-0.0001448438281474113
3965.0,-0.00010682725810027063
3964.0,-6.285024051107865e-05
3963.0,-2.4251081762490315e-05
3962.0,1.8105739165328802e-06
3961.0,1.4254990716646744e-05
3960.0,1.2935515199861448e-05
3959.0,-2.4969456501591422e-06
3958.0,-2.585838356992335e-05
3957.0,-4.3051285585064825e-05
3956.0,-4.771897713910008e-05
3955.0,-4.668634658730117e-05
3954.0,-4.6982027139393263e-05
3953.0,-4.013126996108094e-05
3952.0,-5.72168655278444e-06
3951.0,6.744651627730615e-05
3950.0,0.00016536312798022187
3949.0,0.0002546670905353293
3948.0,0.00031383071493160195
3947.0,0.0003516200318395852
3946.0,0.0003797052933436941
3945.0,0.00037881615722427063
3944.0,0.00032907121502683944
3943.0,0.00026208410257574834
3942.0,0.00023640223957416707
3941.0,0.0002604456291125023
3940.0,0.0002784641426255381
3939.0,0.0002359245782507617
3938.0,0.00014784557276922763
3937.0,9.645742275917434e-05
3936.0,0.00014483294771045537
3935.0,0.0002738524190356254
3934.0,0.0004109012224746437
3933.0,0.0005075818041373314
3932.0,0.0005691504783541211
3931.0,0.0006088266445286056
3930.0,0.0006244302216383817
3929.0,0.0006193991530033032
3928.0,0.0005994067641607002
3927.0,0.0005440386981139331
3926.0,0.0004355680743874735
3925.0,0.0003295310316864669
3924.0,0.0003152926591911548
3923.0,0.00039739336125537827
3922.0,0.0004917371571471893
3921.0,0.0005295310747312296
3920.0,0.000522905683957642
3919.0,0.0005169724869835534
3918.0,0.0005158579447108345
3917.0,0.0004903665971073565
3916.0,0.00043959841642562513
3915.0,0.0003860719976996642
3914.0,0.00033313273806602223
3913.0,0.000267796662673527
3912.0,0.00020085917013092786
3911.0,0.00016935285305560988
3910.0,0.00019742964654088577
3909.0,0.00028388829095745294
3908.0,0.00040093054263632723
3907.0,0.0004971166166558407
3906.0,0.0005097991197136982
3905.0,0.00044187044678444844
3904.0,0.00039847505962694544
3903.0,0.0004681290554764102
3902.0,0.0006064400917406895
3901.0,0.0006788939371330099
3900.0,0.0006103886931742904
3899.0,0.00045739100174040787
3898.0,0.00032298528942796643
3897.0,0.00024880052060905367
3896.0,0.00022806844320692743
3895.0,0.00024925987202406834
3894.0,0.00029192727216829396
3893.0,0.0003103783371878168
3892.0,0.00028306990136546875
3891.0,0.0002696645155879727
3890.0,0.0003609204715409103
3889.0,0.00057606291289949
3888.0,0.0007665590225362706
3887.0,0.0007283478317015252
3886.0,0.0005125504558914258
3885.0,0.0004159537684561244
3884.0,0.0005781294501046958
3883.0,0.0008200006542983737
3882.0,0.0008504637550101187
3881.0,0.0005883205989552229
3880.0,0.0002579695514559714
3879.0,0.00011357405780496564
3878.0,0.000206248855589535
3877.0,0.00039542673709755134
3876.0,0.00047896465722177366
3875.0,0.00041413185416060844
3874.0,0.0003958155551598858
3873.0,0.0005893653076236441
3872.0,0.0008558226081582338
3871.0,0.0009029440496120967
3870.0,0.0007303074562358333
3869.0,0.0006357204161397817
3868.0,0.0007743812703215093
3867.0,0.0009741459434918142
3866.0,0.0009855679077042665
3865.0,0.0008150156827502085
3864.0,0.0006846246410699272
3863.0,0.0006773279740521663
3862.0,0.0006940657687391676
3861.0,0.0006674500196893743
3860.0,0.0006007260014556847
3859.0,0.0005132569226948564
3858.0,0.00043005078375750027
3857.0,0.0003975520685681692
3856.0,0.00040555233636596893
3855.0,0.0003282158655311231
3854.0,0.0002795811494546866
3853.0,0.0004770620469643945
3852.0,0.0007240044894003287
3851.0,0.0008002287498207073
3850.0,0.0006846745601618272
3849.0,0.0004641363203626821
3848.0,0.00028773723994959984
3847.0,0.0002512143166087952
3846.0,0.00034700836638636504
3845.0,0.0004944324293533996
3844.0,0.0006159187733186331
3843.0,0.0007042523183314149
3842.0,0.0008028528033377823
3841.0,0.0009134589312210385
3840.0,0.0009819261628995785
3839.0,0.000982125245893437
3838.0,0.0009278312666100314
3837.0,0.0008538580104226678
3836.0,0.0008069507837948102
3835.0,0.000802549631659405
3834.0,0.0007898212529743329
3833.0,0.0007034753831319639
3832.0,0.0005677484496921245
3831.0,0.000487717006945128
3830.0,0.0005275149275496532
3829.0,0.0006273748436958259
3828.0,0.0006540393552751413
3827.0,0.0005645461191754117
3826.0,0.0004949499706006144
3825.0,0.0006106745937249584
3824.0,0.0008843929722134047
3823.0,0.0010384237679213325
3822.0,0.0008730390929530263
3821.0,0.0006363906691440688
3820.0,0.0006368927086445146
3819.0,0.0008344668343118252
3818.0,0.0009363596133715266
3817.0,0.0007149784572761803
3816.0,0.00034679405882817333
3815.0,0.00017532555716702654
3814.0,0.00023238095387064384
3813.0,0.0003006401427422178
3812.0,0.00025396513537821654
3811.0,0.000172054636040855
3810.0,0.0001769067009587703
3809.0,0.00021544612472917425
3808.0,0.00014496530749148143
3807.0,2.8843587359527086e-05
3806.0,8.926674724023037e-05
3805.0,0.00038515598116526436
3804.0,0.0006976710390216093
3803.0,0.0007061119869678093
3802.0,0.0004572473373133795
3801.0,0.0003838085462246248
3800.0,0.0006292896367013851
3799.0,0.0009316822997830062
3798.0,0.0009964031402350162
3797.0,0.0007685667804051772
3796.0,0.00045489937381750466
3795.0,0.00024877883688966766
3794.0,0.00014369495825943988
3793.0,3.9317833515470704e-05
3792.0,-8.912315764772472e-05
3791.0,-0.00017996135545659143
3790.0,-0.00018091749704874814
3789.0,-0.00010293650332283272
3788.0,3.831980887132949e-06
3787.0,8.400178047918323e-05
3786.0,0.00010529105710902495
3785.0,8.597280072955831e-05
3784.0,8.755840672992291e-05
3783.0,0.00014519499128892678
3782.0,0.00021280260302415383
3781.0,0.00020504524495203354
3780.0,0.00012373818566875248
3779.0,6.730134261786905e-05
3778.0,7.643461295657114e-05
3777.0,8.3677351433698e-05
3776.0,1.79195652634679e-05
3775.0,-8.956906214858127e-05
3774.0,-0.0001223840337372709
3773.0,-2.7766104494587277e-05
3772.0,8.625676367442344e-05
3771.0,9.437352959360294e-05
3770.0,5.583433062313851e-05
3769.0,0.00012379216685937892
3768.0,0.0003051439603466745
3767.0,0.0004445397309987935
3766.0,0.0004243954894665265
3765.0,0.00031327431626566524
3764.0,0.0002674989236036984
3763.0,0.00032498167200392496
3762.0,0.0003821378990579811
3761.0,0.0003659420761430955
3760.0,0.00035490324889922
3759.0,0.000429930828388235
3758.0,0.0005247533872276304
3757.0,0.0005839082733150947
3756.0,0.0006777289535991292
3755.0,0.0008754505551577668
3754.0,0.001110412306188897
3753.0,0.001216688108698653
3752.0,0.0010947515210264656
3751.0,0.0008211657265988596
3750.0,0.0005493840922993765
3749.0,0.00041406980534568465
3748.0,0.0005011041379496947
3747.0,0.0007186723875655891
3746.0,0.000749353955108464
3745.0,0.0005152750648014714
3744.0,0.0004142358740434303
3743.0,0.0006360926805998261
3742.0,0.0009350669012451645
3741.0,0.0010671801534814012
3740.0,0.0010446499673099794
3739.0,0.0010521796977168534
3738.0,0.0011648744816066224
3737.0,0.0012975355333922252
3736.0,0.0014176738823612773
3735.0,0.0015346315039233786
3734.0,0.00151424226646761
3733.0,0.0012283021396048734
3732.0,0.0007823584203880234
3731.0,0.0004174937807459155
3730.0,0.00027106825383332216
3729.0,0.00028090871135327475
3728.0,0.0002977197272650547
3727.0,0.00029037939558400295
3726.0,0.0003715132841463709
3725.0,0.0005746385935545672
3724.0,0.0007633547761086478
3723.0,0.0007957434390640922
3722.0,0.000669371413730217
3721.0,0.0004824809767917009
3720.0,0.000326372741978415
3719.0,0.00023026788296645574
3718.0,0.00019068432811626592
3717.0,0.00022734395534535498
3716.0,0.00035288597829607766
3715.0,0.0005133766155712852
3714.0,0.0006103666923341737
3713.0,0.0006145686985154558
3712.0,0.0006434931391539915
3711.0,0.0007729510824498126
3710.0,0.0008874462644147922
3709.0,0.0008904775462058156
3708.0,0.0008129892358792398
3707.0,0.0007321742367577683
3706.0,0.0007029839679798013
3705.0,0.0007212686564042397
3704.0,0.0007357975556327046
3703.0,0.0007175064437443162
3702.0,0.0007186702805837848
3701.0,0.0008061091712987575
3700.0,0.0009702409788138466
3699.0,0.0011329411571504317
3698.0,0.001215181743494059
3697.0,0.0012261410460782012
3696.0,0.0012646522235161438
3695.0,0.001383436295938176
3694.0,0.0015216188970187932
3693.0,0.0015918609526703277
3692.0,0.0015858133356305305
3691.0,0.0015876106280487785
3690.0,0.001671103705959411
3689.0,0.0017579487097610386
3688.0,0.0017173315913691775
3687.0,0.0015819405835711198
3686.0,0.001442387849657236
3685.0,0.0013175995707628493
3684.0,0.0012191885613296897
3683.0,0.0012004259166579108
3682.0,0.0012723043649321333
3681.0,0.001367281748414338
3680.0,0.0014649068447991544
3679.0,0.00164641551162576
3678.0,0.001921606068437348
3677.0,0.002096552676407606
3676.0,0.002098993645616681
3675.0,0.0020969565477606767
3674.0,0.0021866257310837406
3673.0,0.0023238164962320843
3672.0,0.0023377512191704542
3671.0,0.002130165296945552
3670.0,0.0019178856418175108
3669.0,0.0018692663794255757
3668.0,0.0018556136122855737
3667.0,0.0017459533184129771
3666.0,0.0015417444084056264
3665.0,0.0013228976980476934
3664.0,0.0011769664763036413
3663.0,0.0011310677005947909
3662.0,0.0011499177744113426
3661.0,0.0012020210852355618
3660.0,0.001289935780377575
3659.0,0.001408771887278686
3658.0,0.0015065256875661506
3657.0,0.001554609957861849
3656.0,0.0016151533279022004
3655.0,0.00174966458308211
3654.0,0.0019500228528903738
3653.0,0.0021349501061665313
3652.0,0.0021973997328260993
3651.0,0.0021586939306469472
3650.0,0.0022780486845756787
3649.0,0.0026075680373777894
3648.0,0.002778063346950691
3647.0,0.0026539122666814257
3646.0,0.0024362283653446785
3645.0,0.0022723157520460457
3644.0,0.0021683936268927697
3643.0,0.0020855634933983572
3642.0,0.0020180706128777124
3641.0,0.001973238070933599
3640.0,0.0019168188301594202
3639.0,0.0018068644801689862
3638.0,0.001666781696042393
3637.0,0.00156403389781868
3636.0,0.001524804880617646
3635.0,0.001526294293280002
3634.0,0.001586105778044627
3633.0,0.001754511226305813
3632.0,0.00199777289973512
3631.0,0.0021114496331027053
3630.0,0.0019411263397961197
3629.0,0.0017815176004929312
3628.0,0.001943564292994979
3627.0,0.002266072986426149
3626.0,0.002486034706952131
3625.0,0.002515153938860294
3624.0,0.0024327766421586563
3623.0,0.0023913102004185244
3622.0,0.0024662066251807755
3621.0,0.002612312588744934
3620.0,0.0027513585108148286
3619.0,0.002840294223233452
3618.0,0.002859197135848612
3617.0,0.0028184476677966417
3616.0,0.0027356634273615526
3615.0,0.002610396268843975
3614.0,0.002478342791465352
3613.0,0.0024128615878273047
3612.0,0.0024287699985873637
3611.0,0.00245442061367193
3610.0,0.0024103872830497615
3609.0,0.0023139356893535764
3608.0,0.0022690524163564117
3607.0,0.0023099140352926695
3606.0,0.0023547884034294834
3605.0,0.00232978519302624
3604.0,0.0022388040940621075
3603.0,0.002139068506032497
3602.0,0.002090036247923645
3601.0,0.002119928499247193
3600.0,0.0022164677628870753
3599.0,0.0023358369228561188
3598.0,0.0024366954312505466
3597.0,0.002502037425236626
3596.0,0.0025334506903813662
3595.0,0.0025445558824232235
3594.0,0.002557336736002988
3593.0,0.002587434392866188
3592.0,0.002647766718618277
3591.0,0.0027402591153938526
3590.0,0.00283009450779017
3589.0,0.0028832118806094865
3588.0,0.0029431574203899417
3587.0,0.003043019711280435
3586.0,0.003102437653348838
3585.0,0.003055092841164969
3584.0,0.002920371518005078
3583.0,0.00275517680674737
3582.0,0.0026180004647737816
3581.0,0.002539976762571515
3580.0,0.0025166029178139565
3579.0,0.002520767054365121
3578.0,0.002530316312647121
3577.0,0.002542148453681732
3576.0,0.0025686224062519015
3575.0,0.002619469520661239
3574.0,0.002686868825760489
3573.0,0.002754310897297882
3572.0,0.0028286957727260732
3571.0,0.0029535585984348106
3570.0,0.0031621420402846304
3569.0,0.003422695965320897
3568.0,0.003662070085236043
3567.0,0.0038036725350759732
3566.0,0.003791475092077806
3565.0,0.003658116202132176
3564.0,0.0034932832673054155
3563.0,0.003350804660401549
3562.0,0.0032481189922108408
3561.0,0.003188383709938871
3560.0,0.003158913386713271
3559.0,0.0031352306131319065
3558.0,0.0031061661425637365
3557.0,0.003091012519224794
3556.0,0.0031172173503394235
3555.0,0.003179492693759664
3554.0,0.003235207450173511
3553.0,0.003256901293402747
3552.0,0.003270951208915773
3551.0,0.003319278500705832
3550.0,0.003395091656358779
3549.0,0.0034406489996906377
3548.0,0.0034178829053478563
3547.0,0.003373642670683366
3546.0,0.0033972136980733435
3545.0,0.0035048157582636963
3544.0,0.0036248515545894977
3543.0,0.0036957561629464095
3542.0,0.0037125200807590986
3541.0,0.003693257247791337
3540.0,0.0036491304681985784
3539.0,0.0036004384933268786
3538.0,0.0035981008936823962
3537.0,0.00369491010932108
3536.0,0.0038756738811519705
3535.0,0.004047645132998731
3534.0,0.004131554518912298
3533.0,0.004137210994879051
3532.0,0.004145236887857638
3531.0,0.004226461090034949
3530.0,0.004379281449542247
3529.0,0.00453803680580536
3528.0,0.004639485895711816
3527.0,0.004673730614780084
3526.0,0.00467600221171049
3525.0,0.004690332863259145
3524.0,0.004742786144516894
3523.0,0.004828683719403393
3522.0,0.004914641414768897
3521.0,0.004963467561387529
3520.0,0.004955114779180101
3519.0,0.004894574594657945
3518.0,0.004812756631853998
3517.0,0.004755387460463346
3516.0,0.0047617349556794645
3515.0,0.004848348258576274
3514.0,0.005006170519696864
3513.0,0.005202655627222384
3512.0,0.005391509181202184
3511.0,0.005535294604974376
3510.0,0.005628830157957794
3509.0,0.005697811973910852
3508.0,0.005768488250653446
3507.0,0.005832952560037349
3506.0,0.005840442238139667
3505.0,0.005736001206210633
3504.0,0.005529077070297761
3503.0,0.00531485471339798
3502.0,0.005197012363046292
3501.0,0.005195051306898464
3500.0,0.005241628336211196
3499.0,0.005251879044591899
3498.0,0.0051954403528147435
3497.0,0.005120938464481464
3496.0,0.005107997462737534
3495.0,0.00518484992414462
3494.0,0.005300210928576561
3493.0,0.0053767750858267
3492.0,0.005378899057010365
3491.0,0.00533016135934037
3490.0,0.00527808085393287
3489.0,0.00525077054371288
3488.0,0.005244472085815835
3487.0,0.005242564920720996
3486.0,0.005236524751529522
3485.0,0.0052244142565113835
3484.0,0.005196094465245596
3483.0,0.005134163331864821
3482.0,0.00504057473164141
3481.0,0.004957619295876061
3480.0,0.004945139898056826
3479.0,0.005024086124409605
3478.0,0.00514829894794505
3477.0,0.0052405697783932965
3476.0,0.005258381555610564
3475.0,0.005219950259684556
3474.0,0.005165501846193061
3473.0,0.005110789166731106
3472.0,0.005051572634992273
3471.0,0.004995038747300567
3470.0,0.004960022725991992
3469.0,0.004949324254003084
3468.0,0.00494596818120779
3467.0,0.004942694846159149
3466.0,0.004952978324712871
3465.0,0.0049840959091095715
3464.0,0.005019163451118462
3463.0,0.005039069455301973
3462.0,0.005045817668230352
3461.0,0.00504796197695743
3460.0,0.005038256157479427
3459.0,0.005008596724952758
3458.0,0.0049773696947582255
3457.0,0.004978219552286998
3456.0,0.00501736673498209
3455.0,0.005059466065753774
3454.0,0.005066115402254649
3453.0,0.005041899875444676
3452.0,0.005035346129341978
3451.0,0.005089141913421179
3450.0,0.005192783726982179
3449.0,0.005289997100012241
3448.0,0.005339818296916581
3447.0,0.005361919788353497
3446.0,0.005401513465600086
3445.0,0.0054617042137011
3444.0,0.005498685447136893
3443.0,0.005482520373556328
3442.0,0.005437913194378365
3441.0,0.0054102927343573585
3440.0,0.005405153106405899
3439.0,0.0053848990879522655
3438.0,0.005321165522917294
3437.0,0.005230707862630397
3436.0,0.0051569125328099034
3435.0,0.005125935929283981
3434.0,0.005126651961101384
3433.0,0.00513193416327087
3432.0,0.005138206141246668
3431.0,0.005176362359961073
3430.0,0.005274583489453087
3429.0,0.005410381997698617
3428.0,0.005513893206906243
3427.0,0.005529848000559785
3426.0,0.005471642540118789
3425.0,0.005407833493200561
3424.0,0.005399046783248328
3423.0,0.005457316712957327
3422.0,0.0055590455908166095
3421.0,0.005676983725619587
3420.0,0.005790826267865938
3419.0,0.005880838588566263
3418.0,0.005929922519707179
3417.0,0.005932865133150363
3416.0,0.005897122067876903
3415.0,0.0058340593245185
3414.0,0.005756009840094745
3413.0,0.005684669413545066
3412.0,0.005652920605814689
3411.0,0.005683901914932945
3410.0,0.005762200559146644
3409.0,0.005833274498425063
3408.0,0.005842598869873868
3407.0,0.005780882983960992
3406.0,0.005689734161808657
3405.0,0.005622726344175466
3404.0,0.005602962152826605
3403.0,0.0056205920514847026
3402.0,0.005663311739586766
3401.0,0.00573156794449378
3400.0,0.005819368150816639
3399.0,0.0058968199526034295
3398.0,0.005931972971926637
3397.0,0.005928630336301026
3396.0,0.005926480182739845
3395.0,0.005959476667224822
3394.0,0.006024038103060918
3393.0,0.006091555385311906
3392.0,0.006141963588295794
3391.0,0.00617718735126452
3390.0,0.006205728784902989
3389.0,0.0062244549661745405
3388.0,0.00621843231881942
3387.0,0.006177142324024458
3386.0,0.006112582443924758
3385.0,0.006061069458598169
3384.0,0.0060594205623174194
3383.0,0.00611235330096783
3382.0,0.006186523134559205
3381.0,0.006241742933921058
3380.0,0.006266830555670894
3379.0,0.00628014326196839
3378.0,0.006297829368145245
3377.0,0.0063120973113833505
3376.0,0.006305698854211212
3375.0,0.006278700981467877
3374.0,0.006249080680160073
3373.0,0.006229704399717845
3372.0,0.006217982521325419
3371.0,0.006211792991820862
3370.0,0.006222833008558382
3369.0,0.006264330550240515
3368.0,0.00633181760699808
3367.0,0.006406114986166899
3366.0,0.006472105033508873
3365.0,0.006525723995664312
3364.0,0.00656614743037286
3363.0,0.006593698141526268
3362.0,0.006617309420986704
3361.0,0.00665188458356623
3360.0,0.006700130329318732
3359.0,0.006742253139529744
3358.0,0.00675190598311657
3357.0,0.006722159018995503
3356.0,0.006672192108395602
3355.0,0.006629122551692327
3354.0,0.0066073915468011
3353.0,0.006606435996546894
3352.0,0.006620894775658699
3351.0,0.006645094485972626
3350.0,0.006667781864485417
3349.0,0.00667214542954515
3348.0,0.006650494037259189
3347.0,0.006618619499706
3346.0,0.00660686128534773
3345.0,0.006632208972523769
3344.0,0.00668295059824788
3343.0,0.006733974230035786
3342.0,0.006773699281974367
3341.0,0.006809664049183735
3340.0,0.006849280952611553
3339.0,0.0068829030563248225
3338.0,0.006890416328175844
3337.0,0.00686368850262338
3336.0,0.006819318879413722
3335.0,0.00678571014742963
3334.0,0.0067767204193722504
3333.0,0.006781650366401206
3332.0,0.006783779113917816
3331.0,0.006784602571984077
3330.0,0.006802064301374804
3329.0,0.006845043611746978
3328.0,0.006897519802632068
3327.0,0.006932094675779571
3326.0,0.006934962219170643
3325.0,0.006915715008371336
3324.0,0.0068996288406673375
3323.0,0.006912430005763604
3322.0,0.006960713269380142
3321.0,0.007016646457129568
3320.0,0.007029509360245727
3319.0,0.006968119571233271
3318.0,0.006854646535557155
3317.0,0.006748637664496104
3316.0,0.006697341669042048
3315.0,0.006706051176788699
3314.0,0.006750145383451523
3313.0,0.006801546450072906
3312.0,0.006841675439736808
3311.0,0.006862181252236064
3310.0,0.006863309873034381
3309.0,0.006850918695859423
3308.0,0.006833888791830115
3307.0,0.0068262813152232
3306.0,0.006846814499361255
3305.0,0.0069044444184913085
3304.0,0.006981282277873681
3303.0,0.00704008004676443
3302.0,0.00705680890738628
3301.0,0.007042682659355969
3300.0,0.0070291107803394474
3299.0,0.0070342805994097635
3298.0,0.007048972206999361
3297.0,0.007051387046908209
3296.0,0.007030150195764782
3295.0,0.006992874014473932
3294.0,0.006957309768072829
3293.0,0.0069367528063401015
3292.0,0.006932630674973638
3291.0,0.006939298770697164
3290.0,0.006952582778230238
3289.0,0.0069707680117980925
3288.0,0.006990624432329029
3287.0,0.007009368386228426
3286.0,0.007032935539234387
3285.0,0.007076356918077445
3284.0,0.007147156203578343
3283.0,0.007226579115949509
3282.0,0.007273706694092191
3281.0,0.00725605518236591
3280.0,0.007179275616828015
3279.0,0.007085096643162097
3278.0,0.007016691295277195
3277.0,0.006984929681218591
3276.0,0.006968840063913273
3275.0,0.006945258831289729
3274.0,0.0069115025970018906
3273.0,0.00688087625356555
3272.0,0.006867882257885651
3271.0,0.006881492653721021
3270.0,0.006920903650133266
3269.0,0.006969210223369602
3268.0,0.006999683677397745
3267.0,0.006997972074704564
3266.0,0.006973764918906987
3265.0,0.006943782397600412
3264.0,0.0069117342031522686
3263.0,0.006877513248883842
3262.0,0.006856294450852998
3261.0,0.006865524919272644
3260.0,0.006892363580026959
3259.0,0.006896375865266747
3258.0,0.0068526833190337266
3257.0,0.0067787098197102415
3256.0,0.006711812275990707
3255.0,0.006673441410145383
3254.0,0.006661633633228203
3253.0,0.00666294643025501
3252.0,0.006658772401437096
3251.0,0.006631463419746972
3250.0,0.006582051830696545
3249.0,0.006537867755774897
3248.0,0.006527417522109658
3247.0,0.006546332554497401
3246.0,0.006558810428643952
3245.0,0.006535822161442533
3244.0,0.006483281653511095
3243.0,0.006428460894219284
3242.0,0.0063870147770699725
3241.0,0.006350769096849892
3240.0,0.0063053316031595995
3239.0,0.006253400827725696
3238.0,0.006215151166844013
3237.0,0.006205064114344244
3236.0,0.00621489419182969
3235.0,0.006225583944036528
3234.0,0.006230822828921052
3233.0,0.0062375276818044945
3232.0,0.006243759564281241
3231.0,0.006231399060503198
3230.0,0.006190281343530234
3229.0,0.006140202305964387
3228.0,0.006116574791782304
3227.0,0.006134939503174603
3226.0,0.006175922817323064
3225.0,0.006203269868552755
3224.0,0.00619128257721659
3223.0,0.006139992669771914
3222.0,0.006075041947570043
3221.0,0.006031934960268158
3220.0,0.006027392868812813
3219.0,0.006039179289373711
3218.0,0.0060206221946468835
3217.0,0.005944462576500586
3216.0,0.00583604820437267
3215.0,0.005761017180431677
3214.0,0.005769889300803889
3213.0,0.005847013989218962
3212.0,0.005919096017212697
3211.0,0.005919848148957654
3210.0,0.00584718795432256
3209.0,0.005757850470835423
3208.0,0.005710793551678856
3207.0,0.005722167821547181
3206.0,0.005769232571340831
3205.0,0.005818314168788294
3204.0,0.005840018153685971
3203.0,0.005812932150143097
3202.0,0.005734296484058718
3201.0,0.005630300987871314
3200.0,0.005542173396006966
3199.0,0.005492487036704831
3198.0,0.005468130461474149
3197.0,0.005442527553618735
3196.0,0.005410131169415786
3195.0,0.005387780965777229
3194.0,0.005382270641092727
3193.0,0.005371203522331599
3192.0,0.005327567143785568
3191.0,0.00525839031527824
3190.0,0.005205596380086947
3189.0,0.0052034349835712165
3188.0,0.0052424128110198365
3187.0,0.005279356334903291
3186.0,0.005276422686558534
3185.0,0.00522729012428721
3184.0,0.005155407349939499
3183.0,0.005096739185645296
3182.0,0.005077337650526288
3181.0,0.005094112546486946
3180.0,0.005115878036304276
3179.0,0.0051125628797384776
3178.0,0.0050877214623410135
3177.0,0.0050764822967877005
3176.0,0.005108302432522031
3175.0,0.005175730108715474
3174.0,0.005240094456697476
3173.0,0.0052643052172323184
3172.0,0.005242216121780237
3171.0,0.005200517998044144
3170.0,0.005171226040514401
3169.0,0.005158568849932904
3168.0,0.005134470428420633
3167.0,0.005071545948588551
3166.0,0.004979465093637182
3165.0,0.004902743020997234
3164.0,0.004880191356826006
3163.0,0.004907738881683511
3162.0,0.004940539243205857
3161.0,0.004931944334953807
3160.0,0.004873691175447161
3159.0,0.0047990204334997875
3158.0,0.004744900119108966
3157.0,0.00471450791137524
3156.0,0.004684182685361704
3155.0,0.004643908278802084
3154.0,0.004614587646335291
3153.0,0.0046177661399271
3152.0,0.004642113039887524
3151.0,0.004654479104149701
3150.0,0.004637761902312108
3149.0,0.004604373174283865
3148.0,0.0045758345293198084
3147.0,0.004562154443466184
3146.0,0.004560378387835847
3145.0,0.004561292198917107
3144.0,0.004555124339519146
3143.0,0.004539135392754489
3142.0,0.004521972586481037
3141.0,0.004514789577355956
3140.0,0.004518053514185028
3139.0,0.004523035562969779
3138.0,0.004523902733979725
3137.0,0.004519186945897961
3136.0,0.0045035077048606416
3135.0,0.004469632545420263
3134.0,0.004419919092821072
3133.0,0.004364951068395988
3132.0,0.004308953351253228
3131.0,0.004247938620398555
3130.0,0.004184893142224568
3129.0,0.004135788728554734
3128.0,0.004116231511855579
3127.0,0.00412744368267487
3126.0,0.004155574681564687
3125.0,0.004178235249933854
3124.0,0.004172909928436318
3123.0,0.00413170691011412
3122.0,0.0040745848985820265
3121.0,0.004038431286604766
3120.0,0.00404180530440459
3119.0,0.004063152992008951
3118.0,0.0040614007284924735
3117.0,0.004017920894176814
3116.0,0.003954743833226308
3115.0,0.003912031363723109
3114.0,0.003910839285827875
3113.0,0.003937593906864625
3112.0,0.003959793547628015
3111.0,0.003953040172752674
3110.0,0.003915551421032849
3109.0,0.003863985659547416
3108.0,0.0038210780765903724
3107.0,0.003803829405339524
3106.0,0.003815220235860597
3105.0,0.0038453320724466684
3104.0,0.003883571986438279
3103.0,0.003926546218533366
3102.0,0.003968127048429028
3101.0,0.00398882550055639
3100.0,0.003970429286331923
3099.0,0.003923486344788409
3098.0,0.0038853982801165506
3097.0,0.0038838159583547303
3096.0,0.003911449466743352
3095.0,0.003942724665279048
3094.0,0.003963200323720235
3093.0,0.003971522744598726
3092.0,0.00396528388346638
3091.0,0.003943441324732639
3090.0,0.003916491982516039
3089.0,0.0038951674339192683
3088.0,0.003870889725124238
3087.0,0.003827342910893987
3086.0,0.0037748471686203603
3085.0,0.0037537572494058752
3084.0,0.0037925078038012552
3083.0,0.003873205804788023
3082.0,0.003948944674029525
3081.0,0.003988270178028057
3080.0,0.003994762747035402
3079.0,0.003991383338380875
3078.0,0.003997627879641777
3077.0,0.004018371290051381
3076.0,0.00404251186758797
3075.0,0.004050145866742397
3074.0,0.00402937159653904
3073.0,0.003990588439732637
3072.0,0.003959991637438114
3071.0,0.003953761074336978
3070.0,0.003960471131469639
3069.0,0.003953569601162214
3068.0,0.00392093076284605
3067.0,0.003877889992951711
3066.0,0.003848867148811764
3065.0,0.0038409516389067587
3064.0,0.003842024147120585
3063.0,0.00384189216194574
3062.0,0.003845322412574707
3061.0,0.0038611190102707084
3060.0,0.003885515277999489
3059.0,0.003902227781897553
3058.0,0.0038963340724454615
3057.0,0.0038644500805124563
3056.0,0.003814170707689836
3055.0,0.0037586282655988233
3054.0,0.0037110742470898364
3053.0,0.0036809254663884034
3052.0,0.0036736700650472267
3051.0,0.0036920587407393117
3050.0,0.003731215037351232
3049.0,0.003771047988753897
3048.0,0.0037831139128151805
3047.0,0.00375537433837189
3046.0,0.003707024556826014
3045.0,0.0036694570425543386
3044.0,0.003653423229948307
3043.0,0.0036432586845252584
3042.0,0.0036238736863503564
3041.0,0.0036032543122097305
3040.0,0.0036030935982549143
3039.0,0.0036345218168673905
3038.0,0.0036903484916338113
3037.0,0.003757918639473082
3036.0,0.003831247585644084
3035.0,0.003908765239417902
3034.0,0.003984388012066468
3033.0,0.004046043447696244
3032.0,0.004085490525511573
3031.0,0.0041085039284017065
3030.0,0.004131524475811204
3029.0,0.004167266979475409
3028.0,0.004217348056542679
3027.0,0.004279907488524329
3026.0,0.004358100371239079
3025.0,0.004455702239716783
3024.0,0.004568661653633427
3023.0,0.004688840671492279
3022.0,0.004815957908598262
3021.0,0.0049601088972874505
3020.0,0.005131653403171222
3019.0,0.005333102537741643
3018.0,0.005562518026668461
3017.0,0.005820938544337292
3016.0,0.006111972484879944
3015.0,0.006434276127574816
3014.0,0.006778340081077151
3013.0,0.0071342427434312045
3012.0,0.007502516398521557
3011.0,0.007893380357620716
3010.0,0.00831230361654049
3009.0,0.008749222105279357
3008.0,0.009186738009600128
3007.0,0.009618343169615032
3006.0,0.01005552762820221
3005.0,0.010517832538107574
3004.0,0.011018263935572231
3003.0,0.011553636195544358
3002.0,0.012100267879648779
3001.0,0.012618755809890638
3000.0,0.013072288565749518
2999.0,0.013446494025077334
2998.0,0.013747908836482612
2997.0,0.013981066315066428
2996.0,0.014132042941678163
2995.0,0.014175685793676871
2994.0,0.014090808145883208
2993.0,0.013864254571374978
2992.0,0.013489527999938073
2991.0,0.012972953497462586
2990.0,0.012342253675919472
2989.0,0.011644813141827321
2988.0,0.010936160849765952
2987.0,0.010267053010681449
2986.0,0.009673149649883925
2985.0,0.009169996952642246
2984.0,0.008759124956666076
2983.0,0.008438297984071457
2982.0,0.008198165167029826
2981.0,0.008009263146718133
2980.0,0.007828763862914664
2979.0,0.007634441147966154
2978.0,0.007447021461039203
2977.0,0.007309709278747304
2976.0,0.007248757752871827
2975.0,0.007257605510719295
2974.0,0.007308585057756672
2973.0,0.0073693562324883
2972.0,0.007417154237172485
2971.0,0.007453125966152335
2970.0,0.0075007905150106125
2969.0,0.007577905251886894
2968.0,0.007670434961714276
2967.0,0.007745961377688605
2966.0,0.007793940957141971
2965.0,0.007841887171989081
2964.0,0.007929227838994614
2963.0,0.008072351864776742
2962.0,0.008254950333577956
2961.0,0.008444509866158627
2960.0,0.008617621679351093
2959.0,0.008777145294915023
2958.0,0.008948157118144957
2957.0,0.009154835081295254
2956.0,0.009403093991589645
2955.0,0.009686584463598135
2954.0,0.010000731674044862
2953.0,0.010342348853693372
2952.0,0.01070245504249716
2951.0,0.01107177951892958
2950.0,0.011450215810807683
2949.0,0.011837786382283506
2948.0,0.012214728685392359
2947.0,0.012538011491427746
2946.0,0.012757496665800899
2945.0,0.012831894443132928
2944.0,0.01273756694217068
2943.0,0.012479080581430223
2942.0,0.01209388849046632
2941.0,0.011634945243795136
2940.0,0.01114426361672549
2939.0,0.010648574958083837
2938.0,0.01017470343580089
2937.0,0.009750719430626227
2936.0,0.009386173692439754
2935.0,0.00906528222235772
2934.0,0.0087698001065413
2933.0,0.008503043352505525
2932.0,0.008287287319508563
2931.0,0.008142362871376183
2930.0,0.008067068620573839
2929.0,0.0080326805536564
2928.0,0.007994543275908497
2927.0,0.00792201377200828
2926.0,0.007822465695686596
2925.0,0.007728505940091449
2924.0,0.0076578502080336935
2923.0,0.0075937419191485535
2922.0,0.007506506675943096
2921.0,0.007383826333034017
2920.0,0.007234241298948089
2919.0,0.007070660961364777
2918.0,0.006900629802024523
2917.0,0.006729700693542879
2916.0,0.006565747435697995
2915.0,0.006417002479134071
2914.0,0.006288209461335894
2913.0,0.006181064616377654
2912.0,0.006098621594603127
2911.0,0.006045414947757267
2910.0,0.006017977011428777
2909.0,0.005996272179169481
2908.0,0.005952457780480032
2907.0,0.005872217193158055
2906.0,0.0057624195178878155
2905.0,0.005637818691394209
2904.0,0.005510594066217147
2903.0,0.0054003457580533215
2902.0,0.005337055881065174
2901.0,0.005336164454916106
2900.0,0.0053760036497313875
2899.0,0.00541094477071756
2898.0,0.005410109844755226
2897.0,0.005373045855130098
2896.0,0.005313690075811694
2895.0,0.005244490161992221
2894.0,0.005178629865296563
2893.0,0.005133196198654439
2892.0,0.005120453329460711
2891.0,0.005140130646902163
2890.0,0.005183289551515655
2889.0,0.005240292465979506
2888.0,0.005305164050444526
2887.0,0.005377541863920661
2886.0,0.005460638514182557
2885.0,0.005552300742691681
2884.0,0.00563850034202501
2883.0,0.005701382634404138
2882.0,0.0057340718135534844
2881.0,0.005742148609000348
2880.0,0.0057297655392753504
2879.0,0.0056882364018038065
2878.0,0.005599359148164692
2877.0,0.005449693908796984
2876.0,0.005246249689882938
2875.0,0.00502163388942143
2874.0,0.00481820492759866
2873.0,0.00465967224984972
2872.0,0.004539340867730637
2871.0,0.004438577915769221
2870.0,0.004349022313194421
2869.0,0.0042700873373664
2868.0,0.004194751012373111
2867.0,0.0041126529047557855
2866.0,0.004025412858287148
2865.0,0.003948328793236391
2864.0,0.0038989151516754996
2863.0,0.003892118397387071
2862.0,0.003939337140273061
2861.0,0.004034436083423131
2860.0,0.004142117718219243
2859.0,0.0042193538749219104
2858.0,0.004255800801609484
2857.0,0.004282435772821584
2856.0,0.0043345646625024626
2855.0,0.004412767692476237
2854.0,0.004482413533374342
2853.0,0.004504803461284316
2852.0,0.004467554667763184
2851.0,0.004390779927619154
2850.0,0.0043054401339205324
2849.0,0.004222805635786557
2848.0,0.004126833876392499
2847.0,0.004000629508067455
2846.0,0.0038541872354761414
2845.0,0.0037172745927244386
2844.0,0.0036096096129210877
2843.0,0.0035282423489538407
2842.0,0.003462033158474205
2841.0,0.0034062369963186075
2840.0,0.003360672183284651
2839.0,0.0033232534610327874
2838.0,0.0032898570626197915
2837.0,0.003256123695227313
2836.0,0.0032180594851164025
2835.0,0.003175220687880751
2834.0,0.0031338444864370523
2833.0,0.003103168321493761
2832.0,0.003088508487201597
2831.0,0.0030885197268174357
2830.0,0.0030942381914651146
2829.0,0.0030885429177178805
2828.0,0.0030559745489767602
2827.0,0.0030015585829423477
2826.0,0.002952768161051317
2825.0,0.0029323725348629924
2824.0,0.0029345719429304832
2823.0,0.0029380689725083684
2822.0,0.0029352676154317716
2821.0,0.002933438609746622
2820.0,0.002931366335536664
2819.0,0.0029140501200964385
2818.0,0.0028743844158441723
2817.0,0.002824853345255526
2816.0,0.002780676013234916
2815.0,0.0027421107088695888
2814.0,0.0027010617764736426
2813.0,0.00265800823382377
2812.0,0.002623560553163402
2811.0,0.002604339747490944
2810.0,0.002591976032315667
2809.0,0.0025689151104184658
2808.0,0.0025282170310075144
2807.0,0.0024870923721633416
2806.0,0.0024735145433250373
2805.0,0.002494955298558037
2804.0,0.0025278664804107443
2803.0,0.002544320888742897
2802.0,0.0025403327859926765
2801.0,0.002528776836762399
2800.0,0.0025148161500241073
2799.0,0.0024942835345962006
2798.0,0.0024704421348931103
2797.0,0.002453370839470925
2796.0,0.0024415658188980524
2795.0,0.00242040205950505
2794.0,0.0023832918495430414
2793.0,0.0023417074566984106
2792.0,0.002309316210490143
2791.0,0.0022861728773193196
2790.0,0.002264407897747436
2789.0,0.0022432736137247156
2788.0,0.0022342646116372015
2787.0,0.0022531964119754666
2786.0,0.0023038974421862816
2785.0,0.0023645583743266505
2784.0,0.0023970951551199613
2783.0,0.002382015124358789
2782.0,0.0023411677718659847
2781.0,0.002313370879286792
2780.0,0.0023098536383868553
2779.0,0.0023083502216111338
2778.0,0.0022905288850033336
2777.0,0.0022672459119315942
2776.0,0.002260160857216236
2775.0,0.0022729037407732897
2774.0,0.0022908398529067403
2773.0,0.0023012525485529398
2772.0,0.0023038602368468056
2771.0,0.0023041689422361403
2770.0,0.0023024533701488216
2769.0,0.002290096471675223
2768.0,0.0022581636389442015
2767.0,0.0022124704111560474
2766.0,0.0021761848014022886
2765.0,0.002170423403890182
2764.0,0.0021944007054498114
2763.0,0.002231746169364394
2762.0,0.002272072724969355
2761.0,0.0023153316438059165
2760.0,0.0023575026510901697
2759.0,0.002385791398615043
2758.0,0.0023911635127165493
2757.0,0.002376495138562324
2756.0,0.002350904753623109
2755.0,0.0023247292511292656
2754.0,0.002309509225385956
2753.0,0.002310664568202781
2752.0,0.002317100343685238
2751.0,0.002308181615181001
2750.0,0.0022752592119963944
2749.0,0.0022291376972966084
2748.0,0.0021851350319097586
2747.0,0.002150352898787973
2746.0,0.0021277890036277085
2745.0,0.0021229065216345462
2744.0,0.002140680021419119
2743.0,0.0021812651381731235
2742.0,0.002239464832333867
2741.0,0.002302148991966327
2740.0,0.0023480067005451
2739.0,0.002361102659989096
2738.0,0.002347222445061577
2737.0,0.0023279613379051252
2736.0,0.002316974005425109
2735.0,0.0023110056429230174
2734.0,0.0023047048107380703
2733.0,0.002301590206435612
2732.0,0.0023054753780814992
2731.0,0.0023118449529638614
2730.0,0.0023143732948439793
2729.0,0.002312044223941999
2728.0,0.0023043479446447166
2727.0,0.002287419405106007
2726.0,0.0022614101976572614
2725.0,0.002235043561914082
2724.0,0.002216364558926756
2723.0,0.002204354437931791
2722.0,0.002195983252757285
2721.0,0.0021965187055032736
2720.0,0.002214818598116444
2719.0,0.00224991280518184
2718.0,0.0022887073779374054
2717.0,0.0023183322782353967
2716.0,0.002336938129407452
2715.0,0.0023496102630178907
2714.0,0.0023549609803947985
2713.0,0.002340926506056161
2712.0,0.0022995681215072857
2711.0,0.0022446972285783888
2710.0,0.0022060137325209295
2709.0,0.0022008151312767578
2708.0,0.0022171774938860938
2707.0,0.0022300206672288343
2706.0,0.0022275277686685294
2705.0,0.0022157988910477774
2704.0,0.002204933225395592
2703.0,0.0021993917062211295
2702.0,0.002196906889979322
2701.0,0.002188386140273628
2700.0,0.0021647404754088053
2699.0,0.0021335228474429827
2698.0,0.002121962807593699
2697.0,0.002149596522355959
2696.0,0.002201262428154602
2695.0,0.002241455152768294
2694.0,0.0022545159013504967
2693.0,0.002257268131492024
2692.0,0.0022713557520215202
2691.0,0.002296416993036762
2690.0,0.002314104192505181
2689.0,0.002308121470443778
2688.0,0.0022774435375072233
2687.0,0.002238913886002144
2686.0,0.0022190713003074165
2685.0,0.0022342224519802246
2684.0,0.002274779571519925
2683.0,0.002313867325676947
2682.0,0.002331013368731269
2681.0,0.0023225042289763353
2680.0,0.002294529672741701
2679.0,0.002258623696532144
2678.0,0.002232186874354152
2677.0,0.0022290058964832167
2676.0,0.002245073636712552
2675.0,0.0022635675505886547
2674.0,0.0022762911005813936
2673.0,0.00229101188285941
2672.0,0.002315570380188677
2671.0,0.002345135852576102
2670.0,0.0023698330773003675
2669.0,0.0023871176013575204
2668.0,0.002401522189243418
2667.0,0.002416768725943248
2666.0,0.0024317750093597037
2665.0,0.0024427376312596634
2664.0,0.0024489288879778475
2663.0,0.0024565892654690603
2662.0,0.002471833540558915
2661.0,0.002487122373313906
2660.0,0.0024842335436436346
2659.0,0.002458485539567637
2658.0,0.002430549868646263
2657.0,0.002422544801424445
2656.0,0.002431709399489322
2655.0,0.002442640719527582
2654.0,0.0024556627479212357
2653.0,0.0024808857404533383
2652.0,0.002508656379293552
2651.0,0.002511861426213834
2650.0,0.002482319215250894
2649.0,0.00244367111660292
2648.0,0.002420758555378707
2647.0,0.0024139143289581395
2646.0,0.0024099265023129895
2645.0,0.002400019729512888
2644.0,0.0023774993201361966
2643.0,0.002334685063881942
2642.0,0.002275415845041905
2641.0,0.0022200436871726917
2640.0,0.00218725384836566
2639.0,0.0021775209202010105
2638.0,0.0021789930997842977
2637.0,0.002180452664106637
2636.0,0.0021756854915845943
2635.0,0.002166698645535271
2634.0,0.002165465415817258
2633.0,0.0021797506410851965
2632.0,0.0021954310313345433
2631.0,0.002189067605130912
2630.0,0.0021613167321161237
2629.0,0.0021396345041011133
2628.0,0.0021414563972407233
2627.0,0.002152913816941093
2626.0,0.002153024164718276
2625.0,0.002140583490259043
2624.0,0.002125045221283997
2623.0,0.0021073975392545863
2622.0,0.0020864976911773594
2621.0,0.0020739683041273286
2620.0,0.002085977379121414
2619.0,0.002121943981913085
2618.0,0.002158932313778832
2617.0,0.0021658956913750017
2616.0,0.0021257366845835414
2615.0,0.0020541373930770403
2614.0,0.001996420046871436
2613.0,0.0019906782271586396
2612.0,0.0020292995288791324
2611.0,0.0020684871511850193
2610.0,0.002076064618185088
2609.0,0.0020548174610335373
2608.0,0.0020213720294110483
2607.0,0.0019865621467908727
2606.0,0.001962253139935324
2605.0,0.0019617166786603715
2604.0,0.001978489967864672
2603.0,0.001983569349155557
2602.0,0.001958250035893227
2601.0,0.001916008984807648
2600.0,0.001881253104603292
2599.0,0.0018617322365513467
2598.0,0.0018532809825947444
2597.0,0.0018557613987384455
2596.0,0.0018700722403173775
2595.0,0.0018906856000359337
2594.0,0.0019115651294958572
2593.0,0.001928652801041585
2592.0,0.0019306318564198018
2591.0,0.0019038735154401276
2590.0,0.0018556647454939373
2589.0,0.0018144797548338364
2588.0,0.0017944096936154063
2587.0,0.0017757227383799253
2586.0,0.0017354169929444112
2585.0,0.0016833401878207947
2584.0,0.0016528721237583197
2583.0,0.00166605899308097
2582.0,0.0017196966361277674
2581.0,0.0017934007746597566
2580.0,0.0018581673671270206
2579.0,0.00188816391690884
2578.0,0.0018792112896452054
2577.0,0.001850981195766733
2576.0,0.0018233481201189255
2575.0,0.0017994464236592692
2574.0,0.0017786337957105963
2573.0,0.0017722402535713046
2572.0,0.0017932101325387698
2571.0,0.0018373635877390482
2570.0,0.0018839475787655316
2569.0,0.00190878446022904
2568.0,0.0018941111067135885
2567.0,0.0018387099033415509
2566.0,0.0017662256738368233
2565.0,0.0017117101915846175
2564.0,0.001690557350256255
2563.0,0.001689082438514684
2562.0,0.0016897769064337128
2561.0,0.0016922461951041764
2560.0,0.001703222592870808
2559.0,0.0017218788743097744
2558.0,0.0017454311361374086
2557.0,0.0017753111046709532
2556.0,0.001805320403440875
2555.0,0.0018153133848128208
2554.0,0.00179172352912354
2553.0,0.001749606651128827
2552.0,0.0017228315234595112
2551.0,0.001732809535483004
2550.0,0.0017698588864936585
2549.0,0.0018000322929860478
2548.0,0.0017891719347223863
2547.0,0.0017300222886256185
2546.0,0.0016507717270922515
2545.0,0.0015909165890131858
2544.0,0.0015664245028337125
2543.0,0.001563741294357407
2542.0,0.0015643884675485133
2541.0,0.0015636931387044755
2540.0,0.0015668894553879631
2539.0,0.0015806261072804344
2538.0,0.0016096893438132419
2537.0,0.0016506702972836317
2536.0,0.0016897293598592436
2535.0,0.0017180034166813496
2534.0,0.0017437267973209308
2533.0,0.0017714601549097503
2532.0,0.0017746718182783745
2531.0,0.0017159183037593747
2530.0,0.0016006791543941518
2529.0,0.0014884070066564828
2528.0,0.0014377570078743392
2527.0,0.0014544070522002775
2526.0,0.0014993640105294627
2525.0,0.00153173131641698
2524.0,0.001534203640594698
2523.0,0.001512914950370633
2522.0,0.0014875061462731845
2521.0,0.0014763573790245806
2520.0,0.0014842094648727742
2519.0,0.001506952569903023
2518.0,0.0015450702765145014
2517.0,0.001599450602894164
2516.0,0.0016550524084226561
2515.0,0.0016865818169195888
2514.0,0.0016868621591668016
2513.0,0.001676999906104139
2512.0,0.0016820026875773637
2511.0,0.0017057879169696463
2510.0,0.0017333992783480192
2509.0,0.0017466180776373004
2508.0,0.0017336368114175896
2507.0,0.0016943303381281461
2506.0,0.0016422306382166633
2505.0,0.001595702044294945
2504.0,0.0015645011142992938
2503.0,0.0015479312589408356
2502.0,0.001542296614334057
2501.0,0.0015440930781165652
2500.0,0.001551350897470577
2499.0,0.0015675300093093729
2498.0,0.0015939024277400581
2497.0,0.0016109381233706003
2496.0,0.0015859410922388008
2495.0,0.0015177435763227996
2494.0,0.0014576713424184298
2493.0,0.001459385176184583
2492.0,0.0015146294639370962
2491.0,0.0015637774276359697
2490.0,0.0015640448380458121
2489.0,0.0015219712177992613
2488.0,0.001465578526252336
2487.0,0.001415624901054934
2486.0,0.0013851801296376797
2485.0,0.0013769671252475955
2484.0,0.0013740627760290875
2483.0,0.0013577048785877628
2482.0,0.0013395384258820856
2481.0,0.0013517360087675454
2480.0,0.0013981181421643418
2479.0,0.00143820753689971
2478.0,0.0014304446859500848
2477.0,0.0013749426913736455
2476.0,0.0013079485573158239
2475.0,0.0012698149974289083
2474.0,0.0012804964247330286
2473.0,0.0013264235500079938
2472.0,0.0013657349145851727
2471.0,0.0013653375997997167
2470.0,0.001340357175937887
2469.0,0.0013422505980970377
2468.0,0.0014019681998821308
2467.0,0.0014959674093479387
2466.0,0.0015695964868603566
2465.0,0.0015815118645649074
2464.0,0.0015287253128272583
2463.0,0.0014469455879931982
2462.0,0.001388681464247823
2461.0,0.001384994497978753
2460.0,0.0014229463164713162
2459.0,0.0014666908438542773
2458.0,0.001493097132066103
2457.0,0.0014964688992224456
2456.0,0.0014757165500465983
2455.0,0.0014417733166680186
2454.0,0.0014258406816091882
2453.0,0.0014486271717545174
2452.0,0.0014856629090099238
2451.0,0.0014944825928123835
2450.0,0.00147421273816547
2449.0,0.001464838358848817
2448.0,0.0014847327851217058
2447.0,0.0015038410705662045
2446.0,0.0014890441118627622
2445.0,0.001446662193477688
2444.0,0.0014078152867683883
2443.0,0.0013958985216098005
2442.0,0.0014186822880311875
2441.0,0.001467624051028433
2440.0,0.0015120758119280767
2439.0,0.001516285396317106
2438.0,0.001477801408446281
2437.0,0.0014361619492247583
2436.0,0.0014337543190057972
2435.0,0.0014790165698707323
2434.0,0.0015501198346214908
2433.0,0.0016179420485444556
2432.0,0.0016607668501053526
2431.0,0.0016724826964820568
2430.0,0.0016628691650437113
2429.0,0.0016422331342742002
2428.0,0.0016105665315787588
2427.0,0.0015748350988887367
2426.0,0.001564853566638675
2425.0,0.0016048350630683442
2424.0,0.001672041197393523
2423.0,0.0017114310318744335
2422.0,0.001695028020742681
2421.0,0.0016445443063608685
2420.0,0.0015951658939830507
2419.0,0.001562205862279889
2418.0,0.0015471157057464035
2417.0,0.0015498533669108978
2416.0,0.0015647679373054263
2415.0,0.0015818460719134865
2414.0,0.0015994633518828377
2413.0,0.001623675673319175
2412.0,0.0016554714045895844
2411.0,0.0016927556737000543
2410.0,0.0017388173039212377
2409.0,0.0017891320109795572
2408.0,0.001817119893823529
2407.0,0.0017990454961443435
2406.0,0.0017495965197543407
2405.0,0.001706012991743755
2404.0,0.0016793355023024515
2403.0,0.0016505576438479207
2402.0,0.0016146229384842725
2401.0,0.0015954382019557028
2400.0,0.0016092889176177183
2399.0,0.0016401773315546779
2398.0,0.0016615020015786006
2397.0,0.0016612183315337305
2396.0,0.0016391314378812407
2395.0,0.0016004698827878365
2394.0,0.0015596865060154255
2393.0,0.0015324482593190164
2392.0,0.0015180924407004791
2391.0,0.0015059062592598436
2390.0,0.0014984681690412404
2389.0,0.001508770263033222
2388.0,0.0015339783977128046
2387.0,0.0015542122652882286
2386.0,0.0015590184831018013
2385.0,0.0015526850879941981
2384.0,0.001530663482236249
2383.0,0.0014773498653752439
2382.0,0.0013988298356765344
2381.0,0.001334978664542043
2380.0,0.0013218812569431614
2379.0,0.0013566465861963744
2378.0,0.001413089619382646
2377.0,0.0014748175919900995
2376.0,0.0015325825797470253
2375.0,0.0015725292363522533
2374.0,0.0015894786346090806
2373.0,0.0015892276884454846
2372.0,0.0015585669229758346
2371.0,0.0014656476852307524
2370.0,0.0013224025384132505
2369.0,0.001216439813696551
2368.0,0.0012450085119411402
2367.0,0.0014332638762026464
2366.0,0.001715369736762473
2365.0,0.001959279988505479
2364.0,0.0020275892542790394
2363.0,0.0019014321410625004
2362.0,0.001774808184459378
2361.0,0.0018576583688536819
2360.0,0.0020807541300572174
2359.0,0.0022006332259738876
2358.0,0.0021284421058000032
2357.0,0.0020023785799946296
2356.0,0.0019358926270868063
2355.0,0.0019079530546555726
2354.0,0.001899633342345209
2353.0,0.0019111089531962154
2352.0,0.0019311774932170133
2351.0,0.0019494097991236553
2350.0,0.0019969586138618295
2349.0,0.0020989763730737084
2348.0,0.0021744353823478025
2347.0,0.002133051684725592
2346.0,0.0019887759100127252
2345.0,0.0018881893913984078
2344.0,0.001930196371558484
2343.0,0.0020376401181193458
2342.0,0.002129042731511421
2341.0,0.0021793412791856854
2340.0,0.0021932630501383557
2339.0,0.0021711098988365365
2338.0,0.0021523634740102378
2337.0,0.0021840209529777896
2336.0,0.0022565713529720767
2335.0,0.0023130909097587573
2334.0,0.002339133723734484
2333.0,0.0023515707536692796
2332.0,0.002363086268682285
2331.0,0.002374393843203251
2330.0,0.0024097660301547904
2329.0,0.0025239084583489235
2328.0,0.002677124271557442
2327.0,0.00279968825087173
2326.0,0.002842613801411225
2325.0,0.0028343485846232756
2324.0,0.0028060890554566227
2323.0,0.0027431485292492407
2322.0,0.0026407880827346046
2321.0,0.002513519523052399
2320.0,0.0023895222589398377
2319.0,0.0022722377287554252
2318.0,0.002173507882171465
2317.0,0.0020997618070820816
2316.0,0.0020382948089896005
2315.0,0.001984974957014748
2314.0,0.0019685074226092002
2313.0,0.0020160734227312126
2312.0,0.002076516909222392
2311.0,0.0020741174853060353
2310.0,0.001998170045805969
2309.0,0.0019206555670333411
2308.0,0.001880754212902428
2307.0,0.0018528794836945583
2306.0,0.0018022733322644977
2305.0,0.0017423055421508875
2304.0,0.0016959291639546802
2303.0,0.001664374216984545
2302.0,0.0016430285819444058
2301.0,0.001645102218640961
2300.0,0.0016742461808895992
2299.0,0.0017165682454784088
2298.0,0.001757599695816717
2297.0,0.0018021275606829364
2296.0,0.0018463105539328916
2295.0,0.0018805168597149451
2294.0,0.0019028381207991754
2293.0,0.0019235603878183251
2292.0,0.0019348449895618524
2291.0,0.0019228358347585573
2290.0,0.001898348693418911
2289.0,0.0018871200336832883
2288.0,0.0018829527339051296
2287.0,0.0018563174870431256
2286.0,0.0018111815835592298
2285.0,0.0017823895019307926
2284.0,0.0017702015505607913
2283.0,0.0017339823020387367
2282.0,0.0016745835288118245
2281.0,0.0016585194760172488
2280.0,0.0017235538543620877
2279.0,0.00180496419833261
2278.0,0.0018061440908061872
2277.0,0.001707072706646893
2276.0,0.0015668107333579484
2275.0,0.001449166053627239
2274.0,0.0013812403718376702
2273.0,0.0013567568674305367
2272.0,0.0013429314890737835
2271.0,0.0013074294581202764
2270.0,0.0012592771805983662
2269.0,0.0012409238874291945
2268.0,0.0012693611990428986
2267.0,0.0013192218336918423
2266.0,0.0013720656612023314
2265.0,0.0014375608649183512
2264.0,0.0015103461437990184
2263.0,0.001556774839347527
2262.0,0.0015631369389559023
2261.0,0.0015556165002584147
2260.0,0.0015522504538286132
2259.0,0.0015320598560727627
2258.0,0.001471298312073246
2257.0,0.0013733144887057005
2256.0,0.0012575232759116462
2255.0,0.001153214176812702
2254.0,0.001102263896213192
2253.0,0.0011160877064944536
2252.0,0.0011360572837244697
2251.0,0.0011009508464028405
2250.0,0.001049501068305092
2249.0,0.0010837325181715341
2248.0,0.001221906753644745
2247.0,0.00136454529573824
2246.0,0.0014209895344216071
2245.0,0.00139478096135913
2244.0,0.001327186592885903
2243.0,0.0012386709914838493
2242.0,0.001158697048695198
2241.0,0.0011371552925885334
2240.0,0.0011829235582610541
2239.0,0.00125020101779005
2238.0,0.0013133354103311192
2237.0,0.0013917207513809563
2236.0,0.0014762653033527431
2235.0,0.0015028907885695094
2234.0,0.0014360117394292458
2233.0,0.001317664679042046
2232.0,0.0012014652509333386
2231.0,0.0010979221872023314
2230.0,0.001017365197834891
2229.0,0.0010007472764331062
2228.0,0.0010653005340998086
2227.0,0.0011672838218379777
2226.0,0.0012472742956974733
2225.0,0.0012748389938844666
2224.0,0.0012470658629823489
2223.0,0.0011968786092045013
2222.0,0.001198977840590743
2221.0,0.0012960484201927237
2220.0,0.001415912716215827
2219.0,0.0014376213215296417
2218.0,0.0013412675761210412
2217.0,0.0012188051318356213
2216.0,0.0011423849709792158
2215.0,0.0011074806858707158
2214.0,0.0010978023598772878
2213.0,0.0011006607377461596
2212.0,0.0010557472246591
2211.0,0.0009031398133611582
2210.0,0.0007028303977248762
2209.0,0.0006015865005525706
2208.0,0.00064853355477769
2207.0,0.0007267986149412534
2206.0,0.0006816943729964106
2205.0,0.0004471209553885444
2204.0,7.917426417287986e-05
2203.0,-0.0002313507953606252
2202.0,-0.00022047796411090912
2201.0,0.0002133879350730737
2200.0,0.0008245232900348231
2199.0,0.0012170902393131215
2198.0,0.0012419859948882175
2197.0,0.0010825602134268211
2196.0,0.0009600399693392382
2195.0,0.0009215930099710017
2194.0,0.0009402929371152189
2193.0,0.0010131884688443363
2192.0,0.0010865073305438456
2191.0,0.0010629619011234591
2190.0,0.0009704508590898636
2189.0,0.0009745896524002181
2188.0,0.0011407962074689378
2187.0,0.001328035701491867
2186.0,0.001392222910475128
2185.0,0.0013467453926782
2184.0,0.001248749411496366
2183.0,0.0010845635448752979
2182.0,0.0008704001256631254
2181.0,0.0007187553374725144
2180.0,0.0006927943344864828
2179.0,0.0007192474630657049
2178.0,0.0007222457223892253
2177.0,0.0007206339311899388
2176.0,0.0007356277534243515
2175.0,0.0007277150109968434
2174.0,0.0006846696416685137
2173.0,0.0006544269714197188
2172.0,0.0006543025858697746
2171.0,0.0006737817217256342
2170.0,0.0007793679392202269
2169.0,0.0010509389733127186
2168.0,0.0013787399216915388
2167.0,0.0015113078811926305
2166.0,0.0013705697451258357
2165.0,0.001147522087527809
2164.0,0.0010131051572698825
2163.0,0.0009259690203801913
2162.0,0.0008112791333078959
2161.0,0.0007024688070289099
2160.0,0.0005871078975875776
2159.0,0.00035742644387614574
2158.0,5.484149467191268e-05
2157.0,-0.00012292312179997954
2156.0,-0.0001478624691902819
2155.0,-0.00020275285943962607
2154.0,-0.000356903662277372
2153.0,-0.0004407552606138264
2152.0,-0.0003105670769997302
2151.0,-4.5940041757020934e-05
2150.0,0.00019499402685634325
2149.0,0.0003453284778737133
2148.0,0.000388282021853876
2147.0,0.00030986585119077877
2146.0,0.0001794381928959642
2145.0,0.00013772408626687964
2144.0,0.0002162777752538425
2143.0,0.00028650159528517417
2142.0,0.0002510774998931587
2141.0,0.00017312042782291378
2140.0,0.0001599714703082522
2139.0,0.00022529153852503725
2138.0,0.00032302739885097843
2137.0,0.0004195805742473622
2136.0,0.000484974620068326
2135.0,0.0004997926637176789
2134.0,0.0005054615176457693
2133.0,0.0005655287154318595
2132.0,0.0006597425928828504
2131.0,0.0007015796413503992
2130.0,0.0006688605306954853
2129.0,0.0006324508058404036
2128.0,0.0006450560690897291
2127.0,0.0006870764955615083
2126.0,0.0007361577884586441
2125.0,0.0008011622905148078
2124.0,0.0008688654188573938
2123.0,0.0009051514436354849
2122.0,0.0009315856683045922
2121.0,0.0010151523010109456
2120.0,0.0011567170112857517
2119.0,0.0012752119238960454
2118.0,0.0013292980163233635
2117.0,0.0013682868864547098
2116.0,0.0014303179942069773
2115.0,0.0014766226546817903
2114.0,0.0014709493437788934
2113.0,0.0014434756482372833
2112.0,0.0014244079501766003
2111.0,0.0013888199463981251
2110.0,0.0013214273792908832
2109.0,0.001267766125930992
2108.0,0.0012671149595199918
2107.0,0.0012949161647167586
2106.0,0.0013208106473852031
2105.0,0.0013658049504713078
2104.0,0.0014538053204074758
2103.0,0.0015555475331288453
2102.0,0.0016205047786791227
2101.0,0.0016249541632293388
2100.0,0.0015670840920706142
2099.0,0.0014586186945720829
2098.0,0.0013367668096586872
2097.0,0.001235981727180048
2096.0,0.0011462234417518944
2095.0,0.00105517880001603
2094.0,0.001010367647445628
2093.0,0.001057537204343354
2092.0,0.0011411794397895164
2091.0,0.001166323092199242
2090.0,0.0011481582185197798
2089.0,0.0011910777696419223
2088.0,0.0013137936791422764
2087.0,0.0014149516372443758
2086.0,0.0014254164978137298
2085.0,0.0013755040752320747
2084.0,0.0012935434001545324
2083.0,0.0011637863899256955
2082.0,0.0010217417028720024
2081.0,0.0009621171607344186
2080.0,0.0009953786220038674
2079.0,0.0010167865884298066
2078.0,0.0009752532294006906
2077.0,0.0009497114093248212
2076.0,0.000993392774808828
2075.0,0.0010309377472240379
2074.0,0.000993417819203784
2073.0,0.0009429234418669784
2072.0,0.00096655133054977
2071.0,0.0010407751392244914
2070.0,0.001089255918362212
2069.0,0.0010919203257069218
2068.0,0.0010646862240922665
2067.0,0.001010288289478587
2066.0,0.0009531580248593574
2065.0,0.0009395817958656196
2064.0,0.0009451416971215031
2063.0,0.0008808220591418892
2062.0,0.0007408246199545054
2061.0,0.0006396650032807417
2060.0,0.0006587525716958176
2059.0,0.0007523470412761631
2058.0,0.0008449206905272247
2057.0,0.0009122357915927865
2056.0,0.0009321624221807249
2055.0,0.0008828060151837116
2054.0,0.0008352963751182261
2053.0,0.0009141899760786163
2052.0,0.0011022538652961148
2051.0,0.0012069398304089855
2050.0,0.0010883288883297398
2049.0,0.0008208662180229928
2048.0,0.0005528232853672061
2047.0,0.0003387091222606224
2046.0,0.00020988478728549398
2045.0,0.00022398943423607148
2044.0,0.0003306526158638381
2043.0,0.00036635754783148036
2042.0,0.0002860719911552107
2041.0,0.0002406085802535322
2040.0,0.000332017531997284
2039.0,0.0004763723009155752
2038.0,0.0005914115544687123
2037.0,0.0006986870962783973
2036.0,0.0007589864562783561
2035.0,0.0006401123809678269
2034.0,0.00036668281526132374
2033.0,0.00016835615768436013
2032.0,0.00014187819956701397
2031.0,0.00010897684478705123
2030.0,-6.276098900858618e-05
2029.0,-0.0002500996323585573
2028.0,-0.00031223033689863056
2027.0,-0.00029698477194300065
2026.0,-0.00027422373364312393
2025.0,-0.00018940817725872914
2024.0,-1.7976228355028848e-05
2023.0,0.0001372030610643757
2022.0,0.00021510780434056613
2021.0,0.0002746350031451527
2020.0,0.0003284383223531961
2019.0,0.00029594456341086877
2018.0,0.0001908228103730215
2017.0,0.0001439636702908538
2016.0,0.00015771850351156534
2015.0,9.170128639651666e-05
2014.0,-4.591035126752806e-05
2013.0,-6.505628206626067e-05
2012.0,9.786752322604644e-05
2011.0,0.00027705941309768883
2010.0,0.0003468384884724796
2009.0,0.00035865192164703894
2008.0,0.00033931892744609087
2007.0,0.00021147406954632108
2006.0,7.039591089244308e-06
2005.0,-9.665139010226365e-05
2004.0,-3.798822325649676e-05
2003.0,7.105455879978311e-05
2002.0,0.00018712412980873754
2001.0,0.00038646574103693863
2000.0,0.0006374746561491895
1999.0,0.0007615112694031683
1998.0,0.0006999301413976298
1997.0,0.0006078502134715402
1996.0,0.0006000793219410891
1995.0,0.0006092475670584358
1994.0,0.0005725499807111164
1993.0,0.0005498528576483021
1992.0,0.0005538583959895823
1991.0,0.0004781747280080352
1990.0,0.00033431303405826113
1989.0,0.000304280723999664
1988.0,0.00045140231416692354
1987.0,0.0006100253278153202
1986.0,0.0006555320250943048
1985.0,0.0006761139546731525
1984.0,0.0007820009138657835
1983.0,0.0009497468816562135
1982.0,0.0011456299920952098
1981.0,0.001381825623151069
1980.0,0.0015467801400766736
1979.0,0.0014092629136870127
1978.0,0.0009559131587904993
1977.0,0.0004889749290937293
1976.0,0.0002226704954749392
1975.0,8.218313944852867e-05
1974.0,9.713258271755389e-06
1973.0,0.00010044679967301522
1972.0,0.00032713360529201146
1971.0,0.00047527987753444854
1970.0,0.0004764945211504501
1969.0,0.0005189589401165418
1968.0,0.0007034974272589903
1967.0,0.0008466973596780167
1966.0,0.0008028626384993522
1965.0,0.000695144857844159
1964.0,0.0006427629888945852
1963.0,0.0005742867776883278
1962.0,0.00043020143008172594
1961.0,0.00029981062159534135
1960.0,0.00024745847153741175
1959.0,0.00021820896659377486
1958.0,0.00020839268953857907
1957.0,0.00030370225548556964
1956.0,0.0004782120192610628
1955.0,0.0005738363049572323
1954.0,0.0005447301158732517
1953.0,0.0005136043812502943
1952.0,0.0005209397457949139
1951.0,0.00045560628342795765
1950.0,0.0002936962434677003
1949.0,0.00017421621278518686
1948.0,0.00016615462896946327
1947.0,0.0001774974802502327
1946.0,0.00017310934206045154
1945.0,0.00026190716598733284
1944.0,0.0004661055739583939
1943.0,0.0006122488583234973
1942.0,0.0005995673588581746
1941.0,0.0005657782337742253
1940.0,0.0006091183554451829
1939.0,0.0006257809432585685
1938.0,0.0005315260240703198
1937.0,0.0004245618584236134
1936.0,0.00042217553462122067
1935.0,0.0004815762749670455
1934.0,0.0005052581381340055
1933.0,0.0004915725162350074
1932.0,0.00046732207219285873
1931.0,0.0004129273357607892
1930.0,0.0003471576977749436
1929.0,0.0003517286965888733
1928.0,0.0004404505127028283
1927.0,0.0005120208000396666
1926.0,0.0005130500637691
1925.0,0.0005089300586868406
1924.0,0.0005471341524475207
1923.0,0.0005740358605643076
1922.0,0.0005599732324165334
1921.0,0.0005726366134874974
1920.0,0.0006296542124843674
1919.0,0.000634182937303716
1918.0,0.0005472163994761016
1917.0,0.0004815619594934232
1916.0,0.0005129831691205993
1915.0,0.0005705123026991778
1914.0,0.0005807155869196462
1913.0,0.0005632996179825295
1912.0,0.0005451368105521583
1911.0,0.0005028293891524789
1910.0,0.00045590476811890835
1909.0,0.0004921648450294041
1908.0,0.0006155974394866498
1907.0,0.0007014428144884184
1906.0,0.000688246011445823
1905.0,0.0006535073974803856
1904.0,0.0006625013424875104
1903.0,0.0006721316688275342
1902.0,0.0006346199036714238
1901.0,0.0005865813050553502
1900.0,0.0005721599682456779
1899.0,0.0005688305058053468
1898.0,0.0005620082319388541
1897.0,0.0005862550413233269
1896.0,0.0006372827501809042
1895.0,0.0006473713682047502
1894.0,0.0006058168531669393
1893.0,0.00058805876169674
1892.0,0.0006179721985378921
1891.0,0.0006297018724660116
1890.0,0.0006063676283213592
1889.0,0.0006290140252441358
1888.0,0.000713664295953637
1887.0,0.0007703298842903334
1886.0,0.0007595045414592358
1885.0,0.0007417047231197008
1884.0,0.0007541759490704355
1883.0,0.000750389584280188
1882.0,0.0007092448864672205
1881.0,0.0006871298347563065
1880.0,0.0007077667486868379
1879.0,0.0007053263807439039
1878.0,0.0006440087772473359
1877.0,0.0005876278820621851
1876.0,0.0005812130285657502
1875.0,0.0005820375595943228
1874.0,0.0005655186978899115
1873.0,0.0005778289497556889
1872.0,0.0006345743675382825
1871.0,0.0006750837083779218
1870.0,0.000682387420093764
1869.0,0.000747872473927495
1868.0,0.0008765422571810342
1867.0,0.0009366737757546329
1866.0,0.0009118876287493468
1865.0,0.00090257873622731
1864.0,0.0009343509509294665
1863.0,0.0009362435161020958
1862.0,0.0008847178383446705
1861.0,0.0008518575800064777
1860.0,0.0008708889871576286
1859.0,0.0008780406339326593
1858.0,0.0008487519884433463
1857.0,0.0008537268416643361
1856.0,0.0009210105721820276
1855.0,0.0009794048804720916
1854.0,0.0009991005981907282
1853.0,0.001044010050220064
1852.0,0.001146790458855553
1851.0,0.0012322658295508323
1850.0,0.001246266272696109
1849.0,0.0012509608035977714
1848.0,0.001307039364966745
1847.0,0.00136594129019684
1846.0,0.0013693738733106336
1845.0,0.0013700158305934807
1844.0,0.0014213838657480761
1843.0,0.0014446714570811878
1842.0,0.001415576703220988
1841.0,0.001425433677033819
1840.0,0.0015063552829221536
1839.0,0.001594952380807447
1838.0,0.0016639771170605861
1837.0,0.001765331016257277
1836.0,0.0019041646252581077
1835.0,0.002000178445036723
1834.0,0.002030350397658629
1833.0,0.0020729572792865616
1832.0,0.0021731325282653125
1831.0,0.002265062755440573
1830.0,0.002313730969095183
1829.0,0.0023986643830548383
1828.0,0.0025380157962667555
1827.0,0.002636187039933568
1826.0,0.0026586466030430918
1825.0,0.0027187049244473144
1824.0,0.0028785187645749997
1823.0,0.00302848909615416
1822.0,0.0030992649235301673
1821.0,0.0031527768529818357
1820.0,0.003233974964483983
1819.0,0.0032869908487922683
1818.0,0.003287145353336602
1817.0,0.003312153568906741
1816.0,0.0033991357737180724
1815.0,0.003486245611855175
1814.0,0.003550854463110425
1813.0,0.003672474893585358
1812.0,0.0038800490195196238
1811.0,0.004066459788322651
1810.0,0.004174395323965553
1809.0,0.004290381979351217
1808.0,0.004453209940558125
1807.0,0.004589082955385968
1806.0,0.004688532768355282
1805.0,0.004853781152746683
1804.0,0.005110650454480835
1803.0,0.00533895983132083
1802.0,0.005463207134670447
1801.0,0.005605429874094821
1800.0,0.005865935608617173
1799.0,0.006157416859346137
1798.0,0.006430131836840338
1797.0,0.006770558203243531
1796.0,0.0072028476465260585
1795.0,0.007629139262090731
1794.0,0.008047781196171002
1793.0,0.008705215435757481
1792.0,0.009737636218536308
1791.0,0.010842158026383391
1790.0,0.011825996489210193
1789.0,0.012868513068309904
1788.0,0.014124872762239588
1787.0,0.015611774765192467
1786.0,0.017375816485574187
1785.0,0.019468884927432352
1784.0,0.021732895799453186
1783.0,0.023974022570049696
1782.0,0.026314843690137906
1781.0,0.02904690381370169
1780.0,0.03204674129654219
1779.0,0.034819985800656775
1778.0,0.03723990836049649
1777.0,0.03958269629087945
1776.0,0.041982032561348546
1775.0,0.0443450698107636
1774.0,0.04684273223596651
1773.0,0.05011772919006383
1772.0,0.054198781761006905
1771.0,0.05796608176984762
1770.0,0.06113552821620926
1769.0,0.06459860685725971
1768.0,0.06887564859082167
1767.0,0.07351754165073085
1766.0,0.07793209098858014
1765.0,0.08227286357347062
1764.0,0.08722012723648215
1763.0,0.09348832825584827
1762.0,0.10114160840291606
1761.0,0.1089650949032221
1760.0,0.11562010940460599
1759.0,0.12120536182389387
1758.0,0.12685605784327722
1757.0,0.1331895452443625
1756.0,0.13913555814994918
1755.0,0.1433367728264269
1754.0,0.14608579831294702
1753.0,0.14852324025145017
1752.0,0.1511936815832428
1751.0,0.15363351283157992
1750.0,0.15526999675114764
1749.0,0.15611979996898664
1748.0,0.15600799403983845
1747.0,0.15458687000670296
1746.0,0.15198091943954514
1745.0,0.1483267346325277
1744.0,0.1433986428656024
1743.0,0.13721519565106097
1742.0,0.13005499967711265
1741.0,0.12144861944092947
1740.0,0.11078018588770004
1739.0,0.09960309943845926
1738.0,0.09047654474154652
1737.0,0.08353444278995513
1736.0,0.0766742426911704
1735.0,0.0672140119580842
1734.0,0.05569353256631275
1733.0,0.046753748520836455
1732.0,0.04143770545735025
1731.0,0.03762556024369978
1730.0,0.034197309395227644
1729.0,0.03106368161024866
1728.0,0.028416716836966182
1727.0,0.026331794483074808
1726.0,0.024685060176338165
1725.0,0.023237346505360572
1724.0,0.021837685648543326
1723.0,0.020600471920499755
1722.0,0.019683450415560633
1721.0,0.01898534570642035
1720.0,0.018235610945446627
1719.0,0.01725353542678268
1718.0,0.016153574049613234
1717.0,0.015160275600554229
1716.0,0.014281718010559597
1715.0,0.013524065532559821
1714.0,0.012913591129445495
1713.0,0.01235114671582761
1712.0,0.011744451908155916
1711.0,0.011126120840185754
1710.0,0.01056911705724143
1709.0,0.010064421697620224
1708.0,0.009548709800264971
1707.0,0.009008884730967238
1706.0,0.00852718549716991
1705.0,0.008167069453870567
1704.0,0.007902017182710618
1703.0,0.007721045213076136
1702.0,0.0075721901354223724
1701.0,0.007297253897055727
1700.0,0.006874215924616633
1699.0,0.0065244485290465
1698.0,0.006398083544916085
1697.0,0.00635865339543166
1696.0,0.006213258364788254
1695.0,0.006013966967939403
1694.0,0.005912322848911973
1693.0,0.005897782698823468
1692.0,0.005872125243020839
1691.0,0.005809424930793653
1690.0,0.0057636425390529145
1689.0,0.005750256110798167
1688.0,0.005734649946463988
1687.0,0.0057158334067904815
1686.0,0.0057130205763400235
1685.0,0.005744440666147582
1684.0,0.005812651926423319
1683.0,0.005833745775530349
1682.0,0.0058354059478693526
1681.0,0.0058327176175490825
1680.0,0.005784267970575035
1679.0,0.005721358667359611
1678.0,0.0056955800342516905
1677.0,0.005691770187084659
1676.0,0.005667926060893663
1675.0,0.005665308727497497
1674.0,0.005718517886391348
1673.0,0.005793864782513993
1672.0,0.005840801250098286
1671.0,0.005854339697657526
1670.0,0.005889899262772474
1669.0,0.005938128378432445
1668.0,0.005938969406765177
1667.0,0.005920515306087072
1666.0,0.005923827524990339
1665.0,0.005937140549561366
1664.0,0.005934731294001553
1663.0,0.0059560880707229735
1662.0,0.006029248831253645
1661.0,0.006091473972982456
1660.0,0.006105516648527629
1659.0,0.006089565869230666
1658.0,0.006078295215395793
1657.0,0.006080117862448564
1656.0,0.006086229059556119
1655.0,0.006021782986353551
1654.0,0.005929074998803741
1653.0,0.005995787319485263
1652.0,0.006021842637121231
1651.0,0.006004261785442303
1650.0,0.006047769976525205
1649.0,0.006086219128088486
1648.0,0.0060777788845823265
1647.0,0.006075737950234838
1646.0,0.006077532290282694
1645.0,0.006020755421670177
1644.0,0.0059404105173911925
1643.0,0.005885842693979997
1642.0,0.005859724691822913
1641.0,0.005838430023535115
1640.0,0.005812099244885373
1639.0,0.005789317266710885
1638.0,0.005768862443328514
1637.0,0.005711086788008006
1636.0,0.005618786732147158
1635.0,0.005536242398251515
1634.0,0.00548889951134562
1633.0,0.005473639467314029
1632.0,0.005457918884429953
1631.0,0.005429783300901909
1630.0,0.0054019244915555105
1629.0,0.005374225045968359
1628.0,0.005328019912729074
1627.0,0.005264388240061223
1626.0,0.005198892468998891
1625.0,0.005125656864000759
1624.0,0.005028782387843462
1623.0,0.004930856411353161
1622.0,0.004856074790756265
1621.0,0.004799004877023113
1620.0,0.004752427129066466
1619.0,0.0046990812465269515
1618.0,0.004615930120539292
1617.0,0.004501606311975054
1616.0,0.0043846556703382175
1615.0,0.00430301272693556
1614.0,0.004265161323049157
1613.0,0.004229783539970497
1612.0,0.004159520140621631
1611.0,0.004070037209388463
1610.0,0.00399123857953271
1609.0,0.003921494839363679
1608.0,0.0038481882006885125
1607.0,0.00378267432044319
1606.0,0.003725892668943331
1605.0,0.0036583884449003148
1604.0,0.0035817444410610752
1603.0,0.0035244636285154812
1602.0,0.003501073130295444
1601.0,0.0034861492154079085
1600.0,0.003454113994650998
1599.0,0.003412641863525542
1598.0,0.0033770472349669567
1597.0,0.0033426833566247063
1596.0,0.003296583012363876
1595.0,0.0032438038645244424
1594.0,0.0031959452775709675
1593.0,0.003147929836961937
1592.0,0.003092463762189854
1591.0,0.003042336793820672
1590.0,0.003013865131066408
1589.0,0.003000728430186582
1588.0,0.0029865819784307924
1587.0,0.0029688834018591903
1586.0,0.002953557374025937
1585.0,0.0029307027538708194
1584.0,0.0028989726501380013
1583.0,0.002871030703602449
1582.0,0.0028499643095641503
1581.0,0.0028287392803781003
1580.0,0.002816537672727165
1579.0,0.0028304607145077376
1578.0,0.00286287458016305
1577.0,0.002886232567411771
1576.0,0.0028713799275353405
1575.0,0.002824622706740796
1574.0,0.0027971744461810543
1573.0,0.0028077787116133086
1572.0,0.0028256252435337323
1571.0,0.00282904389571321
1570.0,0.0028422450515923877
1569.0,0.0028588096632597435
1568.0,0.0028522270013617576
1567.0,0.002838992451585729
1566.0,0.002833292626502999
1565.0,0.0028201691186436027
1564.0,0.002816828777772144
1563.0,0.002849027770853923
1562.0,0.002929367555202427
1561.0,0.0029764073279193223
1560.0,0.002913797341246422
1559.0,0.002945363165949365
1558.0,0.0030406761845967927
1557.0,0.0030532170771950962
1556.0,0.0030889514483736424
1555.0,0.003153252944297133
1554.0,0.0032122985344790597
1553.0,0.0032742669431959828
1552.0,0.003355672604817203
1551.0,0.003450582925288946
1550.0,0.0035342968802017294
1549.0,0.0035770498583488353
1548.0,0.0035743522048928686
1547.0,0.003553465663184774
1546.0,0.0035301713260042084
1545.0,0.003524189399568097
1544.0,0.0035520738447020438
1543.0,0.003584630526701082
1542.0,0.00359861779829911
1541.0,0.003627200907693984
1540.0,0.003648815448541849
1539.0,0.00357647408760952
1538.0,0.003493679146472293
1537.0,0.003492507585460689
1536.0,0.0035370086320862066
1535.0,0.003564916668281959
1534.0,0.0035566557361002967
1533.0,0.0035442629046604267
1532.0,0.0035265709058161544
1531.0,0.003505258985293922
1530.0,0.003502729616082048
1529.0,0.0035240074486029196
1528.0,0.0035553283916333923
1527.0,0.003575095368481068
1526.0,0.003573004576707845
1525.0,0.003563367227030316
1524.0,0.003565378727336006
1523.0,0.0035704927711441656
1522.0,0.003574807578057556
1521.0,0.0035723238301036964
1520.0,0.003540622143418589
1519.0,0.003509860734892633
1518.0,0.003510127553564707
1517.0,0.003540246478228987
1516.0,0.0035652095896020267
1515.0,0.003554784428548184
1514.0,0.003531078993833983
1513.0,0.003510581331077181
1512.0,0.0034847763790076024
1511.0,0.0034501328209249286
1510.0,0.0034244683007166694
1509.0,0.0034067298788229795
1508.0,0.0033960481270951352
1507.0,0.0034082996784066044
1506.0,0.003353863284493921
1505.0,0.0032572663854648467
1504.0,0.0032206608970058474
1503.0,0.003214538976992703
1502.0,0.0031948807430883875
1501.0,0.003158808952081783
1500.0,0.0031237104859448694
1499.0,0.003091439226989334
1498.0,0.0030659109516056405
1497.0,0.0030815562999566273
1496.0,0.003115603284280257
1495.0,0.003114655124775852
1494.0,0.003102706735946506
1493.0,0.003125028062884649
1492.0,0.003168830747425979
1491.0,0.0031969279823536017
1490.0,0.0032293240467952825
1489.0,0.00330566832582721
1488.0,0.0033865989724340684
1487.0,0.003432238936134752
1486.0,0.003470239831318534
1485.0,0.0035247886133795816
1484.0,0.0035939469919776847
1483.0,0.0036631475516527854
1482.0,0.0037418074859676105
1481.0,0.0038552486542353477
1480.0,0.003993143791487911
1479.0,0.004129187881891097
1478.0,0.00427561227460658
1477.0,0.004475560056688765
1476.0,0.0047333917871102285
1475.0,0.005030675060722328
1474.0,0.005455332891997483
1473.0,0.006184424154423388
1472.0,0.007085960085746846
1471.0,0.007852072513974935
1470.0,0.008538423897762392
1469.0,0.009332635715641118
1468.0,0.010306532122355553
1467.0,0.011539362411666748
1466.0,0.013246755247152589
1465.0,0.015549038575262252
1464.0,0.01800145986521351
1463.0,0.020051927995397126
1462.0,0.02174219968708912
1461.0,0.023329693692270545
1460.0,0.024970494546357528
1459.0,0.026782597588633317
1458.0,0.029142188412420868
1457.0,0.03183083733696681
1456.0,0.033533281335886206
1455.0,0.03411323474160362
1454.0,0.034349628184779754
1453.0,0.03447480571093328
1452.0,0.03441579516834818
1451.0,0.03411466598126064
1450.0,0.03358041613548256
1449.0,0.032683193854265366
1448.0,0.03125170653935061
1447.0,0.02942072820486169
1446.0,0.02745510558594674
1445.0,0.025381799737158747
1444.0,0.023113120459046888
1443.0,0.020698059979033394
1442.0,0.018323853407878128
1441.0,0.016180040268019048
1440.0,0.014378834298159057
1439.0,0.012899782655419492
1438.0,0.011549620512421636
1437.0,0.010129581283765014
1436.0,0.008826937865850447
1435.0,0.007965469813491607
1434.0,0.007474416350891395
1433.0,0.007107383930014203
1432.0,0.006752547158990277
1431.0,0.006430501549336592
1430.0,0.00616487547550415
1429.0,0.005922681358463319
1428.0,0.005704816555515099
1427.0,0.005558108866895957
1426.0,0.005469560724745007
1425.0,0.00537184429524489
1424.0,0.005255813603805681
1423.0,0.005169943837971463
1422.0,0.005124263467660495
1421.0,0.005070809897754624
1420.0,0.0049900077770093825
1419.0,0.004931994505267274
1418.0,0.004896689759582328
1417.0,0.004831396395577331
1416.0,0.004759594376632021
1415.0,0.00472435175099106
1414.0,0.004716205743726521
1413.0,0.004709749100054144
1412.0,0.0047105270168703774
1411.0,0.004733230058594308
1410.0,0.004755059425637863
1409.0,0.004755953484567242
1408.0,0.0047640437813742526
1407.0,0.004824728187537051
1406.0,0.004933550830632014
1405.0,0.005055185097746464
1404.0,0.005194001242928507
1403.0,0.005367356873646655
1402.0,0.0055682201756542815
1401.0,0.005806592804413133
1400.0,0.006160310656827378
1399.0,0.006685933184142597
1398.0,0.007314414021758699
1397.0,0.00802064446170965
1396.0,0.008976443515461731
1395.0,0.010319796804956224
1394.0,0.011868287389915992
1393.0,0.013369145127311747
1392.0,0.014817806717171249
1391.0,0.01629989581284306
1390.0,0.01785901116712901
1389.0,0.01957578766427766
1388.0,0.02155120034508159
1387.0,0.02363142315898987
1386.0,0.025406015073769182
1385.0,0.026689384048422513
1384.0,0.02757649792761083
1383.0,0.028115173166945367
1382.0,0.02825222705067142
1381.0,0.02794512870966726
1380.0,0.02719870279501253
1379.0,0.026077851645281414
1378.0,0.024758308908706263
1377.0,0.023472367817208118
1376.0,0.022393651332025574
1375.0,0.02167278907718829
1374.0,0.021466513271139666
1373.0,0.021766178586969328
1372.0,0.0223742342862981
1371.0,0.023123356526685054
1370.0,0.023930515368943493
1369.0,0.024708622224021013
1368.0,0.02534835310440555
1367.0,0.025793181896120534
1366.0,0.02608625505086021
1365.0,0.02630861423567119
1364.0,0.02651555786484587
1363.0,0.026716058043732366
1362.0,0.0268708078011895
1361.0,0.026935841764825625
1360.0,0.026906844800055923
1359.0,0.026795564351826652
1358.0,0.026595917212227278
1357.0,0.026281883285948587
1356.0,0.02582352022771842
1355.0,0.025215085351394773
1354.0,0.024488913892027547
1353.0,0.023692239570127317
1352.0,0.022850716118430685
1351.0,0.021980371885998717
1350.0,0.021108821688416053
1349.0,0.020266271227712185
1348.0,0.01946729261730975
1347.0,0.018714805831780902
1346.0,0.01801621775699199
1345.0,0.017380307725006764
1344.0,0.01681052488421161
1343.0,0.016307306007376097
1342.0,0.015864009271059517
1341.0,0.015457238733611947
1340.0,0.015061643735292184
1339.0,0.014680486292989743
1338.0,0.014333547084096263
1337.0,0.014018121307842815
1336.0,0.013717063670477172
1335.0,0.013431826941282272
1334.0,0.013178065012180284
1333.0,0.012956770107230085
1332.0,0.012754971342442939
1331.0,0.012576090463143428
1330.0,0.012440205398459022
1329.0,0.012350245017731288
1328.0,0.012284344727850038
1327.0,0.01222874278178302
1326.0,0.012189764248031639
1325.0,0.012170274935744999
1324.0,0.012160783890196548
1323.0,0.012158916267941064
1322.0,0.012176724390506362
1321.0,0.012218526063275595
1320.0,0.012267509157944953
1319.0,0.01230185449919556
1318.0,0.012313197946970337
1317.0,0.012303953769873132
1316.0,0.01228214283274624
1315.0,0.012265499340802092
1314.0,0.012273888083218353
1313.0,0.012307590133823819
1312.0,0.012345913511801341
1311.0,0.012375292481278884
1310.0,0.012400539875713197
1309.0,0.012425539400609016
1308.0,0.012442490447116806
1307.0,0.01244739642249992
1306.0,0.012446951403323818
1305.0,0.012442951126529381
1304.0,0.012425060193444816
1303.0,0.012384957326090377
1302.0,0.012324890994680544
1301.0,0.012245332749241885
1300.0,0.012137052130301274
1299.0,0.011990051750148112
1298.0,0.011799136089974181
1297.0,0.011558482306487641
1296.0,0.011267647304176648
1295.0,0.01094833240131771
1294.0,0.010640890226838035
1293.0,0.010382484605823096
1292.0,0.010201746950635407
1291.0,0.010131129931390708
1290.0,0.010204926126942467
1289.0,0.010441540295872251
1288.0,0.010839409363726927
1287.0,0.011390778980095323
1286.0,0.012089105995482624
1285.0,0.01292231496062175
1284.0,0.013868843491713547
1283.0,0.014906741067316879
1282.0,0.0160231925269964
1281.0,0.017205304937520347
1280.0,0.01842181093873751
1279.0,0.019626783494168305
1278.0,0.020786208271560976
1277.0,0.021887234299704406
1276.0,0.0229187613053685
1275.0,0.02386381838064999
1274.0,0.024715610632968846
1273.0,0.02547789941960449
1272.0,0.026141981226391466
1271.0,0.02668556293555958
1270.0,0.027099766011178313
1269.0,0.027392765789624445
1268.0,0.02756677977764698
1267.0,0.027619810252164416
1266.0,0.02756723214788839
1265.0,0.027431205749923828
1264.0,0.027212090493433462
1263.0,0.026899669726624876
1262.0,0.026507561159189973
1261.0,0.02606837887087527
1260.0,0.025601812521925
1259.0,0.025113925007108167
1258.0,0.024619591228235607
1257.0,0.024138346204431383
1256.0,0.02367544141739938
1255.0,0.02323040073736472
1254.0,0.02281703345475764
1253.0,0.02245529597298934
1252.0,0.022150423292229934
1251.0,0.021897182385144154
1250.0,0.021696897740431306
1249.0,0.021554646239808916
1248.0,0.02146717662643126
1247.0,0.021427908998663998
1246.0,0.021437545412630824
1245.0,0.021496548542096636
1244.0,0.02159304717364776
1243.0,0.021712903244290177
1242.0,0.021858576555090083
1241.0,0.022045108445084904
1240.0,0.022280802965717304
1239.0,0.022563631752196275
1238.0,0.02289248333533997
1237.0,0.02326951409376115
1236.0,0.023694103734581726
1235.0,0.024167008766768586
1234.0,0.024699147240580654
1233.0,0.025304785324933264
1232.0,0.025988244234806605
1231.0,0.026749322446352777
1230.0,0.027598328702308293
1229.0,0.02854952776293823
1228.0,0.029599962842941294
1227.0,0.03073187962054532
1226.0,0.03193711039232615
1225.0,0.03322022631853619
1224.0,0.0345771824506193
1223.0,0.035996539780973086
1222.0,0.037484475997380015
1221.0,0.03905552739097138
1220.0,0.04069011880143328
1219.0,0.04233620971064094
1218.0,0.04396403953973878
1217.0,0.045578432838350835
1216.0,0.04716447635925686
1215.0,0.048672684113450965
1214.0,0.05007470855454159
1213.0,0.0513762468969042
1212.0,0.05255632316495951
1211.0,0.05356171530613811
1210.0,0.05438627707186991
1209.0,0.05508495768212757
1208.0,0.05568923148534893
1207.0,0.05618302062776392
1206.0,0.056577191538088024
1205.0,0.05692927628384188
1204.0,0.057275088159181343
1203.0,0.0576212534570678
1202.0,0.058018759714342345
1201.0,0.058560933407635636
1200.0,0.059290252044463004
1199.0,0.06018253098209743
1198.0,0.06123874118916829
1197.0,0.06251547300909248
1196.0,0.06404671440900535
1195.0,0.06581994040487553
1194.0,0.06785822976670311
1193.0,0.07024140338830169
1192.0,0.07300707029771189
1191.0,0.0761142390170283
1190.0,0.07955106729706785
1189.0,0.08338528361428227
1188.0,0.08763901497614798
1187.0,0.0921974765796921
1186.0,0.09690422162455732
1185.0,0.1016267528713526
1184.0,0.10612390247515954
1183.0,0.10996892440217036
1182.0,0.11270581632311208
1181.0,0.1139344938713711
1180.0,0.11319420426673865
1179.0,0.11007426971169142
1178.0,0.10458848486036483
1177.0,0.09719941573348255
1176.0,0.08849269728377096
1175.0,0.07908660517897165
1174.0,0.06969578768301159
1173.0,0.060943076874943505
1172.0,0.05313363595169338
1171.0,0.04632834418051024
1170.0,0.04052956293712655
1169.0,0.03570904457766917
1168.0,0.031762971865011966
1167.0,0.02854949054805267
1166.0,0.025948858286494316
1165.0,0.02385363315768408
1164.0,0.02214707759440633
1163.0,0.020735462355062195
1162.0,0.019576336867349713
1161.0,0.018646321093937192
1160.0,0.01790517307008026
1159.0,0.01731340112631435
1158.0,0.016858989772099084
1157.0,0.016542644121921204
1156.0,0.01635622013733863
1155.0,0.016294553313336575
1154.0,0.016369023062255118
1153.0,0.016591611564442176
1152.0,0.016963625975749696
1151.0,0.017498456106198435
1150.0,0.01824096633888521
1149.0,0.019246051253902167
1148.0,0.02054753123948428
1147.0,0.02216293900652208
1146.0,0.024118460119164804
1145.0,0.026445557127969633
1144.0,0.02914737696282097
1143.0,0.03218481551771275
1142.0,0.03550229574103204
1141.0,0.039042145535137046
1140.0,0.04271737045078699
1139.0,0.046408544682365285
1138.0,0.050021180783679724
1137.0,0.05350559235907201
1136.0,0.056791077738931266
1135.0,0.059770955071680634
1134.0,0.06239943787430724
1133.0,0.06472236176957952
1132.0,0.06676507904174712
1131.0,0.06847873553727617
1130.0,0.06982413252718751
1129.0,0.07078554866074575
1128.0,0.07126330832140759
1127.0,0.07109392740634002
1126.0,0.07023826590643677
1125.0,0.06883725625302911
1124.0,0.067069237084209
1123.0,0.06508814916939386
1122.0,0.06308884127852166
1121.0,0.06127196991544821
1120.0,0.05972128215252119
1119.0,0.05841616147682237
1118.0,0.057358487986520566
1117.0,0.05659407316023646
1116.0,0.05612773368262412
1115.0,0.055927751767549924
1114.0,0.056022890820048604
1113.0,0.05650335533427982
1112.0,0.05741498115291985
1111.0,0.05873450513449871
1110.0,0.06045468108705289
1109.0,0.06259942439638586
1108.0,0.06512915613819628
1107.0,0.06792537757938129
1106.0,0.07090957647584128
1105.0,0.07408185866802283
1104.0,0.07740343982941618
1103.0,0.0807676930919593
1102.0,0.08414524752231049
1101.0,0.08761224036110118
1100.0,0.0911621730368371
1099.0,0.09465611936348185
1098.0,0.09804908399645762
1097.0,0.10147783990553963
1096.0,0.10501900072076842
1095.0,0.10856837835971372
1094.0,0.11207797801584941
1093.0,0.1156799052641991
1092.0,0.11943105771770907
1091.0,0.12317628829257724
1090.0,0.1268148771499049
1089.0,0.13043456550886204
1088.0,0.1340162583141472
1087.0,0.13730802430933753
1086.0,0.14017394194386115
1085.0,0.14273585005458161
1084.0,0.14498393970538015
1083.0,0.14662232403539
1082.0,0.14748641218589725
1081.0,0.14770997072165748
1080.0,0.14732519464887092
1079.0,0.1461522400257283
1078.0,0.1442065228331833
1077.0,0.14172859228565507
1076.0,0.13871485229918484
1075.0,0.13490144703889914
1074.0,0.13026786127177836
1073.0,0.12509352764019122
1072.0,0.11951866237922022
1071.0,0.11349601354744612
1070.0,0.10714891321725355
1069.0,0.100784122161175
1068.0,0.09457919390404855
1067.0,0.088567808103434
1066.0,0.08288898939052544
1065.0,0.07780057693246156
1064.0,0.07348028742764912
1063.0,0.06998969725290188
1062.0,0.06738271738904857
1061.0,0.0656910404997038
1060.0,0.06481818614587148
1059.0,0.06456818527771603
1058.0,0.06478674946830008
1057.0,0.06538633567510843
1056.0,0.06624106043410692
1055.0,0.06718209665505963
1054.0,0.0681359401434045
1053.0,0.0691603304240647
1052.0,0.07029703845541076
1051.0,0.07149984879639
1050.0,0.0727480114448723
1049.0,0.0740739655947882
1048.0,0.07541757478494225
1047.0,0.07662138908053481
1046.0,0.07761276592881261
1045.0,0.07841868753366148
1044.0,0.07898018826623296
1043.0,0.07912592851782908
1042.0,0.0787601350852745
1041.0,0.0779185457651449
1040.0,0.07661721784818205
1039.0,0.07482137968389879
1038.0,0.07259150749246744
1037.0,0.07009394381191002
1036.0,0.06744528694000818
1035.0,0.06468607342101498
1034.0,0.06190458529251343
1033.0,0.05925259532616678
1032.0,0.05683418859232783
1031.0,0.05467504956817486
1030.0,0.05278484016596433
1029.0,0.0511561429479277
1028.0,0.04970841036197122
1027.0,0.04831579555272943
1026.0,0.04689860495806097
1025.0,0.04543067147158404
1024.0,0.04387045057386776
1023.0,0.04215912487227838
1022.0,0.04028664641839547
1021.0,0.038297845304523834
1020.0,0.03623727498008382
1019.0,0.03413827611843381
1018.0,0.0320499135497237
1017.0,0.030022211398658835
1016.0,0.028073883253260212
1015.0,0.02621035962054815
1014.0,0.024457830860109442
1013.0,0.022848939539501803
1012.0,0.021391464368600666
1011.0,0.020075885826098493
1010.0,0.01889764585492095
1009.0,0.01785194846408004
1008.0,0.016921818433298166
1007.0,0.016088935629957384
1006.0,0.015344677419396314
1005.0,0.014678659595649856
1004.0,0.014069332343213201
1003.0,0.01349698142264481
1002.0,0.012955530946139483
1001.0,0.012444633439094268
1000.0,0.011962853409967555
999.0,0.011514613348509655
998.0,0.01110855839546898
997.0,0.0107406553191282
996.0,0.010391620794227164
995.0,0.010048445997785803
994.0,0.009717698737044395
993.0,0.009412339762766238
992.0,0.009136822801568311
991.0,0.00888947693187101
990.0,0.008667057416516267
989.0,0.00846161867374942
988.0,0.008262714337049146
987.0,0.0080657200745489
986.0,0.007869605557126277
985.0,0.007668265240419938
984.0,0.007457447981450484
983.0,0.007250034108509391
982.0,0.007068149443987207
981.0,0.006916478879404227
980.0,0.006777190993518405
979.0,0.0066336320759421245
978.0,0.006484799107616559
977.0,0.006333767908290364
976.0,0.0061778303882521965
975.0,0.006017232464703303
974.0,0.005861648083140521
973.0,0.0057208886055545305
972.0,0.005597627812512116
971.0,0.005493435080854769
970.0,0.005413922673752285
969.0,0.005365155539018682
968.0,0.005352116816946429
967.0,0.00538200526226261
966.0,0.005463657270020336
965.0,0.005606090602184071
964.0,0.005823457677059567
963.0,0.006134322865352112
962.0,0.00654225159679561
961.0,0.007015617871044152
960.0,0.007493319274996876
959.0,0.00791088545302226
958.0,0.008220812669790795
957.0,0.008397307530496735
956.0,0.008436374268157827
955.0,0.008356351774977377
954.0,0.008188099107939396
953.0,0.007957243924628161
952.0,0.007681537118723653
951.0,0.007383860212764276
950.0,0.007091840296718268
949.0,0.006820546878112892
948.0,0.006569892389764631
947.0,0.006342501844547118
946.0,0.006149281229192744
945.0,0.005993128875082222
944.0,0.005861326884793697
943.0,0.0057401908789149435
942.0,0.005627664867091873
941.0,0.005528315624415589
940.0,0.005445257954856821
939.0,0.005379179670918787
938.0,0.005326700512212819
937.0,0.005279255032097377
936.0,0.005232122330836015
935.0,0.005193085079801579
934.0,0.0051720864809452795
933.0,0.00516452287182715
932.0,0.005156739640914546
931.0,0.0051462280464443216
930.0,0.00514293366680825
929.0,0.005150473174050853
928.0,0.005159714388378537
927.0,0.005163823380476509
926.0,0.005168559711480046
925.0,0.005184638577086398
924.0,0.005218033782958882
923.0,0.005267202693241463
922.0,0.005320678395851288
921.0,0.005359591277282605
920.0,0.005373739364049706
919.0,0.00537505924793699
918.0,0.0053851288057185105
917.0,0.005410155840766793
916.0,0.005438161708550887
915.0,0.005456743424790064
914.0,0.005460714446480025
913.0,0.005447209447905837
912.0,0.005420660412978942
911.0,0.00540049263974718
910.0,0.005403248641743854
909.0,0.005414645978395185
908.0,0.0053992370938922545
907.0,0.005342911114757197
906.0,0.005268852326480441
905.0,0.0052078444333039965
904.0,0.005171852319078577
903.0,0.005160470200949974
902.0,0.00517038290990186
901.0,0.005189141774324996
900.0,0.005199193895052051
899.0,0.005199555715242457
898.0,0.005207491505523087
897.0,0.005228478271856031
896.0,0.005241352400062679
895.0,0.005224981990309416
894.0,0.0051820566328585095
893.0,0.005119896773933772
892.0,0.005023297250793394
891.0,0.004869960747445626
890.0,0.004668930144107001
889.0,0.004466049586934801
888.0,0.00431225028397862
887.0,0.004237290028693545
886.0,0.004250317319278428
885.0,0.004355501450684463
884.0,0.004567151543413252
883.0,0.004913422812053623
882.0,0.005422078163856665
881.0,0.006097607853528373
880.0,0.006911878967142579
879.0,0.007819308658163451
878.0,0.008784062284917961
877.0,0.009789938677401093
876.0,0.010818512356501976
875.0,0.011824091308032803
874.0,0.012741756299478373
873.0,0.013517340194773131
872.0,0.01412243797949152
871.0,0.01455139396058941
870.0,0.014815252242124911
869.0,0.014930943660456924
868.0,0.014912248767652802
867.0,0.014776750484242204
866.0,0.014550892848797493
865.0,0.014249556705673485
864.0,0.013857255269472464
863.0,0.013347361436130863
862.0,0.012712073137963107
861.0,0.011956401385490954
860.0,0.011078008210807636
859.0,0.010082253419119726
858.0,0.009012658715072999
857.0,0.007943962971904101
856.0,0.006947863710439345
855.0,0.0060766323701244695
854.0,0.005366318023092283
853.0,0.004836211410742744
852.0,0.004482390202815571
851.0,0.0042731436292455655
850.0,0.004151005093045503
849.0,0.0040487312614312775
848.0,0.003915374002412828
847.0,0.0037308762618041887
846.0,0.003496566334322165
845.0,0.0032184978082413582
844.0,0.002907316271262502
843.0,0.0025867070791359466
842.0,0.002285252742277086
841.0,0.002017753549674527
840.0,0.001783960174892625
839.0,0.001582535203657776
838.0,0.001413795188258347
837.0,0.0012705979342508625
836.0,0.001139522153884004
835.0,0.0010130628535980676
834.0,0.0008944022388608615
833.0,0.0007924864976089473
832.0,0.0007181471328433497
831.0,0.0006787576003099687
830.0,0.0006657265891635619
829.0,0.0006512540105609197
828.0,0.0006090742583513761
827.0,0.0005380735768608794
826.0,0.00046057553392942624
825.0,0.0004034223425439824
824.0,0.00038604274020841243
823.0,0.00041295071147671916
822.0,0.0004646321806492876
821.0,0.0005064233255944114
820.0,0.0005151937329027426
819.0,0.0004900206729020994
818.0,0.00043992774763141045
817.0,0.0003779501039290747
816.0,0.00032788943953543717
815.0,0.0003136914170062885
814.0,0.0003295190168719469
813.0,0.0003397955013108916
812.0,0.0003238792838657486
811.0,0.0003030944657214053
810.0,0.00030725982201856156
809.0,0.0003322762821644813
808.0,0.00035305139789997345
807.0,0.00036350334173103436
806.0,0.00037610307572727084
805.0,0.0003895530469484633
804.0,0.0003860285611391092
803.0,0.0003627411638664896
802.0,0.00034361930859265824
801.0,0.0003529629407654474
800.0,0.00039173839160140927
799.0,0.0004427565004242427
798.0,0.00048750410717400723
797.0,0.0005177673605869524
796.0,0.0005416559462445986
795.0,0.0005791883629830078
794.0,0.0006454192073031108
793.0,0.0007409724523611116
792.0,0.0008634484415445502
791.0,0.001016236329500965
790.0,0.0011941474688205254
789.0,0.0013725392220673592
788.0,0.0015291018269593488
787.0,0.0016716954177923094
786.0,0.0018287448462095107
785.0,0.0020153110219540476
784.0,0.0022240928795182607
783.0,0.0024451929380746532
782.0,0.0026751295312771248
781.0,0.002906520541662856
780.0,0.003128637086084983
779.0,0.003344507802206199
778.0,0.0035725056938033482
777.0,0.003824072002886361
776.0,0.004093690794345446
775.0,0.004378241356480786
774.0,0.00469127284441267
773.0,0.005044828257085158
772.0,0.005427110908028283
771.0,0.005813650245851135
770.0,0.006197575281670902
769.0,0.006596520884892687
768.0,0.007031014909559699
767.0,0.0075077546442679916
766.0,0.008023302925056605
765.0,0.008570632215630338
764.0,0.009137133807227629
763.0,0.009706789518193587
762.0,0.010271229070236846
761.0,0.010829804352119034
760.0,0.011371185718174675
759.0,0.011862574177026512
758.0,0.012265314707128813
757.0,0.012555319247026915
756.0,0.012723229480840457
755.0,0.012766027134444555
754.0,0.01268873261020377
753.0,0.012508390989947972
752.0,0.012250230986487629
751.0,0.011942322701447065
750.0,0.01161172581886459
749.0,0.0112784784741073
748.0,0.010952494281014826
747.0,0.01063665573653354
746.0,0.0103280010412513
745.0,0.010016657397258951
744.0,0.009694729378202298
743.0,0.00936950042766152
742.0,0.009055047360248947
741.0,0.008745191030253549
740.0,0.008406839594250452
739.0,0.008007017160583415
738.0,0.007535531709534766
737.0,0.006996263835800284
736.0,0.006393910528053786
735.0,0.005742690009117306
734.0,0.00507727515798779
733.0,0.004442791183227086
732.0,0.0038792121643221045
731.0,0.0034179229410133995
730.0,0.003079287837315906
729.0,0.002865183957841003
728.0,0.002761871862819147
727.0,0.00275552653397511
726.0,0.0028402407542698575
725.0,0.0030098120971738026
724.0,0.003250154872298582
723.0,0.0035443200687674224
722.0,0.0038783965811303237
721.0,0.004237576894612266
720.0,0.004603339177252804
719.0,0.004963959069584148
718.0,0.0053227016764426215
717.0,0.005684591015207036
716.0,0.006038555447362736
715.0,0.006360095265894044
714.0,0.006628566321926712
713.0,0.006836568200192227
712.0,0.006987062544906348
711.0,0.007091219449285709
710.0,0.007167526381224615
709.0,0.007233783522298793
708.0,0.007299749525502568
707.0,0.0073687421197530575
706.0,0.007439007944581914
705.0,0.007500987046906429
704.0,0.007541093671965725
703.0,0.007551735568026926
702.0,0.007532109633966022
701.0,0.0074814466989992275
700.0,0.007405605907416006
699.0,0.007330225652154002
698.0,0.007285657436747139
697.0,0.007271372638141635
696.0,0.0072528400239789004
695.0,0.0072004725816361866
694.0,0.0071142700471384344
693.0,0.007006076282894786
692.0,0.006884407959928833
691.0,0.006766451254731817
690.0,0.006677003349493961
689.0,0.0066181731584762545
688.0,0.006561873352797962
687.0,0.0064946935610677575
686.0,0.006443835652509604
685.0,0.00643387444356688
684.0,0.006449488200571797
683.0,0.00646121800653051
682.0,0.006457649371890662
681.0,0.006431905010155189
680.0,0.006365629971318272
679.0,0.006254378586695102
678.0,0.006130182356993415
677.0,0.0060289276383946565
676.0,0.005954356191435278
675.0,0.005892213632438836
674.0,0.005829750717367034
673.0,0.005757689145610097
672.0,0.005677164104744654
671.0,0.00561554996240372
670.0,0.005605740173917078
669.0,0.005637947970331493
668.0,0.005622086555988908
667.0,0.005504097261931004
666.0,0.0053726288159920855
665.0,0.005303761925482667
664.0,0.005282993820572492
663.0,0.005265852357205695
662.0,0.00524192376674306
661.0,0.005231037882746358
660.0,0.005217817084661741
659.0,0.005147499941111879
658.0,0.005003490986850011
657.0,0.004840147574779817
656.0,0.004723506395781243
655.0,0.004670513227063475
654.0,0.004635530680869493
653.0,0.004548367629928496
652.0,0.004374319796833748
651.0,0.004155033274361482
650.0,0.003987456275345394
649.0,0.003937679050828971
648.0,0.003981621524719916
647.0,0.004038188564228733
646.0,0.004039470278613224
645.0,0.0039570629803618185
644.0,0.003790836804700168
643.0,0.0035776583115273656
642.0,0.003396130896699273
641.0,0.0033144057908565863
640.0,0.0033300569002479834
639.0,0.003375689417577302
638.0,0.0033818019379025475
637.0,0.0033244015007764527
636.0,0.0032180331251401555
635.0,0.0030951407559104537
634.0,0.002995199833166347
633.0,0.002942496259505146
632.0,0.0029252142761586938
631.0,0.0029051533628560652
630.0,0.0028492199503497642
629.0,0.0027475995278691545
628.0,0.0026058549371565983
627.0,0.002435937230955077
626.0,0.0022584279327899515
625.0,0.002099721001234754
624.0,0.001984830404382006
623.0,0.0019362312509035922
622.0,0.0019639858267077323
621.0,0.002043927289129204
620.0,0.002110012378543691
619.0,0.002082824702509792
618.0,0.0019267232454317834
617.0,0.0016855880184663665
616.0,0.0014535459144398343
615.0,0.0013041659490003101
614.0,0.0012416736034771506
613.0,0.0012157689257030957
612.0,0.0011786280005233983
611.0,0.0011245513945775552
610.0,0.001079384011786957
609.0,0.001064400021143737
608.0,0.0010809458300946456
607.0,0.001115238375006585
606.0,0.0011395609882590791
605.0,0.0011217029739705904
604.0,0.001058488317676124
603.0,0.0009974888797125098
602.0,0.0009926108122380413
601.0,0.0010303602615848416
600.0,0.0010317928931207693
599.0,0.000945901593334751
598.0,0.0008128252670092971
597.0,0.0007115188124156065
596.0,0.0006790208165881276
595.0,0.0006992977757110871
594.0,0.0007347901856728008
593.0,0.0007459799525394144
592.0,0.0007009199572976339
591.0,0.0006037740986711195
590.0,0.0005096806381509472
589.0,0.00047099154776292836
588.0,0.0004799149512119223
587.0,0.0004843104970850779
586.0,0.0004509993537495328
585.0,0.0004008791020799563
584.0,0.0003734519769628365
583.0,0.0003791700686016485
582.0,0.00040158905064439487
581.0,0.0004301899154437235
580.0,0.0004728486650220692
579.0,0.0005382873398451175
578.0,0.0006232657516334885
577.0,0.0007165312180590373
576.0,0.000797497358610514
575.0,0.000834705388177078
574.0,0.0008048287720924512
573.0,0.0007104628609442909
572.0,0.0005696138898516456
571.0,0.0004108075909532499
570.0,0.00027705216929913446
569.0,0.0001983562656388974
568.0,0.0001654627653728388
567.0,0.00013999727513914866
566.0,8.682387997557394e-05
565.0,1.01251543464893e-05
564.0,-5.022205462772156e-05
563.0,-6.097431030556346e-05
562.0,-3.586772828972386e-05
561.0,-2.921659018721625e-05
560.0,-7.514355197409724e-05
559.0,-0.00014774132890959732
558.0,-0.00019870335873365536
557.0,-0.00022490164478216473
556.0,-0.0002671221049497458
555.0,-0.00033440774401255827
554.0,-0.0003584702239264031
553.0,-0.00026809517825164986
552.0,-9.614143929480724e-05
551.0,2.6004957802847062e-05
550.0,1.4747277921577095e-07
