cm-1,A
4000.0,0.001427423629405955
3999.0,0.0014304524200713104
3998.0,0.0014313815357674335
3997.0,0.001432330791596798
3996.0,0.0014310560226611778
3995.0,0.0014252667405462423
3994.0,0.0014169390853289849
3993.0,0.0014106595940012907
3992.0,0.0014095161558212584
3991.0,0.0014134220708527773
3990.0,0.001420546291910062
3989.0,0.001428872718904754
3988.0,0.0014359070787742496
3987.0,0.001438912177221821
3986.0,0.001436861475941509
3985.0,0.0014315472053745492
3984.0,0.0014260747997404985
3983.0,0.0014221566515779523
3982.0,0.0014191782755871825
3981.0,0.0014164683518320697
3980.0,0.0014156925559680347
3979.0,0.0014193136235283986
3978.0,0.0014266442418883148
3977.0,0.0014324082286540799
3976.0,0.0014303238753020228
3975.0,0.0014198191320777798
3974.0,0.0014082623532273681
3973.0,0.0014050072635571305
3972.0,0.0014128955489312455
3971.0,0.0014251481150089318
3970.0,0.0014316098482733436
3969.0,0.001427750705371339
3968.0,0.0014186429201567892
3967.0,0.0014152242588839057
3966.0,0.0014248832169806663
3965.0,0.0014453332438861917
3964.0,0.0014658362421727472
3963.0,0.001475590138829528
3962.0,0.0014724395432767494
3961.0,0.0014620906799559263
3960.0,0.001449492491311604
3959.0,0.0014341946664114336
3958.0,0.001415057272825964
3957.0,0.0013959359608957775
3956.0,0.0013835006736928979
3955.0,0.0013813893392111538
3954.0,0.0013889999926933075
3953.0,0.0014038940869373429
3952.0,0.0014233422506588738
3951.0,0.001443161736662934
3950.0,0.0014578433029356103
3949.0,0.0014641883524777195
3948.0,0.0014652517436459004
3947.0,0.0014681916718597952
3946.0,0.0014750294610846263
3945.0,0.0014781408908789507
3944.0,0.001467895067483116
3943.0,0.0014465348796129651
3942.0,0.0014330068358731102
3941.0,0.0014443911837387585
3940.0,0.0014752625477415994
3939.0,0.001503630150148658
3938.0,0.0015110478497637205
3937.0,0.0014975639872438374
3936.0,0.0014781048492819478
3935.0,0.0014663100107133449
3934.0,0.0014654139368425946
3933.0,0.0014699158961338664
3932.0,0.0014729711871347
3931.0,0.0014730986429172576
3930.0,0.0014727654898415883
3929.0,0.0014736308827640952
3928.0,0.001475736405025897
3927.0,0.0014758214527349756
3926.0,0.001469240684378576
3925.0,0.0014587972376342555
3924.0,0.0014543705412292211
3923.0,0.0014592621941438857
3922.0,0.0014643104230926717
3921.0,0.0014598571107044492
3920.0,0.0014476492874501271
3919.0,0.00143561169465799
3918.0,0.0014269782046137116
3917.0,0.0014218417586908366
3916.0,0.0014237276927626175
3915.0,0.0014353962998774335
3914.0,0.0014513077683233225
3913.0,0.0014618720200712037
3912.0,0.001461014937927018
3911.0,0.0014490773816270485
3910.0,0.0014285916625241275
3909.0,0.0014040149442693926
3908.0,0.0013834992467869614
3907.0,0.0013758124474410587
3906.0,0.001380676538687698
3905.0,0.0013861565138601518
3904.0,0.0013835246126224746
3903.0,0.0013813207622510755
3902.0,0.0013920062294884151
3901.0,0.0014104560220215526
3900.0,0.0014225738526708364
3899.0,0.0014265394538978842
3898.0,0.0014302696483461488
3897.0,0.0014355623180746595
3896.0,0.0014396277394502317
3895.0,0.00144732405630105
3894.0,0.001466125758833812
3893.0,0.0014862146390322933
3892.0,0.0014789861312359753
3891.0,0.0014404987739184874
3890.0,0.0014058536147277033
3889.0,0.0014042999563991412
3888.0,0.001422531945810964
3887.0,0.0014171095722506372
3886.0,0.0013729156644119605
3885.0,0.0013348846676058137
3884.0,0.0013472120126909108
3883.0,0.0013975848081296711
3882.0,0.0014345977389409
3881.0,0.0014236757247229471
3880.0,0.001389144834503254
3879.0,0.0013796855475388236
3878.0,0.0014075307822215316
3877.0,0.0014432054789284654
3876.0,0.0014416829506133657
3875.0,0.0013852120704683601
3874.0,0.0013170247402575289
3873.0,0.0013021387398371232
3872.0,0.0013494011239727948
3871.0,0.0014018102856228772
3870.0,0.001417602019562187
3869.0,0.001426480673462335
3868.0,0.0014678941637374827
3867.0,0.0015261890881746827
3866.0,0.001555358198986146
3865.0,0.0015399948656802465
3864.0,0.0015110332385733858
3863.0,0.0014979314052807596
3862.0,0.001492245722918419
3861.0,0.0014748036177202335
3860.0,0.0014412940763023493
3859.0,0.0014022530994246233
3858.0,0.0013742221384223958
3857.0,0.0013736458293361993
3856.0,0.0014006461553740445
3855.0,0.0014206571605439476
3854.0,0.0014046833953332964
3853.0,0.0013929066840368705
3852.0,0.0014237134745863787
3851.0,0.0014699781272082514
3850.0,0.0014925687365065685
3849.0,0.0014805741682576716
3848.0,0.0014508789113497121
3847.0,0.0014259334509817043
3846.0,0.001414981171724575
3845.0,0.001411644900395082
3844.0,0.0014042362837093836
3843.0,0.001393179262947787
3842.0,0.001390536767719624
3841.0,0.001403590347740681
3840.0,0.001424784863154338
3839.0,0.0014411270390832513
3838.0,0.0014463044866396498
3837.0,0.0014438988816334183
3836.0,0.001443924220333267
3835.0,0.0014555896072885747
3834.0,0.0014753924117839096
3833.0,0.001486329516982693
3832.0,0.001477546185009662
3831.0,0.0014593449497842413
3830.0,0.0014504309050949072
3829.0,0.001453130510311611
3828.0,0.0014468913856292324
3827.0,0.0014179117300085493
3826.0,0.0013889033526090708
3825.0,0.001399230848180123
3824.0,0.0014555318190386034
3823.0,0.0015077174542179597
3822.0,0.0014905336345085497
3821.0,0.0014250923935961318
3820.0,0.001407814676793247
3819.0,0.0014766291711641553
3818.0,0.0015776925366067411
3817.0,0.0016252152125369472
3816.0,0.0015952188514257886
3815.0,0.001549067823486476
3814.0,0.0015330421961117055
3813.0,0.0015304698846631797
3812.0,0.0015136546561616137
3811.0,0.001488891450792671
3810.0,0.0014855418665617316
3809.0,0.001509627105176509
3808.0,0.0015280320251024701
3807.0,0.0015172972830804913
3806.0,0.0015023904903908507
3805.0,0.0015195741279961303
3804.0,0.0015631936406457355
3803.0,0.001578121695717878
3802.0,0.0015281882632331642
3801.0,0.001471146533465578
3800.0,0.001472423296174468
3799.0,0.0015129187762221866
3798.0,0.0015351868965902478
3797.0,0.0015129896069812792
3796.0,0.0014817185581663225
3795.0,0.0014883559650160922
3794.0,0.001532940333869571
3793.0,0.0015804755538131557
3792.0,0.0016014313908237965
3791.0,0.001591196121461944
3790.0,0.0015638250326077817
3789.0,0.0015372147441464544
3788.0,0.0015249664553993309
3787.0,0.0015297929769812681
3786.0,0.0015416129397585738
3785.0,0.0015484307808799954
3784.0,0.0015516689978352781
3783.0,0.0015616276057501509
3782.0,0.001577628726992086
3781.0,0.0015835282841956378
3780.0,0.0015687074547452461
3779.0,0.0015503887347499306
3778.0,0.0015537636573283607
3777.0,0.0015755228072372271
3776.0,0.0015885909507732002
3775.0,0.0015791382558365673
3774.0,0.0015654514324405797
3773.0,0.0015749244444953527
3772.0,0.001606074036495157
3771.0,0.001627040094137659
3770.0,0.0016202614167190976
3769.0,0.0016087997845550958
3768.0,0.0016182805852473154
3767.0,0.0016371430032626544
3766.0,0.0016347794185592576
3765.0,0.0016081728736012557
3764.0,0.0015863002968833444
3763.0,0.0015862503626892946
3762.0,0.00159236834719071
3761.0,0.0015854603367219393
3760.0,0.0015713586937896717
3759.0,0.0015685240983545185
3758.0,0.0015754762217799836
3757.0,0.001576670614345677
3756.0,0.001567814291219664
3755.0,0.0015546321157877952
3754.0,0.0015411743016811121
3753.0,0.0015335617056296675
3752.0,0.001541343707890496
3751.0,0.0015565283116246724
3750.0,0.0015554181224312512
3749.0,0.0015386700880738768
3748.0,0.0015382208215322934
3747.0,0.001571692689370739
3746.0,0.0015993180251919646
3745.0,0.0015714478421392558
3744.0,0.0015293234479663753
3743.0,0.0015380125042240025
3742.0,0.001580366851055272
3741.0,0.001604935802766086
3740.0,0.0015912996074481025
3739.0,0.0015621439189658155
3738.0,0.0015528175215371
3737.0,0.0015837193644518107
3736.0,0.001650288110042561
3735.0,0.0017141138528436362
3734.0,0.0017301279568171968
3733.0,0.0016851287072316983
3732.0,0.001606970889443281
3731.0,0.001542987059806672
3730.0,0.0015221574729868278
3729.0,0.0015343070052088602
3728.0,0.0015479119751447168
3727.0,0.0015480685304854341
3726.0,0.0015540769949835094
3725.0,0.0015850899270083737
3724.0,0.0016283336527850598
3723.0,0.0016592624519277336
3722.0,0.0016724216352542412
3721.0,0.0016808918619075923
3720.0,0.0016922801003889524
3719.0,0.0016974148434229668
3718.0,0.0016861897025625626
3717.0,0.0016661935891723089
3716.0,0.0016564035910619844
3715.0,0.0016674072871820063
3714.0,0.001694544008091539
3713.0,0.0017300724558694544
3712.0,0.0017705144704037949
3711.0,0.0018090604483577428
3710.0,0.0018362070732921428
3709.0,0.0018485109402068339
3708.0,0.0018499036501211815
3707.0,0.0018498301164224565
3706.0,0.0018587852357544864
3705.0,0.0018815990694037992
3704.0,0.0019142383380201312
3703.0,0.0019491296813020035
3702.0,0.0019844233803103448
3701.0,0.0020282948427086593
3700.0,0.0020869371342312985
3699.0,0.002148323119875466
3698.0,0.0021836114551834836
3697.0,0.0021722482236100626
3696.0,0.0021241193680756154
3695.0,0.002066287885035588
3694.0,0.002015892724018277
3693.0,0.0019784439784531933
3692.0,0.001962990539026142
3691.0,0.001975643719026268
3690.0,0.0019934019822708316
3689.0,0.001980956684911121
3688.0,0.0019430173361420788
3687.0,0.0019135245007319258
3686.0,0.001905148099268423
3685.0,0.0019032600830883432
3684.0,0.0018919630027254644
3683.0,0.0018716091102276664
3682.0,0.0018496783038900277
3681.0,0.0018254765106208014
3680.0,0.001802602778406696
3679.0,0.001797608599638861
3678.0,0.0018134866862005365
3677.0,0.0018057084289728137
3676.0,0.001740253154110174
3675.0,0.0016836598137912105
3674.0,0.001713506059652191
3673.0,0.0018188735226686498
3672.0,0.0019375990270882194
3671.0,0.002000841948452952
3670.0,0.0019930392180601544
3669.0,0.0019703397136118686
3668.0,0.001974861825304799
3667.0,0.001994979278642564
3666.0,0.002006234578854803
3665.0,0.0020018203914541443
3664.0,0.0019911449392644885
3663.0,0.001984916531532468
3662.0,0.0019854128443939256
3661.0,0.001991821126400949
3660.0,0.002009901070304705
3659.0,0.0020455369515153914
3658.0,0.0020860881345531796
3657.0,0.0020993083373805196
3656.0,0.0020713817645281554
3655.0,0.0020285674163850026
3654.0,0.002002052433498851
3653.0,0.001995049684376949
3652.0,0.001992274073292426
3651.0,0.001989865262679591
3650.0,0.002005209569292709
3649.0,0.002043763405948409
3648.0,0.002088876670291917
3647.0,0.002131367975952219
3646.0,0.0021742553168960102
3645.0,0.0022174305170318447
3644.0,0.0022521575247370614
3643.0,0.0022708954474924153
3642.0,0.0022780876969916925
3641.0,0.002284944836539453
3640.0,0.0022940305108917584
3639.0,0.0023011798583295524
3638.0,0.0023118139640720984
3637.0,0.0023369950026984557
3636.0,0.0023710464364570826
3635.0,0.002390119207269708
3634.0,0.002386717720052423
3633.0,0.0023906008559512037
3632.0,0.002437173317530219
3631.0,0.0025191478685918727
3630.0,0.0025693631468466887
3629.0,0.002535623094774794
3628.0,0.00247586218141848
3627.0,0.002465053093809144
3626.0,0.002492972406984607
3625.0,0.0025201586056105845
3624.0,0.0025317496473638906
3623.0,0.002540129307503199
3622.0,0.002561382263529885
3621.0,0.002596128186777231
3620.0,0.0026308661875775285
3619.0,0.002653201873364139
3618.0,0.0026681920322060423
3617.0,0.002689995835118273
3616.0,0.0027212752013734283
3615.0,0.0027478921194234694
3614.0,0.002754839769770159
3613.0,0.002747926738871025
3612.0,0.0027494572614253604
3611.0,0.002768464820254808
3610.0,0.0027880134607403983
3609.0,0.0027889548950238542
3608.0,0.0027799553793491053
3607.0,0.0027902331031248702
3606.0,0.002831139529940619
3605.0,0.002886868268530526
3604.0,0.002938165102612541
3603.0,0.002977383467649068
3602.0,0.0030052088997828013
3601.0,0.0030250008368282255
3600.0,0.0030410446025799054
3599.0,0.0030549296724339675
3598.0,0.0030649144173458577
3597.0,0.0030674179481944984
3596.0,0.003058088700370959
3595.0,0.003035774319801077
3594.0,0.003009171601992213
3593.0,0.0029934796865680605
3592.0,0.002998721201932579
3591.0,0.0030231792943293716
3590.0,0.0030550949079203257
3589.0,0.0030786323549796555
3588.0,0.0030884075431199744
3587.0,0.003103340812171408
3586.0,0.0031429427620497338
3585.0,0.003199215768986009
3584.0,0.00325272094461061
3583.0,0.0032935617425374473
3582.0,0.0033212014365666866
3581.0,0.003337979556771791
3580.0,0.0033478226403307054
3579.0,0.003356143728610473
3578.0,0.0033652835696960327
3577.0,0.003372398115379047
3576.0,0.0033754674566564263
3575.0,0.003379465687949956
3574.0,0.003391391814207216
3573.0,0.0034099672859916816
3572.0,0.0034262608330607736
3571.0,0.0034344289039361427
3570.0,0.0034354502085274514
3569.0,0.003432433643635285
3568.0,0.0034276167203720295
3567.0,0.0034307910107001897
3566.0,0.003459614879620565
3565.0,0.0035146087700921595
3564.0,0.003574305633625501
3563.0,0.0036189217492631786
3562.0,0.0036434517191047625
3561.0,0.0036539889722986495
3560.0,0.0036596275484348916
3559.0,0.003667594416778062
3558.0,0.0036812090477024604
3557.0,0.003700201404313707
3556.0,0.0037225257411063833
3555.0,0.003744936941247288
3554.0,0.003761573634840129
3553.0,0.003766113037024454
3552.0,0.0037604729081402856
3551.0,0.00375732600737412
3550.0,0.0037692382365657534
3549.0,0.0037986841416078852
3548.0,0.0038378285319915465
3547.0,0.003873522579777557
3546.0,0.0038951091933479174
3545.0,0.0039017778202087624
3544.0,0.003900792307268275
3543.0,0.0038986994736828094
3542.0,0.0038974752166654504
3541.0,0.0038974460924213446
3540.0,0.003901693893063956
3539.0,0.003916503346317831
3538.0,0.003944907397161362
3537.0,0.0039786464066462295
3536.0,0.004002329583634166
3535.0,0.004009554862497143
3534.0,0.004009513646406853
3533.0,0.004015796113725365
3532.0,0.004033015314443484
3531.0,0.004054215587950366
3530.0,0.00406922961416216
3529.0,0.004075423820844374
3528.0,0.004080238149716242
3527.0,0.004091894893546769
3526.0,0.004108061501872311
3525.0,0.004116755419211157
3524.0,0.004110553810869635
3523.0,0.004098601103333286
3522.0,0.00409858190401947
3521.0,0.004117132605095209
3520.0,0.0041445979846170145
3519.0,0.004167751507506654
3518.0,0.0041831034473030085
3517.0,0.0041963585188378935
3516.0,0.00421122429471407
3515.0,0.004223278550036243
3514.0,0.0042248567502837465
3513.0,0.0042125376945344834
3512.0,0.0041897915963669844
3511.0,0.0041652763529478574
3510.0,0.004149510771348348
3509.0,0.004150591805839878
3508.0,0.004170273941175232
3507.0,0.004202296560289762
3506.0,0.004233130812362358
3505.0,0.004246040667418445
3504.0,0.004232177410614807
3503.0,0.004204275238249566
3502.0,0.00419014048639325
3501.0,0.004203898913620698
3500.0,0.004232592902955169
3499.0,0.004251835737910389
3498.0,0.004247371941921604
3497.0,0.004224772698556183
3496.0,0.00420283287002128
3495.0,0.004198175598542402
3494.0,0.0042143595270843735
3493.0,0.004241846544536596
3492.0,0.004266239205561717
3491.0,0.004277805011725013
3490.0,0.004275814805934297
3489.0,0.004266415539178496
3488.0,0.004257942070599452
3487.0,0.0042568137634847085
3486.0,0.00426506547373687
3485.0,0.004279713171424508
3484.0,0.004294277225330605
3483.0,0.004302327147502778
3482.0,0.004300842518836053
3481.0,0.004291187849512985
3480.0,0.004278047220787775
3479.0,0.004267391114705038
3478.0,0.004263124653895657
3477.0,0.004263940433986091
3476.0,0.004264313140883133
3475.0,0.004260284904515296
3474.0,0.004253884043684534
3473.0,0.00425012960889338
3472.0,0.004251261637325499
3471.0,0.00425661385758338
3470.0,0.004265884939927972
3469.0,0.00427860363096958
3468.0,0.004291227444363823
3467.0,0.004298659343279343
3466.0,0.0042993315832839515
3465.0,0.00429602275604192
3464.0,0.004291425162056195
3463.0,0.004285622814552306
3462.0,0.004278585477422446
3461.0,0.0042728533665025775
3460.0,0.004271923507201518
3459.0,0.0042769554978891455
3458.0,0.004286031959584437
3457.0,0.004295502407413863
3456.0,0.0043018987587937155
3455.0,0.004303435776063392
3454.0,0.004300023155404855
3453.0,0.004292639787030762
3452.0,0.00428389851308667
3451.0,0.00427879547405191
3450.0,0.004282586843548761
3449.0,0.0042960731557118645
3448.0,0.004313500308165843
3447.0,0.004327328260143959
3446.0,0.0043347626578153775
3445.0,0.004337100339153783
3444.0,0.004335024677382564
3443.0,0.00432907387367819
3442.0,0.004323452420221542
3441.0,0.004324781571818941
3440.0,0.004335419331591522
3439.0,0.004349890895611037
3438.0,0.0043588403241459454
3437.0,0.004356127448864589
3436.0,0.00434375088338244
3435.0,0.004331007580445447
3434.0,0.0043271799469673895
3433.0,0.004333514095581014
3432.0,0.004342765166166778
3431.0,0.0043470257859069125
3430.0,0.004344635624869602
3429.0,0.004338442362583877
3428.0,0.0043299218434350115
3427.0,0.004318707319794523
3426.0,0.004306923265706382
3425.0,0.004299419813117401
3424.0,0.004298273155751734
3423.0,0.004299770299170397
3422.0,0.004298985385269479
3421.0,0.004296180232677483
3420.0,0.0042960050629772505
3419.0,0.0043005908275065416
3418.0,0.004306147212249849
3417.0,0.004306640887824754
3416.0,0.004299308144034233
3415.0,0.004286680853141644
3414.0,0.0042742961375960165
3413.0,0.004266544008781504
3412.0,0.004264012426239667
3411.0,0.004263828151269495
3410.0,0.0042618795852446415
3409.0,0.004255419874443974
3408.0,0.004244898572372739
3407.0,0.004233835782851905
3406.0,0.004226153675408941
3405.0,0.00422252764013535
3404.0,0.004219846240359005
3403.0,0.004215851217688631
3402.0,0.004213929787143641
3401.0,0.004220272622844061
3400.0,0.00423454750384867
3399.0,0.004245806857098535
3398.0,0.0042408118482950485
3397.0,0.0042163044596659986
3396.0,0.004180896276104953
3395.0,0.004145367136179756
3394.0,0.004114612485079664
3393.0,0.004089104133083183
3392.0,0.004069215822204765
3391.0,0.004055164242809862
3390.0,0.004045994502966073
3389.0,0.0040425736339900625
3388.0,0.004049670675205897
3387.0,0.00407044960695101
3386.0,0.004098672775101374
3385.0,0.004120788882609952
3384.0,0.004127690571260151
3383.0,0.004120516333122199
3382.0,0.0041033282801239855
3381.0,0.00407596870907175
3380.0,0.004038815927776859
3379.0,0.004000866944942088
3378.0,0.003975630323055919
3377.0,0.003967377079086236
3376.0,0.003966645849277202
3375.0,0.003962291210511391
3374.0,0.00395440582060762
3373.0,0.003951770842259623
3372.0,0.0039586687890158425
3371.0,0.003968203226617357
3370.0,0.003969074372229
3369.0,0.003956783713059759
3368.0,0.00393704798191258
3367.0,0.003919185883216257
3366.0,0.00390723077387696
3365.0,0.00389732718915601
3364.0,0.00388243897937535
3363.0,0.003858388099977926
3362.0,0.0038262056546427997
3361.0,0.003791074390645249
3360.0,0.003760164663335479
3359.0,0.0037396031671387843
3358.0,0.00373080710238977
3357.0,0.0037293413413995646
3356.0,0.003728683363066715
3355.0,0.0037249799244098974
3354.0,0.0037167377746242032
3353.0,0.0037013592680065544
3352.0,0.0036761175521340577
3351.0,0.003643998932018995
3350.0,0.0036152178425900667
3349.0,0.003599156410819535
3348.0,0.0035949754451164674
3347.0,0.0035919892972900943
3346.0,0.0035792062867306493
3345.0,0.0035539128935467693
3344.0,0.003522279291484514
3343.0,0.0034935624613205594
3342.0,0.0034731784838569974
3341.0,0.0034591007320960536
3340.0,0.0034440556956363165
3339.0,0.0034220053592181636
3338.0,0.0033934892729103688
3337.0,0.003365420250244985
3336.0,0.003345993478217156
3335.0,0.0033390140517438115
3334.0,0.0033415492119225894
3333.0,0.003346078592565544
3332.0,0.003345501217723785
3331.0,0.0033372538034844826
3330.0,0.003323182890757789
3329.0,0.003306009260116128
3328.0,0.0032867586786988565
3327.0,0.003265293872991908
3326.0,0.003242014245153926
3325.0,0.0032188296426912204
3324.0,0.003199431570708566
3323.0,0.00318814040324531
3322.0,0.0031860319455738906
3321.0,0.003187436085840888
3320.0,0.0031829830116907134
3319.0,0.00316836294817658
3318.0,0.0031486973625140286
3317.0,0.003132201859674811
3316.0,0.003120727625918469
3315.0,0.003109042886856652
3314.0,0.00309285238544671
3313.0,0.0030746363626016084
3312.0,0.003060376834700035
3311.0,0.003052029383432164
3310.0,0.0030450869977667267
3309.0,0.003034042534380342
3308.0,0.003019458442621399
3307.0,0.003007850856399453
3306.0,0.003003296863839122
3305.0,0.003000314247381113
3304.0,0.0029878416032562533
3303.0,0.0029617089329405056
3302.0,0.002931273716176583
3301.0,0.0029108314766026497
3300.0,0.0029047277997074103
3299.0,0.0029031836548216922
3298.0,0.002893052525245744
3297.0,0.0028707418820504253
3296.0,0.002843065125505203
3295.0,0.0028169707660749893
3294.0,0.0027920172073851667
3293.0,0.0027644887065076443
3292.0,0.002736577512150266
3291.0,0.0027169798354200244
3290.0,0.0027105639048108487
3289.0,0.002711062976210533
3288.0,0.0027080122391316018
3287.0,0.0026994460800425927
3286.0,0.002693292384266615
3285.0,0.0026960524070617944
3284.0,0.002704560436799382
3283.0,0.0027104911376424437
3282.0,0.00270868430529407
3281.0,0.0026978233788743236
3280.0,0.0026774574662428562
3279.0,0.002650928661287505
3278.0,0.0026300438110858733
3277.0,0.0026297131112492313
3276.0,0.002654143909534403
3275.0,0.0026906487773915226
3274.0,0.002719929658666312
3273.0,0.0027318721085158853
3272.0,0.002730509040908779
3271.0,0.0027259877667657906
3270.0,0.002724502902247546
3269.0,0.0027255491783520383
3268.0,0.002726118538626597
3267.0,0.0027251792017411068
3266.0,0.0027237318781396127
3265.0,0.002722704592307149
3264.0,0.0027234600319702364
3263.0,0.0027298980254646275
3262.0,0.0027462088495770346
3261.0,0.002770147109528705
3260.0,0.002791332958956265
3259.0,0.0028000171755044414
3258.0,0.0027967063460196764
3257.0,0.0027905971840902918
3256.0,0.00279007682463301
3255.0,0.0027977563638063975
3254.0,0.0028127694989921494
3253.0,0.002832565269473034
3252.0,0.002851947618858706
3251.0,0.0028658195998413323
3250.0,0.0028757116007356804
3249.0,0.0028901235261314167
3248.0,0.002914890253088878
3247.0,0.002944361769495525
3246.0,0.002964753195417624
3245.0,0.0029664798311418955
3244.0,0.002952450599738602
3243.0,0.0029353861828562374
3242.0,0.002928957587672388
3241.0,0.0029400572092943777
3240.0,0.0029656665175156467
3239.0,0.002996070138648057
3238.0,0.003022500933366927
3237.0,0.0030419010238358028
3236.0,0.0030547574044098
3235.0,0.003061357504251897
3234.0,0.003062860005983424
3233.0,0.003064270930122257
3232.0,0.0030720666362506126
3231.0,0.0030877939676465928
3230.0,0.0031061437720018453
3229.0,0.0031199511273100567
3228.0,0.0031257733237983164
3227.0,0.0031250094165560867
3226.0,0.0031221321706204315
3225.0,0.0031224679996759183
3224.0,0.0031290242345251864
3223.0,0.0031396448323324096
3222.0,0.0031486109219956127
3221.0,0.003152375268506793
3220.0,0.003152847356056733
3219.0,0.003154592494153304
3218.0,0.0031607967895060105
3217.0,0.003172827190179293
3216.0,0.003190582428064837
3215.0,0.003210215053222307
3214.0,0.003223632256641676
3213.0,0.0032249072218843537
3212.0,0.0032175263637525737
3211.0,0.0032121114410580344
3210.0,0.003216089722094782
3209.0,0.003227202496629743
3208.0,0.0032374502907656488
3207.0,0.0032412967856481883
3206.0,0.0032392598403065648
3205.0,0.0032361145451013907
3204.0,0.003237250153030254
3203.0,0.0032448721674386395
3202.0,0.0032560140143561038
3201.0,0.0032652903376703805
3200.0,0.0032706171158703667
3199.0,0.003274816364110867
3198.0,0.0032802932363492584
3197.0,0.0032837792589884007
3196.0,0.0032787783216163594
3195.0,0.003262693487024916
3194.0,0.0032400574883050936
3193.0,0.0032197433344253318
3192.0,0.00320983752554812
3191.0,0.003212935681079596
3190.0,0.0032236833528462533
3189.0,0.0032315462461258966
3188.0,0.0032284346846483906
3187.0,0.003214475464588302
3186.0,0.003196217104805743
3185.0,0.0031802956562859397
3184.0,0.003169982544205338
3183.0,0.0031658064712781144
3182.0,0.0031659957814113536
3181.0,0.0031663481170218955
3180.0,0.003162749796973684
3179.0,0.0031550983694685355
3178.0,0.003147338216428948
3177.0,0.0031431861214813563
3176.0,0.003143105014087601
3175.0,0.0031450702575121278
3174.0,0.003146082376911697
3173.0,0.0031430203240061265
3172.0,0.0031346372854721134
3171.0,0.0031234965609512138
3170.0,0.0031140577860502613
3169.0,0.0031082583270865076
3168.0,0.003104381201754996
3167.0,0.003099970926735509
3166.0,0.003093770052055945
3165.0,0.0030854387482804105
3164.0,0.003076798622085732
3163.0,0.0030735654856297073
3162.0,0.0030816494961243696
3161.0,0.0030993624276409283
3160.0,0.003115869028237905
3159.0,0.00311988102393533
3158.0,0.003108648993678849
3157.0,0.0030878808736421364
3156.0,0.0030661312594903933
3155.0,0.0030511322077068927
3154.0,0.0030478506748922753
3153.0,0.0030556990807389765
3152.0,0.003068214015242073
3151.0,0.003078340191620301
3150.0,0.003084149707450438
3149.0,0.0030879857939085965
3148.0,0.0030914654472364305
3147.0,0.0030939370530038385
3146.0,0.0030948253595129227
3145.0,0.003094625884486555
3144.0,0.0030935969412268305
3143.0,0.0030909983731511256
3142.0,0.0030850461556599733
3141.0,0.0030725369735194593
3140.0,0.003050327562463857
3139.0,0.0030201998454664333
3138.0,0.0029913296311004124
3137.0,0.0029737772682343912
3136.0,0.0029686525515540347
3135.0,0.00296738718510805
3134.0,0.0029613302178948253
3133.0,0.002949865788844621
3132.0,0.0029381047302950132
3131.0,0.0029293835067497106
3130.0,0.0029229454172539624
3129.0,0.0029172497458364896
3128.0,0.0029121363055231862
3127.0,0.0029073568030875286
3126.0,0.0029006781751416293
3125.0,0.0028885920780239794
3124.0,0.002869251825457666
3123.0,0.0028448557635108265
3122.0,0.00282099547373225
3121.0,0.0028031732124521387
3120.0,0.0027937014597498176
3119.0,0.0027917439086631913
3118.0,0.002795129988033102
3117.0,0.0028008348696633304
3116.0,0.002804391524601411
3115.0,0.00280115671788089
3114.0,0.002789611866654589
3113.0,0.0027728045719362182
3112.0,0.002755579566486686
3111.0,0.002740647615662982
3110.0,0.0027274178573138967
3109.0,0.002713787293295059
3108.0,0.0026986138188025495
3107.0,0.0026830730900235665
3106.0,0.0026702181061787752
3105.0,0.0026627242996085103
3104.0,0.002660028362485575
3103.0,0.002657600276461271
3102.0,0.0026503542248053416
3101.0,0.0026379046073314832
3100.0,0.002625781917432009
3099.0,0.002619732331963058
3098.0,0.002618843258519528
3097.0,0.0026153972485764994
3096.0,0.0026018927161795937
3095.0,0.002578512220249001
3094.0,0.0025534069724126077
3093.0,0.0025357631824654042
3092.0,0.0025290608767650265
3091.0,0.0025298280169948574
3090.0,0.0025315558897227915
3089.0,0.0025301211140797597
3088.0,0.002526337763944173
3087.0,0.0025235865989740956
3086.0,0.0025229676110874798
3085.0,0.002521504760372357
3084.0,0.002515334923938915
3083.0,0.0025037651880222022
3082.0,0.0024898631432032073
3081.0,0.00247780027580002
3080.0,0.0024703363248190766
3079.0,0.0024676319164987953
3078.0,0.002466853733402576
3077.0,0.002463612666552222
3076.0,0.0024555036997835236
3075.0,0.002444424517555384
3074.0,0.0024340329444515842
3073.0,0.0024253280348488435
3072.0,0.002416396885754235
3071.0,0.002406292293649427
3070.0,0.002397448125198122
3069.0,0.0023935323363154424
3068.0,0.002396332281793602
3067.0,0.0024048389264541736
3066.0,0.002415157893163501
3065.0,0.0024206511845052165
3064.0,0.0024145498404105573
3063.0,0.0023953073315975473
3062.0,0.002369798983129232
3061.0,0.0023501180240758147
3060.0,0.002346075634815732
3059.0,0.0023586555095840914
3058.0,0.002379249220476815
3057.0,0.0023958740558671873
3056.0,0.002401610266391352
3055.0,0.0023980359600053024
3054.0,0.002390278893712201
3053.0,0.0023807978403693865
3052.0,0.002370365710460482
3051.0,0.0023625179361621944
3050.0,0.0023628546451841255
3049.0,0.002372672574491958
3048.0,0.0023862611880875262
3047.0,0.002396484973968911
3046.0,0.0024004878810183605
3045.0,0.0023988528075471714
3044.0,0.0023923515943064
3043.0,0.0023825481260214333
3042.0,0.0023737518349986934
3041.0,0.0023705793736543902
3040.0,0.002373028704892073
3039.0,0.0023758355463692916
3038.0,0.002373725703259201
3037.0,0.0023669201960568225
3036.0,0.002361527535195223
3035.0,0.0023644488481611666
3034.0,0.00237675966245807
3033.0,0.0023921950029202423
3032.0,0.002403103802429436
3031.0,0.002408380383536475
3030.0,0.0024139984082481914
3029.0,0.002424856408010457
3028.0,0.002439197312629239
3027.0,0.0024521428583773536
3026.0,0.0024627791486198703
3025.0,0.0024757212911895917
3024.0,0.002496039877013674
3023.0,0.0025242885344792746
3022.0,0.0025555854809411636
3021.0,0.002582612134013022
3020.0,0.002601073595953736
3019.0,0.002614008679732994
3018.0,0.002630525112614398
3017.0,0.0026581116913573146
3016.0,0.002695882364410194
3015.0,0.002736231644126398
3014.0,0.002772180512883466
3013.0,0.002802711936345343
3012.0,0.002831987323252756
3011.0,0.0028654403982669462
3010.0,0.002906332196461329
3009.0,0.00295401534131994
3008.0,0.0030049663396834523
3007.0,0.0030557797570989623
3006.0,0.0031054162355467294
3005.0,0.0031552291343280073
3004.0,0.003208333050663003
3003.0,0.0032696154599195235
3002.0,0.0033445329923338023
3001.0,0.0034351426385929367
3000.0,0.003537059974121251
2999.0,0.0036416750946040408
2998.0,0.003742297568046231
2997.0,0.00383904984244802
2996.0,0.003938725026713763
2995.0,0.004050713234789023
2994.0,0.0041818871105592514
2993.0,0.0043335357145328195
2992.0,0.004503001048786241
2991.0,0.004688377530057094
2990.0,0.004891857428756621
2989.0,0.005118908729000318
2988.0,0.005375110355085256
2987.0,0.005664409993245199
2986.0,0.005989559095817334
2985.0,0.006353895700972377
2984.0,0.00676339593434478
2983.0,0.007227354166463759
2982.0,0.0077557987235493476
2981.0,0.008355517582081778
2980.0,0.009029948743203217
2979.0,0.009783834029530801
2978.0,0.01062791823482058
2977.0,0.011579791121890151
2976.0,0.012662141147835919
2975.0,0.013898942804098945
2974.0,0.015310149742826207
2973.0,0.01690805127110149
2972.0,0.018697925363413425
2971.0,0.020682091801649292
2970.0,0.02286068246188622
2969.0,0.025227074766110226
2968.0,0.027761553788080765
2967.0,0.030426017788353375
2966.0,0.033159226866065775
2965.0,0.03587026618617911
2964.0,0.03844223904398628
2963.0,0.04075215485559616
2962.0,0.04270920613228182
2961.0,0.044302918480553274
2960.0,0.04562786731569364
2959.0,0.0468671325386325
2958.0,0.04824410369684585
2957.0,0.04997267200893703
2956.0,0.05221106343162516
2955.0,0.05500837450509507
2954.0,0.05825593445104138
2953.0,0.06167098703003995
2952.0,0.06482366668892887
2951.0,0.06721392815597946
2950.0,0.06837494366457975
2949.0,0.06798457818969986
2948.0,0.06596341399049722
2947.0,0.06249885609318499
2946.0,0.058001233709756496
2945.0,0.05300672014617368
2944.0,0.048060583011728074
2943.0,0.04360847053918862
2942.0,0.03993060887591338
2941.0,0.03714958563449881
2940.0,0.035271556836958304
2939.0,0.034240116295665694
2938.0,0.03397574746401716
2937.0,0.03439502924343901
2936.0,0.03542761048005664
2935.0,0.037020400790336756
2934.0,0.039128991347343094
2933.0,0.04170899698065476
2932.0,0.04471054560593361
2931.0,0.04807033440786907
2930.0,0.05169914839729032
2929.0,0.05548023416799302
2928.0,0.059291842291598694
2927.0,0.06304122430097606
2926.0,0.066684890551724
2925.0,0.07023560944913712
2924.0,0.07375173333063437
2923.0,0.07729285369099877
2922.0,0.08085318292694561
2921.0,0.08430586874083078
2920.0,0.08739275501972399
2919.0,0.08975669393578796
2918.0,0.09103232822782599
2917.0,0.09097974694794321
2916.0,0.0895990991675149
2915.0,0.08713700849868462
2914.0,0.08398047931516425
2913.0,0.08053852196776914
2912.0,0.07714610841679637
2911.0,0.07400494026002347
2910.0,0.07117266812180673
2909.0,0.0686022970135229
2908.0,0.06620323520308201
2907.0,0.06388669903928106
2906.0,0.06158730501711217
2905.0,0.059272923368015394
2904.0,0.05694676903420857
2903.0,0.054631692666062624
2902.0,0.052353239790155624
2901.0,0.05013496701672239
2900.0,0.04800132440454316
2899.0,0.04597703794709333
2898.0,0.044084396614997516
2897.0,0.042349083401399916
2896.0,0.04080452316769747
2895.0,0.03948351915496656
2894.0,0.038404941817071166
2893.0,0.03757071796284996
2892.0,0.036971865736895766
2891.0,0.03659172158962634
2890.0,0.03640581555247051
2889.0,0.036384904590478696
2888.0,0.036501541787464946
2887.0,0.03673422867286731
2886.0,0.03707017998391218
2885.0,0.037512783386962005
2884.0,0.03808384668984811
2883.0,0.03880772073703409
2882.0,0.03968114718741982
2881.0,0.04065059551217987
2880.0,0.04161227798545866
2879.0,0.04242984374104616
2878.0,0.04297465431473658
2877.0,0.04318227064868177
2876.0,0.04309795186626866
2875.0,0.04286716385444055
2874.0,0.042672826642058216
2873.0,0.042668625808114716
2872.0,0.04294077468498403
2871.0,0.04349806954001882
2870.0,0.04426822721563896
2869.0,0.04508756050283208
2868.0,0.045703791382942345
2867.0,0.045807912402992305
2866.0,0.045106801187023586
2865.0,0.043432983261485036
2864.0,0.04083069814864959
2863.0,0.037556554613770214
2862.0,0.033986011937175556
2861.0,0.03049141761583698
2860.0,0.027348713547081543
2859.0,0.024704310247658998
2858.0,0.02259686120514272
2857.0,0.020999576750311732
2856.0,0.019858616837938624
2855.0,0.01911499560680275
2854.0,0.018716771411791684
2853.0,0.018629627041682497
2852.0,0.018841049894583232
2851.0,0.01935311721527729
2850.0,0.020169852256119485
2849.0,0.021291616237686044
2848.0,0.02271855265705625
2847.0,0.024451480945545882
2846.0,0.02648080404470106
2845.0,0.028772330554097707
2844.0,0.03125993526510241
2843.0,0.03384047577566925
2842.0,0.036369883290640094
2841.0,0.0386642234914281
2840.0,0.04051469278812673
2839.0,0.04170767563948245
2838.0,0.04205276774435341
2837.0,0.041427585683108406
2836.0,0.03983109382683182
2835.0,0.03740725513478483
2834.0,0.0344176351682532
2833.0,0.031176860507957146
2832.0,0.02797669140358402
2831.0,0.025032029612601505
2830.0,0.022459297707118804
2829.0,0.020288763886871754
2828.0,0.018495625271529877
2827.0,0.017026673264530362
2826.0,0.015820463364158724
2825.0,0.014817178155495252
2824.0,0.013966498035015543
2823.0,0.013233482798571623
2822.0,0.012597984321449446
2821.0,0.012047609463931526
2820.0,0.011570785465065863
2819.0,0.01115578037048602
2818.0,0.0107926459032768
2817.0,0.010472118428313918
2816.0,0.010182989363712407
2815.0,0.009913584874703651
2814.0,0.009656605312586016
2813.0,0.009410675035536165
2812.0,0.009176249994237369
2811.0,0.008950268662800631
2810.0,0.008725052944980443
2809.0,0.008491636757656146
2808.0,0.00824413887702866
2807.0,0.007982764829417701
2806.0,0.007713707146855217
2805.0,0.007445900500494152
2804.0,0.007187631529682877
2803.0,0.006945187890371843
2802.0,0.006722989325551663
2801.0,0.00652304385073679
2800.0,0.006344568999221675
2799.0,0.006185727431177263
2798.0,0.006045307192746617
2797.0,0.005921327685739288
2796.0,0.005808567570023617
2795.0,0.005699937399084781
2794.0,0.005590544539799409
2793.0,0.005478862062234283
2792.0,0.005363801315936493
2791.0,0.005243260692869091
2790.0,0.0051168670369552294
2789.0,0.004988294196656226
2788.0,0.004863020815314157
2787.0,0.004744049106487454
2786.0,0.00463104669512805
2785.0,0.004523040616892348
2784.0,0.004420789469895168
2783.0,0.0043266067843375135
2782.0,0.004242044595443692
2781.0,0.004165430977078769
2780.0,0.004091863952016461
2779.0,0.004016885208500146
2778.0,0.003940636110640271
2777.0,0.0038677657477173603
2776.0,0.003803287005581318
2775.0,0.0037490458517056096
2774.0,0.0037039013165441784
2773.0,0.003665636389645365
2772.0,0.003631987863615009
2771.0,0.0036013033221791537
2770.0,0.003573242984684704
2769.0,0.003547902029637636
2768.0,0.0035236128924036863
2767.0,0.0034967715827073087
2766.0,0.0034650999055450917
2765.0,0.0034301875777120313
2764.0,0.0033954065730255672
2763.0,0.0033618708775767663
2762.0,0.003327537460212433
2761.0,0.003290074478092648
2760.0,0.003249568826549011
2759.0,0.0032088237238611945
2758.0,0.0031724469626664238
2757.0,0.003145112052496938
2756.0,0.0031285517292570864
2755.0,0.003118982406491278
2754.0,0.0031089405053599363
2753.0,0.0030935461431800034
2752.0,0.0030746696104663627
2751.0,0.0030580169764778545
2750.0,0.003047136350559479
2749.0,0.003041686529812541
2748.0,0.0030407312079079275
2747.0,0.003044866502024671
2746.0,0.003054262104182319
2745.0,0.0030671977227546233
2744.0,0.0030826656187193766
2743.0,0.003103127430552703
2742.0,0.003132386130237907
2741.0,0.003170912815465566
2740.0,0.0032151361368818357
2739.0,0.0032614230462464687
2738.0,0.003309177218686634
2737.0,0.0033600836784673477
2736.0,0.0034155293770410343
2735.0,0.003474652622384182
2734.0,0.003534001554150845
2733.0,0.003589984197459301
2732.0,0.0036438596041359797
2731.0,0.0037039905610286
2730.0,0.003780716137031098
2729.0,0.0038778241875844525
2728.0,0.00399011256771573
2727.0,0.004108280198232601
2726.0,0.004223120553087174
2725.0,0.004324460943262413
2724.0,0.0043993929025769275
2723.0,0.004434837187236047
2722.0,0.004422876806882059
2721.0,0.0043641159226285725
2720.0,0.004267721367411181
2719.0,0.004148512344186823
2718.0,0.004021202442028643
2717.0,0.0038943908425978085
2716.0,0.0037704047530915425
2715.0,0.0036508575567410968
2714.0,0.0035402178143219584
2713.0,0.0034427213750737487
2712.0,0.003357699537879719
2711.0,0.0032810078542086624
2710.0,0.0032102616808409603
2709.0,0.0031456142009744976
2708.0,0.003085756718740298
2707.0,0.0030267877095023735
2706.0,0.002966768712345073
2705.0,0.0029092231395413362
2704.0,0.0028596782343206224
2703.0,0.0028192762345852513
2702.0,0.0027834782021666556
2701.0,0.0027473622676676673
2700.0,0.0027108333338790266
2699.0,0.002677920230306292
2698.0,0.00265182490590769
2697.0,0.002631876873841004
2696.0,0.002615454192703814
2695.0,0.002601331462021706
2694.0,0.0025902822514280196
2693.0,0.0025835074097764416
2692.0,0.0025817703012359864
2691.0,0.0025850128536027248
2690.0,0.002590813926092466
2689.0,0.002593927250343318
2688.0,0.0025901624707277897
2687.0,0.002581195056589413
2686.0,0.0025733857993209056
2685.0,0.002571245360997786
2684.0,0.0025741272229821443
2683.0,0.002579654313551756
2682.0,0.002587074568728111
2681.0,0.002595404069229808
2680.0,0.0026009609565303747
2679.0,0.002600081990716725
2678.0,0.002593380429578069
2677.0,0.0025851209930949906
2676.0,0.0025786196133747853
2675.0,0.0025737583186947535
2674.0,0.002568284379242328
2673.0,0.0025600250764859825
2672.0,0.002548567889354971
2671.0,0.002536397161207237
2670.0,0.0025280197789020824
2669.0,0.0025265553086062085
2668.0,0.002531358906918456
2667.0,0.002539988458568996
2666.0,0.0025519787723802807
2665.0,0.0025694390869304296
2664.0,0.00259413451780929
2663.0,0.002624593192995743
2662.0,0.002655483345613735
2661.0,0.002679710468314585
2660.0,0.0026926440903779388
2659.0,0.0026954920706793095
2658.0,0.0026937283885680075
2657.0,0.0026912704858629015
2656.0,0.0026871046807314166
2655.0,0.0026780549748307903
2654.0,0.0026629946735951524
2653.0,0.002643454018912009
2652.0,0.0026222706182625777
2651.0,0.0026033630537074907
2650.0,0.002590690993631742
2649.0,0.002584588092730275
2648.0,0.002580227826563023
2647.0,0.0025721711157002565
2646.0,0.0025595486113972376
2645.0,0.0025450961534349663
2644.0,0.002530658022290839
2643.0,0.0025162779123650172
2642.0,0.0025023268647027725
2641.0,0.00248916285933109
2640.0,0.0024754179435029764
2639.0,0.002460015789620106
2638.0,0.002445866582744244
2637.0,0.0024383790145399036
2636.0,0.0024398026911765956
2635.0,0.0024472607269972265
2634.0,0.0024565208274536887
2633.0,0.0024652029489520694
2632.0,0.002472372607240717
2631.0,0.0024779314791217046
2630.0,0.0024829539694038367
2629.0,0.002488550995749442
2628.0,0.002494378239858909
2627.0,0.002500591769058581
2626.0,0.002510597961919318
2625.0,0.00252784462280835
2624.0,0.0025489189302940326
2623.0,0.002564165133433004
2622.0,0.0025678527249129624
2621.0,0.0025652519404146734
2620.0,0.00256655029604867
2619.0,0.0025749636974351058
2618.0,0.002584354442010969
2617.0,0.002588446421360204
2616.0,0.0025890018036126483
2615.0,0.002592427279521615
2614.0,0.0025991700395465614
2613.0,0.002599687036425954
2612.0,0.0025831049784495242
2611.0,0.0025489118731434907
2610.0,0.002507765306056546
2609.0,0.00247135234621869
2608.0,0.002443946832542741
2607.0,0.002424209518449203
2606.0,0.002410554318164435
2605.0,0.002400981133611665
2604.0,0.0023905532617686178
2603.0,0.0023738716913030873
2602.0,0.0023502616204684346
2601.0,0.0023240922860253395
2600.0,0.0023007453365213896
2599.0,0.002284727099670496
2598.0,0.002280113394342682
2597.0,0.00228845537645162
2596.0,0.002305804816474268
2595.0,0.0023254976616333954
2594.0,0.002344778884917542
2593.0,0.0023661575005453446
2592.0,0.0023921447649351483
2591.0,0.002421451232611649
2590.0,0.0024511607858540762
2589.0,0.002480347117127838
2588.0,0.002510718583305416
2587.0,0.0025454165316590423
2586.0,0.0025869792060935932
2585.0,0.0026337400843845517
2584.0,0.002677291272264964
2583.0,0.002705491207033694
2582.0,0.002709815108974802
2581.0,0.0026903753083508076
2580.0,0.002654851497339172
2579.0,0.002613824988127
2578.0,0.0025756009114188453
2577.0,0.0025419723844022314
2576.0,0.002508217514699126
2575.0,0.0024690361649261764
2574.0,0.002424672425729762
2573.0,0.0023799229874875752
2572.0,0.002338060750989667
2571.0,0.0022984254044646837
2570.0,0.002259773124390176
2569.0,0.0022226533969950677
2568.0,0.002187622546300425
2567.0,0.0021540845087305604
2566.0,0.0021226381542473207
2565.0,0.002096691877456101
2564.0,0.0020797880415362566
2563.0,0.002071846363358323
2562.0,0.0020687933728866714
2561.0,0.0020653162869828275
2560.0,0.002057766435303137
2559.0,0.0020451022430050276
2558.0,0.0020277914107367434
2557.0,0.002006876498836417
2556.0,0.0019852679192203025
2555.0,0.001968887374149522
2554.0,0.0019627436826297265
2553.0,0.001963964413733761
2552.0,0.0019618309400129424
2551.0,0.0019478505523376803
2550.0,0.0019240995696912957
2549.0,0.0018991719754243518
2548.0,0.0018780271838600556
2547.0,0.001859528118751591
2546.0,0.001842540404639756
2545.0,0.001829585515832948
2544.0,0.0018236193267193086
2543.0,0.0018240560616363665
2542.0,0.0018264029819938042
2541.0,0.001824004744031885
2540.0,0.0018110967675999364
2539.0,0.0017871640908256072
2538.0,0.0017584735856915128
2537.0,0.0017334248334226656
2536.0,0.001716730638871919
2535.0,0.0017091573064820465
2534.0,0.0017101229695025827
2533.0,0.0017165172037382577
2532.0,0.0017205099404453358
2531.0,0.001713933269417734
2530.0,0.0016962856377752862
2529.0,0.0016755751935312042
2528.0,0.0016602812317067406
2527.0,0.001652091163171318
2526.0,0.0016461952862274448
2525.0,0.0016364378141229489
2524.0,0.0016205692271563472
2523.0,0.0016028129657748803
2522.0,0.0015908918488331464
2521.0,0.0015884273757242253
2520.0,0.0015908666300468823
2519.0,0.0015906929386230416
2518.0,0.0015848592016154447
2517.0,0.0015745642289283364
2516.0,0.001560464205994668
2515.0,0.001542952159225238
2514.0,0.0015259090185432637
2513.0,0.0015146980822757729
2512.0,0.0015097681084843696
2511.0,0.0015063006547150445
2510.0,0.00150079302380962
2509.0,0.0014945323035750562
2508.0,0.0014902033506767338
2507.0,0.0014884174488131996
2506.0,0.0014880133807189371
2505.0,0.0014868556266704426
2504.0,0.001482461019233514
2503.0,0.0014750099844242214
2502.0,0.0014692766356328762
2501.0,0.0014699483269706628
2500.0,0.0014755905476513623
2499.0,0.0014814420040733423
2498.0,0.0014875101798131685
2497.0,0.0014982122362906536
2496.0,0.0015128470690217368
2495.0,0.0015220719135843827
2494.0,0.0015171459271622148
2493.0,0.0014994728388237507
2492.0,0.0014784123872099107
2491.0,0.0014622671520398774
2490.0,0.0014536131828371
2489.0,0.0014506989570928343
2488.0,0.0014502806171580302
2487.0,0.001449859540403973
2486.0,0.0014486943550136157
2485.0,0.0014464355696847575
2484.0,0.0014416776461491124
2483.0,0.0014343104123205428
2482.0,0.0014286748804427792
2481.0,0.0014302456360169406
2480.0,0.0014377780142651986
2479.0,0.0014423929966832262
2478.0,0.0014369483759383535
2477.0,0.0014238924721013588
2476.0,0.0014114872865542449
2475.0,0.0014044333414112847
2474.0,0.0014011554125352636
2473.0,0.0013988591730412464
2472.0,0.0013975989332911034
2471.0,0.0013987350542454308
2470.0,0.0014019002605856969
2469.0,0.0014053268645592967
2468.0,0.001408515686961105
2467.0,0.001412930455083472
2466.0,0.0014196184645191364
2465.0,0.00142749874685368
2464.0,0.0014351905346164568
2463.0,0.0014432515092640049
2462.0,0.0014522569803736632
2461.0,0.0014593215619277066
2460.0,0.0014600048448298578
2459.0,0.0014546542968238557
2458.0,0.0014499126755315496
2457.0,0.0014525058444635123
2456.0,0.0014638112308781959
2455.0,0.001480948974057778
2454.0,0.0014990970564138105
2453.0,0.0015111669845513935
2452.0,0.0015108453327451455
2451.0,0.001500728731309288
2450.0,0.0014936662831539149
2449.0,0.0015002668502233415
2448.0,0.001516616884411147
2447.0,0.0015290092489815938
2446.0,0.001529061585320253
2445.0,0.0015194800181234781
2444.0,0.0015070396701567994
2443.0,0.0014959098677572212
2442.0,0.0014875664620721538
2441.0,0.0014816860545007044
2440.0,0.001476051515388619
2439.0,0.0014692002171838557
2438.0,0.0014631370416873415
2437.0,0.0014601939991455701
2436.0,0.0014586909269321798
2435.0,0.001456372048522203
2434.0,0.001456711152622976
2433.0,0.0014654833323614349
2432.0,0.0014804819457386108
2431.0,0.0014906406055057086
2430.0,0.0014876018236018057
2429.0,0.0014743001038515957
2428.0,0.0014608929195112795
2427.0,0.0014557846330759275
2426.0,0.0014610938700665094
2425.0,0.0014722321870238048
2424.0,0.0014802566212530873
2423.0,0.0014785787151793941
2422.0,0.0014692143614717544
2421.0,0.0014596675917078164
2420.0,0.001453120070196834
2419.0,0.0014452936228967193
2418.0,0.0014316341577609373
2417.0,0.0014135464950905453
2416.0,0.001396341126744507
2415.0,0.001384615858920831
2414.0,0.0013807527869744054
2413.0,0.0013840623173691918
2412.0,0.001389554720918903
2411.0,0.0013906447097734647
2410.0,0.0013847166465975418
2409.0,0.0013738417270859893
2408.0,0.0013599795817108777
2407.0,0.0013433081253250946
2406.0,0.001325949939495199
2405.0,0.0013126197205498697
2404.0,0.0013053178101478718
2403.0,0.0013006991303142522
2402.0,0.0012942820586668053
2401.0,0.0012842213523295218
2400.0,0.0012701270811947606
2399.0,0.0012524742972248302
2398.0,0.0012353613426392207
2397.0,0.0012258529887852994
2396.0,0.0012271263266805735
2395.0,0.0012345506076763106
2394.0,0.0012410086777408348
2393.0,0.0012436433635112712
2392.0,0.0012432699250366436
2391.0,0.0012400851127719003
2390.0,0.0012331964765238813
2389.0,0.0012231735952959685
2388.0,0.0012125595101092773
2387.0,0.001204118039457642
2386.0,0.001199265779084447
2385.0,0.0011966497047081269
2384.0,0.0011914598395185532
2383.0,0.0011784510353352346
2382.0,0.001157400024811734
2381.0,0.0011342081684051022
2380.0,0.0011153763913580009
2379.0,0.00110295745581835
2378.0,0.0010962049798941542
2377.0,0.001094878247354595
2376.0,0.0010977326800033448
2375.0,0.0011008196447839735
2374.0,0.0011012828625373762
2373.0,0.0011003529375522793
2372.0,0.001098591705695884
2371.0,0.0010921336059458626
2370.0,0.0010801930946141168
2369.0,0.0010714660192114396
2368.0,0.0010730110546824183
2367.0,0.001077361808074689
2366.0,0.0010742437203111192
2365.0,0.001072106239111195
2364.0,0.001088905132655432
2363.0,0.0011206487006337675
2362.0,0.0011420042526889987
2361.0,0.001141757854835433
2360.0,0.0011369743899781455
2359.0,0.0011427405519372404
2358.0,0.0011453226969786975
2357.0,0.0011235892077885701
2356.0,0.001083940382950126
2355.0,0.001055727039731973
2354.0,0.0010561302271350163
2353.0,0.0010737046814558416
2352.0,0.0010874493904361624
2351.0,0.0010885081182505363
2350.0,0.0010797830821803868
2349.0,0.0010660494899375906
2348.0,0.0010525201504447506
2347.0,0.0010483504463576793
2346.0,0.0010640660213894287
2345.0,0.0011024832950109194
2344.0,0.0011483728409192803
2343.0,0.001177633484133957
2342.0,0.0011814619056710713
2341.0,0.0011743381221190569
2340.0,0.0011775323080175577
2339.0,0.0011970793957968191
2338.0,0.001220785914401128
2337.0,0.0012324420179519594
2336.0,0.001226697742204946
2335.0,0.0012088942917182653
2334.0,0.001185797023498503
2333.0,0.0011604428143709214
2332.0,0.0011372224884671756
2331.0,0.0011237340969790658
2330.0,0.001127166749644551
2329.0,0.0011532480465272024
2328.0,0.0012135409667883511
2327.0,0.0013246632835872334
2326.0,0.0014856833773922466
2325.0,0.0016581432502959328
2324.0,0.0017797709789549275
2323.0,0.0018101941421161624
2322.0,0.0017633991457087453
2321.0,0.0016858809628938888
2320.0,0.0016130483405883665
2319.0,0.0015556155122181255
2318.0,0.001515961242202237
2317.0,0.0014952467754815106
2316.0,0.0014874905384222859
2315.0,0.001481162438576708
2314.0,0.0014720760096622475
2313.0,0.001467080285175555
2312.0,0.0014725923873685045
2311.0,0.001485350950920067
2310.0,0.0014972149884003342
2309.0,0.001503413443388441
2308.0,0.0015037466177098419
2307.0,0.001500479141645088
2306.0,0.0014978356401933771
2305.0,0.0014999180424112401
2304.0,0.0015075960969148374
2303.0,0.0015187733371342738
2302.0,0.0015314233406504016
2301.0,0.001542835413717672
2300.0,0.001547995485495735
2299.0,0.001544410094538832
2298.0,0.001539842076629422
2297.0,0.0015483522747227146
2296.0,0.0015757265464815542
2295.0,0.0016125868556904487
2294.0,0.0016447963663927256
2293.0,0.0016666294418139186
2292.0,0.0016813205773735678
2291.0,0.001694448533119619
2290.0,0.0017117222294432378
2289.0,0.0017399318768203794
2288.0,0.0017820580997095613
2287.0,0.0018300259602239428
2286.0,0.0018672052994992932
2285.0,0.0018805003049408094
2284.0,0.0018697836169673334
2283.0,0.0018445872065379874
2282.0,0.001814132621930835
2281.0,0.0017811863748647162
2280.0,0.001744062852689758
2279.0,0.001702670683095397
2278.0,0.001662213698363018
2277.0,0.001630896822134779
2276.0,0.0016146114247980702
2275.0,0.001614600736667386
2274.0,0.0016291522933993268
2273.0,0.0016546834005223506
2272.0,0.0016841165143694715
2271.0,0.001706956514172619
2270.0,0.001713846496462226
2269.0,0.0017024412436930088
2268.0,0.0016797840030899317
2267.0,0.0016579780395951868
2266.0,0.0016459331392472704
2265.0,0.0016431096006177227
2264.0,0.001642156649050666
2263.0,0.001638221094679862
2262.0,0.0016340191052692807
2261.0,0.0016343058769051587
2260.0,0.0016384182374261558
2259.0,0.0016411255608469427
2258.0,0.001638339204713628
2257.0,0.0016278936194788882
2256.0,0.0016078302170411858
2255.0,0.0015803853451173027
2254.0,0.0015575346544135773
2253.0,0.0015542634432196309
2252.0,0.001572236554445158
2251.0,0.001593853236056374
2250.0,0.0015976955456154943
2249.0,0.0015796443483829183
2248.0,0.0015581830652656955
2247.0,0.0015577640394661666
2246.0,0.0015865726673077584
2245.0,0.0016286193271096321
2244.0,0.001658925733997985
2243.0,0.0016669086278381022
2242.0,0.001662880440331284
2241.0,0.0016618233500320895
2240.0,0.0016653363962169465
2239.0,0.0016638772721332589
2238.0,0.0016526878323784224
2237.0,0.001639594069663615
2236.0,0.0016368646883482228
2235.0,0.0016490271585819715
2234.0,0.001669059817195972
2233.0,0.0016843928017054026
2232.0,0.0016891187335594559
2231.0,0.0016912498173051352
2230.0,0.0017038003227603609
2229.0,0.0017257514026413387
2228.0,0.0017383270387215544
2227.0,0.0017269173549217516
2226.0,0.0017001213584597614
2225.0,0.0016787331489922772
2224.0,0.0016691262221285484
2223.0,0.001658580557521414
2222.0,0.0016366408781892188
2221.0,0.0016101319582581114
2220.0,0.001594623010992577
2219.0,0.0015993513160318196
2218.0,0.0016223472713872958
2217.0,0.00165200977460551
2216.0,0.0016702778779348869
2215.0,0.0016634388720561516
2214.0,0.0016352884933993797
2213.0,0.0016064372567834238
2212.0,0.0015960313893580273
2211.0,0.0016054615199979677
2210.0,0.0016215265914240164
2209.0,0.001631024349638165
2208.0,0.001630878795412494
2207.0,0.0016274249710966997
2206.0,0.0016282429253031282
2205.0,0.001634850208334594
2204.0,0.001643749901773544
2203.0,0.001654818223361952
2202.0,0.00167392596765491
2201.0,0.001703481285191125
2200.0,0.001734672880251984
2199.0,0.0017555657697653948
2198.0,0.0017648726418993982
2197.0,0.001772543876383398
2196.0,0.0017885882544963518
2195.0,0.0018155757380936422
2194.0,0.0018494046581130537
2193.0,0.0018819954307431716
2192.0,0.0019052651685467273
2191.0,0.0019175935546907885
2190.0,0.0019244561335343647
2189.0,0.0019296973785244422
2188.0,0.0019304215286987318
2187.0,0.0019239539858047973
2186.0,0.0019128965619508692
2185.0,0.0018959511245836699
2184.0,0.001860912568517002
2183.0,0.0017995993984011346
2182.0,0.0017285967910477742
2181.0,0.0016822143770800584
2180.0,0.0016800878927260188
2179.0,0.001708713479119336
2178.0,0.0017363952343802823
2177.0,0.0017410287269875111
2176.0,0.0017268213066336164
2175.0,0.001719879699840185
2174.0,0.0017448752468931608
2173.0,0.0018023143952697882
2172.0,0.0018718963500500853
2171.0,0.0019384238992101188
2170.0,0.0020039956584964424
2169.0,0.0020723259611473066
2168.0,0.002136793910058262
2167.0,0.0021942179243275074
2166.0,0.002258217611985583
2165.0,0.0023446380619675756
2164.0,0.0024470299764881753
2163.0,0.0025315372931447376
2162.0,0.0025400951545941474
2161.0,0.002393115016173536
2160.0,0.0020315204450267435
2159.0,0.0015047879255931206
2158.0,0.0009962396646287488
2157.0,0.000691563452033106
2156.0,0.0006234921269043406
2155.0,0.0006877135071092566
2154.0,0.000777471604785857
2153.0,0.000855009352416058
2152.0,0.0009251821526897872
2151.0,0.000990372901929801
2150.0,0.001040498242522486
2149.0,0.001063184747943883
2148.0,0.0010523392705514695
2147.0,0.0010163673587483542
2146.0,0.0009795089935278167
2145.0,0.0009625666193767315
2144.0,0.0009621082162307473
2143.0,0.0009611609079491036
2142.0,0.0009571377205792005
2141.0,0.0009628301499872849
2140.0,0.0009814878602122728
2139.0,0.0009972871518637639
2138.0,0.0009909262858878562
2137.0,0.0009505258303466606
2136.0,0.0008718194749562231
2135.0,0.0007663269956780052
2134.0,0.0006715269703860523
2133.0,0.0006307947856271513
2132.0,0.000655269821838707
2131.0,0.0007169555285857394
2130.0,0.0007831617108848579
2129.0,0.0008426364978385472
2128.0,0.0008983901362741172
2127.0,0.0009504093937648388
2126.0,0.000994844525866418
2125.0,0.001031085861960635
2124.0,0.0010609148193201768
2123.0,0.0010844106436671155
2122.0,0.0011018540873488029
2121.0,0.0011167099859601091
2120.0,0.001133919496035477
2119.0,0.0011586758271922586
2118.0,0.0011971925547381956
2117.0,0.001251840155026332
2116.0,0.001312985968606132
2115.0,0.0013617124720107243
2114.0,0.001384803529474926
2113.0,0.0013834009334037212
2112.0,0.001366556320341029
2111.0,0.0013423232720130654
2110.0,0.0013180602354713443
2109.0,0.00130105134475555
2108.0,0.0012928768107521354
2107.0,0.0012883745752153156
2106.0,0.001285210836451007
2105.0,0.0012892279481274427
2104.0,0.0013046591318032926
2103.0,0.001323943009972116
2102.0,0.0013345201913636084
2101.0,0.001333454124739614
2100.0,0.0013284964207288994
2099.0,0.0013232380510438228
2098.0,0.0013068990533515081
2097.0,0.0012637683601209886
2096.0,0.001194101993583778
2095.0,0.0011223010972393006
2094.0,0.001080445210732109
2093.0,0.001081369409394551
2092.0,0.0011114605167149654
2091.0,0.001149030798088166
2090.0,0.0011838551277610371
2089.0,0.0012161608124583816
2088.0,0.001245362105855257
2087.0,0.001269217554275185
2086.0,0.0012903815440900518
2085.0,0.0013137288032584907
2084.0,0.001336855434066782
2083.0,0.0013514106951027548
2082.0,0.0013555408825604053
2081.0,0.0013581698217267912
2080.0,0.0013685168043752456
2079.0,0.001385815028503872
2078.0,0.001401244579547176
2077.0,0.0014049747063342667
2076.0,0.0013908897393746721
2075.0,0.001359868150717224
2074.0,0.0013214258093667225
2073.0,0.0012895264881612526
2072.0,0.0012740968705292762
2071.0,0.001276372579870217
2070.0,0.0012894758391061205
2069.0,0.0013007715285415131
2068.0,0.0013000112559942438
2067.0,0.0012910027244413592
2066.0,0.0012896093892047415
2065.0,0.0013032904068776335
2064.0,0.0013186085172999706
2063.0,0.0013200382591809065
2062.0,0.0013119913107761646
2061.0,0.0013098373836429253
2060.0,0.001317785281306109
2059.0,0.0013287897515695361
2058.0,0.001340072471729852
2057.0,0.0013523472768608106
2056.0,0.0013606561264588588
2055.0,0.0013687758399613004
2054.0,0.0014104177296536938
2053.0,0.0015249666471110748
2052.0,0.0016994504604960583
2051.0,0.0018548259656097274
2050.0,0.0019064434713215964
2049.0,0.0018397169315506124
2048.0,0.0017204488824256146
2047.0,0.001626593212074464
2046.0,0.0015853868043665621
2045.0,0.0015774290750772768
2044.0,0.0015760911821405472
2043.0,0.001570919639774806
2042.0,0.001563314216376164
2041.0,0.0015546150148872163
2040.0,0.001545569364571258
2039.0,0.0015436093399185757
2038.0,0.001558272603585658
2037.0,0.0015830579722596431
2036.0,0.0015920108688703334
2035.0,0.0015675545857953927
2034.0,0.0015242828454541898
2033.0,0.0014897361886985427
2032.0,0.0014684878301878365
2031.0,0.0014458253029140937
2030.0,0.0014197994278167213
2029.0,0.0014028112617107422
2028.0,0.0013931629221125535
2027.0,0.0013738114953549686
2026.0,0.0013452519212417927
2025.0,0.0013326400025526312
2024.0,0.0013504568524463725
2023.0,0.001383221057544125
2022.0,0.0014109824546461693
2021.0,0.0014310030163680431
2020.0,0.0014425277473917395
2019.0,0.001430691439477181
2018.0,0.0013849447129618848
2017.0,0.0013249064054577696
2016.0,0.0012868461095517055
2015.0,0.0012862856053977448
2014.0,0.0013120421347298332
2013.0,0.0013472770384484944
2012.0,0.0013818073618954052
2011.0,0.0014095065352392692
2010.0,0.0014213150817458582
2009.0,0.0014029860055537794
2008.0,0.0013452784774106426
2007.0,0.0012617566129561218
2006.0,0.001189434698888297
2005.0,0.0011597012816572903
2004.0,0.0011700750205105436
2003.0,0.0011951599794565945
2002.0,0.0012188177915754379
2001.0,0.0012419899535024027
2000.0,0.001266295425596857
1999.0,0.0012887642434435413
1998.0,0.00131258346782731
1997.0,0.00134496942489713
1996.0,0.0013811370101887619
1995.0,0.0014054006708199018
1994.0,0.0014115241393264726
1993.0,0.001412109129767207
1992.0,0.0014244219125037227
1991.0,0.0014528933938303366
1990.0,0.0014900314190311793
1989.0,0.0015241650482135853
1988.0,0.0015429492027726273
1987.0,0.0015438232341133255
1986.0,0.0015438855267462237
1985.0,0.0015667072208447883
1984.0,0.0016196185653070995
1983.0,0.0016955718435959868
1982.0,0.00179061293408616
1981.0,0.0018955212261934236
1980.0,0.0019671282554954684
1979.0,0.00193880715779548
1978.0,0.0017862558507611911
1977.0,0.0015711392590816147
1976.0,0.0013890189898318433
1975.0,0.0012825202729972185
1974.0,0.0012310551797588467
1973.0,0.0012017445304941374
1972.0,0.0011796971203900343
1971.0,0.0011616307435730678
1970.0,0.0011470976329621286
1969.0,0.0011398030656223585
1968.0,0.0011464055712095912
1967.0,0.0011697495665727324
1966.0,0.0012047262535387468
1965.0,0.0012384300567587763
1964.0,0.0012521651203430825
1963.0,0.0012286839926081987
1962.0,0.0011646990764983742
1961.0,0.0010770237808046233
1960.0,0.0009928248608090924
1959.0,0.0009346780704902701
1958.0,0.0009131115174928754
1957.0,0.0009232682754373347
1956.0,0.0009468987411199148
1955.0,0.0009660077354138942
1954.0,0.0009762776445362762
1953.0,0.000982667704188465
1952.0,0.0009861065612359985
1951.0,0.0009833281005828568
1950.0,0.000976436071050464
1949.0,0.0009717554945179271
1948.0,0.0009690793057062749
1947.0,0.0009617825026734119
1946.0,0.0009492160590842926
1945.0,0.0009408523264404506
1944.0,0.0009462642256690194
1943.0,0.000965456894549597
1942.0,0.000988241689767145
1941.0,0.0010013140793951709
1940.0,0.0009967602554528238
1939.0,0.000977114011671215
1938.0,0.0009540559690946998
1937.0,0.0009373434007976981
1936.0,0.0009242297037627304
1935.0,0.0009071734458151742
1934.0,0.0008894814354846666
1933.0,0.000882692898052726
1932.0,0.0008896221158077595
1931.0,0.000900417974738843
1930.0,0.0009051539260372719
1929.0,0.0009012570159934104
1928.0,0.000890045467949083
1927.0,0.0008756493100752613
1926.0,0.0008675504984900289
1925.0,0.0008754337539122186
1924.0,0.0008976153395754198
1923.0,0.0009190147651981319
1922.0,0.0009279241663975786
1921.0,0.0009286634771748971
1920.0,0.000931386931856133
1919.0,0.0009415425269847713
1918.0,0.0009571855495249306
1917.0,0.0009686359333326296
1916.0,0.0009667140293530753
1915.0,0.0009532108228758961
1914.0,0.0009401382768416959
1913.0,0.0009376534801098234
1912.0,0.0009429138971887499
1911.0,0.000946038994232572
1910.0,0.0009457328651573122
1909.0,0.0009492460479321911
1908.0,0.0009570037106668003
1907.0,0.0009610468377787845
1906.0,0.0009600160711122994
1905.0,0.0009624856055272627
1904.0,0.0009731967255427656
1903.0,0.0009856986342460796
1902.0,0.0009919671316352843
1901.0,0.0009911431782558817
1900.0,0.0009861240139678604
1899.0,0.0009794711936710247
1898.0,0.0009756661861693649
1897.0,0.0009797563095729448
1896.0,0.0009893851024174488
1895.0,0.000994199682223103
1894.0,0.0009884777999119778
1893.0,0.000976816507334015
1892.0,0.0009643485937114762
1891.0,0.0009520108340730722
1890.0,0.0009427006549967791
1889.0,0.0009426618287775977
1888.0,0.0009514580158206256
1887.0,0.0009598808148438257
1886.0,0.000961274031807485
1885.0,0.0009567598928333836
1884.0,0.0009504191741043318
1883.0,0.0009447808262555652
1882.0,0.0009415537746040077
1881.0,0.0009406807646439311
1880.0,0.0009367776903719677
1879.0,0.0009235244069821231
1878.0,0.000903629549849304
1877.0,0.0008885140497340069
1876.0,0.0008858064546361343
1875.0,0.0008929723688018681
1874.0,0.0009041009904521
1873.0,0.0009153932122410543
1872.0,0.0009228782584725386
1871.0,0.0009222923471624056
1870.0,0.0009148283132327325
1869.0,0.0009077996362411181
1868.0,0.000903683774015505
1867.0,0.000897230057698898
1866.0,0.000887281218998725
1865.0,0.0008799223054510309
1864.0,0.0008796758083647109
1863.0,0.0008849327736148316
1862.0,0.0008917233371380874
1861.0,0.0008973501234308764
1860.0,0.0008989752895953835
1859.0,0.000893797420911993
1858.0,0.0008839312409457623
1857.0,0.0008774602541712355
1856.0,0.0008810875563009925
1855.0,0.0008937361024751322
1854.0,0.0009079442439828495
1853.0,0.0009136523149628625
1852.0,0.000903888124412545
1851.0,0.0008826796656238735
1850.0,0.0008656826913757812
1849.0,0.000867426863193439
1848.0,0.0008846703956281359
1847.0,0.00089988547470045
1846.0,0.0009019296153099017
1845.0,0.000896258098217625
1844.0,0.0008936600625522356
1843.0,0.0008951109861168193
1842.0,0.0008975157100222898
1841.0,0.0009012777771508143
1840.0,0.0009045674858728162
1839.0,0.0009025440240706431
1838.0,0.0008951427127343982
1837.0,0.000889514559653212
1836.0,0.0008900929636489335
1835.0,0.0008929899567286452
1834.0,0.0008941644552712067
1833.0,0.0008950040095565181
1832.0,0.000898379780895144
1831.0,0.0009050744012153292
1830.0,0.0009129293395720325
1829.0,0.0009187246085403837
1828.0,0.0009208360717485751
1827.0,0.0009182542481998423
1826.0,0.0009130721581396112
1825.0,0.0009096807226532739
1824.0,0.000907310237342862
1823.0,0.0009000141549712263
1822.0,0.0008852795269367579
1821.0,0.0008654440263804076
1820.0,0.0008415136282179972
1819.0,0.0008120292999688416
1818.0,0.0007812669998368385
1817.0,0.0007628017759820913
1816.0,0.000765852328522936
1815.0,0.000783178350468109
1814.0,0.0008007192441361994
1813.0,0.0008115964680433368
1812.0,0.0008176876351198562
1811.0,0.0008233195903576396
1810.0,0.0008300446775018925
1809.0,0.0008362183023285687
1808.0,0.0008389768044368021
1807.0,0.0008371198241156515
1806.0,0.0008337301655000508
1805.0,0.0008343738697728987
1804.0,0.0008414553487588062
1803.0,0.0008521774078583356
1802.0,0.0008620762976852443
1801.0,0.0008677820421087713
1800.0,0.0008685956507345271
1799.0,0.0008681553975280402
1798.0,0.0008727859581648196
1797.0,0.0008859752812062635
1796.0,0.0009022247959560724
1795.0,0.0009105824720041058
1794.0,0.0009076572505606599
1793.0,0.0009045126898559246
1792.0,0.0009125376476505441
1791.0,0.0009248119581194563
1790.0,0.0009307632509223032
1789.0,0.0009315060586917821
1788.0,0.0009307752761266943
1787.0,0.0009278233703079406
1786.0,0.0009211482564224634
1785.0,0.0009135716044272451
1784.0,0.0009089047256587355
1783.0,0.0009066965243778436
1782.0,0.0009065946277833191
1781.0,0.0009119770212749237
1780.0,0.0009232141440928423
1779.0,0.0009328873023324698
1778.0,0.0009343228056608513
1777.0,0.0009297339648307389
1776.0,0.0009261815700049786
1775.0,0.0009276561751353974
1774.0,0.0009343259487402288
1773.0,0.0009467578223286308
1772.0,0.0009607080858658054
1771.0,0.0009679025263632064
1770.0,0.0009690163154279021
1769.0,0.0009709762955872752
1768.0,0.0009782971301734711
1767.0,0.000989198992787087
1766.0,0.0009982306173632052
1765.0,0.0010026339626361543
1764.0,0.0010042850506099376
1763.0,0.0010095665362492125
1762.0,0.0010255205559225227
1761.0,0.0010487205006222786
1760.0,0.0010676923273069932
1759.0,0.0010786559199688437
1758.0,0.0010900183770712385
1757.0,0.0011122799464512304
1756.0,0.0011425168781067742
1755.0,0.001167971517998929
1754.0,0.0011842327708739364
1753.0,0.0011969395608251096
1752.0,0.001213414755333474
1751.0,0.0012363353795160118
1750.0,0.0012629542381307037
1749.0,0.0012911472017148025
1748.0,0.001318807749254659
1747.0,0.0013432295552979687
1746.0,0.0013650945373035934
1745.0,0.001385418122252936
1744.0,0.001400437526316089
1743.0,0.0014060722239302428
1742.0,0.001406761907009167
1741.0,0.0014104800201135957
1740.0,0.0014171080336588698
1739.0,0.0014204650325573436
1738.0,0.0014224189458035368
1737.0,0.0014304467063608515
1736.0,0.001445879344002998
1735.0,0.0014629847616435706
1734.0,0.001470759679360591
1733.0,0.001463377327861897
1732.0,0.0014475844402293875
1731.0,0.00142844286173865
1730.0,0.001411655271361435
1729.0,0.001404000226147606
1728.0,0.0014045545753154972
1727.0,0.0014070241519381528
1726.0,0.0014100816005544604
1725.0,0.001417947270911045
1724.0,0.001430728185966738
1723.0,0.001440681650593005
1722.0,0.0014426786888079015
1721.0,0.0014398243283274387
1720.0,0.0014375715210634395
1719.0,0.0014434646000300593
1718.0,0.001466853557194487
1717.0,0.001498131951116581
1716.0,0.0015176985402713037
1715.0,0.0015242804037474999
1714.0,0.0015284941950695194
1713.0,0.0015371774777846164
1712.0,0.001547971324512672
1711.0,0.0015551860665560173
1710.0,0.0015584756851352887
1709.0,0.0015633153184435253
1708.0,0.0015752051349559098
1707.0,0.0015962240584961435
1706.0,0.001624625956604244
1705.0,0.0016530122826694511
1704.0,0.0016758030068025629
1703.0,0.001694940191875194
1702.0,0.0017135557083570586
1701.0,0.001738550570021465
1700.0,0.0017704722705805139
1699.0,0.0017895485481349504
1698.0,0.001792242394135177
1697.0,0.0017913915135421988
1696.0,0.0017951489412512225
1695.0,0.001805190894172508
1694.0,0.0018167937716852183
1693.0,0.0018283588024935592
1692.0,0.0018418363400379643
1691.0,0.0018581323381334019
1690.0,0.0018788123436614364
1689.0,0.0019028646723811787
1688.0,0.0019247127316581907
1687.0,0.0019383008993236186
1686.0,0.0019403115195545915
1685.0,0.0019370701504948249
1684.0,0.0019389973159407148
1683.0,0.0019470873855912511
1682.0,0.001957552096924856
1681.0,0.001967300258252048
1680.0,0.0019752324627264448
1679.0,0.001984035166264385
1678.0,0.001997264781846235
1677.0,0.002011417106482681
1676.0,0.0020133208731691536
1675.0,0.001995794731282064
1674.0,0.0019758459596765903
1673.0,0.0019698176711695392
1672.0,0.0019718231355607477
1671.0,0.0019647316483141332
1670.0,0.0019395051645829649
1669.0,0.0019108200864743374
1668.0,0.0018955382159258787
1667.0,0.0018909332253295814
1666.0,0.0018906327210774145
1665.0,0.0018887396435364498
1664.0,0.0018727449291652068
1663.0,0.0018307809391772314
1662.0,0.0017749900449124734
1661.0,0.0017313799543366955
1660.0,0.0017019717306789325
1659.0,0.0016757653254708491
1658.0,0.0016506528360918512
1657.0,0.0016378500413065345
1656.0,0.00163910333374115
1655.0,0.0016351533433102935
1654.0,0.0015595376208020783
1653.0,0.0014022756223085239
1652.0,0.0013152155246338433
1651.0,0.001308053313236149
1650.0,0.0013256223449830892
1649.0,0.001356305137013477
1648.0,0.0013827961181259922
1647.0,0.0013732756031161377
1646.0,0.001334491307402543
1645.0,0.001313941511763718
1644.0,0.0013139324137137196
1643.0,0.0013184299274764816
1642.0,0.001319383276752619
1641.0,0.0013135873839936589
1640.0,0.0013042795690588495
1639.0,0.0012965841230792995
1638.0,0.0012912177439502188
1637.0,0.0012701950873956504
1636.0,0.0012037492046105553
1635.0,0.0011171002365893742
1634.0,0.0010650852863910115
1633.0,0.0010428460601965442
1632.0,0.0010259925536520139
1631.0,0.0010009774473765793
1630.0,0.0009634294872005637
1629.0,0.0009167266719428656
1628.0,0.0008676050912976874
1627.0,0.0008266623611698601
1626.0,0.0008018775128946289
1625.0,0.0007893678764783097
1624.0,0.0007724592903788258
1623.0,0.0007399213261937327
1622.0,0.0007090468692078934
1621.0,0.0007003855861876759
1620.0,0.0007100030526577704
1619.0,0.000725055483561577
1618.0,0.0007374733887148356
1617.0,0.0007458328501492189
1616.0,0.0007495167529311479
1615.0,0.0007502933367897206
1614.0,0.0007540202916631225
1613.0,0.0007636746680064939
1612.0,0.0007747617186940146
1611.0,0.0007808279562397742
1610.0,0.000782722048376999
1609.0,0.0007865031121408678
1608.0,0.0007921626418232235
1607.0,0.0007954082925202096
1606.0,0.0007983871844195772
1605.0,0.0008059896012517234
1604.0,0.0008155400805345442
1603.0,0.000819995298296429
1602.0,0.0008196481277666511
1601.0,0.0008209575010917361
1600.0,0.0008241588607101724
1599.0,0.0008240478660056554
1598.0,0.0008209013351152578
1597.0,0.0008199741556168487
1596.0,0.000821890666657884
1595.0,0.0008227041290380859
1594.0,0.0008235360725378847
1593.0,0.0008293753589551934
1592.0,0.0008385730514199813
1591.0,0.0008450160133170781
1590.0,0.0008494526269871575
1589.0,0.0008583898124656575
1588.0,0.0008726014257690517
1587.0,0.0008876029120672453
1586.0,0.0009043284240420516
1585.0,0.000927493916670527
1584.0,0.0009544525512622613
1583.0,0.0009765865298060085
1582.0,0.0009920123511729868
1581.0,0.0010071437382487272
1580.0,0.0010252474941762112
1579.0,0.001043292635772397
1578.0,0.0010601300461503078
1577.0,0.0010787197827977115
1576.0,0.0010905046462025255
1575.0,0.001083093018675822
1574.0,0.0010671818175876863
1573.0,0.001056286506840407
1572.0,0.0010478017227501784
1571.0,0.0010293684237520657
1570.0,0.0009990417988466832
1569.0,0.0009758271585855228
1568.0,0.0009680991700964784
1567.0,0.0009614710961250582
1566.0,0.0009479876307924924
1565.0,0.0009349436499187764
1564.0,0.0009276019682691739
1563.0,0.0009259417038355088
1562.0,0.0009248828555555806
1561.0,0.0009217461057125314
1560.0,0.0009069579300310161
1559.0,0.0008558956976285768
1558.0,0.0007983067497382584
1557.0,0.0007933387248573323
1556.0,0.0008009690998996333
1555.0,0.0007905521917957607
1554.0,0.0007688162390486033
1553.0,0.0007500724920698788
1552.0,0.0007365152321693534
1551.0,0.0007148653670348424
1550.0,0.0006859222885111443
1549.0,0.0006665832820940675
1548.0,0.000663431960299227
1547.0,0.0006640154568993343
1546.0,0.0006620826066992946
1545.0,0.0006651006676806578
1544.0,0.0006771449344983242
1543.0,0.0006853728313601627
1542.0,0.0006844418839135454
1541.0,0.0006802734030464948
1540.0,0.0006581920338770603
1539.0,0.0006222973378032622
1538.0,0.000602795970185324
1537.0,0.0006007676571009877
1536.0,0.000603951112294391
1535.0,0.0005993635276675077
1534.0,0.0005834979270890188
1533.0,0.0005682622761160608
1532.0,0.0005585477274673218
1531.0,0.0005472171455221083
1530.0,0.0005356322406940689
1529.0,0.0005334485700363835
1528.0,0.000539854846560048
1527.0,0.0005404660029930349
1526.0,0.0005334939210455701
1525.0,0.0005332711259460494
1524.0,0.0005389751137024227
1523.0,0.0005345855159858786
1522.0,0.0005289850029916948
1521.0,0.0005518922528762292
1520.0,0.000588633959480665
1519.0,0.0006069777609786864
1518.0,0.0006180148409411502
1517.0,0.0006459377922941707
1516.0,0.0006787870161221229
1515.0,0.0006933782967666085
1514.0,0.0006990966607613877
1513.0,0.0007157122307221926
1512.0,0.0007392777657346673
1511.0,0.0007524214826546143
1510.0,0.000752913675497766
1509.0,0.0007670006683568654
1508.0,0.0008132411220546572
1507.0,0.0008601264646429112
1506.0,0.0008998297725083253
1505.0,0.0009534419125248656
1504.0,0.000992923398777675
1503.0,0.0010088736058383014
1502.0,0.0010202558650388926
1501.0,0.0010454551390579817
1500.0,0.0010827825332713707
1499.0,0.0011112136410047634
1498.0,0.0011384471936278719
1497.0,0.00119753344964264
1496.0,0.0012681151450770626
1495.0,0.0013009655581172213
1494.0,0.0013120343369048017
1493.0,0.001340614323564852
1492.0,0.0013881581010225786
1491.0,0.0014330135597747048
1490.0,0.001489731291496715
1489.0,0.001593598030483803
1488.0,0.0017134672997720106
1487.0,0.0018077854405927445
1486.0,0.0018986442018505106
1485.0,0.0020146492688903304
1484.0,0.0021457036420594712
1483.0,0.0022807644367436914
1482.0,0.002449644921449166
1481.0,0.0026779273011540887
1480.0,0.0029290087098886946
1479.0,0.0031664180186236185
1478.0,0.003437792757253516
1477.0,0.0038188651146438424
1476.0,0.004298078344441071
1475.0,0.00482926309743663
1474.0,0.00557250697596366
1473.0,0.00683242230459927
1472.0,0.008410500399023906
1471.0,0.009798771390759426
1470.0,0.011007501637716141
1469.0,0.012263565932958053
1468.0,0.013648567598356384
1467.0,0.015225900931147826
1466.0,0.017161594863873652
1465.0,0.019436063692495082
1464.0,0.021469257974298533
1463.0,0.022801062149341186
1462.0,0.023611967772077226
1461.0,0.024190408358993894
1460.0,0.024629055694830995
1459.0,0.0249343325145076
1458.0,0.025193868162469053
1457.0,0.025407852710394283
1456.0,0.025401046299722323
1455.0,0.0252442861178629
1454.0,0.02507893379349559
1453.0,0.024844448598203
1452.0,0.024421401259507897
1451.0,0.02375960741173459
1450.0,0.0228093165072282
1449.0,0.021378334559657475
1448.0,0.019386786909823216
1447.0,0.017216497866324985
1446.0,0.015315086060026007
1445.0,0.01372666806952746
1444.0,0.01233444205855951
1443.0,0.011145322687315601
1442.0,0.010235013971558939
1441.0,0.009607214099418181
1440.0,0.009215422558529621
1439.0,0.009051769603666961
1438.0,0.009135091606471813
1437.0,0.009342134694512179
1436.0,0.009322421047155837
1435.0,0.008887025109975898
1434.0,0.008140975336971544
1433.0,0.007187963910559509
1432.0,0.006126809403684642
1431.0,0.005128474070508672
1430.0,0.004325242978391764
1429.0,0.0037263093885013345
1428.0,0.0033066403179847067
1427.0,0.0030477007180023854
1426.0,0.002880854492555034
1425.0,0.0027164692338933023
1424.0,0.002544884544946535
1423.0,0.0024298478813595597
1422.0,0.0023720570048245924
1421.0,0.002301239511368054
1420.0,0.002191025089691476
1419.0,0.0020996027395518172
1418.0,0.0020487234823609677
1417.0,0.001985884372154551
1416.0,0.00191645686651262
1415.0,0.0018808649886701972
1414.0,0.0018639103587183815
1413.0,0.001822466078132039
1412.0,0.0017611206201176392
1411.0,0.0017259363608357445
1410.0,0.0017170863280271482
1409.0,0.0016920968046618171
1408.0,0.0016508753386065673
1407.0,0.0016338924774182224
1406.0,0.0016418456958326882
1405.0,0.0016298779028245055
1404.0,0.001601878569757716
1403.0,0.0016060643157951094
1402.0,0.0016343570490913069
1401.0,0.0016409069285148517
1400.0,0.0016338883762166273
1399.0,0.001667305433248779
1398.0,0.0017302305439094365
1397.0,0.0017601524495872449
1396.0,0.0017764094685368814
1395.0,0.0018561746014784733
1394.0,0.0019851290350368284
1393.0,0.002089404216662428
1392.0,0.002182262124915237
1391.0,0.0023253487649412524
1390.0,0.0025329682036108973
1389.0,0.002806782981333038
1388.0,0.003241360378027514
1387.0,0.00396540452269476
1386.0,0.004962758745204964
1385.0,0.006206301534884704
1384.0,0.00787260853579127
1383.0,0.010209205136131423
1382.0,0.013341631462203686
1381.0,0.017365745994567732
1380.0,0.02247409204142727
1379.0,0.028572841275233136
1378.0,0.03481010713282349
1377.0,0.03985775277107683
1376.0,0.04244966237935726
1375.0,0.04150595170632618
1374.0,0.03709741706228435
1373.0,0.031201169967991004
1372.0,0.025722763641226717
1371.0,0.02107289727224637
1370.0,0.01706803179542656
1369.0,0.013739305415301648
1368.0,0.011282737684665685
1367.0,0.009711243264502513
1366.0,0.008817914997414581
1365.0,0.008403188916895664
1364.0,0.008369411354032427
1363.0,0.00867306189212082
1362.0,0.009219474346546932
1361.0,0.00982535500280284
1360.0,0.010293193311002997
1359.0,0.010470853450339313
1358.0,0.010274758252348769
1357.0,0.00970863969196059
1356.0,0.008852503588617801
1355.0,0.007841690962124831
1354.0,0.0068439094379045985
1353.0,0.005989034285148466
1352.0,0.005302041240420867
1351.0,0.004736936453273033
1350.0,0.004259159780072114
1349.0,0.0038649669740121574
1348.0,0.0035433809605606137
1347.0,0.0032676561171114567
1346.0,0.0030252577900476943
1345.0,0.0028217315737179504
1344.0,0.0026553627445112054
1343.0,0.0025135536204562332
1342.0,0.0023920146748517665
1341.0,0.002297059669315998
1340.0,0.002226989639209696
1339.0,0.0021714625112752898
1338.0,0.002133767767451659
1337.0,0.0021256231924887173
1336.0,0.0021458023985392706
1335.0,0.0021878336549658924
1334.0,0.0022554485338983766
1333.0,0.0023533354257711274
1332.0,0.0024658765115675744
1331.0,0.0025576482314739204
1330.0,0.002598083960634747
1329.0,0.0025774731901680426
1328.0,0.0025008537315569955
1327.0,0.002380357028923448
1326.0,0.0022344632293210534
1325.0,0.0020819579852344406
1324.0,0.0019344377842336821
1323.0,0.0017999152981835707
1322.0,0.0016875662204641586
1321.0,0.0016006958890578198
1320.0,0.001530189301415088
1319.0,0.00146406820673703
1318.0,0.001401385088051831
1317.0,0.001348061959283886
1316.0,0.0013044125410201874
1315.0,0.0012674583446893291
1314.0,0.0012396875898179546
1313.0,0.0012263653190868363
1312.0,0.001228510546288046
1311.0,0.0012474894694323043
1310.0,0.0012939191347792417
1309.0,0.001383630731156341
1308.0,0.001523218753356882
1307.0,0.001699361108190234
1306.0,0.0018791869739406071
1305.0,0.002020197171981112
1304.0,0.002088815538766741
1303.0,0.0020835156272404538
1302.0,0.0020412803864993316
1301.0,0.002011288864060339
1300.0,0.0020203223530478294
1299.0,0.002064587720882168
1298.0,0.0021238114374436887
1297.0,0.0021731823540791584
1296.0,0.002188688164119299
1295.0,0.002156243708742428
1294.0,0.0020796644864983075
1293.0,0.0019743038743505648
1292.0,0.0018548338928082795
1291.0,0.0017332175136390256
1290.0,0.0016221115081241876
1289.0,0.0015311523672718785
1288.0,0.0014606087101561647
1287.0,0.0014040063894876532
1286.0,0.001355986332746019
1285.0,0.0013139359226192983
1284.0,0.0012750913607001623
1283.0,0.001237682469773286
1282.0,0.0012035976988061523
1281.0,0.0011755870903142806
1280.0,0.0011527593886399813
1279.0,0.0011321669737822102
1278.0,0.0011132374036246988
1277.0,0.0010973334139621886
1276.0,0.0010847820158854408
1275.0,0.0010756131400901459
1274.0,0.0010714275658206427
1273.0,0.001073308851078506
1272.0,0.0010794519741398583
1271.0,0.001087855843735362
1270.0,0.0010994095924740052
1269.0,0.0011146940691823687
1268.0,0.0011298961882990743
1267.0,0.0011404133909419282
1266.0,0.001147494954745877
1265.0,0.0011574785779011102
1264.0,0.0011753390213224688
1263.0,0.00120303059942631
1262.0,0.0012440244563853816
1261.0,0.0013059691183229508
1260.0,0.0013971908132494634
1259.0,0.0015197619882749076
1258.0,0.001662795302525424
1257.0,0.001799485066668062
1256.0,0.0018937027812724893
1255.0,0.001919039029141694
1254.0,0.0018775550915444202
1253.0,0.0017970816862343316
1252.0,0.0017096807225032784
1251.0,0.0016356514747029446
1250.0,0.00158255099564685
1249.0,0.0015495731273369778
1248.0,0.001531001339596905
1247.0,0.001520590990317388
1246.0,0.0015157616810868755
1245.0,0.0015167585745392436
1244.0,0.0015224753920454733
1243.0,0.001529953617027143
1242.0,0.0015379197498089376
1241.0,0.0015479272436422263
1240.0,0.0015617411030321197
1239.0,0.0015798611266099256
1238.0,0.0016024208590138314
1237.0,0.0016292535778270245
1236.0,0.0016591659810128103
1235.0,0.0016911802386405806
1234.0,0.001726144492009525
1233.0,0.0017650838887785184
1232.0,0.0018068794793680482
1231.0,0.001850319326750561
1230.0,0.0018976109795268146
1229.0,0.0019525556273680036
1228.0,0.0020158154884792113
1227.0,0.0020857586107845263
1226.0,0.0021639844456687422
1225.0,0.002255729471570261
1224.0,0.0023630551642808474
1223.0,0.002480288318392963
1222.0,0.002596986288968784
1221.0,0.0027022856646432645
1220.0,0.002786073576446513
1219.0,0.002841285384066376
1218.0,0.0028681297416808197
1217.0,0.002872893613104802
1216.0,0.0028616931620866447
1215.0,0.002839320965216997
1214.0,0.002813665379021655
1213.0,0.0027950127288166615
1212.0,0.002788895129816646
1211.0,0.002793589333708815
1210.0,0.0028059846377013506
1209.0,0.002825826273375613
1208.0,0.002852749285419451
1207.0,0.0028836270937657137
1206.0,0.0029155666199782325
1205.0,0.0029485971195563573
1204.0,0.002983430358675713
1203.0,0.0030196068166250824
1202.0,0.0030576678726615307
1201.0,0.0030998569621233977
1200.0,0.0031463726262371174
1199.0,0.003193488338543748
1198.0,0.0032376224333082538
1197.0,0.003279354448066941
1196.0,0.003321752744789843
1195.0,0.0033665437441988016
1194.0,0.0034128596004422774
1193.0,0.003457898705940196
1192.0,0.0034985984692943142
1191.0,0.0035350599138263034
1190.0,0.0035722153531488133
1189.0,0.003615111529925355
1188.0,0.003662934687450239
1187.0,0.0037111688496498933
1186.0,0.003759265071248747
1185.0,0.0038118901455049398
1184.0,0.0038724220344194117
1183.0,0.003939938652359246
1182.0,0.004013552983742157
1181.0,0.004095733164092477
1180.0,0.004190601655513681
1179.0,0.004303323567275423
1178.0,0.0044425992837126786
1177.0,0.004619961896927799
1176.0,0.004845904248356953
1175.0,0.0051301236363303845
1174.0,0.0054847242981146795
1173.0,0.005918757663447904
1172.0,0.006422619051933971
1171.0,0.0069578992623758615
1170.0,0.007465191210022127
1169.0,0.007881995978287646
1168.0,0.00815771113816825
1167.0,0.008269738518314794
1166.0,0.008237718692621533
1165.0,0.008114088795181856
1164.0,0.007952154513813514
1163.0,0.007786447242001919
1162.0,0.007638298412895799
1161.0,0.0075225009999167
1160.0,0.007443585691938261
1159.0,0.007396366121996581
1158.0,0.0073756797076302
1157.0,0.0073796582819587704
1156.0,0.007402137601487317
1155.0,0.007429829755191492
1154.0,0.007448203552030901
1153.0,0.007442114373635987
1152.0,0.0073916193673161336
1151.0,0.007280491887339174
1150.0,0.007113438467986574
1149.0,0.006914693348742405
1148.0,0.006707341317883304
1147.0,0.00650273320247052
1146.0,0.0063078214891425614
1145.0,0.006129541713218756
1144.0,0.005969221589352782
1143.0,0.005822256541243553
1142.0,0.005685938923748827
1141.0,0.005560877187115219
1140.0,0.005444706224300984
1139.0,0.005332983424234113
1138.0,0.00522746583519209
1137.0,0.00513535069423411
1136.0,0.005058855004541998
1135.0,0.004992694063714661
1134.0,0.004932720154501962
1133.0,0.004879549660667961
1132.0,0.004832490356169014
1131.0,0.004787603396141314
1130.0,0.004743928314996883
1129.0,0.004704970040347146
1128.0,0.004671935425603973
1127.0,0.004641540299620043
1126.0,0.004612221651205272
1125.0,0.00458667822924714
1124.0,0.004567102954769911
1123.0,0.004553931836916735
1122.0,0.004549709147205087
1121.0,0.004556898296914384
1120.0,0.004570636864535097
1119.0,0.004581079693419156
1118.0,0.004585015471349136
1117.0,0.004588312927771514
1116.0,0.004595116140280018
1115.0,0.004602400037117566
1114.0,0.004608293811551376
1113.0,0.004618459751847003
1112.0,0.004640179542965257
1111.0,0.004675945827705414
1110.0,0.004726183621982592
1109.0,0.00479272479152642
1108.0,0.004876273402199192
1107.0,0.004974402214191589
1106.0,0.0050820154765834
1105.0,0.005186214885963786
1104.0,0.005259410012647299
1103.0,0.0052680794130101705
1102.0,0.005196003544249399
1101.0,0.005054016917883482
1100.0,0.004866068737429279
1099.0,0.0046546027500081345
1098.0,0.0044392144269819155
1097.0,0.004236127864752495
1096.0,0.004051751387725074
1095.0,0.003882276923766864
1094.0,0.0037229517458294563
1093.0,0.003574108750246101
1092.0,0.003437541625994211
1091.0,0.003312564402313823
1090.0,0.00319769358184623
1089.0,0.0030921042044887484
1088.0,0.002993789276169206
1087.0,0.002899747741615742
1086.0,0.0028091380216453687
1085.0,0.002722849869481149
1084.0,0.0026392365192007003
1083.0,0.0025540769919017337
1082.0,0.0024657553210463254
1081.0,0.0023766917653029206
1080.0,0.002288467120220223
1079.0,0.0021993408033720054
1078.0,0.00210853081050259
1077.0,0.0020199564277249443
1076.0,0.0019392876306405038
1075.0,0.0018685276927379278
1074.0,0.0018047612793543868
1073.0,0.001743219606384321
1072.0,0.001680708815539787
1071.0,0.0016173248609979711
1070.0,0.001556262588843074
1069.0,0.0015013898199026415
1068.0,0.001453976358912124
1067.0,0.0014119484490689729
1066.0,0.001372951375956393
1065.0,0.0013378713975444548
1064.0,0.0013102155456095272
1063.0,0.0012915488588210384
1062.0,0.0012785732720349524
1061.0,0.0012662229947289349
1060.0,0.0012536373290588996
1059.0,0.0012456428448790482
1058.0,0.0012477736778221849
1057.0,0.0012608711151980132
1056.0,0.0012812352248414561
1055.0,0.001304819780339433
1054.0,0.0013303555384824974
1053.0,0.0013596165486304485
1052.0,0.0013961920334565512
1051.0,0.0014434171342947283
1050.0,0.0015013346989192155
1049.0,0.0015651215111628736
1048.0,0.001627601726186346
1047.0,0.0016830022823140208
1046.0,0.0017268204052515762
1045.0,0.0017527626323249554
1044.0,0.0017535934074244127
1043.0,0.0017280299846243268
1042.0,0.0016851774123461582
1041.0,0.0016385332376007578
1040.0,0.0015956616015013615
1039.0,0.0015554333424921615
1038.0,0.001513319910460776
1037.0,0.001466230938322367
1036.0,0.0014133187014800511
1035.0,0.0013558133323009391
1034.0,0.0012965804165066522
1033.0,0.0012374502726745517
1032.0,0.0011771179032442733
1031.0,0.0011141332501317224
1030.0,0.0010516349373370984
1029.0,0.00099606367475358
1028.0,0.0009505797782568015
1027.0,0.0009123594263474987
1026.0,0.0008777398883117437
1025.0,0.0008480733253166538
1024.0,0.0008282941297005592
1023.0,0.0008202522281099565
1022.0,0.0008194325101490922
1021.0,0.0008189398724365978
1020.0,0.0008157315059682344
1019.0,0.0008123081492517865
1018.0,0.0008131749692425136
1017.0,0.0008205915376458514
1016.0,0.0008337141522518941
1015.0,0.0008509114031038209
1014.0,0.0008719003343334026
1013.0,0.00089740770973536
1012.0,0.0009276815382200433
1011.0,0.0009627527194937101
1010.0,0.0010043134857798276
1009.0,0.001056188595281513
1008.0,0.0011228130139988367
1007.0,0.0012093031936035344
1006.0,0.0013249713799820134
1005.0,0.0014865234514746413
1004.0,0.0017171039616214578
1003.0,0.002041421622871168
1002.0,0.0024754443038874554
1001.0,0.00300528986385581
1000.0,0.0035607410555647707
999.0,0.0040125428621280365
998.0,0.0042215652256534396
997.0,0.004116414110049887
996.0,0.0037351618886992725
995.0,0.0031991314604340915
994.0,0.002644480453778762
993.0,0.0021622408415681526
992.0,0.0017825278323622452
991.0,0.0014969569877418304
990.0,0.0012866243668344661
989.0,0.0011357211532419366
988.0,0.001033494799749289
987.0,0.0009736205331437647
986.0,0.0009547716102393385
985.0,0.0009808918631334532
984.0,0.0010592782943984304
983.0,0.0011982219247170668
982.0,0.001408578953470078
981.0,0.0017079548716866307
980.0,0.002117952265959586
979.0,0.0026503932900797662
978.0,0.0032937501516303626
977.0,0.004009930298785076
976.0,0.004733594226682089
975.0,0.005367508708901646
974.0,0.005790420438945799
973.0,0.00589422204880503
972.0,0.005638186518040216
971.0,0.005084921374859992
970.0,0.004381843509777244
969.0,0.003688978447540557
968.0,0.0031090619793452466
967.0,0.002670594702900397
966.0,0.002355300265547467
965.0,0.002131951446999896
964.0,0.001974050580616866
963.0,0.0018625170266791129
962.0,0.0017832016966736314
961.0,0.0017249737387889533
960.0,0.001679413914172152
959.0,0.0016414073189798925
958.0,0.0016093999648557756
957.0,0.001584461088026014
956.0,0.0015686604464855952
955.0,0.0015635444907307762
954.0,0.0015687325392125895
953.0,0.0015813789089751866
952.0,0.0015979716090521647
951.0,0.0016175987856394552
950.0,0.0016429611395633486
949.0,0.0016775725125601926
948.0,0.0017230252641521272
947.0,0.0017802746232713472
946.0,0.0018524131808087202
945.0,0.001943257797559943
944.0,0.0020516829282981844
943.0,0.002167479158791854
942.0,0.0022723548428388797
941.0,0.0023443690398631187
940.0,0.002364283973793095
939.0,0.0023248028969956374
938.0,0.0022379490983909715
937.0,0.0021303439126643996
936.0,0.002027202702181152
935.0,0.0019402143397795552
934.0,0.0018694318569889398
933.0,0.001812694924691851
932.0,0.0017702471242065406
931.0,0.001741694693635493
930.0,0.001722594624562445
929.0,0.0017064430613293103
928.0,0.0016894568992728099
927.0,0.0016722189853396558
926.0,0.0016567313552724085
925.0,0.0016428243552327178
924.0,0.001628117440894129
923.0,0.0016110746692732942
922.0,0.0015927728597035409
921.0,0.0015749924323960269
920.0,0.0015577152875044483
919.0,0.0015398746339001512
918.0,0.001521796607154022
917.0,0.0015049723110147344
916.0,0.0014894264663345646
915.0,0.001473275812786989
914.0,0.0014555949956868482
913.0,0.0014382088738328824
912.0,0.0014238174285081317
911.0,0.001413898542632065
910.0,0.0014100811228228438
909.0,0.0014172809095917896
908.0,0.0014449968395054684
907.0,0.0015069114225320806
906.0,0.0016207671381194859
905.0,0.0018067704590655858
904.0,0.0020798357749386197
903.0,0.0024350861602713187
902.0,0.0028344841061454388
901.0,0.003205481072009727
900.0,0.0034572067771619056
899.0,0.0035135681383923014
898.0,0.0033506348039206574
897.0,0.0030104267694138188
896.0,0.0025779290581085584
895.0,0.00214188597420258
894.0,0.0017651072469966778
893.0,0.0014738166005513196
892.0,0.0012638418702233252
891.0,0.0011149882170610908
890.0,0.0010045717505147412
889.0,0.0009156244623245654
888.0,0.0008389512683715541
887.0,0.0007710431649863946
886.0,0.0007112528889967554
885.0,0.0006597996739489707
884.0,0.0006161045594086583
883.0,0.0005779797589760781
882.0,0.0005433819838345424
881.0,0.0005132562034498454
880.0,0.0004907369930985051
879.0,0.0004763452167354722
878.0,0.0004657290716754134
877.0,0.0004538123694771534
876.0,0.0004395592072986386
875.0,0.00042486949611788075
874.0,0.000410581480704532
873.0,0.00039581319902747697
872.0,0.00038010215057692864
871.0,0.0003644572910973122
870.0,0.00035130407637556124
869.0,0.0003442248318786177
868.0,0.00034558941230746864
867.0,0.0003529741486525487
866.0,0.0003602767888645421
865.0,0.0003641873933609456
864.0,0.00036718666764756145
863.0,0.00037262942652073185
862.0,0.0003804088431670642
861.0,0.00039022934792552126
860.0,0.0004052939666794266
859.0,0.00042805149320973595
858.0,0.00045461849723244473
857.0,0.00047827340434894813
856.0,0.0004972212862874725
855.0,0.0005150236983009621
854.0,0.000535170989167628
853.0,0.0005594884757416066
852.0,0.0005905213359583827
851.0,0.0006312702109847441
850.0,0.0006837235411974317
849.0,0.0007518001966921104
848.0,0.0008465385549089567
847.0,0.0009901636059944537
846.0,0.0012208624635222088
845.0,0.001587002001320294
844.0,0.002105755864686665
843.0,0.0026964683076982883
842.0,0.003165698448938652
841.0,0.003308501984216385
840.0,0.0030610563636005827
839.0,0.002554735128544099
838.0,0.0020115386659097863
837.0,0.001588094694741117
836.0,0.0013151837181919373
835.0,0.001149754702465979
834.0,0.001045377354915878
833.0,0.0009756747906199422
832.0,0.0009258986647143476
831.0,0.0008874381035443967
830.0,0.0008576259619315463
829.0,0.00083462798745287
828.0,0.0008133946351516281
827.0,0.0007902877388067365
826.0,0.0007676649040422744
825.0,0.0007501866050244288
824.0,0.0007408596505108396
823.0,0.0007428851592082346
822.0,0.0007592598219752412
821.0,0.0007884436343227205
820.0,0.0008262911061257496
819.0,0.0008740975806725562
818.0,0.0009416272942251081
817.0,0.0010437265244007718
816.0,0.0011982827846000244
815.0,0.0014242328144519634
814.0,0.0017309117712472819
813.0,0.0021026319093951965
812.0,0.0024941640324078994
811.0,0.0028427132391698378
810.0,0.0030862018385882464
809.0,0.003177077085452163
808.0,0.0030935932961100266
807.0,0.002852961355937364
806.0,0.0025125873070036197
805.0,0.00214580101839053
804.0,0.0018099021931492392
803.0,0.001533027305777705
802.0,0.0013194269247109374
801.0,0.00115879173213353
800.0,0.0010352989883740643
799.0,0.0009363714264352818
798.0,0.0008559217802499735
797.0,0.0007902103670628527
796.0,0.0007343644462749515
795.0,0.0006851312429974328
794.0,0.0006432830143672581
793.0,0.0006094339726203946
792.0,0.0005795439500406326
791.0,0.0005479488625373453
790.0,0.0005134991554793585
789.0,0.0004798338656668241
788.0,0.0004505037138371679
787.0,0.00042603407660976437
786.0,0.0004047437958606297
785.0,0.0003844266526754876
784.0,0.00036386282833144836
783.0,0.00034408695834535095
782.0,0.00032741687236908677
781.0,0.0003142185856549307
780.0,0.00030187774790627384
779.0,0.0002881073858812019
778.0,0.0002741598775637342
777.0,0.0002638026550972957
776.0,0.00026000502982272616
775.0,0.00026289462991986763
774.0,0.00026946039954123556
773.0,0.0002751201962463949
772.0,0.0002776060618293599
771.0,0.0002798015078504625
770.0,0.00028662849514196604
769.0,0.00029861165923562584
768.0,0.00031121483051700416
767.0,0.00032133445327754944
766.0,0.00033104181097603455
765.0,0.00034300273663325436
764.0,0.00035539802760115155
763.0,0.000364329095382617
762.0,0.0003690674656125404
761.0,0.00037187593386870565
760.0,0.00037418319511233215
759.0,0.00037595567949472495
758.0,0.0003777905477075591
757.0,0.0003807212699748424
756.0,0.0003843864879913411
755.0,0.00038757459088558315
754.0,0.0003899683298504095
753.0,0.0003915755210419472
752.0,0.00039180232769262565
751.0,0.0003914192407255534
750.0,0.0003939627721768913
749.0,0.00040213160322181377
748.0,0.00041344897314440893
747.0,0.00042227774671407125
746.0,0.0004256709324842135
745.0,0.00042456112590812383
744.0,0.00041979680056523157
743.0,0.00041058605671380656
742.0,0.0003976369502762362
741.0,0.0003848493183751775
740.0,0.00037626496511855746
739.0,0.0003725967960930894
738.0,0.00037119143846063574
737.0,0.0003681345295853189
736.0,0.0003606206095228157
735.0,0.0003494322412612689
734.0,0.0003394256258507376
733.0,0.00033552994972071043
732.0,0.0003375326104012222
731.0,0.0003400222538681873
730.0,0.00033781058428069665
729.0,0.000330259073180174
728.0,0.0003203725353982215
727.0,0.00031149652543412034
726.0,0.0003052461692126844
725.0,0.0003010307732278158
724.0,0.0002971000342604912
723.0,0.0002928521881322138
722.0,0.000289693578323838
721.0,0.00028849807598276217
720.0,0.00028724369367560064
719.0,0.00028365054464717776
718.0,0.0002792343057974825
717.0,0.0002773215216433366
716.0,0.0002775586132453304
715.0,0.0002758710859741929
714.0,0.00027062433455905447
713.0,0.0002659209812378056
712.0,0.0002672305099037987
711.0,0.00027623972987392156
710.0,0.00029125501427417465
709.0,0.0003098206287728916
708.0,0.0003288790978768207
707.0,0.000344637174297515
706.0,0.00035510231453717483
705.0,0.0003617686430185753
704.0,0.0003670554642380501
703.0,0.00037159447676872893
702.0,0.0003755707179271716
701.0,0.00038032020464808696
700.0,0.00038578911114272967
699.0,0.00038828577931978594
698.0,0.0003846995566271101
697.0,0.00037836111861092394
696.0,0.00037652674325138017
695.0,0.00038107340041133685
694.0,0.00038493476595478394
693.0,0.00037974795943580115
692.0,0.0003650700609151576
691.0,0.0003480530252859839
690.0,0.00033562064795867767
689.0,0.0003292740271615663
688.0,0.00032674377430201335
687.0,0.00032566504670263546
686.0,0.00032395507956340964
685.0,0.0003188516044615396
684.0,0.00030900693411659046
683.0,0.00029743479385765096
682.0,0.0002898437616992545
681.0,0.00028908648984795655
680.0,0.00029250829233695236
679.0,0.0002955538352206614
678.0,0.00029635160570806046
677.0,0.00029472177498665977
676.0,0.00028917292239506476
675.0,0.00027913966577551705
674.0,0.0002683590963111956
673.0,0.0002619750714097458
672.0,0.00025919611312822896
671.0,0.0002518254567098196
670.0,0.00023099666335564184
669.0,0.00020184804395672812
668.0,0.00019563696103862355
667.0,0.0002246488004174007
666.0,0.00025762117412937556
665.0,0.00027680619049941317
664.0,0.00028617562257187296
663.0,0.0002892933748387732
662.0,0.00028924396072431787
661.0,0.00028899673355353104
660.0,0.0002886175390362093
659.0,0.0002831526252560954
658.0,0.0002697228919808776
657.0,0.00025450597713468727
656.0,0.0002486646686507329
655.0,0.0002571786446766874
654.0,0.00027370278543361313
653.0,0.0002882475871605985
652.0,0.0002972920148326442
651.0,0.0003031307906702372
650.0,0.0003069543411818271
649.0,0.0003076293227556486
648.0,0.0003072752428760147
647.0,0.0003130984582212616
646.0,0.0003293561090459624
645.0,0.00034924617819615536
644.0,0.0003585876178701923
643.0,0.00034849007641096086
642.0,0.0003238412406158444
641.0,0.00029791348588722446
640.0,0.0002810792582178956
639.0,0.00027677201684094763
638.0,0.00028292523765902956
637.0,0.0002931530143904871
636.0,0.0002991663505907077
635.0,0.00029743978390552376
634.0,0.0002943787179732292
633.0,0.00029933200574938217
632.0,0.0003125021970625422
631.0,0.0003257481650747663
630.0,0.0003352181629317479
629.0,0.00034664662476653363
628.0,0.00036433216343712357
627.0,0.0003778590678468552
626.0,0.0003661429688647932
625.0,0.0003192924431691239
624.0,0.0002536124189025001
623.0,0.0002029319892085867
622.0,0.00019192914102410957
621.0,0.00021545114384482865
620.0,0.0002462438011017439
619.0,0.00025994142418759555
618.0,0.00025247205159358596
617.0,0.00023385909286681385
616.0,0.00021144424848852837
615.0,0.0001887550769591327
614.0,0.00017279749391858193
613.0,0.0001707926050113051
612.0,0.00018466769390956394
611.0,0.00021695019187069998
610.0,0.00027461359653573156
609.0,0.00035619166177455606
608.0,0.00043552442457323097
607.0,0.00047070248050959666
606.0,0.0004446635538592617
605.0,0.0003884649489623118
604.0,0.0003527233395824204
603.0,0.00036853125028001607
602.0,0.00043539990198690156
601.0,0.0005297520106715714
600.0,0.0006158867909730171
599.0,0.000661004061134883
598.0,0.0006602748920479327
597.0,0.0006389248999170503
596.0,0.0006206407957252341
595.0,0.0006079833447498307
594.0,0.0005955452550812022
593.0,0.0005871413078683128
592.0,0.000588188884912532
591.0,0.0005894159760854254
590.0,0.0005756023465712804
589.0,0.0005464949840446606
588.0,0.0005147075107457822
587.0,0.0004895916863355955
586.0,0.00047161966790092326
585.0,0.0004589983086596749
584.0,0.0004556556282749953
583.0,0.00046635063741493245
582.0,0.00047976627853809717
581.0,0.0004621946155158196
580.0,0.00038420325036793646
579.0,0.0002736708405808856
578.0,0.00021785149203042262
577.0,0.00027683950345415144
576.0,0.0004070285155155633
575.0,0.0004878491305277867
574.0,0.00045698451382408074
573.0,0.00037569860263751974
572.0,0.0003224326745271493
571.0,0.00030053810542204624
570.0,0.00026843399280537203
569.0,0.00022484251353022155
568.0,0.00022581879414610085
567.0,0.00030608446241765514
566.0,0.00041576940424126673
565.0,0.00046884863967925933
564.0,0.0004263669562526119
563.0,0.000320351693539444
562.0,0.00022568424209055992
561.0,0.00019510655803504505
560.0,0.0002241053410467686
559.0,0.00027411077578110406
558.0,0.0003045566544553938
557.0,0.00029142412744028037
556.0,0.00023203650229342205
555.0,0.00015274994181372565
554.0,0.00010752811160635341
553.0,0.00012777864092059044
552.0,0.00018547375728122616
551.0,0.0002264410598646475
550.0,0.0002260560504730051
