cm-1,A
4000.0,0.0027371811456797235
3999.0,0.002746068213952336
3998.0,0.0027596577900463447
3997.0,0.0027738149432471743
3996.0,0.0027832856270001705
3995.0,0.002785502751835804
3994.0,0.002782640616824832
3993.0,0.002779122091680507
3992.0,0.0027774451162665397
3991.0,0.0027766468720985763
3990.0,0.0027744428290395473
3989.0,0.002770058894540314
3988.0,0.002764303473256166
3987.0,0.002757947433387486
3986.0,0.002751104617621958
3985.0,0.00274442838866272
3984.0,0.002739697269194121
3983.0,0.002738741063497677
3982.0,0.002741972481857362
3981.0,0.0027483438345618123
3980.0,0.0027566461046646656
3979.0,0.0027661379608045853
3978.0,0.002775887630180305
3977.0,0.0027836948646070662
3976.0,0.0027863518984460565
3975.0,0.002781625339099248
3974.0,0.002770383076295447
3973.0,0.002756741783228895
3972.0,0.0027454642470664606
3971.0,0.0027386392160714933
3970.0,0.002735187381985518
3969.0,0.0027333226577537315
3968.0,0.0027329076622854293
3967.0,0.0027350010381444606
3966.0,0.0027395101049543288
3965.0,0.0027446021864667575
3964.0,0.002748184362797536
3963.0,0.0027495610201054756
3962.0,0.002749594112635357
3961.0,0.0027496984384749283
3960.0,0.0027506377706913356
3959.0,0.0027519711694309733
3958.0,0.0027526363770063785
3957.0,0.00275258165917322
3956.0,0.0027531454907673125
3955.0,0.002755200931921286
3954.0,0.0027575083428865044
3953.0,0.0027579698037427033
3952.0,0.0027555278870899317
3951.0,0.002750758778337914
3950.0,0.0027447534208779323
3949.0,0.0027379951925067623
3948.0,0.0027317257340013605
3947.0,0.0027290082396499195
3946.0,0.002732812989511514
3945.0,0.002741979445408254
3944.0,0.002750163624653537
3943.0,0.0027504520933422545
3942.0,0.0027417189575151563
3941.0,0.0027316598461455417
3940.0,0.0027299983396808346
3939.0,0.0027372791080149516
3938.0,0.0027458576964609176
3937.0,0.0027491389258724325
3936.0,0.002746292659081934
3935.0,0.0027413377884979995
3934.0,0.0027389800834796228
3933.0,0.002741630103762372
3932.0,0.0027477711340522393
3931.0,0.002753590674844663
3930.0,0.002757789182794906
3929.0,0.0027632557171412605
3928.0,0.002773562267011623
3927.0,0.0027889983131898707
3926.0,0.002804197477115704
3925.0,0.002809285264557867
3924.0,0.0027998737163068103
3923.0,0.0027842935062276693
3922.0,0.002773741621813564
3921.0,0.0027697081780502786
3920.0,0.0027674382124514823
3919.0,0.0027662879897899853
3918.0,0.002768110778318872
3917.0,0.0027709213183151338
3916.0,0.002771511363674645
3915.0,0.002770871514619015
3914.0,0.0027719823945104114
3913.0,0.002774439642902922
3912.0,0.0027757118872930864
3911.0,0.002775533372938052
3910.0,0.002773848862863259
3909.0,0.002769434869627014
3908.0,0.0027612775181736163
3907.0,0.0027521082992654697
3906.0,0.0027464604011006
3905.0,0.0027454993811311928
3904.0,0.002743366140102897
3903.0,0.002737114110588799
3902.0,0.002735701132461821
3901.0,0.0027456817727748526
3900.0,0.0027588200309770043
3899.0,0.002764362106265794
3898.0,0.00276433620615623
3897.0,0.0027681485873663914
3896.0,0.002776427430875715
3895.0,0.0027813158844983196
3894.0,0.002781063796515581
3893.0,0.002780868362212554
3892.0,0.0027790634668645384
3891.0,0.0027665994527106656
3890.0,0.0027478566708214903
3889.0,0.002742692781764665
3888.0,0.0027544432893816997
3887.0,0.002769003812646345
3886.0,0.002774811071000813
3885.0,0.0027670650427697365
3884.0,0.002754821578792631
3883.0,0.002755184648295963
3882.0,0.002764335797514318
3881.0,0.0027651282801255065
3880.0,0.0027502946258512184
3879.0,0.002730993068018127
3878.0,0.002729415735556129
3877.0,0.002749339893843671
3876.0,0.0027734955298107673
3875.0,0.0027883128800220286
3874.0,0.002787520866051522
3873.0,0.0027756162542419797
3872.0,0.0027689127075339187
3871.0,0.002773531806988817
3870.0,0.0027761866796678723
3869.0,0.0027674581029469986
3868.0,0.0027662638620414293
3867.0,0.002788495856434002
3866.0,0.0028112553665256886
3865.0,0.0028103014257949335
3864.0,0.0027905289324752884
3863.0,0.0027711110725465622
3862.0,0.002766985342412445
3861.0,0.002778403807118319
3860.0,0.002795435899796927
3859.0,0.0028087936117790167
3858.0,0.0028083267881971376
3857.0,0.0027875670765452956
3856.0,0.00275101383541187
3855.0,0.0027227000556733407
3854.0,0.0027223172130655237
3853.0,0.002716131014626366
3852.0,0.0026896232019549358
3851.0,0.002702989823094448
3850.0,0.002760639758203417
3849.0,0.00280812817366379
3848.0,0.0028258702414022015
3847.0,0.002826682060144447
3846.0,0.0028242216676839117
3845.0,0.002822285242995881
3844.0,0.0028180175738711285
3843.0,0.0028044078054791696
3842.0,0.002779194312166368
3841.0,0.0027502960278078734
3840.0,0.0027275396058491497
3839.0,0.0027153851306552877
3838.0,0.002711063859548118
3837.0,0.0027138972337436094
3836.0,0.002728412364756568
3835.0,0.0027550661904968635
3834.0,0.0027830872851357605
3833.0,0.002800625486909996
3832.0,0.002803390306143764
3831.0,0.002795810835107977
3830.0,0.0027889222926260563
3829.0,0.0027914420305825
3828.0,0.002801480779238698
3827.0,0.0028084374423720075
3826.0,0.002802238209695303
3825.0,0.0027853996786016983
3824.0,0.002769718035890911
3823.0,0.002763386449136875
3822.0,0.0027672908718318415
3821.0,0.0027664146976208327
3820.0,0.002747245797884908
3819.0,0.002740701369808675
3818.0,0.0027662577666389427
3817.0,0.002795496888455356
3816.0,0.0028028803962662305
3815.0,0.002791279250628609
3814.0,0.0027916419409910187
3813.0,0.0028202370833644297
3812.0,0.0028516662334190906
3811.0,0.002861827346779082
3810.0,0.0028577893207059283
3809.0,0.0028571312384533774
3808.0,0.002864242869498511
3807.0,0.0028645806733778745
3806.0,0.0028471394032757516
3805.0,0.0028290287721010367
3804.0,0.0028267703364111465
3803.0,0.0028325976479109533
3802.0,0.0028368960281707264
3801.0,0.0028276600793182213
3800.0,0.0028106381132875276
3799.0,0.002814976608024388
3798.0,0.0028329922658890724
3797.0,0.0028365279496397507
3796.0,0.002826709116129837
3795.0,0.0028230637521463094
3794.0,0.002836387606987213
3793.0,0.0028564822750991
3792.0,0.002866210955847881
3791.0,0.0028624513395257324
3790.0,0.002855303272789319
3789.0,0.0028523628866995616
3788.0,0.0028539598547925767
3787.0,0.002858059898075877
3786.0,0.002863192171153321
3785.0,0.0028665548745232874
3784.0,0.002865886687910499
3783.0,0.002863496619090175
3782.0,0.0028634379430070335
3781.0,0.0028654394280914416
3780.0,0.002867106772502898
3779.0,0.0028670817985466356
3778.0,0.0028687150467742294
3777.0,0.0028798291064641938
3776.0,0.00289795155758784
3775.0,0.00290980338323521
3774.0,0.0029092018650522036
3773.0,0.002902984106350681
3772.0,0.002900313590215607
3771.0,0.0029030504707811128
3770.0,0.0029054612022154265
3769.0,0.0029045659782863317
3768.0,0.002908399842680579
3767.0,0.0029231769345770004
3766.0,0.002942158095067964
3765.0,0.002957187845706921
3764.0,0.002969041034616272
3763.0,0.0029834526838819295
3762.0,0.002997717295749278
3761.0,0.003002269326771459
3760.0,0.0029964079277108487
3759.0,0.0029878375149369404
3758.0,0.0029824801673058766
3757.0,0.0029807802100137084
3756.0,0.002978241103104632
3755.0,0.0029690805779257895
3754.0,0.0029508066221527827
3753.0,0.0029306899131372275
3752.0,0.0029231396900985807
3751.0,0.0029252492990687363
3750.0,0.0029146370350243422
3749.0,0.00289125552897925
3748.0,0.002874961196886301
3747.0,0.0028697240699907083
3746.0,0.0028721487450012956
3745.0,0.0028894288046412914
3744.0,0.002908452222919569
3743.0,0.002920735089074136
3742.0,0.002954622721794241
3741.0,0.002996511936929064
3740.0,0.003004873540520675
3739.0,0.0029824223397100797
3738.0,0.0029588466182443336
3737.0,0.0029525813380499484
3736.0,0.002954587898483794
3735.0,0.0029451512577177274
3734.0,0.002928515537965661
3733.0,0.0029286251837611216
3732.0,0.0029499908759138237
3731.0,0.0029793751477362983
3730.0,0.0030102059196974295
3729.0,0.0030392893824646005
3728.0,0.0030592581728271437
3727.0,0.003064591952943719
3726.0,0.0030560756407752195
3725.0,0.003041194565306141
3724.0,0.0030299992889277847
3723.0,0.0030256336918839076
3722.0,0.003027086519450547
3721.0,0.0030351040222226424
3720.0,0.0030517455696898316
3719.0,0.0030774068905218104
3718.0,0.0031093379363428385
3717.0,0.003143854826349631
3716.0,0.0031775916034617376
3715.0,0.003208986969977628
3714.0,0.0032421167850523822
3713.0,0.0032918210879693734
3712.0,0.0033685266166277993
3711.0,0.0034544968735623367
3710.0,0.0035315616029726396
3709.0,0.0036113916620878067
3708.0,0.0037067249049625092
3707.0,0.0038124340103477383
3706.0,0.003919024722740199
3705.0,0.004024633555732656
3704.0,0.004132457698654455
3703.0,0.0042442446474284
3702.0,0.004353524970997646
3701.0,0.004448326330074385
3700.0,0.0045255519167506815
3699.0,0.0045896643060946395
3698.0,0.004636090767407107
3697.0,0.004655096621936755
3696.0,0.004647842126121472
3695.0,0.004627442956929703
3694.0,0.004605034943628114
3693.0,0.004580325148294137
3692.0,0.004549364064563846
3691.0,0.004514561157563737
3690.0,0.004483716177838168
3689.0,0.004462760256665121
3688.0,0.004459163295785077
3687.0,0.004486093098361718
3686.0,0.004541923623577006
3685.0,0.0046020486496763015
3684.0,0.004645178720793914
3683.0,0.004672317316900898
3682.0,0.004698391791892274
3681.0,0.004733938561367564
3680.0,0.004774428504789317
3679.0,0.004813455009663129
3678.0,0.004859387484830667
3677.0,0.00492653694781448
3676.0,0.0049993185115196695
3675.0,0.0050271151015808205
3674.0,0.005020351857875277
3673.0,0.005051023881725521
3672.0,0.005133814218032216
3671.0,0.005246105733705783
3670.0,0.00536798946379643
3669.0,0.005468412857435861
3668.0,0.005552673721995933
3667.0,0.005647599389556198
3666.0,0.005747840713067715
3665.0,0.005841268150010102
3664.0,0.005930486040899971
3663.0,0.0060203702775071585
3662.0,0.0061092967867241756
3661.0,0.0061930002855117485
3660.0,0.006272656915204473
3659.0,0.006358304048396785
3658.0,0.006462746135736958
3657.0,0.006584751359946095
3656.0,0.0066981921552153375
3655.0,0.006779982249101689
3654.0,0.006838703095928496
3653.0,0.006889843811499763
3652.0,0.006944835718094837
3651.0,0.007028346471176717
3650.0,0.0071517199299697375
3649.0,0.0072764843213181125
3648.0,0.007369387405485312
3647.0,0.007450014061900333
3646.0,0.007540382220796189
3645.0,0.007635691863773015
3644.0,0.007724188013787948
3643.0,0.007801513907279371
3642.0,0.007871421695737388
3641.0,0.0079412992725534
3640.0,0.00801606867127062
3639.0,0.00809303050160003
3638.0,0.008163899601179261
3637.0,0.008226730294634065
3636.0,0.00828862753395687
3635.0,0.008352116393818582
3634.0,0.008406537075348415
3633.0,0.00844092043618933
3632.0,0.008464406062653678
3631.0,0.008507288649763139
3630.0,0.008605346329626149
3629.0,0.008741323416400515
3628.0,0.008836208599817576
3627.0,0.008879807273362681
3626.0,0.008921516752684468
3625.0,0.008964280398276354
3624.0,0.008994999979596631
3623.0,0.009016813015003648
3622.0,0.0090355383466268
3621.0,0.009049712266903074
3620.0,0.009049091872098873
3619.0,0.009019370802304673
3618.0,0.008960322206898606
3617.0,0.008894143980798698
3616.0,0.008838795120777293
3615.0,0.008795395674909227
3614.0,0.008761289292955911
3613.0,0.008733198975095191
3612.0,0.008707461511076481
3611.0,0.008684113646198711
3610.0,0.008664417760396807
3609.0,0.008646114683880548
3608.0,0.00862355138641003
3607.0,0.008593397921703542
3606.0,0.008562379765543277
3605.0,0.008537889496888683
3604.0,0.00851739418985916
3603.0,0.008495928454099654
3602.0,0.008473220026408256
3601.0,0.008451009102537758
3600.0,0.008429006258104494
3599.0,0.008406704251869571
3598.0,0.008386055383680426
3597.0,0.008370447989895911
3596.0,0.00836117339988496
3595.0,0.008352813164094815
3594.0,0.008337428130273355
3593.0,0.008315431785720823
3592.0,0.008296111759198312
3591.0,0.008286167082277572
3590.0,0.008288896010903756
3589.0,0.008308498964948681
3588.0,0.008340389340478878
3587.0,0.008363390044436238
3586.0,0.008368974197059635
3585.0,0.008373904320877654
3584.0,0.00838812688227164
3583.0,0.0084078217838299
3582.0,0.008432276394485383
3581.0,0.008464960996532746
3580.0,0.008505513760943
3579.0,0.008549078946410143
3578.0,0.008592248565051027
3577.0,0.008635665860362551
3576.0,0.008681728640375759
3575.0,0.008730743401297916
3574.0,0.008780561816273008
3573.0,0.008827421215256866
3572.0,0.008867361569649611
3571.0,0.008899565970664111
3570.0,0.00893151789769127
3569.0,0.008979113674785013
3568.0,0.00905100710761874
3567.0,0.009126814639617136
3566.0,0.00917896663313676
3565.0,0.009214995176846558
3564.0,0.009258124588050462
3563.0,0.0093131220336943
3562.0,0.009373058429195464
3561.0,0.009432476701382884
3560.0,0.009488312947064785
3559.0,0.009538077887728707
3558.0,0.009580357467292201
3557.0,0.00961461973494437
3556.0,0.009641232518179192
3555.0,0.009662836696731474
3554.0,0.009683864810050406
3553.0,0.009706397706142969
3552.0,0.009726515995396331
3551.0,0.009739300721785037
3550.0,0.00974556519323309
3549.0,0.009750769632827692
3548.0,0.009760095864907049
3547.0,0.009773401055091984
3546.0,0.009782604616050898
3545.0,0.009779577056220817
3544.0,0.009766884517797003
3543.0,0.009754905593638747
3542.0,0.00975034682117935
3541.0,0.009751442913404325
3540.0,0.00975188691005957
3539.0,0.00974710184848939
3538.0,0.009737207380592375
3537.0,0.009725075640722886
3536.0,0.009712050728808404
3535.0,0.009697530817796876
3534.0,0.009681553632686926
3533.0,0.009665382507079651
3532.0,0.009649827143556337
3531.0,0.009633854485158822
3530.0,0.009614984137529897
3529.0,0.009590665256022824
3528.0,0.0095606657579448
3527.0,0.009528932570872714
3526.0,0.009502512898531561
3525.0,0.009486229967836903
3524.0,0.009477799472541832
3523.0,0.009469213783917964
3522.0,0.009454630893915383
3521.0,0.009435158779472095
3520.0,0.009414578471941307
3519.0,0.009394008961556075
3518.0,0.009372963069524542
3517.0,0.009353261430304292
3516.0,0.00933811277268815
3515.0,0.009327663173346388
3514.0,0.009319001364921394
3513.0,0.009311003623790682
3512.0,0.009305916200599909
3511.0,0.00930434444346166
3510.0,0.009301993374139342
3509.0,0.009294447510365282
3508.0,0.009283675925449576
3507.0,0.009275739337170437
3506.0,0.009273345731052842
3505.0,0.009274156174562736
3504.0,0.009275068168024099
3503.0,0.0092744956082166
3502.0,0.009271868794763959
3501.0,0.009267624691647465
3500.0,0.009263596838681193
3499.0,0.009263293931163461
3498.0,0.00927053392677307
3497.0,0.009285178586214252
3496.0,0.009301704332356539
3495.0,0.009314593601027512
3494.0,0.009324487113217662
3493.0,0.00933703414101175
3492.0,0.009355583690758545
3491.0,0.009376959694948192
3490.0,0.009395321966785532
3489.0,0.009408595757067479
3488.0,0.009419685809914754
3487.0,0.009432763115454743
3486.0,0.009450413914807455
3485.0,0.009473362410537025
3484.0,0.00949981829248796
3483.0,0.009524767640526038
3482.0,0.009543459795457307
3481.0,0.00955826593258018
3480.0,0.009579675478880638
3479.0,0.009616813015952417
3478.0,0.009667876047546336
3477.0,0.009721663271760408
3476.0,0.009767706753720483
3475.0,0.009803662154131292
3474.0,0.009833374292184546
3473.0,0.009859602714931819
3472.0,0.009880797288967338
3471.0,0.009895673163879862
3470.0,0.009909241753168964
3469.0,0.009931961171163666
3468.0,0.009971834311745887
3467.0,0.010028401187983895
3466.0,0.010095171781436168
3465.0,0.010165340935256801
3464.0,0.010233161587939578
3463.0,0.010293456526766012
3462.0,0.010345331198945682
3461.0,0.010396844045595993
3460.0,0.010461029553246544
3459.0,0.010543993354192862
3458.0,0.010638643023427676
3457.0,0.01073218567213303
3456.0,0.01081836428808404
3455.0,0.010900508377493944
3454.0,0.01098394551000061
3453.0,0.01106861772835048
3452.0,0.011150344460536574
3451.0,0.011227618414509739
3450.0,0.011304630728842533
3449.0,0.011386958465789746
3448.0,0.01147609287534886
3447.0,0.01156908188947
3446.0,0.011663601498199758
3445.0,0.011760843354904155
3444.0,0.011861593718265364
3443.0,0.011962023098097123
3442.0,0.012054481001437786
3441.0,0.01213079223749505
3440.0,0.012185756164214252
3439.0,0.012220802461354246
3438.0,0.01224639353265074
3437.0,0.012279269170376274
3436.0,0.012332871801000518
3435.0,0.012407709782656696
3434.0,0.012490223740992928
3433.0,0.012560832616794367
3432.0,0.012605273741667165
3431.0,0.012622440952000751
3430.0,0.012623760866637336
3429.0,0.01262300325173291
3428.0,0.012624255469961047
3427.0,0.012619054442549283
3426.0,0.012595112631756021
3425.0,0.012546621465785758
3424.0,0.012476822553177648
3423.0,0.012393733464425339
3422.0,0.012304855867945611
3421.0,0.012214225059515933
3420.0,0.012121802176707792
3419.0,0.012024846233839589
3418.0,0.011919939176018818
3417.0,0.011804116641816277
3416.0,0.011675979692213928
3415.0,0.011538446474008007
3414.0,0.011400687251016041
3413.0,0.01127396930009129
3412.0,0.011163190343161015
3411.0,0.011064072620659794
3410.0,0.010970473364608612
3409.0,0.010882505293963009
3408.0,0.010804234453246443
3407.0,0.01073407068179978
3406.0,0.010661354868470873
3405.0,0.010574156435407059
3404.0,0.010469719170216964
3403.0,0.010358444718185311
3402.0,0.010259674293490253
3401.0,0.010191865444106147
3400.0,0.010161189454265784
3399.0,0.010155704846425709
3398.0,0.010151844148141452
3397.0,0.010130080628005501
3396.0,0.01008628751590756
3395.0,0.010028931921383705
3394.0,0.009968539436524294
3393.0,0.009912325124095461
3392.0,0.009865924521662286
3391.0,0.009834782349374878
3390.0,0.009821292384466248
3389.0,0.009821482586924628
3388.0,0.009825911748859066
3387.0,0.009824555277618746
3386.0,0.009811969381870164
3385.0,0.009789006338005082
3384.0,0.009760055268079982
3383.0,0.009728987871042045
3382.0,0.009697801154390864
3381.0,0.009668048170697961
3380.0,0.009641970011952702
3379.0,0.009621647622948376
3378.0,0.009607606646723426
3377.0,0.00959831344961963
3376.0,0.009590629085646315
3375.0,0.00958099252271219
3374.0,0.009567014391924686
3373.0,0.009547752040005516
3372.0,0.009522222812667456
3371.0,0.009489328787317612
3370.0,0.00945144361223235
3369.0,0.009417376916022048
3368.0,0.009398363570570882
3367.0,0.00939900860547549
3366.0,0.009412709621968052
3365.0,0.009426638712738494
3364.0,0.009430872205333512
3363.0,0.009423978125543828
3362.0,0.009412601103757808
3361.0,0.00940616524529876
3360.0,0.00940948341105374
3359.0,0.00941886116432917
3358.0,0.009426174023417498
3357.0,0.009427010231336602
3356.0,0.00942361614194672
3355.0,0.009420009620657891
3354.0,0.009416850984528307
3353.0,0.009412684629162518
3352.0,0.00940852089762563
3351.0,0.009409013717460052
3350.0,0.009418852333368347
3349.0,0.0094382755303401
3348.0,0.009461512882166062
3347.0,0.009479736943190082
3346.0,0.00948717385897865
3345.0,0.009485441129297027
3344.0,0.009481098477219898
3343.0,0.00947854542498213
3342.0,0.009476569680105832
3341.0,0.00947223708951307
3340.0,0.009466236763395246
3339.0,0.009462724314912938
3338.0,0.00946488331074402
3337.0,0.009472098152150525
3336.0,0.009480853470639984
3335.0,0.009487082549145286
3334.0,0.00948811086482585
3333.0,0.009483848765541935
3332.0,0.009476341901859895
3331.0,0.009467123741319628
3330.0,0.00945462770925228
3329.0,0.009434960125136446
3328.0,0.009406060743147796
3327.0,0.009371381342424441
3326.0,0.00933894028203572
3325.0,0.009315572971985073
3324.0,0.00930124239124216
3323.0,0.00928942342973929
3322.0,0.00927393804129376
3321.0,0.00925499762347668
3320.0,0.009237571544216757
3319.0,0.009224786360957006
3318.0,0.009215249100091843
3317.0,0.009206747658210997
3316.0,0.009199494827745423
3315.0,0.009194060288096727
3314.0,0.009188405117590002
3313.0,0.009179665125544894
3312.0,0.009168305977467204
3311.0,0.009158213133435445
3310.0,0.009152325586071519
3309.0,0.00914970553347472
3308.0,0.009147628065480072
3307.0,0.00914571792539491
3306.0,0.009147019781400268
3305.0,0.009154694699191751
3304.0,0.009167705840995468
3303.0,0.009180128465832518
3302.0,0.009185618948810354
3301.0,0.009182955408104009
3300.0,0.009176583405772093
3299.0,0.009171685717440807
3298.0,0.009169594596489989
3297.0,0.00916816512872222
3296.0,0.009165147776962871
3295.0,0.009159935748186404
3294.0,0.009152948823728833
3293.0,0.009144959508998584
3292.0,0.009136960763722111
3291.0,0.00912934819836486
3290.0,0.009120940993022464
3289.0,0.00910983499607469
3288.0,0.009095939206741547
3287.0,0.009082135200926187
3286.0,0.009071980946446205
3285.0,0.009066050909262848
3284.0,0.009061061669296292
3283.0,0.009052900118600764
3282.0,0.009040184846775332
3281.0,0.009024441766460521
3280.0,0.009007410648011645
3279.0,0.008989712066339134
3278.0,0.008972589159495975
3277.0,0.008959290311274825
3276.0,0.008952751184765188
3275.0,0.008951951883491424
3274.0,0.008951954394982193
3273.0,0.00894813805007622
3272.0,0.008940017306209106
3271.0,0.00893097365074446
3270.0,0.00892472411757183
3269.0,0.00892182274291858
3268.0,0.008919250866623967
3267.0,0.00891384389366897
3266.0,0.00890620088287493
3265.0,0.008900041024745838
3264.0,0.008897214167187133
3263.0,0.008895012371992818
3262.0,0.008889917785460916
3261.0,0.008882310981266494
3260.0,0.008874946323912057
3259.0,0.008867825927939822
3258.0,0.008857825370902721
3257.0,0.008843585155290844
3256.0,0.008827869869554117
3255.0,0.00881427377285417
3254.0,0.008803754644018098
3253.0,0.00879549978574768
3252.0,0.008789174212962582
3251.0,0.008784751661477928
3250.0,0.008781423482280976
3249.0,0.008778113620974923
3248.0,0.008774488479374775
3247.0,0.008770666210438262
3246.0,0.00876660300012342
3245.0,0.008762303787873018
3244.0,0.008757964941342226
3243.0,0.008753466960781744
3242.0,0.008748502670020954
3241.0,0.00874352956508691
3240.0,0.008739508522051855
3239.0,0.00873595372605678
3238.0,0.008730088753244849
3237.0,0.008718899366826042
3236.0,0.008702145938978074
3235.0,0.008683434946586827
3234.0,0.008668367288624551
3233.0,0.008660987344573753
3232.0,0.008660970329060887
3231.0,0.008663997250531992
3230.0,0.008665023316346674
3229.0,0.00866087564273662
3228.0,0.008650171959960831
3227.0,0.008632994128663448
3226.0,0.008612167578474425
3225.0,0.008593021053403295
3224.0,0.008579110571828459
3223.0,0.008568203913120218
3222.0,0.008554378024171751
3221.0,0.008534240683387992
3220.0,0.008509737010475818
3219.0,0.00848506807242851
3218.0,0.008462732669241975
3217.0,0.008442789498169397
3216.0,0.008424298756694055
3215.0,0.008406852755053961
3214.0,0.008391149653373937
3213.0,0.008377640096712772
3212.0,0.008364231752223193
3211.0,0.008347009935874245
3210.0,0.008324804539205706
3209.0,0.008301518342457214
3208.0,0.008281810562964342
3207.0,0.008265968040938815
3206.0,0.008251725596081769
3205.0,0.008239511019566383
3204.0,0.008231824727542678
3203.0,0.008227588587003948
3202.0,0.008221387958494482
3201.0,0.00820968651078658
3200.0,0.008194835016215435
3199.0,0.008181692142067024
3198.0,0.008172633334230687
3197.0,0.008166811866781868
3196.0,0.008161714686816176
3195.0,0.008153969049164468
3194.0,0.008140794354580363
3193.0,0.008122506857575035
3192.0,0.008102372446709657
3191.0,0.008083026073054706
3190.0,0.008064472843755943
3189.0,0.00804638419240591
3188.0,0.008030209483802973
3187.0,0.008017195854383655
3186.0,0.00800585066947702
3185.0,0.007993288166334343
3184.0,0.007978449570021232
3183.0,0.007962634178993375
3182.0,0.007947396386962784
3181.0,0.00793311286718852
3180.0,0.007919380985073948
3179.0,0.00790595560387542
3178.0,0.007892974370366363
3177.0,0.007880347779471268
3176.0,0.007867217657190211
3175.0,0.007852838293605158
3174.0,0.007838332117791431
3173.0,0.007826326546821435
3172.0,0.00781755532310242
3171.0,0.00780889347489412
3170.0,0.007796730776942684
3169.0,0.007781803684830594
3168.0,0.007768537331989237
3167.0,0.007759683872936386
3166.0,0.0077538799306016756
3165.0,0.007748618998222795
3164.0,0.007743254888441077
3163.0,0.007738111559461669
3162.0,0.007732297167727156
3161.0,0.00772399224892111
3160.0,0.00771279390694171
3159.0,0.007701136839573049
3158.0,0.0076928800104607824
3157.0,0.00768956448290708
3156.0,0.007687735100902404
3155.0,0.007681669387157804
3154.0,0.007670182602384987
3153.0,0.0076592799708695425
3152.0,0.007656189881328381
3151.0,0.007661629206923716
3150.0,0.007669704520965551
3149.0,0.00767435524761172
3148.0,0.007673352376393669
3147.0,0.0076671931304168744
3146.0,0.007658151394946652
3145.0,0.007650869339092007
3144.0,0.00765017263786295
3143.0,0.007656533314090061
3142.0,0.007665860785929743
3141.0,0.007675200610415855
3140.0,0.007686834927684452
3139.0,0.007705237716391897
3138.0,0.0077315536609737934
3137.0,0.007763103970245688
3136.0,0.007797270501998795
3135.0,0.007833654461810176
3134.0,0.007872161862165394
3133.0,0.007910142436568866
3132.0,0.007942824577105455
3131.0,0.007967265055710293
3130.0,0.007985019852554547
3129.0,0.007999376152926483
3128.0,0.008009863275846815
3127.0,0.008011714975664217
3126.0,0.008001965270142453
3125.0,0.007983828592584695
3124.0,0.007963401394595995
3123.0,0.007944068664349515
3122.0,0.007926842391595025
3121.0,0.007914714622688168
3120.0,0.007912750063506387
3119.0,0.007923968497076762
3118.0,0.007948164985330321
3117.0,0.00798471079917427
3116.0,0.008033745034433064
3115.0,0.008094461981170196
3114.0,0.008165109378165763
3113.0,0.008245265822312659
3112.0,0.008335090665795483
3111.0,0.008431709093562842
3110.0,0.008529128920670696
3109.0,0.008622587597398385
3108.0,0.008710686079639799
3107.0,0.008791962696615935
3106.0,0.008861797490983762
3105.0,0.008914397434677201
3104.0,0.008945668618660406
3103.0,0.008952412901922165
3102.0,0.008931080766053584
3101.0,0.008880721452591021
3100.0,0.008807254259241115
3099.0,0.008722233139511443
3098.0,0.00863690192152728
3097.0,0.008559012942196792
3096.0,0.008494651920599072
3095.0,0.0084504319644741
3094.0,0.008432044499784056
3093.0,0.00844071962881179
3092.0,0.008472535439704623
3091.0,0.00852262773018682
3090.0,0.008589691578000836
3089.0,0.00867460147895288
3088.0,0.008774318532346179
3087.0,0.008879625988682147
3086.0,0.008981120241208836
3085.0,0.00907499954150777
3084.0,0.009160156898908114
3083.0,0.009231936449116367
3082.0,0.009283075329155567
3081.0,0.009311272530154823
3080.0,0.009321747768753075
3079.0,0.009321363181145507
3078.0,0.009314058933236693
3077.0,0.009302917707134295
3076.0,0.009292708498713245
3075.0,0.009287489371483602
3074.0,0.00928798464406665
3073.0,0.009293586392670306
3072.0,0.009304408320073853
3071.0,0.009318878953622569
3070.0,0.009330888203024726
3069.0,0.009332695463947228
3068.0,0.00932073529072934
3067.0,0.009296782547317722
3066.0,0.009264448935924475
3065.0,0.009226723914755352
3064.0,0.009187202205267192
3063.0,0.009151667675288447
3062.0,0.009127381874982864
3061.0,0.009121240968420586
3060.0,0.009137940410308047
3059.0,0.009177987915900795
3058.0,0.009236034798626452
3057.0,0.009300584834930237
3056.0,0.009355304679635303
3055.0,0.009382087148586233
3054.0,0.009365484569210611
3053.0,0.009296503853052843
3052.0,0.009173651469482893
3051.0,0.009001836037192795
3050.0,0.008791349935752762
3049.0,0.008557593567596592
3048.0,0.008319068882742066
3047.0,0.008092195197525891
3046.0,0.007886972725416545
3045.0,0.007707108901441348
3044.0,0.007553124865177939
3043.0,0.007425073933020472
3042.0,0.007323281188559202
3041.0,0.007247267748140383
3040.0,0.00719389666031094
3039.0,0.007157120824182869
3038.0,0.007130786939056917
3037.0,0.007111859800257832
3036.0,0.007100523173810817
3035.0,0.007097654415572882
3034.0,0.007103101279937279
3033.0,0.00711585558947218
3032.0,0.00713439846116003
3031.0,0.007157201143723868
3030.0,0.007184560061127266
3029.0,0.00721968037044632
3028.0,0.007266379622822849
3027.0,0.0073255661260022975
3026.0,0.007394607268463964
3025.0,0.007469977442500896
3024.0,0.00754976339198065
3023.0,0.007634368149675715
3022.0,0.00772637771590777
3021.0,0.007829097034324193
3020.0,0.007943435848235442
3019.0,0.00806611480174364
3018.0,0.008191991007836064
3017.0,0.008318127875614263
3016.0,0.008444476621949602
3015.0,0.00857146579811326
3014.0,0.008698929269329083
3013.0,0.008826865528673242
3012.0,0.008955118589588314
3011.0,0.009082309154408639
3010.0,0.009207053615572294
3009.0,0.009330296013645269
3008.0,0.009454312578670456
3007.0,0.009579185861188994
3006.0,0.009702049062580377
3005.0,0.009819960622369759
3004.0,0.00993185563329403
3003.0,0.010037396637166704
3002.0,0.01013624309983849
3001.0,0.010229656390632447
3000.0,0.010321184244242443
2999.0,0.010414388175037497
2998.0,0.010510503165159082
2997.0,0.010609007713514083
2996.0,0.010709850451586825
2995.0,0.010814556091227676
2994.0,0.010926025119776058
2993.0,0.011047467509576133
2992.0,0.011180720006822775
2991.0,0.011325460581024283
2990.0,0.0114803544052108
2989.0,0.011644648406537865
2988.0,0.011818037866408884
2987.0,0.011999978723290842
2986.0,0.012190422441979303
2985.0,0.012390351634000311
2984.0,0.012600283715951982
2983.0,0.012819434844752967
2982.0,0.013048387276953483
2981.0,0.013291511417791953
2980.0,0.013554029542589906
2979.0,0.013837127597925138
2978.0,0.014138416360888643
2977.0,0.014456813611231929
2976.0,0.014793378968909147
2975.0,0.015146814353143585
2974.0,0.015511572472852866
2973.0,0.015881615721178282
2972.0,0.016252922450253258
2971.0,0.016620312191625925
2970.0,0.01697506532902684
2969.0,0.017308870543875296
2968.0,0.017618835918472707
2967.0,0.017906149290403156
2966.0,0.01817064885507472
2965.0,0.018407891991608798
2964.0,0.018610490338849678
2963.0,0.018770569586215046
2962.0,0.018881795987473884
2961.0,0.018941096565924652
2960.0,0.01894798504979469
2959.0,0.018901426187210905
2958.0,0.01879841572752315
2957.0,0.018636863675301103
2956.0,0.018418338472444423
2955.0,0.018146894226118617
2954.0,0.01782645256890401
2953.0,0.01745983599966763
2952.0,0.017049153751678058
2951.0,0.01659689580312976
2950.0,0.016108020763008518
2949.0,0.015591053463152888
2948.0,0.015055518106052962
2947.0,0.01450829570864601
2946.0,0.013954182258452932
2945.0,0.013399676311005769
2944.0,0.012854078972236829
2943.0,0.012327049084151392
2942.0,0.011827155387852131
2941.0,0.01136183643067908
2940.0,0.010935976808098382
2939.0,0.010550970627113507
2938.0,0.010206790055835031
2937.0,0.009903501624665741
2936.0,0.009639097541945514
2935.0,0.009407778926105184
2934.0,0.009203501753747196
2933.0,0.009023965463844052
2932.0,0.008867782959895987
2931.0,0.008730165789186029
2930.0,0.008605451499935808
2929.0,0.008492116760761356
2928.0,0.008390336116319305
2927.0,0.008295809026168229
2926.0,0.008201679038054289
2925.0,0.008106551178174362
2924.0,0.00801564875564459
2923.0,0.007933423232034192
2922.0,0.007860885540553421
2921.0,0.007801178364171447
2920.0,0.0077628546060064755
2919.0,0.0077555239173373175
2918.0,0.007784379734507357
2917.0,0.007849714777264986
2916.0,0.007947932765468355
2915.0,0.008072003975439484
2914.0,0.008213574521933952
2913.0,0.008365185324082912
2912.0,0.008519698572205855
2911.0,0.008668241735133596
2910.0,0.008800973467687087
2909.0,0.008910328847955337
2908.0,0.008991803332675404
2907.0,0.009043194167529437
2906.0,0.009066187549789646
2905.0,0.00906859193026883
2904.0,0.009061927694606628
2903.0,0.009056239564848995
2902.0,0.009058362217723617
2901.0,0.009073431325612844
2900.0,0.009104043248916633
2899.0,0.009148673937521347
2898.0,0.009204250539432883
2897.0,0.00926981537157053
2896.0,0.009345048326781917
2895.0,0.009425018929586962
2894.0,0.009500213195398755
2893.0,0.009562567754096325
2892.0,0.009608230343631778
2891.0,0.009635062660501228
2890.0,0.009641156910021272
2889.0,0.009626844013899547
2888.0,0.009594549910567
2887.0,0.009545266870307191
2886.0,0.009478323483610168
2885.0,0.00939545057676849
2884.0,0.009301864478088982
2883.0,0.0092019464769395
2882.0,0.009096986573082937
2881.0,0.008988714549180803
2880.0,0.008882209717338463
2879.0,0.008783029532139924
2878.0,0.008692996010168213
2877.0,0.008610360815552331
2876.0,0.00853235432449359
2875.0,0.00845669351209788
2874.0,0.008382160991363049
2873.0,0.008308969429863134
2872.0,0.008237930710973685
2871.0,0.008169129401630084
2870.0,0.008102502258538253
2869.0,0.008039116024143731
2868.0,0.007980065049357384
2867.0,0.007924461244832539
2866.0,0.00787046932580039
2865.0,0.00781787936115671
2864.0,0.007767382273992754
2863.0,0.00771819607537017
2862.0,0.007669246786385796
2861.0,0.0076216470656352425
2860.0,0.007575893467141336
2859.0,0.007526587746553751
2858.0,0.007463665679784681
2857.0,0.007379878571201282
2856.0,0.007274692189263571
2855.0,0.007151695459474368
2854.0,0.007016565617216867
2853.0,0.0068779574015055776
2852.0,0.00674648847860505
2851.0,0.006630431676367683
2850.0,0.006534170163166101
2849.0,0.006459837496615025
2848.0,0.006406661680033579
2847.0,0.006368114671327868
2846.0,0.006333856449756309
2845.0,0.006296216974194654
2844.0,0.006253625129580982
2843.0,0.006208013973711044
2842.0,0.006161296417788483
2841.0,0.006114793783891282
2840.0,0.006069162041916485
2839.0,0.006023889554882783
2838.0,0.0059784748130463986
2837.0,0.005934407220888865
2836.0,0.005894155674427038
2835.0,0.005858052070290736
2834.0,0.005824198856502198
2833.0,0.00579144104840219
2832.0,0.005760231383010583
2831.0,0.005730511852909544
2830.0,0.005701153862851475
2829.0,0.0056719722162732415
2828.0,0.00564413990207722
2827.0,0.005618021760438987
2826.0,0.005592442444664791
2825.0,0.00556669618298752
2824.0,0.005541756930483624
2823.0,0.0055189852638895375
2822.0,0.005498851931171771
2821.0,0.005481119339649341
2820.0,0.005465130887801177
2819.0,0.005450143321769492
2818.0,0.00543646506578911
2817.0,0.005425639373264908
2816.0,0.005418251076767997
2815.0,0.005412408078732809
2814.0,0.0054057944379918305
2813.0,0.005398176298004537
2812.0,0.005390269129650648
2811.0,0.005381638094969398
2810.0,0.005372073510662061
2809.0,0.005363559760558848
2808.0,0.005358022635521773
2807.0,0.0053537841410372326
2806.0,0.005346811095901936
2805.0,0.005334945093188649
2804.0,0.005318337007613291
2803.0,0.005296766444938541
2802.0,0.005269637810379352
2801.0,0.005238265857005896
2800.0,0.005205473684077144
2799.0,0.005173142157063631
2798.0,0.005142583639530445
2797.0,0.005116223472157073
2796.0,0.005095796985192803
2795.0,0.005079182621625427
2794.0,0.005061931239183713
2793.0,0.005041944034272516
2792.0,0.005020264554100773
2791.0,0.004998109564133363
2790.0,0.004976126131977675
2789.0,0.00495574632462219
2788.0,0.0049379761718019955
2787.0,0.00492105422360392
2786.0,0.004902308247770192
2785.0,0.004882124887447473
2784.0,0.004863048917821541
2783.0,0.004845472982202505
2782.0,0.004827516171155246
2781.0,0.004808801080733659
2780.0,0.004790949706756826
2779.0,0.004774441953451314
2778.0,0.0047583650187869395
2777.0,0.004743258389626787
2776.0,0.004730900458345808
2775.0,0.004721304624991769
2774.0,0.004713191872412743
2773.0,0.004707162191115591
2772.0,0.004704555210354745
2771.0,0.004703180383054311
2770.0,0.004698403298729154
2769.0,0.004689328571389823
2768.0,0.0046803387433173626
2767.0,0.004675364282993107
2766.0,0.004673784256247294
2765.0,0.004672950429255188
2764.0,0.004671509317247294
2763.0,0.004668800823708553
2762.0,0.004663992137933304
2761.0,0.004657321563899129
2760.0,0.004649823726500907
2759.0,0.004640943229347804
2758.0,0.004628951359158226
2757.0,0.004614641672699973
2756.0,0.004601882140638376
2755.0,0.0045930849634869654
2754.0,0.00458615393835843
2753.0,0.004576731634325404
2752.0,0.004561529779235772
2751.0,0.004539542241319634
2750.0,0.0045129199504925915
2749.0,0.0044873173259542265
2748.0,0.004468200976489664
2747.0,0.004455437101985651
2746.0,0.0044435827843329915
2745.0,0.004428290782309085
2744.0,0.0044103916599335545
2743.0,0.004392929202470648
2742.0,0.004376826079353784
2741.0,0.004360844889723077
2740.0,0.004343675718395406
2739.0,0.004324716913484345
2738.0,0.0043043135118158
2737.0,0.004284189069142457
2736.0,0.0042662589278497235
2735.0,0.004250345520447997
2734.0,0.00423437085077895
2733.0,0.00421692213216897
2732.0,0.00419820224592896
2731.0,0.004178543239321935
2730.0,0.004157815577895113
2729.0,0.0041364134300279475
2728.0,0.004115057122052471
2727.0,0.004093715023864339
2726.0,0.0040724261468449525
2725.0,0.0040527613948329625
2724.0,0.004036369497509834
2723.0,0.004022420706950807
2722.0,0.004008686391779473
2721.0,0.003994645731854482
2720.0,0.00398128390443212
2719.0,0.003968351407733027
2718.0,0.0039544363563367895
2717.0,0.003939547891360759
2716.0,0.003925000531583164
2715.0,0.003911054005224977
2714.0,0.0038972730269232654
2713.0,0.003884812817507754
2712.0,0.003875352840561128
2711.0,0.0038679100960176457
2710.0,0.0038595928025778594
2709.0,0.003849368306224645
2708.0,0.0038381963533694052
2707.0,0.0038257040229925003
2706.0,0.0038103337532665107
2705.0,0.0037930719762926998
2704.0,0.0037775943820268594
2703.0,0.003765997787081768
2702.0,0.0037572056424767086
2701.0,0.0037500228629243964
2700.0,0.0037446591813903194
2699.0,0.0037405452735660705
2698.0,0.0037358605689957816
2697.0,0.003730325215001656
2696.0,0.0037257447549604123
2695.0,0.0037227948855728665
2694.0,0.0037196755054125924
2693.0,0.0037148906705187675
2692.0,0.00370903605872639
2691.0,0.0037031131008276544
2690.0,0.003697419438926269
2689.0,0.0036926748305640376
2688.0,0.003689755963798622
2687.0,0.0036875343620325516
2686.0,0.0036832246948046996
2685.0,0.0036757333429594356
2684.0,0.00366681087936172
2683.0,0.003658593368401867
2682.0,0.003652114044380121
2681.0,0.0036481334318839657
2680.0,0.0036467450205667174
2679.0,0.003645750843487624
2678.0,0.0036420786185370046
2677.0,0.003635463325178799
2676.0,0.0036284781777545473
2675.0,0.0036227070781790823
2674.0,0.003617457346942453
2673.0,0.0036124597453604575
2672.0,0.0036089161083789874
2671.0,0.0036070600481414583
2670.0,0.0036053623755051304
2669.0,0.0036030595693651813
2668.0,0.003601385287539961
2667.0,0.0036018233742220384
2666.0,0.003605361218183175
2665.0,0.003613511064778519
2664.0,0.0036271638460614293
2663.0,0.003644105505835566
2662.0,0.003660507726370197
2661.0,0.003675689389192254
2660.0,0.003692475771049186
2659.0,0.0037120793791588615
2658.0,0.0037316328715519247
2657.0,0.003747988390724025
2656.0,0.003761214192177737
2655.0,0.003772788766253115
2654.0,0.0037830949578410425
2653.0,0.0037924401197034366
2652.0,0.0038023107882638576
2651.0,0.003813685117204344
2650.0,0.0038257153520347698
2649.0,0.003837370070507889
2648.0,0.003848798750605594
2647.0,0.003860113806427515
2646.0,0.0038706872285778704
2645.0,0.003880683284306371
2644.0,0.0038914732555768855
2643.0,0.0039037077876691723
2642.0,0.003916865966793181
2641.0,0.003931426967580486
2640.0,0.003949444833084844
2639.0,0.003972026064908496
2638.0,0.003998108488893648
2637.0,0.004026350758773257
2636.0,0.00405621833060767
2635.0,0.0040866132338073175
2634.0,0.004115427157213571
2633.0,0.004140923723167258
2632.0,0.004161787554653942
2631.0,0.004176018826016966
2630.0,0.004182381809579092
2629.0,0.004183099485175145
2628.0,0.004182287568275922
2627.0,0.004181377155176685
2626.0,0.004178700034111951
2625.0,0.004173503042718706
2624.0,0.004167148922966579
2623.0,0.004160387624850095
2622.0,0.004153067168570813
2621.0,0.004146765967642524
2620.0,0.004143706560073539
2619.0,0.00414243582315362
2618.0,0.004138735865610405
2617.0,0.004131891072777956
2616.0,0.004126011637458485
2615.0,0.004123890162235678
2614.0,0.004123638741406615
2613.0,0.004123161602350602
2612.0,0.004123615343431375
2611.0,0.004125915846757368
2610.0,0.004127260435384475
2609.0,0.004124186450859869
2608.0,0.004117222777786639
2607.0,0.004110460435847862
2606.0,0.004108158628519652
2605.0,0.004112525033806932
2604.0,0.004122258156800749
2603.0,0.004132506027981474
2602.0,0.004138867636672431
2601.0,0.0041423506796848045
2600.0,0.004147846173007846
2599.0,0.004157325328765697
2598.0,0.004167734844837652
2597.0,0.004176145615001115
2596.0,0.0041834894935466275
2595.0,0.0041921905941310145
2594.0,0.004203298655513768
2593.0,0.004217134962906419
2592.0,0.004233713721074355
2591.0,0.00425137338170239
2590.0,0.004267552548475828
2589.0,0.004281486997486276
2588.0,0.004293872971426848
2587.0,0.004304405591437722
2586.0,0.004313025781869004
2585.0,0.004322792449950454
2584.0,0.004337012046787096
2583.0,0.004353390838896834
2582.0,0.004365597658209173
2581.0,0.0043713601449541836
2580.0,0.004374489213238282
2579.0,0.004378270466391106
2578.0,0.004381723060934241
2577.0,0.004383509502138212
2576.0,0.004384831378852056
2575.0,0.0043865869238581805
2574.0,0.00438750732452069
2573.0,0.004386931130945674
2572.0,0.004386294720072056
2571.0,0.004386936247634573
2570.0,0.004389337432503258
2569.0,0.004394295143088337
2568.0,0.004400991714959722
2567.0,0.004404558617470678
2566.0,0.0044009066119864515
2565.0,0.004394273591950184
2564.0,0.004394078504907093
2563.0,0.004402890955938535
2562.0,0.004412830277939604
2561.0,0.004415616617981066
2560.0,0.004411380392040426
2559.0,0.0044056585529444105
2558.0,0.004402493466462254
2557.0,0.004403039488257107
2556.0,0.004406772896039536
2555.0,0.0044113835830319765
2554.0,0.004414259554844834
2553.0,0.004415532585746179
2552.0,0.004417089658861372
2551.0,0.004418500290168087
2550.0,0.0044174564545336635
2549.0,0.0044140153284633376
2548.0,0.004410110477229986
2547.0,0.004405112723064257
2546.0,0.004396885329011493
2545.0,0.004387183930164348
2544.0,0.004380281718630199
2543.0,0.004375705846239163
2542.0,0.004368408591176126
2541.0,0.0043575289272971785
2540.0,0.004348830790763395
2539.0,0.004346195347436853
2538.0,0.004346341421961031
2537.0,0.004344338214919719
2536.0,0.004339244392161535
2535.0,0.00433212301736027
2534.0,0.004323675219970684
2533.0,0.0043166257082894515
2532.0,0.004315637144154101
2531.0,0.004321403684853732
2530.0,0.00432828983592475
2529.0,0.004330408832888443
2528.0,0.0043269716708340235
2527.0,0.004319900170922874
2526.0,0.004309896269510266
2525.0,0.004297312249370214
2524.0,0.004283889026812565
2523.0,0.0042714402741914756
2522.0,0.004260897813118969
2521.0,0.00425330343769871
2520.0,0.004248950268103906
2519.0,0.0042452749886690505
2518.0,0.004238836418466776
2517.0,0.004229610689343068
2516.0,0.00422014412638206
2515.0,0.004210904173336888
2514.0,0.00420033956026793
2513.0,0.004188795786005286
2512.0,0.004177786793707001
2511.0,0.004166097711419222
2510.0,0.00415180438934128
2509.0,0.004137697965694082
2508.0,0.004128884818337951
2507.0,0.004124822862616968
2506.0,0.004119716916676092
2505.0,0.0041113179303233
2504.0,0.004102921910821203
2503.0,0.004095524039162209
2502.0,0.004084828701536581
2501.0,0.004068577486213379
2500.0,0.004050959198844184
2499.0,0.004036648720530158
2498.0,0.0040250531814360205
2497.0,0.004012946637598221
2496.0,0.003998391689328098
2495.0,0.0039798319875880275
2494.0,0.003955762918377439
2493.0,0.003928174796746485
2492.0,0.00390286988377797
2491.0,0.0038837787893472395
2490.0,0.0038693081032164164
2489.0,0.0038552254571839898
2488.0,0.003838242631195348
2487.0,0.0038166215415789727
2486.0,0.0037912625843836726
2485.0,0.003766946822641095
2484.0,0.003748651602971
2483.0,0.0037358115652682154
2482.0,0.003723404139536061
2481.0,0.0037083369458737487
2480.0,0.0036908188873387314
2479.0,0.0036702952719411637
2478.0,0.003645623937754713
2477.0,0.0036198707713390194
2476.0,0.003599451669474781
2475.0,0.0035868435002660553
2474.0,0.0035782355899334154
2473.0,0.0035691242866639755
2472.0,0.0035579808546097463
2471.0,0.0035441187149950074
2470.0,0.0035271092100175976
2469.0,0.0035096699694564214
2468.0,0.00349662946514502
2467.0,0.0034894114358594314
2466.0,0.0034849869701972236
2465.0,0.003480926445160507
2464.0,0.003477899470594393
2463.0,0.0034768580976354147
2462.0,0.003477432755372361
2461.0,0.0034792813385136675
2460.0,0.0034815971169350948
2459.0,0.0034819763014746156
2458.0,0.0034798120015552972
2457.0,0.003479713210675626
2456.0,0.0034865361903942066
2455.0,0.003497572509719532
2454.0,0.0035048036775499067
2453.0,0.003504431174756249
2452.0,0.0034988485170213603
2451.0,0.003489962430497961
2450.0,0.0034773831199676943
2449.0,0.003464029145599635
2448.0,0.003456730591547094
2447.0,0.003458756355339456
2446.0,0.00346648169709179
2445.0,0.0034750688317230225
2444.0,0.003483098622108014
2443.0,0.0034904571075270157
2442.0,0.0034960108264861234
2441.0,0.003498889566364363
2440.0,0.0034990364025199935
2439.0,0.0034964428749320016
2438.0,0.0034930661651081133
2437.0,0.00349434646260553
2436.0,0.003504371192241373
2435.0,0.003520356104039099
2434.0,0.0035361851543671864
2433.0,0.003549889699075044
2432.0,0.003562939067528438
2431.0,0.0035745291815678466
2430.0,0.003583032060742658
2429.0,0.003591509344126622
2428.0,0.0036047099433181547
2427.0,0.0036213549766837896
2426.0,0.00363627953489553
2425.0,0.003649381723770167
2424.0,0.0036650584319808067
2423.0,0.0036832165035774475
2422.0,0.0036988105568701276
2421.0,0.0037105282066432635
2420.0,0.003721871549600013
2419.0,0.0037331215950832386
2418.0,0.0037408529025448906
2417.0,0.003746899854862004
2416.0,0.003759258546195964
2415.0,0.0037812501733245126
2414.0,0.0038070267422936803
2413.0,0.003830579454604425
2412.0,0.0038522828867640123
2411.0,0.0038734508474638878
2410.0,0.003891127246517416
2409.0,0.003902351913431682
2408.0,0.003908469004934193
2407.0,0.003911766374998434
2406.0,0.00391258942031552
2405.0,0.003912567990395399
2404.0,0.003915856377723504
2403.0,0.003924515186631445
2402.0,0.003936712820268298
2401.0,0.003950937049291227
2400.0,0.0039673825592689005
2399.0,0.003983960502497134
2398.0,0.0039963030569486295
2397.0,0.004003758427476107
2396.0,0.004010386466377178
2395.0,0.004017837286595888
2394.0,0.00402225736703863
2393.0,0.004020492005189482
2392.0,0.004014675332292157
2391.0,0.00400854983517244
2390.0,0.004003437104541372
2389.0,0.003999549459653275
2388.0,0.003996816248110523
2387.0,0.003992342755377673
2386.0,0.00398117942550393
2385.0,0.003961736906163118
2384.0,0.003936804854575856
2383.0,0.003907414802518068
2382.0,0.0038693242439080174
2381.0,0.0038177136176288564
2380.0,0.003752546349339655
2379.0,0.0036780110912893902
2378.0,0.003601187499021925
2377.0,0.003533524734211752
2376.0,0.0034870193804527614
2375.0,0.003464334890236835
2374.0,0.0034564151664798343
2373.0,0.0034530487981054084
2372.0,0.00344870827195829
2371.0,0.0034352725695764594
2370.0,0.003402685603789168
2369.0,0.0033558601596504417
2368.0,0.0033167197029376778
2367.0,0.0032987742584930013
2366.0,0.003293410698768654
2365.0,0.0032897978978385306
2364.0,0.00328778435938759
2363.0,0.0032831492179941635
2362.0,0.003264446614811457
2361.0,0.0032308137497930505
2360.0,0.003196243283591315
2359.0,0.003165811631605525
2358.0,0.0031270454126423224
2357.0,0.0030811752415672213
2356.0,0.0030460635941173975
2355.0,0.003031244108024706
2354.0,0.0030292382459071038
2353.0,0.0030308885558620775
2352.0,0.003034883904686536
2351.0,0.003033080455813973
2350.0,0.003020457720011696
2349.0,0.0030072886988317185
2348.0,0.0030112454307390825
2347.0,0.003042952053848554
2346.0,0.0030857858253736043
2345.0,0.0031113128867380647
2344.0,0.0031014506547816364
2343.0,0.0030606494839381096
2342.0,0.0030045360468120997
2341.0,0.00295306560621733
2340.0,0.002931650201917657
2339.0,0.0029392878792963897
2338.0,0.00295073626976432
2337.0,0.0029461454693892383
2336.0,0.002932865688354433
2335.0,0.0029200993711199115
2334.0,0.002901605711879301
2333.0,0.0028673998659143746
2332.0,0.0028301479294919104
2331.0,0.002810524313567783
2330.0,0.0028213551801138034
2329.0,0.0028646571285307334
2328.0,0.002941581098654905
2327.0,0.003054512242475665
2326.0,0.0031865749482342474
2325.0,0.0033072617903268193
2324.0,0.0033776468602560953
2323.0,0.003375313596144509
2322.0,0.0033149189442119595
2321.0,0.0032409414741236585
2320.0,0.0031954968503587824
2319.0,0.0031810965726218055
2318.0,0.0031771174266924185
2317.0,0.003166820156142008
2316.0,0.0031516355675866407
2315.0,0.0031349315513386437
2314.0,0.003117731605515029
2313.0,0.0031041402966738713
2312.0,0.0031028314350703984
2311.0,0.003116349890840037
2310.0,0.003137974430234115
2309.0,0.003163023939424992
2308.0,0.0031915893984097313
2307.0,0.003222069591348983
2306.0,0.0032492149701917137
2305.0,0.003273797039597584
2304.0,0.0033033214233274596
2303.0,0.003341241225169489
2302.0,0.0033827436077193164
2301.0,0.003422562890233933
2300.0,0.0034612694983243595
2299.0,0.00350047025042586
2298.0,0.0035399498614699767
2297.0,0.0035822011999151237
2296.0,0.0036318781167390688
2295.0,0.003689528197507114
2294.0,0.003749752905114304
2293.0,0.0038104081447761584
2292.0,0.0038730474573168442
2291.0,0.003935691941662324
2290.0,0.003990424711192903
2289.0,0.004034070472680411
2288.0,0.004070955194813916
2287.0,0.0041023585206328445
2286.0,0.004120309686006704
2285.0,0.004118077253318063
2284.0,0.00410016184258917
2283.0,0.004076315336530041
2282.0,0.0040517592513793785
2281.0,0.004026378045601864
2280.0,0.003998250843211616
2279.0,0.003963642723403104
2278.0,0.003920939357388493
2277.0,0.003877109532232541
2276.0,0.003844043441175382
2275.0,0.003825048690792458
2274.0,0.0038123931071058796
2273.0,0.0037998180616752343
2272.0,0.0037881778895712155
2271.0,0.0037771082474459617
2270.0,0.0037612933559577873
2269.0,0.0037391873235604637
2268.0,0.003716399650659374
2267.0,0.0036974686607802263
2266.0,0.0036837373440546306
2265.0,0.003680152011021548
2264.0,0.0036919335625974032
2263.0,0.003712068646681741
2262.0,0.003724711562298347
2261.0,0.003725915686471305
2260.0,0.0037283277915637425
2259.0,0.003740585824526553
2258.0,0.0037540084056225847
2257.0,0.003754658588422048
2256.0,0.003738485161636439
2255.0,0.0037084625062237036
2254.0,0.0036699387647666877
2253.0,0.0036341199955243295
2252.0,0.0036154045015001027
2251.0,0.0036174093537825113
2250.0,0.003629951055599226
2249.0,0.003642377425997903
2248.0,0.0036511517907035175
2247.0,0.0036536492561885184
2246.0,0.003647411794908748
2245.0,0.003637442711713533
2244.0,0.0036311718490193347
2243.0,0.0036240593979384936
2242.0,0.0036049459084457084
2241.0,0.003577729330865944
2240.0,0.0035610765706404705
2239.0,0.0035620144115648157
2238.0,0.00356700856565705
2237.0,0.003564412806165469
2236.0,0.0035579624784349093
2235.0,0.003550985430615116
2234.0,0.0035360653118395226
2233.0,0.0035118351203932306
2232.0,0.003494031216364022
2231.0,0.0034970511054776814
2230.0,0.0035158298058047075
2229.0,0.0035357357766187475
2228.0,0.0035482143888582824
2227.0,0.0035492633159117165
2226.0,0.003535339813079963
2225.0,0.0035113667069209516
2224.0,0.003491669468798392
2223.0,0.003484198416902006
2222.0,0.0034832723338318666
2221.0,0.0034823608652649546
2220.0,0.0034819876340355894
2219.0,0.0034806867934565047
2218.0,0.0034726968964514703
2217.0,0.0034604006878399384
2216.0,0.0034547240220427723
2215.0,0.0034571099164087456
2214.0,0.0034561097423914024
2213.0,0.0034475306002190367
2212.0,0.0034425804523116428
2211.0,0.003449536485586116
2210.0,0.0034621295586676057
2209.0,0.0034722108224689314
2208.0,0.0034788098629328296
2207.0,0.0034782195681668238
2206.0,0.003461096770030157
2205.0,0.0034274164775235623
2204.0,0.003390895313230515
2203.0,0.003362122741868024
2202.0,0.003339476753219225
2201.0,0.0033201399889599796
2200.0,0.003305637061303634
2199.0,0.0032953482331154584
2198.0,0.0032897204061049104
2197.0,0.0032986847077766408
2196.0,0.003328105928991831
2195.0,0.003359541645604554
2194.0,0.0033658439893215625
2193.0,0.003348261344037768
2192.0,0.003334988653939161
2191.0,0.0033404435814251643
2190.0,0.0033523596062454367
2189.0,0.0033619094684396817
2188.0,0.003377116096723424
2187.0,0.003399203424359832
2186.0,0.0034140591918236547
2185.0,0.0034164485181507696
2184.0,0.003415754738448351
2183.0,0.0034094678699453478
2182.0,0.0033821325046832097
2181.0,0.003341555261077641
2180.0,0.0033210022502982795
2179.0,0.003328719222904333
2178.0,0.003330208409592454
2177.0,0.003299834290196706
2176.0,0.0032610753911913558
2175.0,0.00325441151658311
2174.0,0.0032905197943989724
2173.0,0.0033566534659991883
2172.0,0.0034451897034073597
2171.0,0.003551291519633154
2170.0,0.003658166806070163
2169.0,0.003746199122010938
2168.0,0.0038090287578009287
2167.0,0.003848089035071979
2166.0,0.003867759597799286
2165.0,0.0038905939665658364
2164.0,0.003953343886569976
2163.0,0.004060568817420521
2162.0,0.004147991713641838
2161.0,0.0041127620534276085
2160.0,0.0038926733389235647
2159.0,0.0035300718139643665
2158.0,0.0031659574630328578
2157.0,0.002947632711253878
2156.0,0.002917162581108808
2155.0,0.0029987464690410313
2154.0,0.003095565122018376
2153.0,0.0031751209267835705
2152.0,0.0032582768961906894
2151.0,0.0033505112252385323
2150.0,0.003418984169210054
2149.0,0.003435002345217997
2148.0,0.0034070383036658193
2147.0,0.0033638071361351673
2146.0,0.0033320308685666046
2145.0,0.003334521610528004
2144.0,0.0033796849865084114
2143.0,0.0034434155691152784
2142.0,0.0034847090955673022
2141.0,0.0034876301316283517
2140.0,0.003471430427634357
2139.0,0.0034565662230644665
2138.0,0.0034415712649825203
2137.0,0.0034172160347289426
2136.0,0.003381631211909996
2135.0,0.0033363776744284495
2134.0,0.003286877612103743
2133.0,0.0032499505167913334
2132.0,0.0032429327980041493
2131.0,0.003263972905723251
2130.0,0.0032993679979896294
2129.0,0.003345876079362353
2128.0,0.003407434937116348
2127.0,0.003472732321373584
2126.0,0.0035188060323321883
2125.0,0.0035401629431924056
2124.0,0.003554953017519378
2123.0,0.00357782322686246
2122.0,0.0036054840510427047
2121.0,0.0036328945196773205
2120.0,0.0036639732670726687
2119.0,0.003699561983695616
2118.0,0.0037326064241170144
2117.0,0.00376245005084035
2116.0,0.003797447734210875
2115.0,0.003836529234791374
2114.0,0.0038642725217209514
2113.0,0.0038717846073368315
2112.0,0.0038674579324734946
2111.0,0.0038604592837358526
2110.0,0.0038503476142680458
2109.0,0.0038393444759525965
2108.0,0.0038362292917224865
2107.0,0.003839019385131273
2106.0,0.00383162266938924
2105.0,0.003808434929116206
2104.0,0.0037856753434742096
2103.0,0.003778118534878077
2102.0,0.003779418563406133
2101.0,0.003775585958256872
2100.0,0.003762760313290236
2099.0,0.003741869246353627
2098.0,0.003709017338873203
2097.0,0.0036623424805738835
2096.0,0.0036085092918256394
2095.0,0.003555768387698003
2094.0,0.003511374445408011
2093.0,0.0034869361802722003
2092.0,0.003491083010330717
2091.0,0.0035135316773358856
2090.0,0.0035310992098259927
2089.0,0.0035335074681372477
2088.0,0.00352925131412581
2087.0,0.003524835742132721
2086.0,0.0035158563017923155
2085.0,0.003502277396771042
2084.0,0.0034934437994421624
2083.0,0.0034911182428842124
2082.0,0.0034841888317457253
2081.0,0.0034669486496586247
2080.0,0.0034478271841882156
2079.0,0.0034342067031810815
2078.0,0.0034231815958394372
2077.0,0.0034108044584316376
2076.0,0.003395439766783871
2075.0,0.0033708754258901324
2074.0,0.003334327820859729
2073.0,0.0033007161995933653
2072.0,0.0032879394365866684
2071.0,0.003287340536151992
2070.0,0.003272133262832313
2069.0,0.0032361940824487193
2068.0,0.0031995611845531567
2067.0,0.003173284852285978
2066.0,0.00314787638655604
2065.0,0.0031209735422506636
2064.0,0.0031063396707130624
2063.0,0.0031050808201102246
2062.0,0.0030969544750412115
2061.0,0.003070554951056145
2060.0,0.0030390075683610495
2059.0,0.0030178946333666514
2058.0,0.0030072986481051657
2057.0,0.0030003901123697094
2056.0,0.002990633034546428
2055.0,0.0029722656783582966
2054.0,0.0029566022407055787
2053.0,0.0029802536135476697
2052.0,0.0030639226735383806
2051.0,0.003165911946847024
2050.0,0.0032109801469606043
2049.0,0.0031734859013253505
2048.0,0.0030993049795769723
2047.0,0.003033982326342287
2046.0,0.002978877166825427
2045.0,0.0029334912191331425
2044.0,0.002920700115371053
2043.0,0.00294509323099286
2042.0,0.0029752971719404528
2041.0,0.0029898060135109443
2040.0,0.002999030611458878
2039.0,0.003003482411716583
2038.0,0.0029792371608903068
2037.0,0.002925433044426703
2036.0,0.00287738316012186
2035.0,0.002850464816946369
2034.0,0.0028187470815477385
2033.0,0.0027708309927977847
2032.0,0.0027345383564131077
2031.0,0.0027241049383746694
2030.0,0.002718331433563564
2029.0,0.0027091786233690795
2028.0,0.0027175180170974276
2027.0,0.002742030585821056
2026.0,0.00275048431246293
2025.0,0.0027430971106025743
2024.0,0.0027653849784900933
2023.0,0.002834211252165096
2022.0,0.00290628657123007
2021.0,0.0029458344489787084
2020.0,0.00297047282626282
2019.0,0.0030041812794711137
2018.0,0.0030363607281897135
2017.0,0.0030567556771368123
2016.0,0.0030813672268661424
2015.0,0.003112606502324807
2014.0,0.003124443309154292
2013.0,0.0031128317860665074
2012.0,0.003113462471053236
2011.0,0.0031447786691216023
2010.0,0.0031776888756855433
2009.0,0.003185318033634921
2008.0,0.0031794359014696767
2007.0,0.0031747337091363147
2006.0,0.0031639656623501976
2005.0,0.003151558640547277
2004.0,0.0031636521453061017
2003.0,0.0032055867461081174
2002.0,0.003252939963129583
2001.0,0.0032990487653953536
2000.0,0.0033661076662973577
1999.0,0.0034559207738482332
1998.0,0.0035360711901185463
1997.0,0.003591264805193521
1996.0,0.003647003923908755
1995.0,0.003720969258708291
1994.0,0.0037956284587037474
1993.0,0.0038583585442767037
1992.0,0.0039270875617541294
1991.0,0.004007411010947775
1990.0,0.004071099490845176
1989.0,0.0041067853362414105
1988.0,0.004142418162473453
1987.0,0.00419348839095606
1986.0,0.0042362852743423164
1985.0,0.004259838521889301
1984.0,0.004297615537753308
1983.0,0.004376068578035552
1982.0,0.004472129036622569
1981.0,0.00454888212970413
1980.0,0.004591337736614407
1979.0,0.004582795873529409
1978.0,0.004500072307893442
1977.0,0.0043710899362896126
1976.0,0.004279982289840487
1975.0,0.004268570713409807
1974.0,0.004297736092234456
1973.0,0.004330193516944488
1972.0,0.004380531001835762
1971.0,0.004457485645637718
1970.0,0.004529115269928035
1969.0,0.004579943537802031
1968.0,0.00464214207139136
1967.0,0.004731408554584904
1966.0,0.004809964102765606
1965.0,0.004854999769785676
1964.0,0.004897139715836593
1963.0,0.004956722556309437
1962.0,0.005006693313215195
1961.0,0.005029620016079155
1960.0,0.005055392481194732
1959.0,0.005105866272756447
1958.0,0.005157577302854901
1957.0,0.005193019075804377
1956.0,0.005233138738270754
1955.0,0.005288568315671199
1954.0,0.005332475836405206
1953.0,0.005351058335700049
1952.0,0.0053695792423069915
1951.0,0.005398210266037524
1950.0,0.005403667136249612
1949.0,0.005365199167149045
1948.0,0.005308399596826608
1947.0,0.005257645288685392
1946.0,0.005200799041731636
1945.0,0.005127514180037448
1944.0,0.005055887187413759
1943.0,0.00499181913041722
1942.0,0.004908303146131712
1941.0,0.00479898843739153
1940.0,0.004697118606086856
1939.0,0.004616800512784583
1938.0,0.004532342488134104
1937.0,0.004429452431248347
1936.0,0.004332782342416803
1935.0,0.0042610316696610065
1934.0,0.004196360293741009
1933.0,0.004123531672352679
1932.0,0.004058145316762502
1931.0,0.004008902223344168
1930.0,0.0039543464866523
1929.0,0.0038826847394389
1928.0,0.0038140341667070553
1927.0,0.003765259457582769
1926.0,0.0037245479883645455
1925.0,0.0036828907520317115
1924.0,0.003655452395318893
1923.0,0.0036459697581215154
1922.0,0.0036305431642876473
1921.0,0.00359735835251676
1920.0,0.003566222860174556
1919.0,0.003549117232110247
1918.0,0.003527410371427836
1917.0,0.0034900465673314797
1916.0,0.0034579761072310745
1915.0,0.0034377188736721288
1914.0,0.003404608054325032
1913.0,0.0033490543531451214
1912.0,0.0032978103886449057
1911.0,0.0032694438236685187
1910.0,0.0032452989617880283
1909.0,0.00320856519557366
1908.0,0.0031759937088003086
1907.0,0.0031632652389828424
1906.0,0.0031530481932570487
1905.0,0.0031275819575169563
1904.0,0.0030982380932118897
1903.0,0.003075564223381326
1902.0,0.003048760878861396
1901.0,0.0030107887518349536
1900.0,0.0029780872481359687
1899.0,0.002962300543963048
1898.0,0.002948518633421475
1897.0,0.0029240829666340494
1896.0,0.0029024597645526426
1895.0,0.002893872171548491
1894.0,0.0028843410353720455
1893.0,0.00286578370829761
1892.0,0.00285449886865078
1891.0,0.002858473333452643
1890.0,0.0028557724833809237
1889.0,0.002830239350967147
1888.0,0.002803013867780031
1887.0,0.002792567754364878
1886.0,0.0027834737102273113
1885.0,0.002760564880173509
1884.0,0.0027380898226457033
1883.0,0.0027317459677095343
1882.0,0.002731344984361861
1881.0,0.002724289744439991
1880.0,0.0027199927367283962
1879.0,0.002728379906428581
1878.0,0.002736796920146048
1877.0,0.0027336944325881234
1876.0,0.002732230446743729
1875.0,0.0027427225388631724
1874.0,0.0027523467072431917
1873.0,0.002754693602283135
1872.0,0.002768970875928203
1871.0,0.0028077355296994653
1870.0,0.002848400751573249
1869.0,0.0028630090663631447
1868.0,0.0028644578721134157
1867.0,0.002876470546054653
1866.0,0.0028884604700228924
1865.0,0.0028858705735183058
1864.0,0.0028835717860004493
1863.0,0.0028988849519392393
1862.0,0.002921920918055716
1861.0,0.0029385486719823804
1860.0,0.002958765190707099
1859.0,0.0029940034731493546
1858.0,0.0030302520069046056
1857.0,0.003053799603781172
1856.0,0.003079409448215267
1855.0,0.0031235508754087725
1854.0,0.0031734939348176737
1853.0,0.003212281520611733
1852.0,0.0032503140989308815
1851.0,0.0033060240520677094
1850.0,0.003372134790600853
1849.0,0.003431485528172056
1848.0,0.003494859616714501
1847.0,0.003580162642894591
1846.0,0.0036770846121366714
1845.0,0.0037618829678462175
1844.0,0.003835296708170073
1843.0,0.003909463340713584
1842.0,0.003975094883654837
1841.0,0.004016273627710627
1840.0,0.004043156041603824
1839.0,0.004081800048525607
1838.0,0.004130482121279353
1837.0,0.0041739481012011545
1836.0,0.0042230063415862685
1835.0,0.004291039894815181
1834.0,0.004362727505588029
1833.0,0.00441971258346517
1832.0,0.004473918080626158
1831.0,0.004543595828710886
1830.0,0.004606266359495883
1829.0,0.004633654344801944
1828.0,0.004661098070360662
1827.0,0.004725088738800563
1826.0,0.004797250857270074
1825.0,0.004835159198646325
1824.0,0.004848708023952207
1823.0,0.004868441403698615
1822.0,0.0048821018324761685
1821.0,0.0048629864790229824
1820.0,0.004824969248582909
1819.0,0.004799140181001932
1818.0,0.004782539792773241
1817.0,0.004760225686815098
1816.0,0.004746679981499255
1815.0,0.004757428645934169
1814.0,0.004774719831136725
1813.0,0.0047756193989405395
1812.0,0.004773900646332746
1811.0,0.004791032179187995
1810.0,0.004807798951639295
1809.0,0.004802772723055164
1808.0,0.004796633774755959
1807.0,0.0048117521552496914
1806.0,0.004828372164164856
1805.0,0.0048230070377376175
1804.0,0.00481924303212034
1803.0,0.004853788674939296
1802.0,0.0049121647980649875
1801.0,0.004946880361646036
1800.0,0.004955499432588361
1799.0,0.004969353283424362
1798.0,0.004986392984169025
1797.0,0.004992014171546291
1796.0,0.00500331000216595
1795.0,0.005045528692946781
1794.0,0.005103244838786537
1793.0,0.0051434251263752255
1792.0,0.005182743627319894
1791.0,0.005254426527175322
1790.0,0.005324266803532669
1789.0,0.005345648183382847
1788.0,0.005340414888770733
1787.0,0.005365457778251749
1786.0,0.005427160888395968
1785.0,0.0054875116589400245
1784.0,0.005543074459527398
1783.0,0.005617897379809127
1782.0,0.005696454295820382
1781.0,0.005743749496281993
1780.0,0.005782153472038067
1779.0,0.005857596960798947
1778.0,0.0059476773195348675
1777.0,0.006006241335506944
1776.0,0.0060515993423137255
1775.0,0.006144303130893416
1774.0,0.0062835903017188065
1773.0,0.006406418173156251
1772.0,0.006507377252075738
1771.0,0.006643382302518357
1770.0,0.006807055943191307
1769.0,0.006954843593781134
1768.0,0.007107613831475863
1767.0,0.007296085572646639
1766.0,0.007468686960009435
1765.0,0.007580913855834251
1764.0,0.007702120201298603
1763.0,0.00794587975365093
1762.0,0.008294751754204055
1761.0,0.00861509835927035
1760.0,0.008896913938617631
1759.0,0.009243748528609439
1758.0,0.009687640830281658
1757.0,0.010180624290666102
1756.0,0.010698403380081559
1755.0,0.011264102616224417
1754.0,0.011878718237804098
1753.0,0.012571164540139358
1752.0,0.013498639840417647
1751.0,0.014823361940729795
1750.0,0.01644820623843357
1749.0,0.01817598093690846
1748.0,0.020038530762127495
1747.0,0.022167522519010534
1746.0,0.02460776266282634
1745.0,0.02742165586093594
1744.0,0.030728874649785413
1743.0,0.03448952586267687
1742.0,0.03856322132131712
1741.0,0.04314839501986001
1740.0,0.04861123534914516
1739.0,0.054474198602562265
1738.0,0.05957007357040234
1737.0,0.06369634933178372
1736.0,0.06810286810276904
1735.0,0.07491584656789511
1734.0,0.08442728755405553
1733.0,0.09313761206247997
1732.0,0.09948833472474013
1731.0,0.10533796709060386
1730.0,0.11195679059439753
1729.0,0.11909174496918924
1728.0,0.12608336488503832
1727.0,0.13293307638526916
1726.0,0.14004080206667258
1725.0,0.1476619454918407
1724.0,0.15585322237902838
1723.0,0.1643023790966547
1722.0,0.1721661512879437
1721.0,0.1788489144863864
1720.0,0.18515236038876176
1719.0,0.19337266421325489
1718.0,0.20468129864913845
1717.0,0.21546235950583859
1716.0,0.22193093550320464
1715.0,0.22532831270784015
1714.0,0.22673328308586743
1713.0,0.22513936819869143
1712.0,0.22040437292644555
1711.0,0.21363399039283704
1710.0,0.20545314925948388
1709.0,0.19571995198997139
1708.0,0.1845015360770612
1707.0,0.172013006749203
1706.0,0.15843019394931523
1705.0,0.14519436214522397
1704.0,0.13443762130304723
1703.0,0.12626466327261052
1702.0,0.11859369956928459
1701.0,0.10869291794194443
1700.0,0.09746914491209768
1699.0,0.08919010604970347
1698.0,0.08402474856857735
1697.0,0.07925394125634855
1696.0,0.0735827047001113
1695.0,0.06820749811172584
1694.0,0.06435688656363779
1693.0,0.061592306933962476
1692.0,0.05911105867724697
1691.0,0.05658716469667667
1690.0,0.054126476041311614
1689.0,0.05199142797183946
1688.0,0.050296668723334735
1687.0,0.04893788561622011
1686.0,0.04768840473208373
1685.0,0.0462179715276886
1684.0,0.04443618777409522
1683.0,0.04283101831955672
1682.0,0.04161891779984344
1681.0,0.040515774360275925
1680.0,0.039325283553788455
1679.0,0.038107982660779686
1678.0,0.03696600533046007
1677.0,0.03584969089755257
1676.0,0.03460430831131348
1675.0,0.033247057126714136
1674.0,0.032036689167131
1673.0,0.031077976956692975
1672.0,0.03020838649274224
1671.0,0.02924753944109864
1670.0,0.028159988769872427
1669.0,0.02707167217496791
1668.0,0.026121720959642283
1667.0,0.0253307556296166
1666.0,0.02462844349456892
1665.0,0.0239263680150607
1664.0,0.02315202596022385
1663.0,0.022305765124519573
1662.0,0.021505128135669516
1661.0,0.020841376042303326
1660.0,0.020273623270825658
1659.0,0.01974291364081128
1658.0,0.019251330436670332
1657.0,0.018823380108562927
1656.0,0.01846345672524651
1655.0,0.01815756850318895
1654.0,0.017865045173614712
1653.0,0.01751812389929384
1652.0,0.017161117668479275
1651.0,0.01690869373723028
1650.0,0.01667960868823657
1649.0,0.01637495846943967
1648.0,0.016045711128652856
1647.0,0.015738090747458248
1646.0,0.015493732463303697
1645.0,0.015322210795349952
1644.0,0.015167523286762897
1643.0,0.01497411455801639
1642.0,0.014758280538482306
1641.0,0.014558013578087848
1640.0,0.014374926835450526
1639.0,0.014200098846714977
1638.0,0.014045459272401731
1637.0,0.013924137799583982
1636.0,0.013797608158563521
1635.0,0.013629451801260975
1634.0,0.01347268709707834
1633.0,0.013353379489806702
1632.0,0.013213809771093413
1631.0,0.013032791461013746
1630.0,0.012848669255682808
1629.0,0.012679651375107574
1628.0,0.012507083606782165
1627.0,0.012328001016858634
1626.0,0.012176233729107052
1625.0,0.012064045404103246
1624.0,0.011963468394598298
1623.0,0.011862683681358453
1622.0,0.011806304492268981
1621.0,0.011829099281033317
1620.0,0.011915846550873462
1619.0,0.012080108766824825
1618.0,0.012415342409556147
1617.0,0.01295272066179074
1616.0,0.01345979903223015
1615.0,0.013691235909645001
1614.0,0.013659364281176863
1613.0,0.01345497839306635
1612.0,0.013127745102169098
1611.0,0.01270254425186181
1610.0,0.012215055818758284
1609.0,0.01171134225364886
1608.0,0.011211277804311246
1607.0,0.01072155357588135
1606.0,0.010261997135657796
1605.0,0.009842071732186767
1604.0,0.00944318150399361
1603.0,0.009051637826214334
1602.0,0.008684179961137739
1601.0,0.008361823836052083
1600.0,0.00807834417214619
1599.0,0.007824330968894136
1598.0,0.0076115890917245795
1597.0,0.007450275501808552
1596.0,0.007328009832454982
1595.0,0.007233788046514981
1594.0,0.007181406234942921
1593.0,0.007182057669035633
1592.0,0.007219246855275056
1591.0,0.007277266205325192
1590.0,0.007371875716271462
1589.0,0.007532293712564555
1588.0,0.007777770749888623
1587.0,0.00813912359829919
1586.0,0.008680161503704606
1585.0,0.00946477920080753
1584.0,0.010508528643952514
1583.0,0.01176358899115415
1582.0,0.013106691906288867
1581.0,0.014351568295830367
1580.0,0.015326045210393605
1579.0,0.015912834229929104
1578.0,0.016004092032444385
1577.0,0.015461378275336099
1576.0,0.01434151130065879
1575.0,0.013091304142259319
1574.0,0.012065244148907375
1573.0,0.01123470804268307
1572.0,0.0104756614412269
1571.0,0.00971279648920039
1570.0,0.008935584062427244
1569.0,0.008253648792253175
1568.0,0.007773540369664664
1567.0,0.007452778481132568
1566.0,0.007178680290401827
1565.0,0.006896512291354856
1564.0,0.006629056218917184
1563.0,0.006426866024136465
1562.0,0.00630982063228726
1561.0,0.006254458387768652
1560.0,0.0061909538108494075
1559.0,0.006035387953103803
1558.0,0.0058472079720312785
1557.0,0.005749507268601644
1556.0,0.0056931808496384646
1555.0,0.005589133587963729
1554.0,0.005462413588904987
1553.0,0.0053455012816958705
1552.0,0.0052395329149885995
1551.0,0.0051356438383991015
1550.0,0.005035667891303358
1549.0,0.0049443306844166824
1548.0,0.0048580871866547096
1547.0,0.00478432187881614
1546.0,0.004741878542454582
1545.0,0.004733911308859206
1544.0,0.004732660727878274
1543.0,0.004712657333709401
1542.0,0.004686445709288636
1541.0,0.004685257753650035
1540.0,0.0047018535619139925
1539.0,0.004720018753270256
1538.0,0.004765627522568666
1537.0,0.004813515399766807
1536.0,0.004818970652519172
1535.0,0.004825738489286034
1534.0,0.004904349974191028
1533.0,0.005038239496865637
1532.0,0.005162334879920464
1531.0,0.005258708841545601
1530.0,0.005334466175538219
1529.0,0.005398309390222145
1528.0,0.005454570778364592
1527.0,0.005503884651649997
1526.0,0.0055425394321144275
1525.0,0.005553261081389045
1524.0,0.00552802708142878
1523.0,0.005490000002838422
1522.0,0.00547100087115921
1521.0,0.005465150126087582
1520.0,0.005451998727039764
1519.0,0.005434624401177186
1518.0,0.005427700437317689
1517.0,0.005459424332267647
1516.0,0.005545095156178255
1515.0,0.005696389398316048
1514.0,0.005949518040871809
1513.0,0.006334243915198199
1512.0,0.00688678016069467
1511.0,0.007598656615820548
1510.0,0.008507586456293594
1509.0,0.009778817638077196
1508.0,0.011922407306283656
1507.0,0.015028553691514849
1506.0,0.017371888590823358
1505.0,0.017777460863994773
1504.0,0.016892212490150885
1503.0,0.015312806772950341
1502.0,0.01336044971870827
1501.0,0.01133230800082215
1500.0,0.009463792936361626
1499.0,0.007885483648796581
1498.0,0.006613740293387125
1497.0,0.005661800572287331
1496.0,0.0050125463782051275
1495.0,0.00457804016306249
1494.0,0.0042853149002860065
1493.0,0.0041187291106524245
1492.0,0.0040580505584136084
1491.0,0.004048297095321321
1490.0,0.004067494589091674
1489.0,0.0041536510721113876
1488.0,0.0042867038363841505
1487.0,0.0044028356082061815
1486.0,0.004514894801667272
1485.0,0.00466791729546574
1484.0,0.004853282546590327
1483.0,0.005043976021831196
1482.0,0.005253518156484803
1481.0,0.005509259630659389
1480.0,0.005785944541798918
1479.0,0.00604394425205296
1478.0,0.006308274983859349
1477.0,0.0066320771514581465
1476.0,0.007000804855973807
1475.0,0.007355199374438459
1474.0,0.007721016418793679
1473.0,0.008169157800142315
1472.0,0.008614445751730041
1471.0,0.008916130677696994
1470.0,0.009115890578794085
1469.0,0.009326665939675188
1468.0,0.009610904164914577
1467.0,0.01002108645994792
1466.0,0.01065773085761679
1465.0,0.011580935449086045
1464.0,0.012623353329553368
1463.0,0.013557757055746945
1462.0,0.014372554100945414
1461.0,0.015159959734562571
1460.0,0.01597873002217044
1459.0,0.016884882601049235
1458.0,0.018042681757633097
1457.0,0.019398587460430536
1456.0,0.020402496559076968
1455.0,0.020827739028062196
1454.0,0.020939172215664
1453.0,0.02093518718901195
1452.0,0.02086874627016836
1451.0,0.02074625273164737
1450.0,0.02061900105955171
1449.0,0.020533465565359534
1448.0,0.020457453101851795
1447.0,0.020346344444129874
1446.0,0.020213461061852643
1445.0,0.020069334186636298
1444.0,0.019880214087930923
1443.0,0.019620514414049654
1442.0,0.01930519455251381
1441.0,0.018953582004507783
1440.0,0.018552339820691034
1439.0,0.018062875387592485
1438.0,0.017410908684652986
1437.0,0.016508769095998924
1436.0,0.015438654276155154
1435.0,0.01442134806113294
1434.0,0.01350673669829075
1433.0,0.012609656594217524
1432.0,0.0117001868221304
1431.0,0.01082343519846516
1430.0,0.010047529393564712
1429.0,0.009424941214982357
1428.0,0.008985726753251978
1427.0,0.008721496689623874
1426.0,0.008602195388227808
1425.0,0.008622399691951704
1424.0,0.008798330482714714
1423.0,0.009101186566604426
1422.0,0.00950966504710525
1421.0,0.01014304030211783
1420.0,0.01128985812375604
1419.0,0.013147800545278495
1418.0,0.015519475256247254
1417.0,0.01819363100359789
1416.0,0.021301888953605068
1415.0,0.025061061510646715
1414.0,0.029591558469361748
1413.0,0.03485911180415607
1412.0,0.04045435898500224
1411.0,0.045469164952133725
1410.0,0.04895602739794544
1409.0,0.050469633834213073
1408.0,0.049959400189388374
1407.0,0.04757854631416753
1406.0,0.043805542335248096
1405.0,0.0394459092531616
1404.0,0.03534585790692794
1403.0,0.031998675273997676
1402.0,0.02939993403475494
1401.0,0.0272649127066897
1400.0,0.025310736991959716
1399.0,0.02349150728290273
1398.0,0.021968730051852077
1397.0,0.02077382849967157
1396.0,0.019722584204978542
1395.0,0.018674462493924127
1394.0,0.017692970231078773
1393.0,0.01688285349978117
1392.0,0.016224350627876638
1391.0,0.01565617076734989
1390.0,0.015169583777131915
1389.0,0.01478402078601319
1388.0,0.014500393433332728
1387.0,0.014307560037852211
1386.0,0.014205715247561854
1385.0,0.014197311712263423
1384.0,0.01428810676918469
1383.0,0.014498213472921549
1382.0,0.014850904784167254
1381.0,0.015357578328432157
1380.0,0.016012024337198335
1379.0,0.01678544224515273
1378.0,0.017633054959322384
1377.0,0.01853737763604513
1376.0,0.01953846906699285
1375.0,0.020678644371215207
1374.0,0.021877807872738873
1373.0,0.022922386126624884
1372.0,0.02363060987174366
1371.0,0.02392583770860357
1370.0,0.0237624837223789
1369.0,0.023094399480623366
1368.0,0.021941313992106578
1367.0,0.020441035840314307
1366.0,0.01876842232004988
1365.0,0.017020435821171537
1364.0,0.015221579067920078
1363.0,0.013458778663312401
1362.0,0.011946039936559974
1361.0,0.010832844082528338
1360.0,0.01006389950439147
1359.0,0.009515698120632849
1358.0,0.009128124344931494
1357.0,0.00889073885540331
1356.0,0.008790111322483985
1355.0,0.00880321737609359
1354.0,0.00892394434241117
1353.0,0.009163547579629514
1352.0,0.00953210047586231
1351.0,0.01004395061523496
1350.0,0.010734070051236133
1349.0,0.011640724616418578
1348.0,0.01277484249243476
1347.0,0.014120397665131752
1346.0,0.015639758674585967
1345.0,0.017236754924605822
1344.0,0.018729493348430076
1343.0,0.019909775912730226
1342.0,0.020623541305795193
1341.0,0.02077499212282982
1340.0,0.020315160144739282
1339.0,0.019310519958089103
1338.0,0.017968351099557373
1337.0,0.016512174075572098
1336.0,0.015089402406929724
1335.0,0.013798927718045438
1334.0,0.012719327934436708
1333.0,0.011895628099524528
1332.0,0.011332914067779082
1331.0,0.011015437047289847
1330.0,0.010920722676195236
1329.0,0.011018256714210228
1328.0,0.011271082570782057
1327.0,0.011647590944180362
1326.0,0.012130093448137745
1325.0,0.012706190250853677
1324.0,0.013353585581476408
1323.0,0.014042350329950083
1322.0,0.014755005910439552
1321.0,0.015492847352496671
1320.0,0.016255989733993895
1319.0,0.01703019325529069
1318.0,0.01780275924252122
1317.0,0.018578237859804322
1316.0,0.019370491244405482
1315.0,0.02019693047772622
1314.0,0.021083846548362147
1313.0,0.022051401726501295
1312.0,0.023086258312116793
1311.0,0.024157196580700903
1310.0,0.025260902251724556
1309.0,0.026416810256841432
1308.0,0.02761207274003442
1307.0,0.028794798171751547
1306.0,0.029942512171694406
1305.0,0.031100917164954195
1304.0,0.032341684573139594
1303.0,0.03372666147326418
1302.0,0.035324693998159136
1301.0,0.03720594584037027
1300.0,0.039383829621319304
1299.0,0.04180026358929928
1298.0,0.0443925956364893
1297.0,0.04712834406257379
1296.0,0.04995107059392175
1295.0,0.0527628004775025
1294.0,0.05550709703764094
1293.0,0.05820113366195932
1292.0,0.06084445442349437
1291.0,0.06337730432885107
1290.0,0.0657720035915241
1289.0,0.0680718487170758
1288.0,0.07028551349397268
1287.0,0.07234380176039279
1286.0,0.07421929490160062
1285.0,0.07598095603224594
1284.0,0.07767654177388257
1283.0,0.07927335312671337
1282.0,0.08076223781026856
1281.0,0.08220320114091524
1280.0,0.08361673033843477
1279.0,0.08495083345536575
1278.0,0.08621058310921519
1277.0,0.08750070696173785
1276.0,0.08889491243051649
1275.0,0.09039388980122914
1274.0,0.09206038759830332
1273.0,0.09405612296460308
1272.0,0.09647630524168534
1271.0,0.09926793925231125
1270.0,0.10237499870654984
1269.0,0.10582521223263312
1268.0,0.10959226046738248
1267.0,0.11352640688515192
1266.0,0.1175189143829604
1265.0,0.12157913283420657
1264.0,0.12565057376451477
1263.0,0.12953499137251426
1262.0,0.13310820676562654
1261.0,0.13640387604068038
1260.0,0.1393751818440877
1259.0,0.1418307435210869
1258.0,0.14374110321042297
1257.0,0.14534007606608654
1256.0,0.1468129670631809
1255.0,0.14816278476065492
1254.0,0.14946270008442517
1253.0,0.15093789059823168
1252.0,0.1526810036082802
1251.0,0.15455956344328026
1250.0,0.1565139254150931
1249.0,0.15866893274311195
1248.0,0.16104295131313218
1247.0,0.16344566479134628
1246.0,0.165788945269721
1245.0,0.16819281269166994
1244.0,0.1706456839987707
1243.0,0.17288068513664512
1242.0,0.17472935902319348
1241.0,0.1762492245872172
1240.0,0.17735625254448553
1239.0,0.17770055089171097
1238.0,0.17704851326209328
1237.0,0.17541134544253073
1236.0,0.17269041670992502
1235.0,0.16863363292675482
1234.0,0.16326037439830332
1233.0,0.1569317184410406
1232.0,0.1499591881030337
1231.0,0.14251015390900643
1230.0,0.1348542614054257
1229.0,0.12733329586867534
1228.0,0.12009151118215773
1227.0,0.11308845238393157
1226.0,0.10634218109311856
1225.0,0.0999588212039229
1224.0,0.09396817166759074
1223.0,0.08831667848251473
1222.0,0.08300404015254359
1221.0,0.07808663185309597
1220.0,0.07356696909248128
1219.0,0.06939460605006048
1218.0,0.06555898695254735
1217.0,0.062086031146746656
1216.0,0.05895614612504799
1215.0,0.05610526207780674
1214.0,0.053496752205905176
1213.0,0.051127258705276915
1212.0,0.04897202911481966
1211.0,0.04698436663730446
1210.0,0.045143746813498344
1209.0,0.043453022051570415
1208.0,0.04189346383113247
1207.0,0.040427228346459634
1206.0,0.039038320759822616
1205.0,0.037731243065351826
1204.0,0.03649540997096195
1203.0,0.035307760011918626
1202.0,0.03416391442025426
1201.0,0.033072595809044605
1200.0,0.03202539627783145
1199.0,0.031002728380175038
1198.0,0.03000377968134022
1197.0,0.029043002894705496
1196.0,0.028123466902922712
1195.0,0.02723958158293539
1194.0,0.02639985689764869
1193.0,0.02562320051582018
1192.0,0.024917596653318323
1191.0,0.024282360121907782
1190.0,0.023726473833596565
1189.0,0.02326737314868647
1188.0,0.022916718663182335
1187.0,0.022682853485823627
1186.0,0.022582835011557622
1185.0,0.022637147114879404
1184.0,0.022853615798685542
1183.0,0.023225647626733317
1182.0,0.023740692961519816
1181.0,0.024376434483144815
1180.0,0.025087846457500926
1179.0,0.025812563265770867
1178.0,0.0264934387085495
1177.0,0.027082579294822735
1176.0,0.0275228200753049
1175.0,0.02774820426303302
1174.0,0.027711116424653886
1173.0,0.027390631814930004
1172.0,0.02677692349376291
1171.0,0.025880928562074006
1170.0,0.02476536078208195
1169.0,0.023539662555480814
1168.0,0.022318851248300228
1167.0,0.021196843219948223
1166.0,0.020240652290177793
1165.0,0.019480593637210275
1164.0,0.01890851348524509
1163.0,0.018499747627636516
1162.0,0.018236781678143594
1161.0,0.01811035341611967
1160.0,0.018111304835374896
1159.0,0.01823563359159901
1158.0,0.018492504199557672
1157.0,0.01889643967576966
1156.0,0.019454283082798597
1155.0,0.02016851441365874
1154.0,0.02104852436648493
1153.0,0.022105809276381196
1152.0,0.023337960370249787
1151.0,0.024730731939707217
1150.0,0.026278645309651384
1149.0,0.027987935060939325
1148.0,0.02985334451328188
1147.0,0.0318506057774232
1146.0,0.03395989364547551
1145.0,0.03617214253785327
1144.0,0.03845894447653952
1143.0,0.04076576030307724
1142.0,0.043055394753785926
1141.0,0.045327102245491614
1140.0,0.04757511435109928
1139.0,0.049773384950297504
1138.0,0.05192454103108759
1137.0,0.05407003671448143
1136.0,0.056220861016891985
1135.0,0.058332070478489664
1134.0,0.060374280138818015
1133.0,0.062368835564925756
1132.0,0.06432761302015992
1131.0,0.06623666423756719
1130.0,0.06813557533200135
1129.0,0.0701336163238174
1128.0,0.07230786108351685
1127.0,0.07466168005007069
1126.0,0.07720972201539944
1125.0,0.07999856737917213
1124.0,0.08298822100734998
1123.0,0.08600825330779611
1122.0,0.08888556881370616
1121.0,0.09151081981249597
1120.0,0.0937322822017816
1119.0,0.09533591809677343
1118.0,0.09621655608126442
1117.0,0.09643973443385694
1116.0,0.09609417504567712
1115.0,0.09525438941848821
1114.0,0.09412257483409185
1113.0,0.09301992300095946
1112.0,0.09219465527992259
1111.0,0.0917851381145842
1110.0,0.09196483952434374
1109.0,0.09294073172774307
1108.0,0.0947680265341121
1107.0,0.09731232400312143
1106.0,0.10044413876141607
1105.0,0.10413629226876485
1104.0,0.1083176576805072
1103.0,0.11280015337830196
1102.0,0.11744609032875995
1101.0,0.1222345586923902
1100.0,0.1270505114249724
1099.0,0.131610015570328
1098.0,0.13573203177451226
1097.0,0.1394526749425738
1096.0,0.142732028008989
1095.0,0.14533853879034203
1094.0,0.1471698464741277
1093.0,0.14835765749386043
1092.0,0.14891501784999897
1091.0,0.14864210187053958
1090.0,0.1475046287214028
1089.0,0.14573277684327438
1088.0,0.14345077273464651
1087.0,0.14058308969948308
1086.0,0.1371805150515242
1085.0,0.13345627216150935
1084.0,0.1294528725652294
1083.0,0.125019999823865
1082.0,0.12014285040101821
1081.0,0.1149846844520359
1080.0,0.10962059249821648
1079.0,0.104023660462785
1078.0,0.09829405920317884
1077.0,0.09264832074482875
1076.0,0.0872043913320225
1075.0,0.08197513740316939
1074.0,0.07703088450950621
1073.0,0.0724901482916487
1072.0,0.06837814638098393
1071.0,0.06463584845124454
1070.0,0.06124482143705874
1069.0,0.05822914051809292
1068.0,0.05555893087754778
1067.0,0.05315724395378521
1066.0,0.050992155088907205
1065.0,0.04908001081972919
1064.0,0.047411001053121404
1063.0,0.045948234056996995
1062.0,0.04469412089939137
1061.0,0.043690503964434274
1060.0,0.042954872043223936
1059.0,0.04247453597075908
1058.0,0.042259859016736546
1057.0,0.04234395519091636
1056.0,0.0427256619022443
1055.0,0.0433650074583697
1054.0,0.044242091306023565
1053.0,0.04536751594313669
1052.0,0.04671617788368183
1051.0,0.04820428956222557
1050.0,0.04975842927616314
1049.0,0.05134283489311458
1048.0,0.052892104355340266
1047.0,0.05430314707599218
1046.0,0.05552341669740305
1045.0,0.05656298590186029
1044.0,0.057402776865423714
1043.0,0.05797474716743384
1042.0,0.05824690556143148
1041.0,0.05824738238588383
1040.0,0.057993237102227604
1039.0,0.05748046155596158
1038.0,0.05675615690356816
1037.0,0.055916738637008336
1036.0,0.055023294219649986
1035.0,0.05408991031754287
1034.0,0.053153515562563376
1033.0,0.052277655720119436
1032.0,0.05148231010665084
1031.0,0.05074283783464326
1030.0,0.05006971633984317
1029.0,0.049535002295988624
1028.0,0.0492264579489403
1027.0,0.04924187990505868
1026.0,0.04973456570621404
1025.0,0.05091184544159552
1024.0,0.052982927285109394
1023.0,0.05614281484045611
1022.0,0.060575898572602635
1021.0,0.06635764782189622
1020.0,0.07323126286939853
1019.0,0.08042203700898408
1018.0,0.08666722664242718
1017.0,0.09046338035736351
1016.0,0.09053095291366976
1015.0,0.08653084261371863
1014.0,0.07948736280284481
1013.0,0.07121414795191086
1012.0,0.06327372981885301
1011.0,0.05647587015190006
1010.0,0.05099052358501508
1009.0,0.046643068227392996
1008.0,0.04315601886149896
1007.0,0.040302874284179196
1006.0,0.037960343405069416
1005.0,0.0360583640265506
1004.0,0.034508052966593455
1003.0,0.0331985660319344
1002.0,0.03204551039877233
1001.0,0.031008731071052426
1000.0,0.030067495918268128
999.0,0.02920806126192179
998.0,0.028432714641546425
997.0,0.027750242307119748
996.0,0.027152219422155767
995.0,0.026617922170630314
994.0,0.026140889171063518
993.0,0.025728791257246225
992.0,0.025377652244637956
991.0,0.02506848865271944
990.0,0.024790623774505572
989.0,0.024547319626552194
988.0,0.024337269151035314
987.0,0.024151545674303474
986.0,0.02399123008694705
985.0,0.023868429426801206
984.0,0.023786592493789553
983.0,0.023736657230891002
982.0,0.02371385788727589
981.0,0.02372062948672457
980.0,0.023751055763588415
979.0,0.023790283732063735
978.0,0.02383133056580243
977.0,0.023873816590688678
976.0,0.02390325252701918
975.0,0.02388978026548802
974.0,0.023810412251956414
973.0,0.02365599294586612
972.0,0.023417074913810367
971.0,0.02308452370351343
970.0,0.022666892630839097
969.0,0.02218822980409129
968.0,0.021667074542850568
967.0,0.021114122932905436
966.0,0.020547847966618245
965.0,0.019992553987869983
964.0,0.01946067392779775
963.0,0.018953093038694212
962.0,0.018475205603793513
961.0,0.01803688450448992
960.0,0.01763835902787097
959.0,0.017271288182968785
958.0,0.016933186052038057
957.0,0.01662786572959048
956.0,0.016353168758285373
955.0,0.016101103689427448
954.0,0.01586921350920114
953.0,0.015660061959150352
952.0,0.015470789624372192
951.0,0.015294718784665446
950.0,0.015131677258694087
949.0,0.014985235497030833
948.0,0.014851573964766066
947.0,0.014722741777859354
946.0,0.014599290969710053
945.0,0.014488235413667176
944.0,0.014390126243523024
943.0,0.014299269452444079
942.0,0.014214775173947834
941.0,0.01413978821603468
940.0,0.014071178489974513
939.0,0.014001534644862014
938.0,0.013930293505952339
937.0,0.013861452231214457
936.0,0.01379153229480146
935.0,0.013711894348866972
934.0,0.013622252950233664
933.0,0.013529771335135735
932.0,0.013434900455390034
931.0,0.01332992184062835
930.0,0.013211912011558143
929.0,0.013086130233741236
928.0,0.01295630765012536
927.0,0.0128223054475076
926.0,0.012687665156785384
925.0,0.012559087475355477
924.0,0.012437967122283802
923.0,0.01232203565535872
922.0,0.012215535024822886
921.0,0.012128717911332618
920.0,0.012067638425658268
919.0,0.012033479997984268
918.0,0.012031784626786213
917.0,0.012073637797827316
916.0,0.012167665098742175
915.0,0.012319114661926627
914.0,0.012537271780408015
913.0,0.012835903833350842
912.0,0.013225467478200918
911.0,0.013712017251493437
910.0,0.014303426551517832
909.0,0.015006197139447602
908.0,0.01581158554434052
907.0,0.016691650807170402
906.0,0.017611544914512698
905.0,0.018537245254199478
904.0,0.019430016527878038
903.0,0.02024894125812035
902.0,0.020967744976160062
901.0,0.021577909127216452
900.0,0.022071565881125448
899.0,0.022438121358728365
898.0,0.022681753487382456
897.0,0.02282309585700971
896.0,0.022879662311653528
895.0,0.022864149617278607
894.0,0.022803474163826484
893.0,0.02273660059710688
892.0,0.022689771313176513
891.0,0.022673527882058352
890.0,0.022705082564176804
889.0,0.02281216312239234
888.0,0.023011873423842973
887.0,0.02330651905902524
886.0,0.02370502159560768
885.0,0.02422975684287027
884.0,0.024898941019915622
883.0,0.025723933944862235
882.0,0.02673064601485422
881.0,0.02795981739775292
880.0,0.029431354025279577
879.0,0.031123782718495377
878.0,0.032994911966317785
877.0,0.034990624235012494
876.0,0.03700339149296004
875.0,0.03883623043473937
874.0,0.04022912060083012
873.0,0.04091690212580644
872.0,0.040696084238355364
871.0,0.03952930398239088
870.0,0.03761502369202108
869.0,0.03529289377345962
868.0,0.03286347266429303
867.0,0.03051688182116151
866.0,0.02837252948607985
865.0,0.02650468301703223
864.0,0.024933018049188346
863.0,0.023638569141726413
862.0,0.02260044101392434
861.0,0.021799862711018223
860.0,0.021199284187010572
859.0,0.020748350221907377
858.0,0.020412910776342615
857.0,0.02017700120568623
856.0,0.020017872575624308
855.0,0.01990318135000934
854.0,0.01981513527678892
853.0,0.01975474011143361
852.0,0.019719287977400742
851.0,0.01969746590512254
850.0,0.01968865007342608
849.0,0.019703466820867887
848.0,0.019740552704191238
847.0,0.01978395727576974
846.0,0.019826524246245848
845.0,0.019873137708802457
844.0,0.0199167846153179
843.0,0.019933618152089536
842.0,0.019906142023710872
841.0,0.019830283431747305
840.0,0.01969749160861352
839.0,0.019494346389427066
838.0,0.019224227931543315
837.0,0.018906558364337248
836.0,0.018551665210857746
835.0,0.018158688378325495
834.0,0.01773934036207139
833.0,0.017319343395370633
832.0,0.01691313267919111
831.0,0.016519305136814183
830.0,0.016143391275534037
829.0,0.01580180175797286
828.0,0.015498180058946251
827.0,0.01521868705079316
826.0,0.014957443903525235
825.0,0.014724198097865942
824.0,0.014521848629560713
823.0,0.014342335434029341
822.0,0.014188594969505208
821.0,0.01407327131930872
820.0,0.013994060332408728
819.0,0.01393481362557581
818.0,0.01389003360567731
817.0,0.013866634588340136
816.0,0.013861734878545473
815.0,0.01385872696337221
814.0,0.013847974159629097
813.0,0.013833739953576
812.0,0.013818094940908555
811.0,0.013795481090098226
810.0,0.013765689038033792
809.0,0.013734689065391735
808.0,0.013699328885216737
807.0,0.013647187670308519
806.0,0.013573472517006555
805.0,0.013481582857934764
804.0,0.01336621221515897
803.0,0.013215427890708065
802.0,0.013038418595759185
801.0,0.012887297228358137
800.0,0.012859064314892595
799.0,0.013081910119529219
798.0,0.013667261575864443
797.0,0.014622563705922981
796.0,0.015788009564301764
795.0,0.016875238692746587
794.0,0.01759975595789778
793.0,0.017800137553518627
792.0,0.017463642823135245
791.0,0.01669316063967313
790.0,0.015661252356703254
789.0,0.014542576769102939
788.0,0.013449386462387622
787.0,0.012427032531180642
786.0,0.011496110393924844
785.0,0.010673943938245061
784.0,0.009962639696201127
783.0,0.009347285116548646
782.0,0.008813975351672328
781.0,0.008354069215671774
780.0,0.007951058423328168
779.0,0.007582618308419296
778.0,0.007239060608203191
777.0,0.006924163153170704
776.0,0.006636407215388513
775.0,0.006365086186494609
774.0,0.006105825628506331
773.0,0.005863280357822994
772.0,0.005635725610370389
771.0,0.005411959775937409
770.0,0.005185875303798073
769.0,0.004960301991293799
768.0,0.0047356991007153
767.0,0.004510170321407251
766.0,0.004291518290928149
765.0,0.004093318038188156
764.0,0.00391704602922161
763.0,0.003752159152036194
762.0,0.003594064194739824
761.0,0.0034470552704291835
760.0,0.0033094809084478604
759.0,0.0031728706026958684
758.0,0.003037626403269109
757.0,0.0029134609707393705
756.0,0.0028029002872817727
755.0,0.0027013742001768155
754.0,0.0026157637672930304
753.0,0.0025652903635653545
752.0,0.0025613632223239653
751.0,0.0026042549811322114
750.0,0.0027025575051819323
749.0,0.002878774820590244
748.0,0.0031542127214196306
747.0,0.003548835552705472
746.0,0.00410223073819857
745.0,0.004878343444465328
744.0,0.0059475620591978254
743.0,0.007384550581020841
742.0,0.009283922502830434
741.0,0.011743715329900414
740.0,0.014810313696158706
739.0,0.01845219192777953
738.0,0.022592791843674364
737.0,0.027141141759142465
736.0,0.03198432025644371
735.0,0.03700678122229115
734.0,0.04216719244045338
733.0,0.047529310565810313
732.0,0.05318917595042237
731.0,0.05922095942647787
730.0,0.06572662055087951
729.0,0.07286190297969956
728.0,0.08072144017186698
727.0,0.08917735804738704
726.0,0.09775340949733059
725.0,0.10546144832368247
724.0,0.11072912600250337
723.0,0.11184507929770351
722.0,0.10792287763303185
721.0,0.09960564023826439
720.0,0.088832163809981
719.0,0.07778435865361011
718.0,0.06788344414691744
717.0,0.05961579600331095
716.0,0.05296346164434151
715.0,0.047773036473895136
714.0,0.04384451908493928
713.0,0.040916223662851095
712.0,0.038695687846287026
711.0,0.036921108454657195
710.0,0.03539923614046801
709.0,0.03401195215015465
708.0,0.03270168943406061
707.0,0.031448135725306026
706.0,0.03024831685463926
705.0,0.029100624628036677
704.0,0.027988382353142216
703.0,0.02687167253717184
702.0,0.025702094556090696
701.0,0.024455059344350397
700.0,0.02315260785703449
699.0,0.021857393276490663
698.0,0.0206447042501293
697.0,0.01957208356148771
696.0,0.018661306014354687
695.0,0.01789911807052635
694.0,0.017254458102502708
693.0,0.016699715048585563
692.0,0.016219778174162917
691.0,0.01580656870178255
690.0,0.015453409109930587
689.0,0.015156147225308135
688.0,0.014913000997202826
687.0,0.014721365211837121
686.0,0.01458063836749951
685.0,0.014498293682786583
684.0,0.014482979232331949
683.0,0.014524952966526932
682.0,0.014584678572552502
681.0,0.01460285407240194
680.0,0.014526330175009285
679.0,0.014329875656703659
678.0,0.014019572270591498
677.0,0.013627130851936974
676.0,0.013198982464046282
675.0,0.012779359071423867
674.0,0.012397827050140819
673.0,0.012065750367039534
672.0,0.011782570379054086
671.0,0.011532108590502244
670.0,0.011288486783541937
669.0,0.011008007668734034
668.0,0.010697572630445611
667.0,0.010464839514838207
666.0,0.010316001638516275
665.0,0.010178361820231045
664.0,0.010032562809300913
663.0,0.009881483228542235
662.0,0.009733367247555805
661.0,0.009597144588962332
660.0,0.009483154204366075
659.0,0.009399774923209335
658.0,0.009343199016941885
657.0,0.009296376477049452
656.0,0.009234876794735829
655.0,0.009137026673701696
654.0,0.008996544383055959
653.0,0.008828214183630233
652.0,0.00865800407532935
651.0,0.00850608024553427
650.0,0.00837516035076404
649.0,0.008253898651063511
648.0,0.008132306421313575
647.0,0.008010177766144258
646.0,0.007890896080889076
645.0,0.007774006448941891
644.0,0.007658403800579201
643.0,0.0075467479778825175
642.0,0.007440931560000448
641.0,0.007338796911981591
640.0,0.007242281820797924
639.0,0.0071651241071961965
638.0,0.007130594647082732
637.0,0.007175332875201999
636.0,0.007360518515822383
635.0,0.007740583430714796
634.0,0.008273431170601385
633.0,0.008776169533962671
632.0,0.009003512712685487
631.0,0.008807884223922249
630.0,0.008270939188985733
629.0,0.007636941722283151
628.0,0.007103724273773598
627.0,0.006723212003098408
626.0,0.0064513691160565986
625.0,0.006231727165173777
624.0,0.006035377731118998
623.0,0.005853124064355262
622.0,0.0056801225744941095
621.0,0.0055143210772249564
620.0,0.0053633959656983286
619.0,0.005246250620143887
618.0,0.005175616549665973
617.0,0.0051383034485465405
616.0,0.00510490216645062
615.0,0.005058555525776116
614.0,0.005006350454639891
613.0,0.004963783758641271
612.0,0.004938761205559727
611.0,0.004933919630021799
610.0,0.004954490306546388
609.0,0.005002834384597669
608.0,0.005063754952937852
607.0,0.0051056929892611125
606.0,0.005108136727710284
605.0,0.005080720357538324
604.0,0.00504544769287342
603.0,0.0050156200440874665
602.0,0.004998381703134623
601.0,0.004998439664137787
600.0,0.0050061602791701305
599.0,0.004993568283621902
598.0,0.004940893332466851
597.0,0.004860722289387843
596.0,0.004782620604687482
595.0,0.00472165018401827
594.0,0.004668343045104986
593.0,0.004605042413007366
592.0,0.004525593923717671
591.0,0.0044412086368728915
590.0,0.0043716289834634416
589.0,0.00432791486077261
588.0,0.004300336075287384
587.0,0.004257732376344444
586.0,0.00416387701766072
585.0,0.004005279111707229
584.0,0.0038067857771609034
583.0,0.0036236424897123296
582.0,0.0035018637266938917
581.0,0.0034338721121306443
580.0,0.0033687302534928954
579.0,0.0032661962734865206
578.0,0.0031276062702086348
577.0,0.002977430426458554
576.0,0.002838144561759629
575.0,0.00273113859994761
574.0,0.00267287607257995
573.0,0.002658108405694609
572.0,0.0026633961228572567
571.0,0.002665775192112264
570.0,0.002662215146126405
569.0,0.002677585575777774
568.0,0.0027383170603272125
567.0,0.002831615515735377
566.0,0.002908086966469275
565.0,0.0029384763651914905
564.0,0.002941790415621764
563.0,0.0029493200368040096
562.0,0.0029609124708014616
561.0,0.0029490737095332915
560.0,0.002899609339124481
559.0,0.0028406864701750415
558.0,0.0028303367563542233
557.0,0.0028980239645750097
556.0,0.0030052036356078803
555.0,0.003071333438607937
554.0,0.0030509361321753078
553.0,0.002974590689729613
552.0,0.002886192239999901
551.0,0.0027848067603313403
550.0,0.002660320582239948
