cm-1,A
4000.0,0.00141269323000532
3999.0,0.0014238082133753516
3998.0,0.0014341150010316653
3997.0,0.001439203479986547
3996.0,0.0014377711584932758
3995.0,0.001432328642810351
3994.0,0.0014275187622856565
3993.0,0.001427349704419142
3992.0,0.0014329450042723513
3991.0,0.0014420861475939956
3990.0,0.0014504008616840537
3989.0,0.0014541872243024347
3988.0,0.0014523975355066167
3987.0,0.0014463284725804233
3986.0,0.0014378711162117788
3985.0,0.0014285238251795342
3984.0,0.0014197677834262845
3983.0,0.0014136376339137636
3982.0,0.0014118870579017746
3981.0,0.0014140007429682844
3980.0,0.0014167375721218785
3979.0,0.001416968921919348
3978.0,0.0014149400087766825
3977.0,0.001413878665926177
3976.0,0.0014164540035718942
3975.0,0.0014215913981953177
3974.0,0.001425754819410533
3973.0,0.0014273669544065818
3972.0,0.0014285830511327874
3971.0,0.001432442544267669
3970.0,0.0014388535563744612
3969.0,0.0014446290761309733
3968.0,0.001447794650962556
3967.0,0.001450007033580827
3966.0,0.001454357207902452
3965.0,0.0014615302725810124
3964.0,0.001468670090264912
3963.0,0.001472475455764035
3962.0,0.0014722412057434475
3961.0,0.001469461828024854
3960.0,0.001465640701505727
3959.0,0.0014606904095380976
3958.0,0.0014538371775490561
3957.0,0.0014458736930115165
3956.0,0.0014395416706156757
3955.0,0.0014370122309910636
3954.0,0.0014378250294066653
3953.0,0.0014400998568211555
3952.0,0.001443253325681305
3951.0,0.0014488210321120846
3950.0,0.0014583106311576713
3949.0,0.0014704626935277934
3948.0,0.0014808258355872108
3947.0,0.001484118201497262
3946.0,0.0014781355469360128
3945.0,0.0014652970476112066
3944.0,0.0014506382589210966
3943.0,0.0014398030469407693
3942.0,0.0014372079579931959
3941.0,0.0014433832135361505
3940.0,0.0014539377743477697
3939.0,0.0014621848992261493
3938.0,0.0014639844985064477
3937.0,0.0014607788189105755
3936.0,0.0014586594978960219
3935.0,0.0014627575053079507
3934.0,0.001471944565705791
3933.0,0.001480028344676006
3932.0,0.0014809939266137414
3931.0,0.0014745618716041106
3930.0,0.0014653932903120176
3929.0,0.0014580651244404785
3928.0,0.0014553555177284822
3927.0,0.001458441859537874
3926.0,0.0014661248480890392
3925.0,0.0014730822511231042
3924.0,0.0014745600497038415
3923.0,0.0014725625624251617
3922.0,0.0014724871162929806
3921.0,0.0014753731304369615
3920.0,0.0014766188387205451
3919.0,0.0014720181159787005
3918.0,0.0014626770822444525
3917.0,0.001452647474778075
3916.0,0.001445529462439087
3915.0,0.001443627554299779
3914.0,0.0014472614243502269
3913.0,0.0014527812796473988
3912.0,0.0014553386600192901
3911.0,0.0014534974465874912
3910.0,0.0014501429870316805
3909.0,0.001448021191158705
3908.0,0.0014472096592689078
3907.0,0.0014473524144667962
3906.0,0.001449208172924237
3905.0,0.0014523778066695358
3904.0,0.0014537598538683725
3903.0,0.0014515161395410414
3902.0,0.0014481138083888069
3901.0,0.0014473466434659983
3900.0,0.001448831016136303
3899.0,0.001449140557173021
3898.0,0.0014482135718470847
3897.0,0.001448833787396193
3896.0,0.0014524229326302895
3895.0,0.0014568861680489794
3894.0,0.0014605950230407215
3893.0,0.001464135425575361
3892.0,0.001468201240494123
3891.0,0.0014704412119478046
3890.0,0.0014677717499147944
3889.0,0.0014625523703630998
3888.0,0.0014612070651222999
3887.0,0.0014649609809132482
3886.0,0.00146719258493794
3885.0,0.0014626100073069051
3884.0,0.001455651199553658
3883.0,0.0014546349641311324
3882.0,0.0014578043756070702
3881.0,0.0014562170929519613
3880.0,0.0014490173547130093
3879.0,0.0014443639240593674
3878.0,0.0014486709392114378
3877.0,0.0014612728345173086
3876.0,0.0014753571594258988
3875.0,0.0014814226417004424
3874.0,0.0014739952560487543
3873.0,0.0014586159703731394
3872.0,0.0014479182342668653
3871.0,0.0014468613998721365
3870.0,0.001448497719642952
3869.0,0.001446493731388515
3868.0,0.0014465015531135161
3867.0,0.0014578598014521106
3866.0,0.0014757810114727743
3865.0,0.001483495324709972
3864.0,0.0014764418481286686
3863.0,0.00146795799408357
3862.0,0.001469177165505668
3861.0,0.001475983863750294
3860.0,0.0014790887735121189
3859.0,0.0014721656105631201
3858.0,0.0014518775955547265
3857.0,0.0014204218130738954
3856.0,0.0013901995635441041
3855.0,0.0013803800996606184
3854.0,0.0013951559000826763
3853.0,0.001412991778122132
3852.0,0.0014205940164484423
3851.0,0.0014275970888713548
3850.0,0.001440744561557955
3849.0,0.0014553882339210255
3848.0,0.001465426750741993
3847.0,0.0014701965150949428
3846.0,0.00147075874446499
3845.0,0.0014669395856968166
3844.0,0.0014612004171978337
3843.0,0.0014559006839736238
3842.0,0.001450809661622682
3841.0,0.0014447773746021526
3840.0,0.0014372357931436938
3839.0,0.0014284983409561078
3838.0,0.0014224355615726821
3837.0,0.0014226064085328147
3836.0,0.0014270079852141148
3835.0,0.0014309974712639114
3834.0,0.001432751066186449
3833.0,0.0014347158991137358
3832.0,0.0014397814433278313
3831.0,0.0014480891733946798
3830.0,0.0014574667461706796
3829.0,0.0014647152911153065
3828.0,0.0014671923520347741
3827.0,0.001464313853201686
3826.0,0.0014584990192111173
3825.0,0.001455112259517037
3824.0,0.0014602462679143497
3823.0,0.0014711704071985448
3822.0,0.0014740335842306977
3821.0,0.0014601954830822748
3820.0,0.001440913875754059
3819.0,0.0014338022596433013
3818.0,0.0014414247013548138
3817.0,0.0014500177103650373
3816.0,0.0014454947483753555
3815.0,0.001431277552871927
3814.0,0.001424249674978968
3813.0,0.0014345677885284876
3812.0,0.0014532198538662936
3811.0,0.0014645372591546597
3810.0,0.001464609488871801
3809.0,0.0014613876870462812
3808.0,0.0014597462678387916
3807.0,0.001453805073337784
3806.0,0.0014393767533550116
3805.0,0.0014249341934225355
3804.0,0.0014227240455189664
3803.0,0.0014307281787651702
3802.0,0.001433472630544851
3801.0,0.0014235098257535167
3800.0,0.0014120389217210884
3799.0,0.0014136810083750328
3798.0,0.0014275667710680344
3797.0,0.0014410551329354202
3796.0,0.0014462109933456868
3795.0,0.001446336963813646
3794.0,0.0014487796064521106
3793.0,0.0014557368873284308
3792.0,0.0014633019146650119
3791.0,0.0014680126419806061
3790.0,0.001470418677605223
3789.0,0.001472695423879648
3788.0,0.0014760618955408041
3787.0,0.001481022770372941
3786.0,0.0014873640361468044
3785.0,0.0014926534588237048
3784.0,0.0014937505375069394
3783.0,0.0014902634348444976
3782.0,0.0014842391966521855
3781.0,0.0014756953175503068
3780.0,0.0014633281062880412
3779.0,0.0014505859624722585
3778.0,0.0014457086378068572
3777.0,0.0014529647157486788
3776.0,0.0014682618470148972
3775.0,0.0014822565792760789
3774.0,0.0014870277943617523
3773.0,0.0014809646367760338
3772.0,0.0014670128623223704
3771.0,0.001447761543687465
3770.0,0.0014278415965841011
3769.0,0.0014170145161734632
3768.0,0.001421327276133338
3767.0,0.0014359508515280396
3766.0,0.0014493380031866312
3765.0,0.001453909808506437
3764.0,0.001452363520978172
3763.0,0.0014538040627119953
3762.0,0.0014636270158250235
3761.0,0.0014749516170812736
3760.0,0.0014756593572353488
3759.0,0.0014661524806871243
3758.0,0.0014598400299636128
3757.0,0.001464355094371152
3756.0,0.0014739736788880456
3755.0,0.0014812517979859922
3754.0,0.001482489172250169
3753.0,0.0014760802712090802
3752.0,0.001463699480281275
3751.0,0.0014545191109022388
3750.0,0.0014579668006521225
3749.0,0.0014670156229258003
3748.0,0.0014678843055356784
3747.0,0.001462931806974761
3746.0,0.0014642126508891376
3745.0,0.0014754740439851168
3744.0,0.0014878665837288244
3743.0,0.0014921489223390372
3742.0,0.0014943346325238605
3741.0,0.0014997680044917484
3740.0,0.0015010858195646628
3739.0,0.0014963424636081075
3738.0,0.0014946864919878691
3737.0,0.0014991905242567006
3736.0,0.0014971847026746745
3735.0,0.0014828413433768065
3734.0,0.0014721313557767481
3733.0,0.0014795441696621174
3732.0,0.0014985466782394372
3731.0,0.0015155230429545075
3730.0,0.001527611227207072
3729.0,0.001540099910474425
3728.0,0.0015550535963882294
3727.0,0.0015684002671583824
3726.0,0.0015780784898762395
3725.0,0.0015889005802845065
3724.0,0.0016039225310040786
3723.0,0.001617269195668227
3722.0,0.0016238654192342532
3721.0,0.0016280166648229974
3720.0,0.001638800945112265
3719.0,0.0016608219483008014
3718.0,0.00169150534356435
3717.0,0.0017240316709157652
3716.0,0.0017557516299921473
3715.0,0.0017929329124742308
3714.0,0.0018440790431421385
3713.0,0.0019098504784741382
3712.0,0.0019807939401410564
3711.0,0.002048870436828237
3710.0,0.002119644918151033
3709.0,0.002204244244168804
3708.0,0.002306314574121382
3707.0,0.002421340270780786
3706.0,0.0025439703323020414
3705.0,0.0026756484097542887
3704.0,0.002824576699639771
3703.0,0.002998603106321689
3702.0,0.003192764250006765
3701.0,0.003385213461737537
3700.0,0.003550858808084521
3699.0,0.003678430269421732
3698.0,0.0037684455716639996
3697.0,0.0038225752829646716
3696.0,0.003842451539020803
3695.0,0.003834901333465407
3694.0,0.0038079123786356646
3693.0,0.003761288958768946
3692.0,0.0036907278991879008
3691.0,0.0036009000674783595
3690.0,0.0035100822632451933
3689.0,0.0034371967790629617
3688.0,0.0033846309091794266
3687.0,0.003340225525532355
3686.0,0.003296442218406699
3685.0,0.0032545772871189057
3684.0,0.0032148681279780275
3683.0,0.003175558278319086
3682.0,0.0031377404087943117
3681.0,0.0031063603678882622
3680.0,0.0030831681187889256
3679.0,0.003068307625763618
3678.0,0.0030681619265579647
3677.0,0.003089651296327249
3676.0,0.003123015957784983
3675.0,0.0031506060085648904
3674.0,0.0031732703649802463
3673.0,0.0032051447299581417
3672.0,0.003253500473273334
3671.0,0.0033088219556299866
3670.0,0.003353939380127338
3669.0,0.003384169651006093
3668.0,0.0034097648661389427
3667.0,0.0034371504681424622
3666.0,0.003464591534736998
3665.0,0.003490682939347168
3664.0,0.0035171130344072935
3663.0,0.0035478121766433267
3662.0,0.00358528611929359
3661.0,0.003628101438991954
3660.0,0.0036721929668666643
3659.0,0.003716551537817446
3658.0,0.0037641859202620243
3657.0,0.0038162788424293314
3656.0,0.003866032551246148
3655.0,0.0039045198108518062
3654.0,0.003931659373432531
3653.0,0.003955495074287918
3652.0,0.003984336850556938
3651.0,0.00402318282637967
3650.0,0.004071176924105531
3649.0,0.004118056420455841
3648.0,0.004152780759407078
3647.0,0.004174373588347136
3646.0,0.004191904490894129
3645.0,0.00421492242168924
3644.0,0.004245551230929856
3643.0,0.0042786700880700305
3642.0,0.004307818026097737
3641.0,0.004332589325864631
3640.0,0.004359086371950823
3639.0,0.004393356093261773
3638.0,0.0044352942715927095
3637.0,0.0044813199321419
3636.0,0.004529899328448661
3635.0,0.004580712102257519
3634.0,0.004629993794141305
3633.0,0.004673050384816641
3632.0,0.004713201893986581
3631.0,0.004763897673828221
3630.0,0.004839512953318944
3629.0,0.004940025669714171
3628.0,0.0050485636257147715
3627.0,0.005152177913595372
3626.0,0.005250204384346133
3625.0,0.005344936777445599
3624.0,0.005436522956626679
3623.0,0.005524760285857138
3622.0,0.005608103493227782
3621.0,0.00567828859654817
3620.0,0.005719834328499717
3619.0,0.005725249284595594
3618.0,0.005705491016569363
3617.0,0.005675212803587695
3616.0,0.0056389642662942815
3615.0,0.005595207673266518
3614.0,0.005545187115785679
3613.0,0.005498190731985799
3612.0,0.005466347557617748
3611.0,0.005454436866590421
3610.0,0.0054565969859897276
3609.0,0.005461127541251091
3608.0,0.005460537587685399
3607.0,0.005458349399182265
3606.0,0.0054618884148440175
3605.0,0.005472100717096613
3604.0,0.005484108177639213
3603.0,0.00549503185954359
3602.0,0.005507495229982014
3601.0,0.005525301003910491
3600.0,0.005548071857020201
3599.0,0.005573955771961314
3598.0,0.005602092541740894
3597.0,0.005631063849356471
3596.0,0.005657624979447134
3595.0,0.005679085094505067
3594.0,0.005696272283116161
3593.0,0.005712989638456526
3592.0,0.0057312738506953885
3591.0,0.005749617680654357
3590.0,0.005766451191058499
3589.0,0.005781902471651599
3588.0,0.005797644531673545
3587.0,0.005817048396404403
3586.0,0.005842709977521788
3585.0,0.00587305096036451
3584.0,0.005904204348273083
3583.0,0.00593460387504048
3582.0,0.0059655194195762234
3581.0,0.005998614995457707
3580.0,0.00603346676154334
3579.0,0.0060679851452271165
3578.0,0.006100066876548351
3577.0,0.006128902597675961
3576.0,0.006155881895768999
3575.0,0.0061843538406981076
3574.0,0.0062172436687833
3573.0,0.006254060836358797
3572.0,0.006291319999136392
3571.0,0.00632634273784275
3570.0,0.0063608547293895696
3569.0,0.006398844321611703
3568.0,0.006440589233557603
3567.0,0.0064824460135519905
3566.0,0.006523025242801607
3565.0,0.006563125567850917
3564.0,0.006601928296728567
3563.0,0.006638628466329181
3562.0,0.0066745699523538485
3561.0,0.006711757682293757
3560.0,0.00674969611435749
3559.0,0.006785811297136133
3558.0,0.006819690769729011
3557.0,0.006854253258708335
3556.0,0.006892089372084083
3555.0,0.006931997155485906
3554.0,0.006969612568820989
3553.0,0.00700205777139196
3552.0,0.007032423819555938
3551.0,0.007067554144057544
3550.0,0.00711088123851019
3549.0,0.007158629826991508
3548.0,0.007202598016851337
3547.0,0.007236782397140949
3546.0,0.0072618741383094505
3545.0,0.007283061714597479
3544.0,0.007305565349513578
3543.0,0.007332623218313133
3542.0,0.007365379471322403
3541.0,0.0074024736963042865
3540.0,0.007441184247044199
3539.0,0.0074803581248788845
3538.0,0.0075208725112801515
3537.0,0.007562397580199491
3536.0,0.007602038894395841
3535.0,0.007637603145599204
3534.0,0.007669861449891291
3533.0,0.007700364065243548
3532.0,0.007729298513097782
3531.0,0.007757632156395054
3530.0,0.0077897064841169344
3529.0,0.00783012570701594
3528.0,0.007877746485034521
3527.0,0.007925256876371432
3526.0,0.007965137815978377
3525.0,0.00799443496278534
3524.0,0.008015115735716723
3523.0,0.008032252955270424
3522.0,0.00805125622231445
3521.0,0.008075001833021867
3520.0,0.008103236402763808
3519.0,0.008134720625312578
3518.0,0.008168890301216885
3517.0,0.00820519893009573
3516.0,0.008242311802881657
3515.0,0.008278911840522056
3514.0,0.008314378308697296
3513.0,0.008348236734375713
3512.0,0.008379492224410463
3511.0,0.008407821515224996
3510.0,0.008435302290934856
3509.0,0.008465570412387281
3508.0,0.008500956943236035
3507.0,0.00854123371066783
3506.0,0.008583954740255775
3505.0,0.008624576190903758
3504.0,0.008657982356481735
3503.0,0.00868302458873219
3502.0,0.008704862454483526
3501.0,0.00873005093213627
3500.0,0.008760252875433642
3499.0,0.008792470538371218
3498.0,0.008823607744053722
3497.0,0.008853232617677688
3496.0,0.008883122360361317
3495.0,0.008915946219027839
3494.0,0.008954232600578295
3493.0,0.00899868112126435
3492.0,0.00904631767727485
3491.0,0.009091178195763206
3490.0,0.009128480650698842
3489.0,0.009158823250544738
3488.0,0.009187903280822248
3487.0,0.009221440964572926
3486.0,0.009260050308527792
3485.0,0.00929918038270179
3484.0,0.009333834978620352
3483.0,0.009363051575882079
3482.0,0.00938999802213836
3481.0,0.00941891002090118
3480.0,0.009453125669721061
3479.0,0.009494847175190455
3478.0,0.009543783430907173
3477.0,0.009595364951261596
3476.0,0.009642734971581276
3475.0,0.009682398612857756
3474.0,0.009716712853126813
3473.0,0.009749276645702392
3472.0,0.009779672883672165
3471.0,0.009804749743966433
3470.0,0.009824304687162244
3469.0,0.009843826218770594
3468.0,0.009871260643915691
3467.0,0.009910945226432483
3466.0,0.009959897629765672
3465.0,0.010009382579089357
3464.0,0.010051174782377022
3463.0,0.010084435903838396
3462.0,0.01011689775473973
3461.0,0.010158186725138766
3460.0,0.010211406206656167
3459.0,0.010270665905259423
3458.0,0.010325604808856888
3457.0,0.01036860433210951
3456.0,0.01039929231781537
3455.0,0.010423753226127585
3454.0,0.010450020166050353
3453.0,0.010483471899075251
3452.0,0.010525093855245703
3451.0,0.0105723441233903
3450.0,0.010620226356683722
3449.0,0.01066295844371049
3448.0,0.010698255740608436
3447.0,0.010730924344273413
3446.0,0.010768433727194819
3445.0,0.01081137388419794
3444.0,0.010851910011001602
3443.0,0.010882958382787087
3442.0,0.010906064419836364
3441.0,0.01092849119961172
3440.0,0.010954439897019705
3439.0,0.010981991351079072
3438.0,0.011007634709388424
3437.0,0.011030960290564357
3436.0,0.011054908388896773
3435.0,0.011082965353803015
3434.0,0.011115739173470696
3433.0,0.011149322873241775
3432.0,0.011178222716144404
3431.0,0.01120116054963602
3430.0,0.011222727847053715
3429.0,0.01124820903032703
3428.0,0.011278522420318664
3427.0,0.011311495964043598
3426.0,0.011345062598480202
3425.0,0.011376070181366148
3424.0,0.011398548991613787
3423.0,0.011408060452607652
3422.0,0.011408453046429843
3421.0,0.011410979075995323
3420.0,0.011424614846883781
3419.0,0.011448416913859527
3418.0,0.011473650001712809
3417.0,0.011491436968397904
3416.0,0.01149835899583053
3415.0,0.0114971938498369
3414.0,0.011493740837887711
3413.0,0.011492491603098332
3412.0,0.011495015355341597
3411.0,0.011502093345589845
3410.0,0.011515869689148766
3409.0,0.011538169172154836
3408.0,0.011566842597272106
3407.0,0.011595206726965582
3406.0,0.011615629097951843
3405.0,0.011623825727594099
3404.0,0.011621041884184898
3403.0,0.011613383902162693
3402.0,0.011608557998632387
3401.0,0.011611806316976891
3400.0,0.011624150256806598
3399.0,0.01164370274354798
3398.0,0.011667360774790154
3397.0,0.011691340135649144
3396.0,0.01171195373410427
3395.0,0.01172738486811062
3394.0,0.011738693668881642
3393.0,0.011749013173080006
3392.0,0.01176198814396536
3391.0,0.011780145777940822
3390.0,0.011803026168756763
3389.0,0.01182665448015083
3388.0,0.011846502194693026
3387.0,0.011861654886557401
3386.0,0.011874717113656834
3385.0,0.01188718663400944
3384.0,0.0118971800383959
3383.0,0.011903026327458417
3382.0,0.01190683966832061
3381.0,0.011912421974379245
3380.0,0.011920901817015023
3379.0,0.011930306773739092
3378.0,0.011938894175348748
3377.0,0.011947156805195444
3376.0,0.011956451906922063
3375.0,0.01196673748591318
3374.0,0.011976014952476957
3373.0,0.01198188120698858
3372.0,0.011984028514196386
3371.0,0.011985190638543157
3370.0,0.01198872129864055
3369.0,0.011995024882654037
3368.0,0.012001545571004713
3367.0,0.012006642838011165
3366.0,0.012012130612745848
3365.0,0.012021188379249453
3364.0,0.012034726814537074
3363.0,0.012050131729332678
3362.0,0.012062517606176366
3361.0,0.012067618596500304
3360.0,0.0120657077935937
3359.0,0.01206308620874361
3358.0,0.012067137069830015
3357.0,0.012078489231224487
3356.0,0.012089885122697291
3355.0,0.012094043113272468
3354.0,0.012090751709497187
3353.0,0.012085369720488112
3352.0,0.012083234568748304
3351.0,0.012087343806521962
3350.0,0.012098689830980894
3349.0,0.01211526067258639
3348.0,0.012131463053460937
3347.0,0.01214138542291485
3346.0,0.012142867543193055
3345.0,0.012137308303143447
3344.0,0.01212721564803173
3343.0,0.01211609283926399
3342.0,0.012108775739773849
3341.0,0.01210829694863452
3340.0,0.012112513926479666
3339.0,0.012116606026085726
3338.0,0.012119149985560292
3337.0,0.01212316775955459
3336.0,0.012130709820833922
3335.0,0.012138958883623329
3334.0,0.012142910412055829
3333.0,0.012140058915995988
3332.0,0.012131404956390989
3331.0,0.01211959339825215
3330.0,0.012107508972022904
3329.0,0.012097901025624509
3328.0,0.012093156028465724
3327.0,0.012095063554875364
3326.0,0.01210409968727243
3325.0,0.01211774891455305
3324.0,0.012129754228286542
3323.0,0.012132912286972247
3322.0,0.012124184719025556
3321.0,0.012107365538053628
3320.0,0.012090683770879372
3319.0,0.012081740800727395
3318.0,0.012083645043003277
3317.0,0.01209399987969207
3316.0,0.012106688310806654
3315.0,0.012115541917079456
3314.0,0.012117694518640061
3313.0,0.012114208661250006
3312.0,0.012107848676276326
3311.0,0.01210059022046006
3310.0,0.012093152448393272
3309.0,0.012086052650378742
3308.0,0.012080147396245619
3307.0,0.012075844322951572
3306.0,0.012072285505098456
3305.0,0.012068296476822019
3304.0,0.012064687090237797
3303.0,0.01206489518237595
3302.0,0.012071947990034186
3301.0,0.012084377852834397
3300.0,0.01209613381918605
3299.0,0.012101286267559394
3298.0,0.01209848111003551
3297.0,0.01209049890632211
3296.0,0.012080439755700964
3295.0,0.01206950298917022
3294.0,0.01205816593152665
3293.0,0.012048087928004644
3292.0,0.012041696976055689
3291.0,0.012039711993094525
3290.0,0.012039708761519368
3289.0,0.012038050173977558
3288.0,0.012033728223517996
3287.0,0.01202976703047428
3286.0,0.012029718814966986
3285.0,0.012032528748673678
3284.0,0.012031833901007542
3283.0,0.012021154923558453
3282.0,0.011999811615984365
3281.0,0.011973895671885925
3280.0,0.011951823116063433
3279.0,0.011938380221968775
3278.0,0.01193161675397614
3277.0,0.011924724078634095
3276.0,0.011911723088612962
3275.0,0.011892454921843817
3274.0,0.011872317255303516
3273.0,0.011857073920692674
3272.0,0.011847874652039186
3271.0,0.011840774186924946
3270.0,0.01183030637566337
3269.0,0.01181355278091115
3268.0,0.011791617734091136
3267.0,0.01176780119490371
3266.0,0.011744418293156058
3265.0,0.01172141915192439
3264.0,0.011697714491874404
3263.0,0.01167259316765454
3262.0,0.011645351802536676
3261.0,0.011615263804300047
3260.0,0.011583351196085116
3259.0,0.011552895900436063
3258.0,0.01152625318193736
3257.0,0.011501764132726734
3256.0,0.011475846407557125
3255.0,0.011447849268765794
3254.0,0.011420629171995277
3253.0,0.011396294501700911
3252.0,0.011373928840412934
3251.0,0.011351962568949924
3250.0,0.011330192348716017
3249.0,0.011308302265589645
3248.0,0.011284425082533115
3247.0,0.011256841759798965
3246.0,0.011225937139762882
3245.0,0.011193330644903954
3244.0,0.0111604115980066
3243.0,0.01112889782237589
3242.0,0.011101327597495268
3241.0,0.011079074580744487
3240.0,0.011060151444399566
3239.0,0.01104024327532441
3238.0,0.011016003428665483
3237.0,0.010987084925710454
3236.0,0.010955826391523973
3235.0,0.010925646399268853
3234.0,0.010898724518331786
3233.0,0.01087401220147111
3232.0,0.010848084213065908
3231.0,0.010818876652077184
3230.0,0.010788232681030314
3229.0,0.010760302067358838
3228.0,0.010737969163200975
3227.0,0.010721111940573529
3226.0,0.01070700982821214
3225.0,0.01069124152504549
3224.0,0.010669288592795149
3223.0,0.010639200120994851
3222.0,0.010603065302016755
3221.0,0.010565310839970844
3220.0,0.010529527799641928
3219.0,0.010496985913764858
3218.0,0.010467213454424192
3217.0,0.01043897821733244
3216.0,0.010411095697847319
3215.0,0.010383425142299157
3214.0,0.010357167407061628
3213.0,0.010333189872078938
3212.0,0.01030978324762726
3211.0,0.010282975830210732
3210.0,0.010250032978589042
3209.0,0.01021293360135921
3208.0,0.010177822733467262
3207.0,0.01015009467719809
3206.0,0.010129502696939439
3205.0,0.010110525344442588
3204.0,0.010087958749412483
3203.0,0.010061432553129766
3202.0,0.01003353170075929
3201.0,0.01000472322858975
3200.0,0.009972569833134614
3199.0,0.009936143474037283
3198.0,0.009898738644020006
3197.0,0.00986456407464562
3196.0,0.00983411822148557
3195.0,0.009804551877508895
3194.0,0.00977367154848347
3193.0,0.009741730936367828
3192.0,0.009709715805641861
3191.0,0.00967779360369092
3190.0,0.009646018090072142
3189.0,0.009615264572603208
3188.0,0.009586277638917185
3187.0,0.009558051878726812
3186.0,0.009528049997953305
3185.0,0.009494580380864402
3184.0,0.009458660756913869
3183.0,0.009423098526078475
3182.0,0.009389859723690606
3181.0,0.009358770820188623
3180.0,0.009328531555264726
3179.0,0.009297869419573791
3178.0,0.009265406451659868
3177.0,0.009229832374965804
3176.0,0.009191428107243911
3175.0,0.009152509533591133
3174.0,0.009114909743277309
3173.0,0.009077645080734094
3172.0,0.009038802552882917
3171.0,0.00899939048505084
3170.0,0.008963287247512995
3169.0,0.00893299060311855
3168.0,0.008906927741437004
3167.0,0.008881262367496492
3166.0,0.008852859758200082
3165.0,0.008820536071835479
3164.0,0.008785411757525494
3163.0,0.00875069541930924
3162.0,0.008719374782038589
3161.0,0.008691056411329562
3160.0,0.00866237083011254
3159.0,0.008631243643909875
3158.0,0.008599136954361195
3157.0,0.00856806450463135
3156.0,0.00853705996188752
3155.0,0.008503211218745605
3154.0,0.008465337590141326
3153.0,0.008425679794132323
3152.0,0.008388805890893651
3151.0,0.008359143699561394
3150.0,0.00833756595883197
3149.0,0.008318871383508076
3148.0,0.008294282692291191
3147.0,0.008258921040359609
3146.0,0.008216619765986678
3145.0,0.008176210324386753
3144.0,0.008143593112388227
3143.0,0.008118241066424883
3142.0,0.008095894691865276
3141.0,0.00807259876979934
3140.0,0.008046849353835645
3139.0,0.008020090408935547
3138.0,0.007995366227845354
3137.0,0.007973960806810976
3136.0,0.007953176558907779
3135.0,0.007928552359173554
3134.0,0.007898345325178796
3133.0,0.007865203895654599
3132.0,0.007833781068128187
3131.0,0.007807454410915512
3130.0,0.007786628914690589
3129.0,0.0077684575473092425
3128.0,0.007748401752519273
3127.0,0.007724067934458595
3126.0,0.0076978385694050355
3125.0,0.007674289039001799
3124.0,0.007654839235605185
3123.0,0.007636372360711149
3122.0,0.007615635091981047
3121.0,0.007593272583482283
3120.0,0.007572264553652501
3119.0,0.007553466438432278
3118.0,0.007534252378642366
3117.0,0.007511923182962094
3116.0,0.007487723968638803
3115.0,0.0074666335809493965
3114.0,0.007452674302327525
3113.0,0.007444449014961666
3112.0,0.007436073966287806
3111.0,0.007422742151245023
3110.0,0.007404743400568219
3109.0,0.0073859654111538536
3108.0,0.007369495329583028
3107.0,0.007355700865044558
3106.0,0.007343544275210818
3105.0,0.007331552227075086
3104.0,0.007317469562736902
3103.0,0.0072990960609000035
3102.0,0.007276353473263712
3101.0,0.007251692668204355
3100.0,0.0072278950609492
3099.0,0.007206092029358509
3098.0,0.0071862324717821315
3097.0,0.007168235781482121
3096.0,0.007151969022704147
3095.0,0.007136986640745482
3094.0,0.0071233111125993676
3093.0,0.00711185918987998
3092.0,0.007102831270767312
3091.0,0.00709387160441209
3090.0,0.007081251744574402
3089.0,0.0070636115440757385
3088.0,0.007044010561112011
3087.0,0.007027392124855132
3086.0,0.007015692129902671
3085.0,0.00700599683219214
3084.0,0.006993564818178163
3083.0,0.0069763314005924035
3082.0,0.006956511735006004
3081.0,0.006938162985778975
3080.0,0.0069236220764495
3079.0,0.006911957041784085
3078.0,0.006900133824692735
3077.0,0.006885735980053544
3076.0,0.006869147415142876
3075.0,0.0068533576825019794
3074.0,0.006841300486050387
3073.0,0.006832925088820584
3072.0,0.006824733062454601
3071.0,0.006812135929803448
3070.0,0.006792539278822574
3069.0,0.0067668563953715375
3068.0,0.006738787148008468
3067.0,0.006712599908920095
3066.0,0.0066907546853222435
3065.0,0.00667309578136
3064.0,0.0066580982602438485
3063.0,0.006644257282210845
3062.0,0.006630085401346085
3061.0,0.006613955987056687
3060.0,0.006595242037829808
3059.0,0.0065754749667623355
3058.0,0.006557056380563011
3057.0,0.006540570064641075
3056.0,0.006524242476174965
3055.0,0.0065057488951568475
3054.0,0.006483523666586181
3053.0,0.006456176941949202
3052.0,0.006422411318603907
3051.0,0.006382550266922961
3050.0,0.006339334376483451
3049.0,0.006296386545764899
3048.0,0.006255950451246719
3047.0,0.006218215598586341
3046.0,0.006182207033790738
3045.0,0.006147104594237639
3044.0,0.006113252699394549
3043.0,0.006082084386344499
3042.0,0.0060546380509268
3041.0,0.006030434195749827
3040.0,0.006008224684257061
3039.0,0.005987467585226606
3038.0,0.005967970679136987
3037.0,0.005948641744022332
3036.0,0.005928037273270213
3035.0,0.005905961211200758
3034.0,0.005883067836990487
3033.0,0.005859264209046006
3032.0,0.005834619185272243
3031.0,0.005811628635768581
3030.0,0.005794012847032031
3029.0,0.005782099384208693
3028.0,0.005772108763701204
3027.0,0.005760914662013547
3026.0,0.005749863987081325
3025.0,0.005742160308536947
3024.0,0.00573835602841377
3023.0,0.005736127467968345
3022.0,0.005732973223752171
3021.0,0.005727416042371911
3020.0,0.005718888705954963
3019.0,0.005708647297058718
3018.0,0.005699893877353786
3017.0,0.005694860887555396
3016.0,0.005692145966525286
3015.0,0.005688670613088888
3014.0,0.005683511571537348
3013.0,0.005678565690510349
3012.0,0.005675877312477516
3011.0,0.0056760941704045486
3010.0,0.005678730154043146
3009.0,0.005682452255377042
3008.0,0.005685565567979946
3007.0,0.005687655789662991
3006.0,0.005690124971366091
3005.0,0.00569376614990268
3004.0,0.005696449698730792
3003.0,0.0056952369739042925
3002.0,0.005690154851094002
3001.0,0.005684561025608731
3000.0,0.005681835469678542
2999.0,0.005683444837468616
2998.0,0.00568909136072207
2997.0,0.005696800660913692
2996.0,0.005703229181580325
2995.0,0.005706576397632254
2994.0,0.005709606515433146
2993.0,0.005717743524822801
2992.0,0.005733103653324422
2991.0,0.005752551449427353
2990.0,0.005771891700014163
2989.0,0.005790595866576555
2988.0,0.005810936386722309
2987.0,0.005834539898333291
2986.0,0.0058612225916755065
2985.0,0.005890628161997632
2984.0,0.005923173761744183
2983.0,0.0059593831224489385
2982.0,0.005999147112809148
2981.0,0.006041798210475001
2980.0,0.006086409207709104
2979.0,0.00613192478392998
2978.0,0.006177193749370792
2977.0,0.006220896283973231
2976.0,0.006261636875941223
2975.0,0.006298727293806155
2974.0,0.006333210506260986
2973.0,0.006367633484253841
2972.0,0.00640413179269946
2971.0,0.006442191670589762
2970.0,0.006478507206401298
2969.0,0.006509328719707911
2968.0,0.0065335877458716045
2967.0,0.006553469846488066
2966.0,0.006571349243428447
2965.0,0.00658625218573088
2964.0,0.006594397643146802
2963.0,0.006593737531662074
2962.0,0.006586850324514522
2961.0,0.006578347979619185
2960.0,0.00656988450546343
2959.0,0.006558823757837753
2958.0,0.006541417850526954
2957.0,0.006516378253142495
2956.0,0.006485087558901551
2955.0,0.006449552717317872
2954.0,0.006410879204607623
2953.0,0.006369866305874734
2952.0,0.006328415691632429
2951.0,0.00628946367130776
2950.0,0.00625478083049995
2949.0,0.006223359238009125
2948.0,0.006193241362757176
2947.0,0.006165166088338542
2946.0,0.0061431399877738685
2945.0,0.006130730663785088
2944.0,0.006127868308747939
2943.0,0.0061319071963319895
2942.0,0.0061406720391587455
2941.0,0.006153403210932536
2940.0,0.006169831429700885
2939.0,0.006189955062929146
2938.0,0.006214300890789161
2937.0,0.006243112343724266
2936.0,0.006275321437815447
2935.0,0.006309210962787525
2934.0,0.006343405146133014
2933.0,0.006376691250880288
2932.0,0.006407974538522465
2931.0,0.0064376625321755886
2930.0,0.006468066823105259
2929.0,0.0065005257269273725
2928.0,0.006532976680463131
2927.0,0.006562039839761614
2926.0,0.0065871836193749506
2925.0,0.006610288543345469
2924.0,0.006630928020153856
2923.0,0.0066443514678626685
2922.0,0.0066452397350305805
2921.0,0.006632885649270995
2920.0,0.0066113005831165495
2919.0,0.006584751814583208
2918.0,0.006552747353796167
2917.0,0.006510000997782787
2916.0,0.006451595412801548
2915.0,0.006379174643645621
2914.0,0.0063010087024897845
2913.0,0.006226235303290789
2912.0,0.006159174980961708
2911.0,0.006099354027710719
2910.0,0.006044538939669286
2909.0,0.005992165731883228
2908.0,0.005939042180286909
2907.0,0.005882450160084125
2906.0,0.005821964691038471
2905.0,0.00575893895966111
2904.0,0.005694161227585742
2903.0,0.005627754344934835
2902.0,0.005561624896038553
2901.0,0.005500138644690656
2900.0,0.005447462343996614
2899.0,0.005404034729652889
2898.0,0.0053664863234688795
2897.0,0.005330329861316629
2896.0,0.005293104624802331
2895.0,0.0052556235640814075
2894.0,0.005220608467924375
2893.0,0.005189331205008511
2892.0,0.005159989104416956
2891.0,0.005129716114766655
2890.0,0.005098125113737035
2889.0,0.005067616096763886
2888.0,0.005040252992019179
2887.0,0.005015558912414573
2886.0,0.004991897419802147
2885.0,0.004969155981380077
2884.0,0.004948971549994118
2883.0,0.0049324409350783634
2882.0,0.004918391298931488
2881.0,0.004904384615934867
2880.0,0.004889722662148463
2879.0,0.0048765758893018095
2878.0,0.0048673931610320525
2877.0,0.004861332404767886
2876.0,0.004854636988455687
2875.0,0.004845106400778319
2874.0,0.0048343404005819325
2873.0,0.004824471190953008
2872.0,0.004814068665558821
2871.0,0.004799480752847882
2870.0,0.0047799159745718495
2869.0,0.004758877296048752
2868.0,0.004740480071480991
2867.0,0.004726170521398954
2866.0,0.004715432697536279
2865.0,0.004708165942432466
2864.0,0.00470509288515184
2863.0,0.004706912306977967
2862.0,0.004713962871222503
2861.0,0.004726285773705944
2860.0,0.004743476733880947
2859.0,0.004764647692450719
2858.0,0.004788583623128825
2857.0,0.004813627511359473
2856.0,0.004837855448286902
2855.0,0.004860209174144253
2854.0,0.004880680336480168
2853.0,0.004897663942808076
2852.0,0.004904649800556131
2851.0,0.004891609064382814
2850.0,0.0048508320260645015
2849.0,0.004782457273749155
2848.0,0.004693762488992232
2847.0,0.004594917046625628
2846.0,0.004494997901049654
2845.0,0.004400764650275237
2844.0,0.004316033230199362
2843.0,0.004241132196953604
2842.0,0.004173399331641376
2841.0,0.004109512232296038
2840.0,0.004048374468177911
2839.0,0.003992162564114264
2838.0,0.0039443938492292685
2837.0,0.003906451481925788
2836.0,0.003876002099295131
2835.0,0.003848714274017559
2834.0,0.003821189872859892
2833.0,0.0037925417138545813
2832.0,0.00376389509262363
2831.0,0.003736903082590095
2830.0,0.0037122030635239837
2829.0,0.0036889985635527043
2828.0,0.003666574250422847
2827.0,0.0036462087944036216
2826.0,0.0036305702497878567
2825.0,0.0036207131720533206
2824.0,0.003614295842710306
2823.0,0.0036071338084624326
2822.0,0.0035958442679110613
2821.0,0.0035787924990049926
2820.0,0.003556593096845379
2819.0,0.0035328621542375822
2818.0,0.003512954824748847
2817.0,0.003499585801623
2816.0,0.0034900587580111086
2815.0,0.0034793878249738553
2814.0,0.0034655650295908665
2813.0,0.0034504927889049027
2812.0,0.003436658617623339
2811.0,0.0034249047633263053
2810.0,0.003415278054641829
2809.0,0.0034075513012821477
2808.0,0.003400093357215567
2807.0,0.0033901896702580652
2806.0,0.003376693322803888
2805.0,0.003361498521239895
2804.0,0.00334758404466679
2803.0,0.0033359472459845076
2802.0,0.003324991260148653
2801.0,0.00331241685605755
2800.0,0.0032972581940725835
2799.0,0.0032806652244949325
2798.0,0.0032649202490970695
2797.0,0.0032513798369769534
2796.0,0.0032396656389988504
2795.0,0.0032290477064842744
2794.0,0.0032199235143798586
2793.0,0.003212953641241175
2792.0,0.003207168540587709
2791.0,0.0032002465242398576
2790.0,0.003190702752569479
2789.0,0.0031789594861793453
2788.0,0.0031662988383354103
2787.0,0.003153642466662683
2786.0,0.0031414843204314396
2785.0,0.003130019799270786
2784.0,0.003119206694335856
2783.0,0.0031093195054124473
2782.0,0.0031012545723586573
2781.0,0.003095467798248794
2780.0,0.003090737809224107
2779.0,0.003084874901682825
2778.0,0.0030765307850396145
2777.0,0.0030658175200165613
2776.0,0.0030537574496950627
2775.0,0.0030420429953670106
2774.0,0.0030325450184543567
2773.0,0.003025363203564649
2772.0,0.0030176679701992407
2771.0,0.003006345678887783
2770.0,0.0029921376984507883
2769.0,0.002979337164538118
2768.0,0.0029707543754698877
2767.0,0.002964550174981804
2766.0,0.002956978210407878
2765.0,0.0029470044816577727
2764.0,0.0029371578111726383
2763.0,0.002930479505285458
2762.0,0.002927301492856871
2761.0,0.002924845734835345
2760.0,0.002919627841499315
2759.0,0.0029108118749559906
2758.0,0.0029012899822518294
2757.0,0.0028946812882546997
2756.0,0.0028912288954996137
2755.0,0.00288758765009259
2754.0,0.002880977757680902
2753.0,0.0028723134035559426
2752.0,0.0028644629641277745
2751.0,0.0028584521290689947
2750.0,0.0028528585722235045
2749.0,0.0028464551730456485
2748.0,0.002839986246275253
2747.0,0.002834928456767764
2746.0,0.002831260179738495
2745.0,0.002827201783195253
2744.0,0.0028210270719672987
2743.0,0.0028128211021169027
2742.0,0.0028043721401181986
2741.0,0.0027975549745985124
2740.0,0.0027929329683503445
2739.0,0.0027896360163437535
2738.0,0.002786060513557469
2737.0,0.0027807589890034195
2736.0,0.002773253321695507
2735.0,0.0027644247085190227
2734.0,0.002755769605299371
2733.0,0.002748070130349539
2732.0,0.0027410416954114325
2731.0,0.0027342204697698583
2730.0,0.002727426247643928
2729.0,0.0027201831756006956
2728.0,0.0027118501240158224
2727.0,0.0027030857602476435
2726.0,0.00269618354089943
2725.0,0.002692735852992653
2724.0,0.0026914376193176645
2723.0,0.0026890944217635568
2722.0,0.00268341598269278
2721.0,0.0026740623995699583
2720.0,0.002661922240977992
2719.0,0.0026488192741029554
2718.0,0.0026373559827025223
2717.0,0.002629299578698959
2716.0,0.0026240771746652647
2715.0,0.0026199781210965033
2714.0,0.0026166175875057193
2713.0,0.0026147248185483148
2712.0,0.0026135313458925153
2711.0,0.002610182920836624
2710.0,0.002602631039383734
2709.0,0.002592002150452759
2708.0,0.0025815422016414423
2707.0,0.002573907791103854
2706.0,0.0025698900167969584
2705.0,0.0025685616755356587
2704.0,0.0025677492810793692
2703.0,0.0025650921658444924
2702.0,0.002559533515540573
2701.0,0.0025518378408896404
2700.0,0.0025435097421209183
2699.0,0.0025357814660140637
2698.0,0.0025296086209449444
2697.0,0.002525522731361108
2696.0,0.0025226496976361408
2695.0,0.0025186486390584998
2694.0,0.002511844193283004
2693.0,0.0025033894759967034
2692.0,0.0024965324979604312
2691.0,0.002493439797155223
2690.0,0.002493144835780444
2689.0,0.0024927653973500804
2688.0,0.0024902670173357895
2687.0,0.002485740026455517
2686.0,0.002480291680162192
2685.0,0.002474533123173599
2684.0,0.0024683917475841147
2683.0,0.0024618761344498423
2682.0,0.0024553524300355394
2681.0,0.002449299891424939
2680.0,0.0024443162563692602
2679.0,0.002441158250340676
2678.0,0.0024400801200858383
2677.0,0.0024401424433860204
2676.0,0.002439890774923547
2675.0,0.002438604249633674
2674.0,0.0024361296218938606
2673.0,0.002431813400429833
2672.0,0.002424978176800865
2671.0,0.0024167259441646985
2670.0,0.0024097172073539804
2669.0,0.0024054913787808167
2668.0,0.0024032402092776816
2667.0,0.0024020109181288594
2666.0,0.002402640599075062
2665.0,0.0024061119949857946
2664.0,0.0024113173550383404
2663.0,0.0024163425628177197
2662.0,0.0024214306796400582
2661.0,0.002428746030118502
2660.0,0.0024390553177956274
2659.0,0.002450134927201398
2658.0,0.0024589115221239737
2657.0,0.002464222780748285
2656.0,0.00246714833776105
2655.0,0.002469326776660076
2654.0,0.002471251551815907
2653.0,0.0024718652291553385
2652.0,0.002469941632542052
2651.0,0.002466173580632409
2650.0,0.002463361697400026
2649.0,0.0024638267045276946
2648.0,0.002466952212465722
2647.0,0.0024701820660578463
2646.0,0.0024719301137592175
2645.0,0.002472573625299876
2644.0,0.002472921825540154
2643.0,0.002472988713564697
2642.0,0.002472564046741967
2641.0,0.0024719589396555103
2640.0,0.0024717078575599858
2639.0,0.002471816692872174
2638.0,0.0024716333165134175
2637.0,0.002470650292559432
2636.0,0.0024698126846784104
2635.0,0.002471769141531137
2634.0,0.0024784568462431467
2633.0,0.002487977546653887
2632.0,0.0024951248942923555
2631.0,0.002496328062086905
2630.0,0.002493240776251584
2629.0,0.0024903330304281127
2628.0,0.0024898063312454367
2627.0,0.0024902213176149187
2626.0,0.0024894156697842776
2625.0,0.0024869690399087624
2624.0,0.002483774066519105
2623.0,0.0024804639425983865
2622.0,0.00247663653390848
2621.0,0.0024712067658391322
2620.0,0.0024639050664199127
2619.0,0.002456794885087806
2618.0,0.0024532522836946988
2617.0,0.00245442081632252
2616.0,0.002457583678765827
2615.0,0.0024592659159350548
2614.0,0.002459047022276114
2613.0,0.002458835411549357
2612.0,0.0024593246499645897
2611.0,0.002459087261597812
2610.0,0.0024569982220613512
2609.0,0.0024537371766840685
2608.0,0.002450567662961822
2607.0,0.0024476562316070104
2606.0,0.0024439249759622824
2605.0,0.0024381825707347
2604.0,0.00243087756041228
2603.0,0.002425011071964587
2602.0,0.0024241028155788163
2601.0,0.002428140730594001
2600.0,0.0024325356381597494
2599.0,0.002432404853976119
2598.0,0.002427253979525319
2597.0,0.002420647099397014
2596.0,0.00241645148234557
2595.0,0.0024161153266106907
2594.0,0.0024181743665922157
2593.0,0.0024190327684183045
2592.0,0.0024156729994020804
2591.0,0.0024092460985690772
2590.0,0.002404449635705198
2589.0,0.002403973008775141
2588.0,0.0024054701902218667
2587.0,0.0024057578669264877
2586.0,0.0024053562051921575
2585.0,0.00240593696697526
2584.0,0.0024056154302125117
2583.0,0.002401066617303588
2582.0,0.002393401508796362
2581.0,0.002387695282493841
2580.0,0.002386373455072616
2579.0,0.0023869032005919204
2578.0,0.0023866924550374645
2577.0,0.0023868843942498955
2576.0,0.002389663528827835
2575.0,0.00239395061934239
2574.0,0.002395489987008914
2573.0,0.00239052093757886
2572.0,0.002379192715921166
2571.0,0.002366322727479074
2570.0,0.0023582376178416173
2569.0,0.0023574011434897577
2568.0,0.0023603362286654327
2567.0,0.00236188434907296
2566.0,0.002360715881097157
2565.0,0.002359265941538938
2564.0,0.002359823171158153
2563.0,0.0023629184700424844
2562.0,0.002367859971227365
2561.0,0.0023717643626513098
2560.0,0.002369613793218707
2559.0,0.002359383360537315
2558.0,0.0023467250889969435
2557.0,0.0023403697611873676
2556.0,0.0023421901562855917
2555.0,0.0023453728651369765
2554.0,0.002343494606204598
2553.0,0.0023377309704221516
2552.0,0.002333288732978296
2551.0,0.002332200984269301
2550.0,0.0023324406347157564
2549.0,0.0023321362858529813
2548.0,0.0023318901401200615
2547.0,0.00233327063550942
2546.0,0.002336554435424032
2545.0,0.0023400582595932617
2544.0,0.0023414081195479064
2543.0,0.002339962236740729
2542.0,0.0023377964505828597
2541.0,0.002337314765735344
2540.0,0.0023382809586802262
2539.0,0.0023386242929104755
2538.0,0.0023376300824360123
2537.0,0.0023364019445673784
2536.0,0.002335484488974966
2535.0,0.0023342697837402406
2534.0,0.0023329350578413653
2533.0,0.0023327259943465425
2532.0,0.0023337548018973315
2531.0,0.002334535532628212
2530.0,0.002334343729836221
2529.0,0.002334093680305344
2528.0,0.0023340726448820696
2527.0,0.0023326457085159815
2526.0,0.0023285066794050354
2525.0,0.0023230837002303794
2524.0,0.0023195314978563648
2523.0,0.0023197826277681316
2522.0,0.002322985651375079
2521.0,0.0023262764874095866
2520.0,0.002327136931252675
2519.0,0.0023257616479688626
2518.0,0.0023248010795378525
2517.0,0.0023258803004625045
2516.0,0.0023270973884032377
2515.0,0.0023254001500734246
2514.0,0.002320614346347978
2513.0,0.002315014922389777
2512.0,0.002309330469656846
2511.0,0.0023017318418937223
2510.0,0.00229119371553944
2509.0,0.002279565664800458
2508.0,0.0022693395330303716
2507.0,0.002261160188521083
2506.0,0.0022546807715951604
2505.0,0.002250390262793606
2504.0,0.002249030643913777
2503.0,0.0022496572972030633
2502.0,0.002249221335122012
2501.0,0.0022442217955956187
2500.0,0.002233233571642842
2499.0,0.0022188205109907803
2498.0,0.002206895686817308
2497.0,0.002202672635616242
2496.0,0.0022060522298938206
2495.0,0.0022110565442017734
2494.0,0.002210374608991852
2493.0,0.0022011925963152683
2492.0,0.0021874821803814287
2491.0,0.00217662079831189
2490.0,0.002172531019041758
2489.0,0.002171471847196206
2488.0,0.0021656863729162808
2487.0,0.002151899961760286
2486.0,0.002134811082850159
2485.0,0.0021213748775277333
2484.0,0.0021137170077016065
2483.0,0.0021095087972704124
2482.0,0.0021071689874083603
2481.0,0.002107329170838043
2480.0,0.002109722433624717
2479.0,0.0021118720047280807
2478.0,0.002111592825059248
2477.0,0.0021088725919973443
2476.0,0.002104940378766581
2475.0,0.002101157417965563
2474.0,0.0020988754113896784
2473.0,0.002098412712684258
2472.0,0.002097745548209903
2471.0,0.002093991182521779
2470.0,0.002086905492972385
2469.0,0.00207972850814737
2468.0,0.002076103698490423
2467.0,0.0020770857510865126
2466.0,0.0020812442387636715
2465.0,0.0020864506928351227
2464.0,0.002091118537935362
2463.0,0.0020944643987753685
2462.0,0.0020959406982441003
2461.0,0.0020944754986034
2460.0,0.0020891865060889293
2459.0,0.00208154226357355
2458.0,0.0020756092619239417
2457.0,0.002074552279627778
2456.0,0.0020773051528954027
2455.0,0.0020799403125910886
2454.0,0.00207972852230246
2453.0,0.00207657116788772
2452.0,0.0020714020147351584
2451.0,0.0020652727437050085
2450.0,0.002059857929591002
2449.0,0.0020569264049417006
2448.0,0.002056836722836484
2447.0,0.0020584631504846243
2446.0,0.002060195334470156
2445.0,0.0020598442204498766
2444.0,0.002054619329993819
2443.0,0.002043695964595212
2442.0,0.0020309999417511618
2441.0,0.0020231495953778383
2440.0,0.0020233705684949894
2439.0,0.0020283777306569777
2438.0,0.0020318175392612593
2437.0,0.002029815614576106
2436.0,0.002022784041505233
2435.0,0.0020132082950710803
2434.0,0.0020033058335353388
2433.0,0.0019950149266149877
2432.0,0.001990962454488241
2431.0,0.0019936355467139325
2430.0,0.0020025688995094697
2429.0,0.002013049940643089
2428.0,0.002019189790008632
2427.0,0.002018616121701194
2426.0,0.002013296265260921
2425.0,0.0020061645445414297
2424.0,0.0019986519080025145
2423.0,0.001991522416744506
2422.0,0.0019858580608399746
2421.0,0.0019821244147485905
2420.0,0.001979778090095174
2419.0,0.001978610279015616
2418.0,0.0019789489730958126
2417.0,0.0019799046775998996
2416.0,0.00197928321737929
2415.0,0.001976248884411463
2414.0,0.0019725903529061294
2413.0,0.001970773396898138
2412.0,0.0019724371961594967
2411.0,0.001978731993917239
2410.0,0.0019888644377892336
2409.0,0.0019971497509923067
2408.0,0.0019953449472381035
2407.0,0.001980952284498711
2406.0,0.001960850385333952
2405.0,0.0019442155374848292
2404.0,0.0019343755977165949
2403.0,0.0019300526295992237
2402.0,0.0019310117061196869
2401.0,0.0019377764099619767
2400.0,0.0019472840937121427
2399.0,0.0019536680035819073
2398.0,0.001953834597745123
2397.0,0.0019493542685348401
2396.0,0.0019430135869535048
2395.0,0.0019364131938963717
2394.0,0.0019308162645415854
2393.0,0.0019271412188278094
2392.0,0.0019245949900131257
2391.0,0.001921699668032246
2390.0,0.0019189313868597248
2389.0,0.0019181155607114141
2388.0,0.0019189788152165913
2387.0,0.0019187487034566723
2386.0,0.001915782265892724
2385.0,0.001911262408725987
2384.0,0.0019060681831126517
2383.0,0.0018975296266057493
2382.0,0.0018807084044487376
2381.0,0.001852607252598826
2380.0,0.0018149869709464033
2379.0,0.0017737802516815983
2378.0,0.0017358279974189505
2377.0,0.0017049026999002388
2376.0,0.0016802143018681188
2375.0,0.0016597144796989503
2374.0,0.001644283252558736
2373.0,0.0016377908132485974
2372.0,0.0016429203250124293
2371.0,0.0016572636846246204
2370.0,0.0016722332137219646
2369.0,0.0016753457926715174
2368.0,0.001658642802376496
2367.0,0.0016296992364851896
2366.0,0.0016090838597001946
2365.0,0.001609183385986542
2364.0,0.0016201257689832777
2363.0,0.0016278013718410813
2362.0,0.0016357377266560422
2361.0,0.0016514674999512542
2360.0,0.0016663710255406393
2359.0,0.0016646784775930443
2358.0,0.0016450099072399592
2357.0,0.0016229998929626573
2356.0,0.0016076334586828792
2355.0,0.001594510034447035
2354.0,0.0015755352291283251
2353.0,0.0015496917056787615
2352.0,0.0015291730515218623
2351.0,0.0015253138514225817
2350.0,0.0015405498369413788
2349.0,0.0015678493963394908
2348.0,0.001595641915912661
2347.0,0.0016144469816945766
2346.0,0.0016181672802541278
2345.0,0.0016158069943109578
2344.0,0.001620611401856177
2343.0,0.001635004346011222
2342.0,0.001646235660236803
2341.0,0.0016411379569959187
2340.0,0.0016277972672196776
2339.0,0.0016217175559907907
2338.0,0.0016300649521271845
2337.0,0.0016438900408150383
2336.0,0.0016534137814269664
2335.0,0.0016578761143016883
2334.0,0.0016625018252606266
2333.0,0.0016644971871231022
2332.0,0.0016572464662963334
2331.0,0.0016382400744196792
2330.0,0.0016208947323373586
2329.0,0.001624600010214589
2328.0,0.0016629953560156033
2327.0,0.0017400005916304966
2326.0,0.001837829687237519
2325.0,0.0019240544947098522
2324.0,0.001963542139567568
2323.0,0.0019493550853793861
2322.0,0.0019082167373204737
2321.0,0.0018717934518762119
2320.0,0.0018529250612680497
2319.0,0.0018451105075488333
2318.0,0.0018434566973314355
2317.0,0.001843947696802795
2316.0,0.0018431587147144679
2315.0,0.0018394976318269027
2314.0,0.0018393870421495257
2313.0,0.0018491355032965785
2312.0,0.0018667287104968434
2311.0,0.0018853112231491248
2310.0,0.0019017745024077432
2309.0,0.0019169594153133265
2308.0,0.0019291747448116955
2307.0,0.0019372029608583194
2306.0,0.0019444513511980917
2305.0,0.001955840332624766
2304.0,0.0019698670606828573
2303.0,0.0019808858385862737
2302.0,0.001987912510985751
2301.0,0.001995397790641732
2300.0,0.002006084179890004
2299.0,0.002018070185702417
2298.0,0.0020298959154540857
2297.0,0.0020433064818122485
2296.0,0.002059027386520426
2295.0,0.0020753380357917558
2294.0,0.0020906650352140554
2293.0,0.002106702822952025
2292.0,0.002125122463753228
2291.0,0.0021459970668934007
2290.0,0.002167588028004853
2289.0,0.0021879826908876112
2288.0,0.002205096129046958
2287.0,0.0022182154759879838
2286.0,0.002227665432010702
2285.0,0.0022322837574029184
2284.0,0.0022289733643266973
2283.0,0.0022179398698336035
2282.0,0.002205960526631826
2281.0,0.002199990922438656
2280.0,0.0021989058084315085
2279.0,0.002195647631707667
2278.0,0.002186545160730235
2277.0,0.0021733619756288095
2276.0,0.002158358584658256
2275.0,0.00214316522205563
2274.0,0.0021324449544394045
2273.0,0.002131632235192668
2272.0,0.0021397844260836302
2271.0,0.0021496413697437208
2270.0,0.0021557364412105725
2269.0,0.0021579917587479197
2268.0,0.0021574769871462902
2267.0,0.0021537680224508
2266.0,0.0021475795742228517
2265.0,0.0021416166315802896
2264.0,0.002137847275022121
2263.0,0.0021373083692315126
2262.0,0.0021414898647697782
2261.0,0.0021501800898654
2260.0,0.0021583262661642654
2259.0,0.002159883914080625
2258.0,0.0021538942933570114
2257.0,0.0021430089839710206
2256.0,0.0021284988747304347
2255.0,0.0021118118484641023
2254.0,0.0020992363422164804
2253.0,0.0020974117317421794
2252.0,0.0021049238971266415
2251.0,0.0021137983172014128
2250.0,0.0021187177894349332
2249.0,0.0021190521198893165
2248.0,0.0021146096469813625
2247.0,0.002106061127895626
2246.0,0.002099224227231755
2245.0,0.002100505284225921
2244.0,0.0021083297611614897
2243.0,0.0021158978356956605
2242.0,0.002121457990464551
2241.0,0.0021273787186470243
2240.0,0.002130385251076152
2239.0,0.0021233721552909148
2238.0,0.0021089790345935455
2237.0,0.002101280795973509
2236.0,0.0021095184196864136
2235.0,0.002127230458277253
2234.0,0.002141392971725808
2233.0,0.002144770226792473
2232.0,0.00213682127475268
2231.0,0.0021204844079667213
2230.0,0.002104118997703126
2229.0,0.0020996208869608493
2228.0,0.0021112828899290314
2227.0,0.0021297228297991063
2226.0,0.0021420628716608803
2225.0,0.002145219603890728
2224.0,0.002144628112459587
2223.0,0.0021429365310755804
2222.0,0.0021355453227163814
2221.0,0.0021178402955865567
2220.0,0.0020935314325199504
2219.0,0.002073570599549572
2218.0,0.002066341356193528
2217.0,0.0020695178672195955
2216.0,0.0020735570695206056
2215.0,0.0020741826794799085
2214.0,0.002076882209970838
2213.0,0.0020864597637422553
2212.0,0.0020972522419925687
2211.0,0.0020997555226198155
2210.0,0.002093290289056101
2209.0,0.0020848544787888472
2208.0,0.002077292091006127
2207.0,0.002066526487094061
2206.0,0.002050853220968347
2205.0,0.002036245064606676
2204.0,0.0020308662948899754
2203.0,0.0020387434887335467
2202.0,0.0020576692686319464
2201.0,0.002078266770740052
2200.0,0.0020869487648535767
2199.0,0.002076476429918856
2198.0,0.0020542817021569426
2197.0,0.002035444277080059
2196.0,0.0020281877839422725
2195.0,0.002030908981531549
2194.0,0.002040507492779152
2193.0,0.002055819604920331
2192.0,0.0020734256311458698
2191.0,0.002088123129379945
2190.0,0.0020988832729719412
2189.0,0.0021091234501797894
2188.0,0.002120906518183236
2187.0,0.0021335142245191446
2186.0,0.0021462852965735556
2185.0,0.0021563655578017904
2184.0,0.002154655077430181
2183.0,0.0021322988693357604
2182.0,0.002094127380517372
2181.0,0.002059896649355943
2180.0,0.002047380637906459
2179.0,0.0020554312379945715
2178.0,0.0020650676238682013
2177.0,0.0020561477997756926
2176.0,0.002025119234109138
2175.0,0.001988570118831514
2174.0,0.0019678750146419057
2173.0,0.001971374640768855
2172.0,0.001994834176124776
2171.0,0.002035321967902763
2170.0,0.002092960650485248
2169.0,0.0021583097566408205
2168.0,0.002212461550049677
2167.0,0.0022463186896147557
2166.0,0.002269877312076789
2165.0,0.0022958533081821847
2164.0,0.0023230433596430535
2163.0,0.0023404617589716267
2162.0,0.0023324426777920635
2161.0,0.002271234024820688
2160.0,0.0021277322431606047
2159.0,0.0019159433745465
2158.0,0.001711668279795532
2157.0,0.0015923496862063381
2156.0,0.001569350645574893
2155.0,0.0016023210302581533
2154.0,0.001654656237552213
2153.0,0.0017102333378866451
2152.0,0.0017588729280728207
2151.0,0.0017924355574939982
2150.0,0.0018118829666245737
2149.0,0.0018226579117985526
2148.0,0.0018239897579430072
2147.0,0.001812810758226713
2146.0,0.0017944423182045762
2145.0,0.00177902527892255
2144.0,0.0017700312317934863
2143.0,0.00176480979631395
2142.0,0.0017628366514483166
2141.0,0.0017652526805532853
2140.0,0.001770524244895742
2139.0,0.0017771488737667266
2138.0,0.0017849677304995512
2137.0,0.0017878038469084667
2136.0,0.0017738204208146376
2135.0,0.0017419673782678217
2134.0,0.001710410182685424
2133.0,0.001697984945958553
2132.0,0.0017040154321829063
2131.0,0.0017148582825331166
2130.0,0.0017230680929065797
2129.0,0.00172984699232001
2128.0,0.001736544382320638
2127.0,0.0017448059486549852
2126.0,0.001761107754185253
2125.0,0.001790403139296709
2124.0,0.0018268591642267118
2123.0,0.0018589080239556329
2122.0,0.001881239452299574
2121.0,0.0018954876800778386
2120.0,0.0019034092270918236
2119.0,0.00190727111358183
2118.0,0.001913835178578428
2117.0,0.0019291433396885927
2116.0,0.0019508137156402242
2115.0,0.0019720267449557117
2114.0,0.0019905185673971077
2113.0,0.0020066151596352384
2112.0,0.002016404398214936
2111.0,0.002015468228376668
2110.0,0.0020069748070422177
2109.0,0.0019978692295469325
2108.0,0.0019895227670541945
2107.0,0.0019805609396307674
2106.0,0.00197549871428082
2105.0,0.0019801125576484543
2104.0,0.001989899063748066
2103.0,0.0019933974773805726
2102.0,0.0019869629653060934
2101.0,0.001977336434258884
2100.0,0.0019703584863000933
2099.0,0.0019649583466861244
2098.0,0.0019574033199049874
2097.0,0.0019438631714275684
2096.0,0.0019212576597587927
2095.0,0.0018936202329217673
2094.0,0.0018746122918290907
2093.0,0.001874133732609255
2092.0,0.001885892028949428
2091.0,0.0018968357745982986
2090.0,0.001904444387154416
2089.0,0.0019147937474820148
2088.0,0.0019282865431344992
2087.0,0.0019397948418607832
2086.0,0.0019505570469846834
2085.0,0.0019670871097749744
2084.0,0.0019886413954785624
2083.0,0.002007378703444531
2082.0,0.0020208482835491763
2081.0,0.002032537911419019
2080.0,0.002039833132986576
2079.0,0.002033707495857159
2078.0,0.002012625535532065
2077.0,0.001986161789019011
2076.0,0.0019629971766780235
2075.0,0.0019446587384230793
2074.0,0.0019317254015697562
2073.0,0.0019247380601623409
2072.0,0.0019189170704597448
2071.0,0.0019097041406714015
2070.0,0.0019031428101623673
2069.0,0.0019079286711928332
2068.0,0.0019171609395829937
2067.0,0.0019129473081164906
2066.0,0.001890403864921991
2065.0,0.001863160872216736
2064.0,0.0018435381104547465
2063.0,0.0018319974755113076
2062.0,0.0018291705573881979
2061.0,0.0018405703745700088
2060.0,0.001864229295097118
2059.0,0.0018882788546351567
2058.0,0.0019052443996169831
2057.0,0.0019155198840104903
2056.0,0.0019161562835948182
2055.0,0.0019035607727467276
2054.0,0.0018907960295087393
2053.0,0.0019014710271905888
2052.0,0.0019377274793138401
2051.0,0.0019712624952071245
2050.0,0.001974851581222379
2049.0,0.0019498489850383678
2048.0,0.0019144269903553827
2047.0,0.001879961828335836
2046.0,0.0018536787950663523
2045.0,0.001847068874058304
2044.0,0.0018608736308698363
2043.0,0.0018747655665771151
2042.0,0.0018703481015929905
2041.0,0.0018559813195822353
2040.0,0.001854072848446318
2039.0,0.001869658849828884
2038.0,0.0018846529422639003
2037.0,0.0018762090247776897
2036.0,0.0018341096311441517
2035.0,0.0017713801752809349
2034.0,0.0017235908888004682
2033.0,0.001721673227612508
2032.0,0.0017539840659081731
2031.0,0.0017729084488329453
2030.0,0.0017495083641078319
2029.0,0.0017059106559464841
2028.0,0.001684362450343054
2027.0,0.0016987760468566314
2026.0,0.0017316255826757365
2025.0,0.0017636967741478486
2024.0,0.0017907844463232818
2023.0,0.0018184086959100872
2022.0,0.0018506868684370625
2021.0,0.0018809608979438583
2020.0,0.001890407977617593
2019.0,0.0018631211560027404
2018.0,0.0018037965637984117
2017.0,0.0017319008596853812
2016.0,0.0016593517319047214
2015.0,0.0015910940027511664
2014.0,0.0015470403132120797
2013.0,0.0015529825937998392
2012.0,0.0015975217191755706
2011.0,0.001627963747765196
2010.0,0.0016108242243239013
2009.0,0.0015754880589225657
2008.0,0.001574602866137708
2007.0,0.001616546972828962
2006.0,0.001667235724244767
2005.0,0.001707045033731409
2004.0,0.001750095538940709
2003.0,0.0018057847676855063
2002.0,0.0018537164544197566
2001.0,0.0018715708448621558
2000.0,0.0018701619238601225
1999.0,0.0018817851661436062
1998.0,0.0019188576734996852
1997.0,0.001961236325514528
1996.0,0.001985664176794356
1995.0,0.0019916320118494608
1994.0,0.001988710790463038
1993.0,0.0019713878799072796
1992.0,0.001925265607752919
1991.0,0.0018577804538326098
1990.0,0.0018026112035053157
1989.0,0.0017888323839693589
1988.0,0.0018178861687751595
1987.0,0.0018724541362121054
1986.0,0.0019344702834000957
1985.0,0.001986534101844188
1984.0,0.0020113744875323715
1983.0,0.0020073465063989476
1982.0,0.0019963787581772697
1981.0,0.002000114749427777
1980.0,0.0020116047786932025
1979.0,0.002006622976804575
1978.0,0.001977832184205431
1977.0,0.0019375358863738638
1976.0,0.0018891974279774543
1975.0,0.0018256188646998933
1974.0,0.0017590737700693994
1973.0,0.0017228380598651948
1972.0,0.0017327094144266642
1971.0,0.0017684356096835925
1970.0,0.0018014672320864932
1969.0,0.001823596518231109
1968.0,0.0018435213874520265
1967.0,0.0018699104854599125
1966.0,0.001902713473028643
1965.0,0.0019301881182116252
1964.0,0.001931776340452032
1963.0,0.0018936398904186506
1962.0,0.0018264312161722271
1961.0,0.0017615907734562998
1960.0,0.0017248426757665236
1959.0,0.001719455993601844
1958.0,0.001735240111011685
1957.0,0.0017605707109054054
1956.0,0.00178344682883496
1955.0,0.0017926370944692412
1954.0,0.0017837765455181152
1953.0,0.0017613677324947576
1952.0,0.0017358827703745537
1951.0,0.0017208646814254002
1950.0,0.001726575694576292
1949.0,0.0017475437047546345
1948.0,0.0017612189543882203
1947.0,0.001750436149539183
1946.0,0.0017236602575133786
1945.0,0.00170246931985389
1944.0,0.001693618474100611
1943.0,0.0016865558978828778
1942.0,0.001676118484151378
1941.0,0.0016696604106233126
1940.0,0.0016709104963539341
1939.0,0.0016746519633495589
1938.0,0.0016758038967627478
1937.0,0.001672804834597373
1936.0,0.0016643525729157667
1935.0,0.0016507358434525445
1934.0,0.0016373595978973101
1933.0,0.001627978112077711
1932.0,0.0016165127130331792
1931.0,0.0015952998861994759
1930.0,0.0015698749818591445
1929.0,0.0015540531566079
1928.0,0.0015501280546410332
1927.0,0.001546714871116083
1926.0,0.0015353369033777877
1925.0,0.0015197896064659086
1924.0,0.0015068941150623975
1923.0,0.0014990991935236024
1922.0,0.001497738338119058
1921.0,0.0015024138365252041
1920.0,0.0015078127838434841
1919.0,0.001508184984346383
1918.0,0.0015059772729614613
1917.0,0.0015097411480547252
1916.0,0.0015186642210878282
1915.0,0.001523977163902249
1914.0,0.0015243186628925427
1913.0,0.0015264677690806495
1912.0,0.0015322683053371595
1911.0,0.0015333530321049314
1910.0,0.0015232481688522955
1909.0,0.0015075810241134318
1908.0,0.0014960651239611347
1907.0,0.0014912800729708475
1906.0,0.0014903336135164919
1905.0,0.0014920451416363537
1904.0,0.001495164447399439
1903.0,0.0014959528873636342
1902.0,0.0014937174368783988
1901.0,0.0014933268725820176
1900.0,0.0014976878658984067
1899.0,0.001502475330292831
1898.0,0.0015013731008795199
1897.0,0.0014933617586845062
1896.0,0.0014820683525963911
1895.0,0.0014713473236600732
1894.0,0.0014638251562987764
1893.0,0.0014600271523379732
1892.0,0.0014572586893881077
1891.0,0.0014515827551617832
1890.0,0.0014438931880550662
1889.0,0.0014417476422234716
1888.0,0.0014476125339907683
1887.0,0.0014539560736417832
1886.0,0.0014551980016981603
1885.0,0.001453176386234038
1884.0,0.0014509970911150542
1883.0,0.0014480395672725275
1882.0,0.0014426992978903168
1881.0,0.001436408216071213
1880.0,0.0014313630895410726
1879.0,0.0014272436901110552
1878.0,0.0014222670684478462
1877.0,0.0014164603031996503
1876.0,0.0014123566342815952
1875.0,0.0014118824323194543
1874.0,0.001414835870055135
1873.0,0.0014207680847522573
1872.0,0.00143012757848764
1871.0,0.001441138756941244
1870.0,0.0014449594350881747
1869.0,0.0014317238888068035
1868.0,0.0014078520276373469
1867.0,0.001392353135996658
1866.0,0.001395864108232346
1865.0,0.0014131781272376709
1864.0,0.0014283257927139785
1863.0,0.0014290390892282463
1862.0,0.0014192430425716768
1861.0,0.0014121647103454628
1860.0,0.001412821043692456
1859.0,0.001415206121563746
1858.0,0.0014144556293783786
1857.0,0.0014125752098695108
1856.0,0.001412633368553645
1855.0,0.0014146532686545265
1854.0,0.0014191386418624218
1853.0,0.0014277189912219037
1852.0,0.0014365125691891355
1851.0,0.00143797613086647
1850.0,0.0014285584071044577
1849.0,0.0014122280373511159
1848.0,0.0013978486535023687
1847.0,0.0013939842149242754
1846.0,0.0014049222857422316
1845.0,0.0014263661338686138
1844.0,0.0014455083675892905
1843.0,0.0014523417863826517
1842.0,0.0014487169594017055
1841.0,0.0014425906749332758
1840.0,0.0014372686187861803
1839.0,0.001432419486070139
1838.0,0.0014298426765781457
1837.0,0.001432056161198467
1836.0,0.0014356078270126261
1835.0,0.00143426953883862
1834.0,0.0014304704281871995
1833.0,0.0014337111665666462
1832.0,0.001446017372528673
1831.0,0.0014575006414423958
1830.0,0.0014611479321101147
1829.0,0.0014648695772033673
1828.0,0.001472457198952601
1827.0,0.0014783790033513376
1826.0,0.0014803066387344193
1825.0,0.0014798800016587233
1824.0,0.0014799090583754672
1823.0,0.0014796633383006175
1822.0,0.0014767871735137824
1821.0,0.0014698882230091295
1820.0,0.0014566317144225679
1819.0,0.0014369852264579088
1818.0,0.0014170569093196357
1817.0,0.0014060656622112118
1816.0,0.001406541265824531
1815.0,0.001411647453442932
1814.0,0.0014149138423619524
1813.0,0.001415703774161906
1812.0,0.001416495341372858
1811.0,0.0014192386912739259
1810.0,0.0014244112930473167
1809.0,0.00143060044305032
1808.0,0.0014358388600804212
1807.0,0.0014401239560446553
1806.0,0.0014442400070548633
1805.0,0.0014465057833041783
1804.0,0.0014436993146978922
1803.0,0.0014372039697045293
1802.0,0.001437326821457641
1801.0,0.0014524417458869404
1800.0,0.0014749342767407115
1799.0,0.001485420910325117
1798.0,0.0014755599866786867
1797.0,0.0014580719946852816
1796.0,0.00145127391890626
1795.0,0.0014621916678874815
1794.0,0.0014853744347895833
1793.0,0.0015066581096738055
1792.0,0.00151183739676906
1791.0,0.0014982786134786943
1790.0,0.0014727293000879223
1789.0,0.0014456650996630702
1788.0,0.0014269200119568816
1787.0,0.001419993539639158
1786.0,0.0014243151127271533
1785.0,0.0014398940005451346
1784.0,0.0014626545949210275
1783.0,0.0014790884192061311
1782.0,0.0014775015040915192
1781.0,0.0014599933408900448
1780.0,0.001444406313118672
1779.0,0.0014439585869398508
1778.0,0.0014532599493139117
1777.0,0.00146157021304992
1776.0,0.0014655781127232111
1775.0,0.0014712175651982406
1774.0,0.001486176733681735
1773.0,0.0015071761818589919
1772.0,0.0015238436601808384
1771.0,0.0015329430186597146
1770.0,0.0015323320013203088
1769.0,0.001526688238681225
1768.0,0.0015289525081225496
1767.0,0.0015428092220427488
1766.0,0.0015602829358942714
1765.0,0.0015782864678355675
1764.0,0.0016051775044708637
1763.0,0.0016449580504536037
1762.0,0.0016856545180402487
1761.0,0.0017132037682608334
1760.0,0.0017308908306988956
1759.0,0.0017531110361767694
1758.0,0.001789583002101837
1757.0,0.001839932879432965
1756.0,0.001899584310804957
1755.0,0.0019631894116779237
1754.0,0.0020294770150234864
1753.0,0.002110096203576223
1752.0,0.0022252096566687395
1751.0,0.002382301541191688
1750.0,0.002565550811847766
1749.0,0.002764156874205639
1748.0,0.002987846404534266
1747.0,0.0032468839815761206
1746.0,0.003540580108795711
1745.0,0.003868725815185179
1744.0,0.004238465302230408
1743.0,0.004651290589056187
1742.0,0.005103005230301092
1741.0,0.005600280488471071
1740.0,0.006145692559844005
1739.0,0.006691615023464699
1738.0,0.007172116746451789
1737.0,0.007590278337477545
1736.0,0.008028628694790768
1735.0,0.00859108624204676
1734.0,0.009261424618801788
1733.0,0.009873815756736865
1732.0,0.010377748253007236
1731.0,0.010865690696147378
1730.0,0.01139844050804605
1729.0,0.011963165035125822
1728.0,0.012518089714039211
1727.0,0.013042735627962085
1726.0,0.013543777850660174
1725.0,0.014035401993961057
1724.0,0.014532713175916522
1723.0,0.015035416572328297
1722.0,0.015513332530610355
1721.0,0.015933856557922916
1720.0,0.01630155621351975
1719.0,0.016655955680062555
1718.0,0.017009419048673338
1717.0,0.017309432496175732
1716.0,0.01752295185090983
1715.0,0.01766936753973081
1714.0,0.01773192628867494
1713.0,0.0176593214123132
1712.0,0.01743661240137985
1711.0,0.01708768765625102
1710.0,0.016634290039793463
1709.0,0.016094609971506108
1708.0,0.0154849906385927
1707.0,0.014788523283830441
1706.0,0.013989675155462506
1705.0,0.01319698420032719
1704.0,0.012571224985492244
1703.0,0.012115565563628253
1702.0,0.011682485346304294
1701.0,0.011096348860638873
1700.0,0.010403561766833413
1699.0,0.00987183525375747
1698.0,0.0095298314011185
1697.0,0.009240662956961394
1696.0,0.00893988674478353
1695.0,0.008691218667482677
1694.0,0.00854472644393628
1693.0,0.008465620914613685
1692.0,0.008396968543378585
1691.0,0.008305942570181028
1690.0,0.00820671415144175
1689.0,0.008134370706772268
1688.0,0.008095120441470663
1687.0,0.008066110816107265
1686.0,0.008035982147329616
1685.0,0.008005648075446752
1684.0,0.0079933971866533
1683.0,0.008027499880074415
1682.0,0.008066173769101083
1681.0,0.00808289934665704
1680.0,0.008091577201609239
1679.0,0.008104823129215717
1678.0,0.00813067574198046
1677.0,0.008168512008129087
1676.0,0.008204972926255182
1675.0,0.008222232063502942
1674.0,0.008227970680451585
1673.0,0.008247209666793065
1672.0,0.008290285415160525
1671.0,0.008340414390333523
1670.0,0.008377076982971755
1669.0,0.00840256783463818
1668.0,0.008420824035419813
1667.0,0.008430337914051844
1666.0,0.008446575898468577
1665.0,0.008487561742614162
1664.0,0.008548484890876302
1663.0,0.008600497223132013
1662.0,0.00862948276415724
1661.0,0.008648931709378568
1660.0,0.008670323190030783
1659.0,0.00869469530547468
1658.0,0.008721007628270876
1657.0,0.008747490443270027
1656.0,0.008766244573957825
1655.0,0.008773434730081655
1654.0,0.00875993436682874
1653.0,0.008745060285918867
1652.0,0.008749201134467135
1651.0,0.008738878079010977
1650.0,0.008740608223057294
1649.0,0.008753047492595189
1648.0,0.008751498954564542
1647.0,0.008740918890763595
1646.0,0.008737346130866007
1645.0,0.00873041917545467
1644.0,0.008708642090043793
1643.0,0.008681175589031732
1642.0,0.008653119722174954
1641.0,0.008627169567718387
1640.0,0.008603780408453934
1639.0,0.008578704236560689
1638.0,0.0085515245860509
1637.0,0.008530233063365074
1636.0,0.00851585368783326
1635.0,0.008496116789199835
1634.0,0.008443010385008234
1633.0,0.008358315136556277
1632.0,0.008269095469480292
1631.0,0.008186748148721357
1630.0,0.008112814689139524
1629.0,0.008044665590578783
1628.0,0.007976368975761395
1627.0,0.007903995948681389
1626.0,0.007825864284275407
1625.0,0.007736705919919058
1624.0,0.007626064742097236
1623.0,0.007497835030967424
1622.0,0.007380655093315451
1621.0,0.007289698394144551
1620.0,0.007213870032750329
1619.0,0.0071359264253301625
1618.0,0.007047853973709349
1617.0,0.006955873693292983
1616.0,0.006876475163312857
1615.0,0.006814718769869069
1614.0,0.006758391832506801
1613.0,0.006693450786413137
1612.0,0.00661182630001361
1611.0,0.006515233138265701
1610.0,0.006411335669080051
1609.0,0.0063031743361778815
1608.0,0.006188022287184601
1607.0,0.006067098018893874
1606.0,0.005948778959942753
1605.0,0.0058372205594535275
1604.0,0.005729831247097821
1603.0,0.005628358576017207
1602.0,0.005540257168122617
1601.0,0.005465920301658273
1600.0,0.005395673522891627
1599.0,0.005323561239108546
1598.0,0.005253850834652917
1597.0,0.005191319347317068
1596.0,0.005135956990976061
1595.0,0.005090144290054823
1594.0,0.0050598586105920105
1593.0,0.005043827017710395
1592.0,0.005031951287437628
1591.0,0.005017846628043372
1590.0,0.0050041985766699415
1589.0,0.004993909474389165
1588.0,0.004985483479101746
1587.0,0.004982117364757506
1586.0,0.004996849988200733
1585.0,0.005042005427691749
1584.0,0.00511749617578508
1583.0,0.005214760081498065
1582.0,0.005321631739369974
1581.0,0.005421040758857569
1580.0,0.005494711757049184
1579.0,0.005533750225781337
1578.0,0.005542522654879194
1577.0,0.0055303836645430775
1576.0,0.005505755495613338
1575.0,0.005481294597045829
1574.0,0.0054645393525389625
1573.0,0.00545182117478996
1572.0,0.0054336750334573105
1571.0,0.005402447105689895
1570.0,0.0053581263961336705
1569.0,0.0053178585599918055
1568.0,0.00529029424745087
1567.0,0.005271181333733931
1566.0,0.005263547444880178
1565.0,0.005266274321890562
1564.0,0.005264846185429398
1563.0,0.005246770630493745
1562.0,0.0052240716792617235
1561.0,0.005238626482426082
1560.0,0.005320630825726956
1559.0,0.005427217926089221
1558.0,0.005524215243995776
1557.0,0.005546485542858421
1556.0,0.0055169650377813505
1555.0,0.005510305854087375
1554.0,0.005535064686894961
1553.0,0.005557737990917492
1552.0,0.00555547257812517
1551.0,0.005544435630495169
1550.0,0.005555104158227896
1549.0,0.005598345442041587
1548.0,0.00565547842179697
1547.0,0.005711597446523825
1546.0,0.005764018969570066
1545.0,0.005800085181303919
1544.0,0.005808830536487169
1543.0,0.005809007584310872
1542.0,0.005832830228718347
1541.0,0.00588704274548642
1540.0,0.005941849321127057
1539.0,0.005961224860333031
1538.0,0.005934341021977134
1537.0,0.005897934119907647
1536.0,0.005881388833356252
1535.0,0.00588254981421116
1534.0,0.0058919226484150464
1533.0,0.005892076347732418
1532.0,0.005867963846928967
1531.0,0.005825626649658779
1530.0,0.0057925289957008776
1529.0,0.005786384543796112
1528.0,0.005794195495827916
1527.0,0.005794109234886549
1526.0,0.005782737153190794
1525.0,0.005768742855640446
1524.0,0.005753944129574542
1523.0,0.0057371489701154195
1522.0,0.005721777454088398
1521.0,0.005712745177858528
1520.0,0.005701707753965096
1519.0,0.005679473054472536
1518.0,0.005652495394177717
1517.0,0.005633013415396321
1516.0,0.0056296716558009875
1515.0,0.005636913854399261
1514.0,0.0056517531999632055
1513.0,0.005681274234684041
1512.0,0.005722828349600686
1511.0,0.005763450159918352
1510.0,0.005805554199064313
1509.0,0.005883657455291923
1508.0,0.0060755197341411556
1507.0,0.006453314993575466
1506.0,0.006888635620096131
1505.0,0.0070944721661452236
1504.0,0.007034200727938308
1503.0,0.006832325795460215
1502.0,0.0065744832859946836
1501.0,0.006321421752802567
1500.0,0.00610830635324534
1499.0,0.005926615873523006
1498.0,0.00575848703750745
1497.0,0.005625393915759012
1496.0,0.00556039049140818
1495.0,0.005543735494791274
1494.0,0.005533179201628396
1493.0,0.005514046708350813
1492.0,0.005494670175749303
1491.0,0.005494696797117196
1490.0,0.005540112859168963
1489.0,0.005636459816940428
1488.0,0.005746944807194395
1487.0,0.005837658061453511
1486.0,0.005910635021980324
1485.0,0.005979528586508903
1484.0,0.006046267356153576
1483.0,0.006113502576597583
1482.0,0.006195010400020193
1481.0,0.0063005189991068395
1480.0,0.006418057463524444
1479.0,0.006532198608846194
1478.0,0.006643182925614008
1477.0,0.006750864107631434
1476.0,0.0068417566785317595
1475.0,0.006912610747642043
1474.0,0.0069908907922947225
1473.0,0.007098635265341232
1472.0,0.0072077096325839085
1471.0,0.007269779931238779
1470.0,0.007283761358285002
1469.0,0.007282859043353664
1468.0,0.007289857338053941
1467.0,0.007313394465418881
1466.0,0.00736145730205429
1465.0,0.0074310895546085606
1464.0,0.007492088771910885
1463.0,0.007517355072357186
1462.0,0.007519649570533072
1461.0,0.007527840088928213
1460.0,0.007550387377997287
1459.0,0.007586209181577364
1458.0,0.007650932170091185
1457.0,0.007756886489434539
1456.0,0.007847974269612475
1455.0,0.007872558863259733
1454.0,0.007862297728631729
1453.0,0.007849131717722405
1452.0,0.007833408251354906
1451.0,0.007811573901630075
1450.0,0.007789649830183421
1449.0,0.007775744612798018
1448.0,0.007765567008752578
1447.0,0.007748893924968284
1446.0,0.007726966333292543
1445.0,0.007706678438173789
1444.0,0.007689557453921131
1443.0,0.0076721644819085135
1442.0,0.00765226122661916
1441.0,0.007628212213775548
1440.0,0.0075948079027394165
1439.0,0.007550394826179663
1438.0,0.007505316657504521
1437.0,0.0074737369518721435
1436.0,0.007450785903627369
1435.0,0.007412543811137047
1434.0,0.007353676666551522
1433.0,0.00729084433209703
1432.0,0.007239129497720789
1431.0,0.007202471743097518
1430.0,0.007177439425729336
1429.0,0.0071598830139399435
1428.0,0.007143831766081056
1427.0,0.007124747534332019
1426.0,0.007110332941140161
1425.0,0.007114420802262052
1424.0,0.007141320425746084
1423.0,0.007178872936086558
1422.0,0.007217989090160684
1421.0,0.007275125618726503
1420.0,0.007379240821946539
1419.0,0.007536697699985037
1418.0,0.00772992710498022
1417.0,0.00794985901023603
1416.0,0.008206117895086197
1415.0,0.0085126745612257
1414.0,0.008876649850447659
1413.0,0.009290864209118857
1412.0,0.009721953077561707
1411.0,0.010110936114091291
1410.0,0.010402988880710848
1409.0,0.010565226266942939
1408.0,0.010571347193367798
1407.0,0.01040215475352712
1406.0,0.01007494226167329
1405.0,0.009650580737514895
1404.0,0.00920557346804813
1403.0,0.008794122721218328
1402.0,0.008430318361333766
1401.0,0.008097943757095702
1400.0,0.007775043926950871
1399.0,0.007465952985313419
1398.0,0.007198796235949687
1397.0,0.006983000467877797
1396.0,0.006803000813303851
1395.0,0.006645894299581649
1394.0,0.006510614435751258
1393.0,0.006391257634244519
1392.0,0.00627693758217078
1391.0,0.006165123605930358
1390.0,0.006059898917235761
1389.0,0.005964857023154203
1388.0,0.005881971716047696
1387.0,0.005814163488230635
1386.0,0.005762546398198569
1385.0,0.005720205782760246
1384.0,0.0056788972277069276
1383.0,0.005636869414255068
1382.0,0.005596025228206815
1381.0,0.005556967145563926
1380.0,0.005517797522312265
1379.0,0.005476634151887177
1378.0,0.005432559677371923
1377.0,0.005384234902184627
1376.0,0.005330395346390332
1375.0,0.005274148078018508
1374.0,0.005224407190385948
1373.0,0.005183551028317764
1372.0,0.005139339968870157
1371.0,0.005078733705906675
1370.0,0.00499785929858558
1369.0,0.004898276951988709
1368.0,0.004784009813715519
1367.0,0.004659515321853111
1366.0,0.004527239881499879
1365.0,0.004387358074871028
1364.0,0.00424216128556414
1363.0,0.004104337011337042
1362.0,0.003993258542165816
1361.0,0.0039140693604401275
1360.0,0.0038549569382119904
1359.0,0.003805886908968722
1358.0,0.0037652806204209735
1357.0,0.003734725054030521
1356.0,0.0037164537036235134
1355.0,0.0037141626451217755
1354.0,0.003731467354995347
1353.0,0.003768702879206485
1352.0,0.003824771502607892
1351.0,0.0039022384261020934
1350.0,0.004008505297731594
1349.0,0.00415111950316226
1348.0,0.004334312678015796
1347.0,0.004561285671412558
1346.0,0.004836875795139064
1345.0,0.005162193280159138
1344.0,0.0055255496696039255
1343.0,0.005903989450242372
1342.0,0.006275223231729415
1341.0,0.00662151662249391
1340.0,0.006919262932512446
1339.0,0.007132173272025789
1338.0,0.0072237784732467406
1337.0,0.007172855414566477
1336.0,0.006975252382690094
1335.0,0.006642616753345043
1334.0,0.006203338732950347
1333.0,0.005699363868096213
1332.0,0.005179621986853648
1331.0,0.004693220966551792
1330.0,0.00427755936743669
1329.0,0.003948187086131535
1328.0,0.003702158823067388
1327.0,0.003528623392850187
1326.0,0.0034141147538933134
1325.0,0.0033444399972827445
1324.0,0.0033072790025099443
1323.0,0.003292962901338648
1322.0,0.003292739810824211
1321.0,0.0032992822922415354
1320.0,0.0033099413475610228
1319.0,0.0033269606833907835
1318.0,0.003352658768070128
1317.0,0.0033857757624745737
1316.0,0.00342386289232901
1315.0,0.0034668292966507893
1314.0,0.0035165633673509087
1313.0,0.0035746030651216242
1312.0,0.0036409533061631536
1311.0,0.0037139432325323735
1310.0,0.003790573136766437
1309.0,0.0038677626758522416
1308.0,0.0039438221708650405
1307.0,0.004018777710593805
1306.0,0.0040934524671655936
1305.0,0.00416927526924476
1304.0,0.004248842524098854
1303.0,0.004336180568241483
1302.0,0.004435651081803989
1301.0,0.004550274977674192
1300.0,0.004681089351563236
1299.0,0.004827960810093029
1298.0,0.00499022271736016
1297.0,0.005165442635126935
1296.0,0.005348143184765171
1295.0,0.005531692131338566
1294.0,0.00571231657645954
1293.0,0.005889328584994398
1292.0,0.0060612609959513186
1291.0,0.006225234899254504
1290.0,0.006381217483776061
1289.0,0.006533231821104614
1288.0,0.006684323313244747
1287.0,0.006833179908102583
1286.0,0.006977080229880188
1285.0,0.007114881794346979
1284.0,0.007246052092099118
1283.0,0.007370922987153632
1282.0,0.007493263145620443
1281.0,0.007618540159108678
1280.0,0.007748700675325935
1279.0,0.007882920221225411
1278.0,0.008024232916058792
1277.0,0.008180084735219514
1276.0,0.00835527810122362
1275.0,0.008549998253053442
1274.0,0.008766555279109205
1273.0,0.009011730076041766
1272.0,0.00928892645270521
1271.0,0.009592939019078133
1270.0,0.009915451171054168
1269.0,0.010250008549305408
1268.0,0.010588357157219792
1267.0,0.010919412563265715
1266.0,0.011236786873468227
1265.0,0.011540325052014497
1264.0,0.011826091920481438
1263.0,0.012083196413221779
1262.0,0.012304831815135368
1261.0,0.012494229577296458
1260.0,0.012656448012841364
1259.0,0.012793656176540848
1258.0,0.012911962392619537
1257.0,0.013023195516643372
1256.0,0.013136946286641738
1255.0,0.01325920795232761
1254.0,0.013399214286285951
1253.0,0.013567117034482214
1252.0,0.013763080411150805
1251.0,0.013978371444041522
1250.0,0.014208457173303424
1249.0,0.01445426152212496
1248.0,0.01470944323681296
1247.0,0.01495946302641302
1246.0,0.015196320724117026
1245.0,0.015421531144729682
1244.0,0.01563177966321527
1243.0,0.015815617329927898
1242.0,0.015967294809081625
1241.0,0.016089203542010804
1240.0,0.016178055073882352
1239.0,0.016224405397139218
1238.0,0.016229067805615293
1237.0,0.016204507977367617
1236.0,0.016157096156075076
1235.0,0.016083456579601463
1234.0,0.015986210027639117
1233.0,0.01587681713196949
1232.0,0.015760024839765505
1231.0,0.01563106219070038
1230.0,0.015490552897041848
1229.0,0.015346947323042818
1228.0,0.015202029303045816
1227.0,0.015048903808325832
1226.0,0.014886287601811127
1225.0,0.014720280593987254
1224.0,0.014549823021485993
1223.0,0.01436464639721698
1222.0,0.014160204897774604
1221.0,0.013941479976952692
1220.0,0.0137103357828759
1219.0,0.013462494468672644
1218.0,0.013199151127958584
1217.0,0.01292907941805559
1216.0,0.012657389341621533
1215.0,0.012383571388047621
1214.0,0.012111222990050687
1213.0,0.011848264137618615
1212.0,0.011596732224139612
1211.0,0.011353013339427166
1210.0,0.01111845102608015
1209.0,0.010898871797584515
1208.0,0.010693076148574083
1207.0,0.010492327859258207
1206.0,0.01029263515265948
1205.0,0.010098276909462097
1204.0,0.009912087683321876
1203.0,0.009731269635303536
1202.0,0.009554108758216384
1201.0,0.009382608094979986
1200.0,0.009216967578778807
1199.0,0.009054630448555846
1198.0,0.008896124472356144
1197.0,0.008745522925735145
1196.0,0.008604199665933418
1195.0,0.00846986978106872
1194.0,0.008342060381295839
1193.0,0.008223125673350637
1192.0,0.008113758476521684
1191.0,0.008012778715989545
1190.0,0.00792134615391704
1189.0,0.007842486790412133
1188.0,0.007776791679590524
1187.0,0.007723286196422031
1186.0,0.0076837268441683065
1185.0,0.007661050635636019
1184.0,0.007654390791837643
1183.0,0.007660832889840161
1182.0,0.00768119986348244
1181.0,0.007718432252887118
1180.0,0.0077703686942144235
1179.0,0.007829654580482938
1178.0,0.00789051675550793
1177.0,0.007949411205324695
1176.0,0.00799933347821744
1175.0,0.008030952793885418
1174.0,0.008040629157797045
1173.0,0.008030869841071677
1172.0,0.008002712669768345
1171.0,0.007955174763409272
1170.0,0.00789282157161732
1169.0,0.007826252736066746
1168.0,0.007764057341271986
1167.0,0.0077106561685076035
1166.0,0.00767173169121692
1165.0,0.00765338590115424
1164.0,0.007654296760323032
1163.0,0.007665318849396323
1162.0,0.007678781411281499
1161.0,0.007692987997227186
1160.0,0.007707696333053118
1159.0,0.007722694598094762
1158.0,0.00774227993628003
1157.0,0.007773815360584156
1156.0,0.007819384597384973
1155.0,0.007874528899346249
1154.0,0.007936380714018235
1153.0,0.008006688309931283
1152.0,0.008085539316311702
1151.0,0.008169149425513621
1150.0,0.00825606238957284
1149.0,0.00834923654389484
1148.0,0.008450398358296318
1147.0,0.008558775824497381
1146.0,0.008676315579164073
1145.0,0.008806691805718019
1144.0,0.00894779133844968
1143.0,0.009093091937964705
1142.0,0.00924246983544671
1141.0,0.00940352684768432
1140.0,0.009580032561123258
1139.0,0.00976777551183124
1138.0,0.009964551940524228
1137.0,0.010175255325081053
1136.0,0.010403971463981037
1135.0,0.010650109774320937
1134.0,0.010915144836033175
1133.0,0.011203011920901701
1132.0,0.0115102781697415
1131.0,0.011826478441301561
1130.0,0.012148615505917606
1129.0,0.012484494019696325
1128.0,0.012837158899718568
1127.0,0.013197804555862292
1126.0,0.013559260292148035
1125.0,0.013923607204509247
1124.0,0.014290332640686076
1123.0,0.014650314052056992
1122.0,0.014998036159507459
1121.0,0.015336040726715277
1120.0,0.015661154599993773
1119.0,0.015960544905068482
1118.0,0.016226219311525097
1117.0,0.016457642893731837
1116.0,0.016646609783008463
1115.0,0.016779987763698247
1114.0,0.01686531708194344
1113.0,0.016935825938783376
1112.0,0.0170239109911767
1111.0,0.01714650304930886
1110.0,0.017317658166080472
1109.0,0.01755201860065678
1108.0,0.01784711079636208
1107.0,0.018180941557200805
1106.0,0.018535166939852233
1105.0,0.018904198640313456
1104.0,0.019277207904209198
1103.0,0.019633109514338193
1102.0,0.019961532258569347
1101.0,0.02026845367540708
1100.0,0.020554002959993208
1099.0,0.02080751922357853
1098.0,0.021028424908554333
1097.0,0.021227737487507656
1096.0,0.021402593178378334
1095.0,0.02153560038223059
1094.0,0.021625356243932383
1093.0,0.021690875114403096
1092.0,0.02174096735438719
1091.0,0.021767119834841548
1090.0,0.021770874672075897
1089.0,0.021769113108896107
1088.0,0.02176659347671791
1087.0,0.021751680028502425
1086.0,0.02172467804823955
1085.0,0.021700954703546077
1084.0,0.021679731518329397
1083.0,0.02163911354128105
1082.0,0.021568924256810555
1081.0,0.021480627809509822
1080.0,0.021379507046362926
1079.0,0.0212558359832352
1078.0,0.021108839513027788
1077.0,0.02095105399970082
1076.0,0.02078380403433086
1075.0,0.02059575293858768
1074.0,0.020390287750254418
1073.0,0.020187284950276996
1072.0,0.019993829585753395
1071.0,0.019799417812389006
1070.0,0.019602679579019334
1069.0,0.01941620364314339
1068.0,0.019241847168122897
1067.0,0.019067173895552604
1066.0,0.01888946189646195
1065.0,0.01871928308920798
1064.0,0.018558655133895607
1063.0,0.018399912188794162
1062.0,0.01824779376780906
1061.0,0.01811804592389788
1060.0,0.018010777682963514
1059.0,0.017909010178712177
1058.0,0.017807427656566205
1057.0,0.01771968225289302
1056.0,0.017653324183947623
1055.0,0.017600225416119084
1054.0,0.0175565186072518
1053.0,0.0175302779752516
1052.0,0.01752250516396282
1051.0,0.017521992448261584
1050.0,0.017526939664612
1049.0,0.017547567591842807
1048.0,0.017579908071597147
1047.0,0.01760362326447495
1046.0,0.017610786223662883
1045.0,0.017612210963155264
1044.0,0.01761346954097425
1043.0,0.01760746368906957
1042.0,0.01759223473140672
1041.0,0.017574977954825193
1040.0,0.01755500850249311
1039.0,0.01752228308931329
1038.0,0.017476301840877128
1037.0,0.017427965382301097
1036.0,0.01737997724628353
1035.0,0.017323803280969798
1034.0,0.017258519974977092
1033.0,0.01719412264992984
1032.0,0.017133680095165405
1031.0,0.01707172015258909
1030.0,0.017014424680526687
1029.0,0.01698464875140968
1028.0,0.017005119361162477
1027.0,0.017093277383826634
1026.0,0.017271222424400372
1025.0,0.01755866924286895
1024.0,0.017950069378696986
1023.0,0.018415256303975138
1022.0,0.01892735020942351
1021.0,0.01947168036888379
1020.0,0.020019376239388147
1019.0,0.020511003164535375
1018.0,0.020878721256449163
1017.0,0.021072249360754705
1016.0,0.021063446568359977
1015.0,0.020853701657155686
1014.0,0.020487076772624006
1013.0,0.02003390021497542
1012.0,0.019552395743701986
1011.0,0.019077408054629305
1010.0,0.018636684688434685
1009.0,0.01825170949791328
1008.0,0.017921012792222343
1007.0,0.01762427463202443
1006.0,0.01734795361674617
1005.0,0.01709215371829252
1004.0,0.016853605787157933
1003.0,0.016622238187447857
1002.0,0.016396715727940745
1001.0,0.016183883639652914
1000.0,0.015979376879715745
999.0,0.015766997135465536
998.0,0.015541613989509203
997.0,0.015315949854522434
996.0,0.015100274358052578
995.0,0.014891299694996463
994.0,0.014685987135370122
993.0,0.014491150712940614
992.0,0.014312919509379504
991.0,0.01414897020042443
990.0,0.013996475591272265
989.0,0.013856457467570013
988.0,0.01372618629177002
987.0,0.013598538506109589
986.0,0.013473110323424103
985.0,0.013358084677172019
984.0,0.013258324691314025
983.0,0.013171491723137748
982.0,0.013097682101086583
981.0,0.013041879368157667
980.0,0.01300379764927086
979.0,0.012975358373313723
978.0,0.012950979252556193
977.0,0.012930620108384971
976.0,0.012910810992571211
975.0,0.012883260135209986
974.0,0.012844240957543513
973.0,0.012794748505578574
972.0,0.012730072520376674
971.0,0.01264085982467628
970.0,0.012526349288255325
969.0,0.012395065904812187
968.0,0.012250681737760463
967.0,0.012089006326522671
966.0,0.011910659934037515
965.0,0.011724275924015152
964.0,0.01153435838624605
963.0,0.011337684794861998
962.0,0.01113466003913499
961.0,0.010933227737988287
960.0,0.010738459389848005
959.0,0.010548180896348841
958.0,0.01036146511795656
957.0,0.010181937476749784
956.0,0.010009976998212024
955.0,0.009840749962367314
954.0,0.009673171537168686
953.0,0.009512989223820805
952.0,0.00936433554703553
951.0,0.009225422190230675
950.0,0.009094425452206688
949.0,0.008972246277592447
948.0,0.008857681025002466
947.0,0.00874716113757854
946.0,0.008641211048826486
945.0,0.008544443656576566
944.0,0.008457574919356598
943.0,0.008375816918785792
942.0,0.008296291020664115
941.0,0.00822049206953117
940.0,0.008148324168490826
939.0,0.00807638279985591
938.0,0.00800351940561211
937.0,0.00793183255835071
936.0,0.007861229235856698
935.0,0.007789446587426092
934.0,0.007717942514309618
933.0,0.0076506179393513365
932.0,0.007585679107196564
931.0,0.0075160009011030655
930.0,0.007439422850059394
929.0,0.007362408400142108
928.0,0.007291869220012955
927.0,0.007229220935867519
926.0,0.0071736945161154225
925.0,0.007125531238344402
924.0,0.007084184343679606
923.0,0.0070483917913593385
922.0,0.007019122824757067
921.0,0.006997958013948036
920.0,0.006982789472606476
919.0,0.00697046020856017
918.0,0.006963136346491471
917.0,0.006965838975041619
916.0,0.006977748115237976
915.0,0.0069922409137740185
914.0,0.007005312554376537
913.0,0.007016914774755622
912.0,0.00702377378694089
911.0,0.00701878559138293
910.0,0.0069990434491835965
909.0,0.006967324427344377
908.0,0.006924823597110238
907.0,0.006870270189468137
906.0,0.006806953118500606
905.0,0.006742081537139561
904.0,0.0066774826604962915
903.0,0.006608352016098495
902.0,0.0065322111440754334
901.0,0.006451508118701413
900.0,0.0063665175028019515
899.0,0.006273973943753945
898.0,0.00617435958953565
897.0,0.006072866192945425
896.0,0.005971454093445764
895.0,0.005867456643175421
894.0,0.005761609248756794
893.0,0.005660189960126084
892.0,0.005567660645710151
891.0,0.005484387519388772
890.0,0.005413677698390046
889.0,0.005364676807175162
888.0,0.0053462476153550206
887.0,0.005363584016603407
886.0,0.005422127130699821
885.0,0.005528303875936735
884.0,0.005683728722298099
883.0,0.005884138919249103
882.0,0.0061264916700950346
881.0,0.006410785958934691
880.0,0.006731134038201926
879.0,0.0070721244822654315
878.0,0.007420426565042951
877.0,0.007774513673971341
876.0,0.008134932661624844
875.0,0.008484689195030502
874.0,0.008777895746199966
873.0,0.008942787836703955
872.0,0.008905688737108636
871.0,0.008638195683060164
870.0,0.008192068274452277
869.0,0.007675156664750842
868.0,0.007186752461354317
867.0,0.006778392630806549
866.0,0.006460516180146357
865.0,0.006222986266344857
864.0,0.006045992858748784
863.0,0.005907654614977284
862.0,0.005794042640047131
861.0,0.00570110368302424
860.0,0.005625927863451187
859.0,0.005562113515808048
858.0,0.00550492323191901
857.0,0.005453440869458747
856.0,0.0054048940750254515
855.0,0.005353842602846257
854.0,0.00530073684197022
853.0,0.00525577627935047
852.0,0.005230847379149648
851.0,0.0052306873202602345
850.0,0.005251180926812354
849.0,0.005280145516134118
848.0,0.005299604535212311
847.0,0.00529515676551142
846.0,0.00526608630430664
845.0,0.005221095669443383
844.0,0.005164504562258903
843.0,0.005094293563879625
842.0,0.005013232969454055
841.0,0.004931993743899963
840.0,0.004858633509627203
839.0,0.004792694110851394
838.0,0.0047314711899927
837.0,0.004674660240053422
836.0,0.004620997935751912
835.0,0.004567879514813505
834.0,0.004516791110247493
833.0,0.004472337500657066
832.0,0.00443379274566274
831.0,0.004394523875403972
830.0,0.004351859116613681
829.0,0.004310109743724422
828.0,0.004271382888621244
827.0,0.004232334264886558
826.0,0.0041940227726821495
825.0,0.004164834201968844
824.0,0.004147678366003872
823.0,0.004134440488209634
822.0,0.0041190088514930605
821.0,0.004105151659435714
820.0,0.004096748207283852
819.0,0.0040906888606845795
818.0,0.004083604403072874
817.0,0.004077620878796463
816.0,0.004075925652654397
815.0,0.0040784665739735885
814.0,0.004084535995422418
813.0,0.00409418552751985
812.0,0.004105081866532175
811.0,0.004113437976430813
810.0,0.0041198986851530665
809.0,0.004129262668512875
808.0,0.004143432464214688
807.0,0.004160401536600267
806.0,0.004180258737414764
805.0,0.004204778049902855
804.0,0.004230228523139932
803.0,0.0042486460233845955
802.0,0.004258858401402667
801.0,0.004270220689367426
800.0,0.004294841166689026
799.0,0.004343107956703804
798.0,0.004425485162386954
797.0,0.004546762345602957
796.0,0.0046935498623038585
795.0,0.004834809669306318
794.0,0.004939613863759105
793.0,0.004990764761511439
792.0,0.0049833009020045695
791.0,0.004922830382728095
790.0,0.004829063379086746
789.0,0.0047286603483202
788.0,0.004637242426633138
787.0,0.004553889808386443
786.0,0.004474165165128243
785.0,0.00439955137438665
784.0,0.004332159724360579
783.0,0.004270253474439474
782.0,0.004213356329289484
781.0,0.004163727635203089
780.0,0.0041191270447302215
779.0,0.004071913430676284
778.0,0.004018780296839558
777.0,0.003964195291920166
776.0,0.003911679130889444
775.0,0.0038594362512961323
774.0,0.0038069406817602255
773.0,0.0037573649664821287
772.0,0.003710365381906385
771.0,0.0036609102063631634
770.0,0.0036089514154388526
769.0,0.0035623532234038647
768.0,0.003526465772970626
767.0,0.0034982996181847125
766.0,0.0034741679132025876
765.0,0.003454849286718407
764.0,0.0034394264451422856
763.0,0.003422485455726011
762.0,0.0034023115822685805
761.0,0.0033846953701839088
760.0,0.0033738014913206023
759.0,0.003365792071132685
758.0,0.003355639662950987
757.0,0.003343557495841246
756.0,0.003330601981593139
755.0,0.003314762713157701
754.0,0.0032958449141640986
753.0,0.003277840867571963
752.0,0.0032624022452093834
751.0,0.003246339556711471
750.0,0.003229021023640234
749.0,0.003215523207722613
748.0,0.003209213007199647
747.0,0.0032084394245577037
746.0,0.0032146145938274032
745.0,0.003237061162894431
744.0,0.003286597633058193
743.0,0.003371798504456104
742.0,0.0035057548398143056
741.0,0.0037088231197928345
740.0,0.003998415085848175
739.0,0.0043798150650840965
738.0,0.004847986384279983
737.0,0.00538980393068797
736.0,0.005981509032769686
735.0,0.006594541530508471
734.0,0.00721160222445574
733.0,0.0078315288795409
732.0,0.008456692417527547
731.0,0.009086394303308423
730.0,0.00972501664546016
729.0,0.010380918268136429
728.0,0.0110460996412231
727.0,0.011682618216747404
726.0,0.012231863443525153
725.0,0.01263114751723153
724.0,0.012829956370769939
723.0,0.012811913719199083
722.0,0.012609014145908613
721.0,0.012287431092505924
720.0,0.011912636074438168
719.0,0.011523824898712058
718.0,0.011136700394548648
717.0,0.010759597852554377
716.0,0.01040062908471539
715.0,0.010064970433674122
714.0,0.009750299356465361
713.0,0.009445340912163657
712.0,0.009136728986482032
711.0,0.008823380598540504
710.0,0.00852237492136455
709.0,0.008254018100923426
708.0,0.008022832082442848
707.0,0.007819374435972177
706.0,0.0076374082793660755
705.0,0.007478784064578572
704.0,0.00734124368276823
703.0,0.007212502542488139
702.0,0.007079610982763933
701.0,0.006936488289782083
700.0,0.006781860575795252
699.0,0.006619371532248421
698.0,0.006461230462071648
697.0,0.006321120352648715
696.0,0.006199822105021131
695.0,0.00608636241184549
694.0,0.005974944923508937
693.0,0.005871418418700673
692.0,0.00578094102370103
691.0,0.0056992436765933435
690.0,0.005620361891504775
689.0,0.005544041019088036
688.0,0.005471674119704756
687.0,0.005404189644843998
686.0,0.005346800238542854
685.0,0.005305178335715635
684.0,0.005274962204259517
683.0,0.005245594307530426
682.0,0.005214498046967239
681.0,0.00518600568775229
680.0,0.005156812619326901
679.0,0.005116074862746596
678.0,0.0050616640450809845
677.0,0.005003301032180952
676.0,0.0049446253635308315
675.0,0.0048789740642576265
674.0,0.0048052645772909755
673.0,0.00473186735655357
672.0,0.004660059427311066
671.0,0.004578378503406455
670.0,0.0046251308766932335
669.0,0.004585262924112396
668.0,0.004547515463320198
667.0,0.004497965440154142
666.0,0.00444423074572285
665.0,0.004398384938812869
664.0,0.004359419067541007
663.0,0.004285803903708831
662.0,0.004238729487245704
661.0,0.004195612249418603
660.0,0.0041632178578490334
659.0,0.00413407832086304
658.0,0.004101699331752804
657.0,0.004071777665409898
656.0,0.004047658770225596
655.0,0.004021589702574876
654.0,0.00398960560069554
653.0,0.003959998965837258
652.0,0.00393722781483807
651.0,0.003912220445536041
650.0,0.003877891880584093
649.0,0.0038399915850466726
648.0,0.0038031866016996095
647.0,0.003763012466484566
646.0,0.0037199489090335896
645.0,0.003682706380807783
644.0,0.0036510424008295416
643.0,0.003613675222274631
642.0,0.0035690924563226544
641.0,0.003528809252888036
640.0,0.00349188642841003
639.0,0.003440140400996671
638.0,0.0033722823867584177
637.0,0.00331975388663588
636.0,0.0033127817698818344
635.0,0.0033498162760322997
634.0,0.003407459270283582
633.0,0.0034593939928842634
632.0,0.003472972771585321
631.0,0.003417805057437864
630.0,0.003303894650831086
629.0,0.003181937991084155
628.0,0.0030855150714092124
627.0,0.0030024453490358526
626.0,0.0029160506077359734
625.0,0.0028438777328995135
624.0,0.0028073489137687997
623.0,0.0027910191760984193
622.0,0.002766657797586887
621.0,0.0027352927848225093
620.0,0.002707340007328478
619.0,0.0026634131253800188
618.0,0.002577835481074835
617.0,0.0024711695884575393
616.0,0.002394970067931987
615.0,0.002374810773763076
614.0,0.0024029921861703956
613.0,0.0024712867605174594
612.0,0.0025739544567329456
611.0,0.0026856566438485437
610.0,0.0027717221361090606
609.0,0.0028190486795237083
608.0,0.0028307739542665572
607.0,0.002806337017870416
606.0,0.0027524863596236774
605.0,0.0026949948918142666
604.0,0.0026634158840298967
603.0,0.002677699826522874
602.0,0.0027402520332832445
601.0,0.002820190248990386
600.0,0.002854368866181829
599.0,0.0027988431375482944
598.0,0.002692050984917773
597.0,0.002620885386993374
596.0,0.0026162661041874476
595.0,0.0026268726461158333
594.0,0.0025993604242520287
593.0,0.0025401024848713694
592.0,0.002473044043905457
591.0,0.0023921899103634403
590.0,0.002292459859058101
589.0,0.0022015569290936322
588.0,0.002145404995169343
587.0,0.0021173919048976912
586.0,0.0021047154064121245
585.0,0.0021090445654224736
584.0,0.0021150919352534645
583.0,0.0020735929605753536
582.0,0.001956921730910926
581.0,0.0018038188405318026
580.0,0.0016670037026938573
579.0,0.0015598275409875332
578.0,0.001478151922780573
577.0,0.0014273135139741006
576.0,0.0014010471781060784
575.0,0.0013734788933468063
574.0,0.001342564104073506
573.0,0.0013409944875609524
572.0,0.00137804105361189
571.0,0.0014204594439457888
570.0,0.0014540046401050203
569.0,0.0015172440966117586
568.0,0.0016254380704343405
567.0,0.0017217144228502297
566.0,0.0017590137022315952
565.0,0.0017708902665392878
564.0,0.001797417040565518
563.0,0.0018143696520516788
562.0,0.0017952354384144385
561.0,0.0017721304918319357
560.0,0.0017676759953755292
559.0,0.0017389944746368227
558.0,0.0016545058370843442
557.0,0.0015690430768993393
556.0,0.001547729854339537
555.0,0.00157066876102702
554.0,0.0015735847594037945
553.0,0.0015441113202753314
552.0,0.0015029536577727274
551.0,0.0014420866015711778
550.0,0.0013611876957076918
