cm-1,A
4000.0,0.0038379566875564874
3999.0,0.0038383500793990836
3998.0,0.003834229603368256
3997.0,0.003829343904397946
3996.0,0.0038253943646957868
3995.0,0.0038230019413780653
3994.0,0.003823846368274991
3993.0,0.003829779060601503
3992.0,0.003840016881180434
3991.0,0.0038503787251850923
3990.0,0.0038564681225439126
3989.0,0.003857231678076377
3988.0,0.0038553303891050543
3987.0,0.003854671650465335
3986.0,0.0038568838586377375
3985.0,0.0038597330341839844
3984.0,0.0038587010479981393
3983.0,0.0038508541941407078
3982.0,0.0038385572637334355
3981.0,0.0038280290456126874
3980.0,0.003824075676279258
3979.0,0.0038263822159575796
3978.0,0.003830249806775172
3977.0,0.0038311446438035884
3976.0,0.0038281121798724536
3975.0,0.0038240213348462795
3974.0,0.0038230961690899623
3973.0,0.0038274435224889217
3972.0,0.0038349937496395224
3971.0,0.003840537444738801
3970.0,0.0038402028529030303
3969.0,0.0038348446870596267
3968.0,0.003828972534271856
3967.0,0.0038267322097839777
3966.0,0.0038292380520411062
3965.0,0.0038350057915688598
3964.0,0.0038417225662670702
3963.0,0.0038471829995068776
3962.0,0.003850165847387871
3961.0,0.0038519017731152797
3960.0,0.003855002524356662
3959.0,0.00386025443369303
3958.0,0.003865703768981755
3957.0,0.0038678585609126168
3956.0,0.0038646923996375256
3955.0,0.003857376537297001
3954.0,0.0038498649978315393
3953.0,0.0038468435374672105
3952.0,0.0038500098389718136
3951.0,0.0038562147960488485
3950.0,0.003859174547077699
3949.0,0.0038537347886982935
3948.0,0.003842089903976621
3947.0,0.0038331362879342103
3946.0,0.003832974966199292
3945.0,0.003838821553866738
3944.0,0.0038415669798874657
3943.0,0.0038351942827747915
3942.0,0.0038228599638176954
3941.0,0.0038140537332456217
3940.0,0.003814488390618969
3939.0,0.0038202415268584963
3938.0,0.0038271426786416624
3937.0,0.003835762914694802
3936.0,0.003846789198826573
3935.0,0.003856983549752604
3934.0,0.0038620775154858678
3933.0,0.0038626381827596076
3932.0,0.0038618069172103083
3931.0,0.003861036854980616
3930.0,0.0038588230804403843
3929.0,0.0038543718075221434
3928.0,0.003849555220183938
3927.0,0.0038461462966911265
3926.0,0.0038439279922914266
3925.0,0.0038401491838189125
3924.0,0.0038348773622244696
3923.0,0.0038316167821798707
3922.0,0.003831257446931219
3921.0,0.0038335527035557038
3920.0,0.003842131581359454
3919.0,0.003859241984288723
3918.0,0.003875782359568085
3917.0,0.0038781892215413154
3916.0,0.0038690075809973447
3915.0,0.003863906024299535
3914.0,0.0038700210551898227
3913.0,0.003879846823810984
3912.0,0.003884606479264559
3911.0,0.0038825020394949537
3910.0,0.0038774966367602116
3909.0,0.003871287930191449
3908.0,0.0038626679124164655
3907.0,0.00384911287971567
3906.0,0.0038305003477428906
3905.0,0.0038116378704097145
3904.0,0.003800826188332364
3903.0,0.003806234185166686
3902.0,0.0038275043289978054
3901.0,0.0038481107879054146
3900.0,0.003850941774896177
3899.0,0.003840547365195424
3898.0,0.003836250798434542
3897.0,0.0038459785921646575
3896.0,0.00385790381980791
3895.0,0.0038583269354719937
3894.0,0.0038504804218601092
3893.0,0.0038454097361025775
3892.0,0.003845272364011188
3891.0,0.0038429448856942047
3890.0,0.0038467132497559
3889.0,0.003865527323611973
3888.0,0.0038844779440719308
3887.0,0.0038891006263692927
3886.0,0.0038835690272589693
3885.0,0.0038773428010589906
3884.0,0.003879919233023759
3883.0,0.0038866588469654226
3882.0,0.0038760303967767702
3881.0,0.003841240022725385
3880.0,0.003801511666648792
3879.0,0.003786956678655298
3878.0,0.0038087277783054804
3877.0,0.0038400983529849157
3876.0,0.003851411284986613
3875.0,0.0038402309664084533
3874.0,0.0038216734294886714
3873.0,0.0038142145325039765
3872.0,0.00382282639385695
3871.0,0.003831378263038686
3870.0,0.00382612704673759
3869.0,0.003820015738336754
3868.0,0.003839743826721885
3867.0,0.003872196570444993
3866.0,0.0038803893061370234
3865.0,0.0038653517027674392
3864.0,0.0038544750096261033
3863.0,0.003858571358231703
3862.0,0.0038720679214644445
3861.0,0.0038828740804563375
3860.0,0.003884600421490969
3859.0,0.003874837422927827
3858.0,0.0038546363875099146
3857.0,0.0038307704383831395
3856.0,0.0038195376114575925
3855.0,0.003843119914828842
3854.0,0.0038897571772938747
3853.0,0.0038841625469197057
3852.0,0.0038442747823308338
3851.0,0.003853762762490531
3850.0,0.0038891405057215056
3849.0,0.003907579384734659
3848.0,0.003909829847783557
3847.0,0.003906076047992278
3846.0,0.003897189181255079
3845.0,0.0038816628472953755
3844.0,0.0038631972250121483
3843.0,0.0038464932425603445
3842.0,0.003838607548849177
3841.0,0.003841186598980112
3840.0,0.003848298135077935
3839.0,0.003851316918273777
3838.0,0.0038460293415136636
3837.0,0.003837530855217215
3836.0,0.0038363792307382714
3835.0,0.0038452349679952962
3834.0,0.0038587358363253096
3833.0,0.003872007529820901
3832.0,0.003884218416413676
3831.0,0.00389770817291063
3830.0,0.003914775038305196
3829.0,0.00393139667911443
3828.0,0.003937702262314758
3827.0,0.003927173076111821
3826.0,0.00390869264739384
3825.0,0.0039005813147000804
3824.0,0.003908441553140541
3823.0,0.003921292596459536
3822.0,0.003926534939426688
3821.0,0.003907588719801416
3820.0,0.003880124167228728
3819.0,0.0038901703756445676
3818.0,0.003923015649625052
3817.0,0.003936839661441684
3816.0,0.003926044659860196
3815.0,0.0039165912847620825
3814.0,0.003936628013049875
3813.0,0.003971558769236579
3812.0,0.0039872717859817716
3811.0,0.003981704582471275
3810.0,0.0039775203963330254
3809.0,0.003988547306710178
3808.0,0.0040065842756209225
3807.0,0.004010844585116514
3806.0,0.003999352416598594
3805.0,0.0039945981673497645
3804.0,0.0039982607111121865
3803.0,0.003995576350990902
3802.0,0.0039864106014404314
3801.0,0.003967115370033091
3800.0,0.003956895196198995
3799.0,0.003972520030935003
3798.0,0.0039847610602578
3797.0,0.003976714008817394
3796.0,0.003962971905692664
3795.0,0.003963620925442354
3794.0,0.003982189990879138
3793.0,0.0040058924355504694
3792.0,0.004024343318277642
3791.0,0.004037185034879563
3790.0,0.004043813370009204
3789.0,0.004042318634682815
3788.0,0.004035614913547517
3787.0,0.004031640001365808
3786.0,0.004034936046347323
3785.0,0.00404199159934111
3784.0,0.004049430387604016
3783.0,0.004058229077366979
3782.0,0.004066855075637917
3781.0,0.004069308327845959
3780.0,0.00406354117967549
3779.0,0.004054158771929545
3778.0,0.004053452884262499
3777.0,0.004068355480016203
3776.0,0.004087846167123602
3775.0,0.004098193767100307
3774.0,0.004103427784308082
3773.0,0.004115234828228485
3772.0,0.004135326916806292
3771.0,0.00415275196914368
3770.0,0.00415694740389921
3769.0,0.004151182154350471
3768.0,0.004150824162490845
3767.0,0.004158759009498421
3766.0,0.004166027466443196
3765.0,0.0041707253696344395
3764.0,0.0041800998302120845
3763.0,0.004196486723326403
3762.0,0.004209306381901885
3761.0,0.004211504761196017
3760.0,0.004211484120904357
3759.0,0.004213071515915823
3758.0,0.004213293048418908
3757.0,0.0042122597207297965
3756.0,0.004211194107403832
3755.0,0.004204505882817809
3754.0,0.004187155144473025
3753.0,0.004171775507869969
3752.0,0.0041815162443596555
3751.0,0.004205253676782714
3750.0,0.004205921468373702
3749.0,0.0041923149467232804
3748.0,0.004193370975050336
3747.0,0.004200001344048958
3746.0,0.004188067351313295
3745.0,0.0041589689628010115
3744.0,0.004124438624154904
3743.0,0.004119786849583244
3742.0,0.004158553898360125
3741.0,0.004185578972875092
3740.0,0.004173339829557634
3739.0,0.004146306401572658
3738.0,0.004127080437737379
3737.0,0.004116010359851806
3736.0,0.004109013775025308
3735.0,0.004109564810424892
3734.0,0.004124042270930016
3733.0,0.004147729996457978
3732.0,0.0041666685271045615
3731.0,0.004179376342497647
3730.0,0.004191026099640208
3729.0,0.004196018074721565
3728.0,0.004187836421215032
3727.0,0.004175275044009809
3726.0,0.004173014481379434
3725.0,0.004187764080300773
3724.0,0.00421549410318523
3723.0,0.004248403155997482
3722.0,0.0042825912179257995
3721.0,0.004318039954929262
3720.0,0.004356398443330946
3719.0,0.0043971331917659305
3718.0,0.004438392322581995
3717.0,0.004479710377567867
3716.0,0.004519747526654686
3715.0,0.004549894775580154
3714.0,0.004561429817360787
3713.0,0.004559997342041355
3712.0,0.004563506310453661
3711.0,0.004586489990896468
3710.0,0.00464534149733695
3709.0,0.004750105059398038
3708.0,0.004886301863333763
3707.0,0.005029711648012806
3706.0,0.005168502697394944
3705.0,0.005307010605805606
3704.0,0.0054563223902533205
3703.0,0.005622481629971539
3702.0,0.0057934710368465585
3701.0,0.005946496293462276
3700.0,0.006074695334302698
3699.0,0.006182696542665848
3698.0,0.00626438789948571
3697.0,0.006310123053624666
3696.0,0.006318568807103877
3695.0,0.0062957990096120416
3694.0,0.00624948406301782
3693.0,0.006192089271059867
3692.0,0.006142930551074061
3691.0,0.006112162460889794
3690.0,0.0060806289969043085
3689.0,0.006019017941097316
3688.0,0.005941520549507362
3687.0,0.005892653445682013
3686.0,0.00588106288496917
3685.0,0.005881352729031468
3684.0,0.005879207027720297
3683.0,0.0058817805430320235
3682.0,0.005896465701949535
3681.0,0.0059162050270203815
3680.0,0.00592580572522659
3679.0,0.005925013365058967
3678.0,0.0059296047034903075
3677.0,0.005962000909504958
3676.0,0.006023857677648908
3675.0,0.006080352912623488
3674.0,0.006142183489989099
3673.0,0.00623907196162227
3672.0,0.006341351667845272
3671.0,0.0064336782453961044
3670.0,0.006518967354912081
3669.0,0.006586235058161223
3668.0,0.006651649558034186
3667.0,0.0067286168001149844
3666.0,0.0068062904006094115
3665.0,0.006882797937202083
3664.0,0.006966789990017564
3663.0,0.007060378664320367
3662.0,0.007155791283344103
3661.0,0.007244073495454018
3660.0,0.007324463104011386
3659.0,0.0074063315776103
3658.0,0.007500757341909041
3657.0,0.007606071007254479
3656.0,0.007699537596591748
3655.0,0.007768322860596755
3654.0,0.007821290226858568
3653.0,0.0078649450183663
3652.0,0.007913556454036887
3651.0,0.008002383910719023
3650.0,0.008132163616652206
3649.0,0.008241039975356575
3648.0,0.00830267897182491
3647.0,0.008360289075177971
3646.0,0.008442734003704992
3645.0,0.0085411876585073
3644.0,0.00864148766739357
3643.0,0.00873896672302234
3642.0,0.008834481929530364
3641.0,0.008926856818241406
3640.0,0.009014037701530721
3639.0,0.00909524585405096
3638.0,0.009171241569549675
3637.0,0.009244871310520673
3636.0,0.00931735785198607
3635.0,0.009388211622445616
3634.0,0.009458504865483656
3633.0,0.00953437250732362
3632.0,0.009623558228780544
3631.0,0.009737000041096434
3630.0,0.0098889947756963
3629.0,0.010049561914225024
3628.0,0.010160276099839941
3627.0,0.0102480006798399
3626.0,0.010353382068098833
3625.0,0.010466548945037617
3624.0,0.010583219140087308
3623.0,0.010709908942951128
3622.0,0.010846639205154995
3621.0,0.01098115001905444
3620.0,0.01108790272993991
3619.0,0.011137544205512894
3618.0,0.011135186220469669
3617.0,0.01112156194733976
3616.0,0.011121906100783802
3615.0,0.011138286086436973
3614.0,0.011169654149319162
3613.0,0.011214632089288658
3612.0,0.011268698851048323
3611.0,0.011324000655327082
3610.0,0.011372815931716327
3609.0,0.011416101325839995
3608.0,0.011462329053665267
3607.0,0.011517351683504696
3606.0,0.011581331028950002
3605.0,0.011646070491304433
3604.0,0.011701800986405528
3603.0,0.011749485890948805
3602.0,0.01180009495757246
3601.0,0.011863815634432864
3600.0,0.011940398277177678
3599.0,0.012020182393148438
3598.0,0.012091675085633288
3597.0,0.01215245813349498
3596.0,0.012209112039097577
3595.0,0.012269619947051304
3594.0,0.012335681489783874
3593.0,0.012403904695812984
3592.0,0.01246970884420611
3591.0,0.012533382760376754
3590.0,0.012607497125627361
3589.0,0.012710888188840998
3588.0,0.01283469011015824
3587.0,0.012936052969448372
3586.0,0.01300302365294722
3585.0,0.013065627352025284
3584.0,0.013141867819851202
3583.0,0.013230720150214544
3582.0,0.013329704187085224
3581.0,0.013437526973525751
3580.0,0.013549366675053603
3579.0,0.013659020061038526
3578.0,0.013763590937510548
3577.0,0.013865400770573025
3576.0,0.0139678833242791
3575.0,0.014071910471560041
3574.0,0.014176673640150992
3573.0,0.01427894166643915
3572.0,0.014373253754693106
3571.0,0.014457000574313119
3570.0,0.014540571074488758
3569.0,0.014649135586388928
3568.0,0.014799202593469968
3567.0,0.01496244066986074
3566.0,0.015095872818017216
3565.0,0.015200637611827942
3564.0,0.015300698500755439
3563.0,0.015408944903192601
3562.0,0.015529423066821937
3561.0,0.015660858439403794
3560.0,0.015795085213802466
3559.0,0.015921764434241484
3558.0,0.016036466627265284
3557.0,0.01614105943905866
3556.0,0.01624067036568857
3555.0,0.016341147647365193
3554.0,0.01644654913485912
3553.0,0.016554723905045546
3552.0,0.016657961527925477
3551.0,0.01675285360529196
3550.0,0.016844732437183475
3549.0,0.0169409093206917
3548.0,0.017044480843937587
3547.0,0.017151312696372465
3546.0,0.017252362646299053
3545.0,0.01734286228838737
3544.0,0.017426642122995203
3543.0,0.01750946434377196
3542.0,0.01759368669814943
3541.0,0.01767943550418675
3540.0,0.01776662235441586
3539.0,0.017854835046622105
3538.0,0.017943734344997853
3537.0,0.018032412729276456
3536.0,0.018118117631433103
3535.0,0.018198893500831193
3534.0,0.018276526363546274
3533.0,0.01835625460431818
3532.0,0.01844254851882115
3531.0,0.018535863518853935
3530.0,0.01863178352323485
3529.0,0.018723710872028957
3528.0,0.018806791947351773
3527.0,0.018882362046351894
3526.0,0.01895785487262204
3525.0,0.019040431813028363
3524.0,0.019129063890121263
3523.0,0.019214168794891556
3522.0,0.01928851703860572
3521.0,0.019355714010781146
3520.0,0.01942543405147774
3519.0,0.019503368758451142
3518.0,0.019587165080777173
3517.0,0.019670534265222403
3516.0,0.019748980713540715
3515.0,0.019822532429022086
3514.0,0.019894973574135263
3513.0,0.019971218272338016
3512.0,0.020053562238539577
3511.0,0.02013968155493693
3510.0,0.020223946697186683
3509.0,0.020302517344302315
3508.0,0.020377718329345134
3507.0,0.02045669535901551
3506.0,0.020545389385368037
3505.0,0.02064382233793469
3504.0,0.02074452648769139
3503.0,0.020837103223934565
3502.0,0.02091842503756394
3501.0,0.020995624538777048
3500.0,0.02107691739956502
3499.0,0.021165302341400297
3498.0,0.02126084143378094
3497.0,0.021362532782699548
3496.0,0.021466815727066327
3495.0,0.02156761899420756
3494.0,0.021661005607652033
3493.0,0.02174967921275201
3492.0,0.021841125251670233
3491.0,0.021941179023324164
3490.0,0.02204914585384215
3489.0,0.02215771580366207
3488.0,0.022257859412972973
3487.0,0.022346894268291628
3486.0,0.02243246514426631
3485.0,0.022526991736367904
3484.0,0.02263683267048213
3483.0,0.02275567494142392
3482.0,0.022868791280135237
3481.0,0.022965869496498974
3480.0,0.02304951310870852
3479.0,0.023131620764167773
3478.0,0.023223453481714576
3477.0,0.023329033514472537
3476.0,0.023444936547111158
3475.0,0.023563618607043597
3474.0,0.023677328308567766
3473.0,0.023780658296455832
3472.0,0.023871931466740815
3471.0,0.02395500653618196
3470.0,0.02403974413969212
3469.0,0.02413712473365421
3468.0,0.02425175732501752
3467.0,0.02437993738381925
3466.0,0.024514749394356175
3465.0,0.024649935326233843
3464.0,0.02477909505847698
3463.0,0.024896396367748687
3462.0,0.025002046620312107
3461.0,0.025105778006085495
3460.0,0.02522114938638076
3459.0,0.025355205649887358
3458.0,0.02550371862764391
3457.0,0.02565512756947142
3456.0,0.025798801849882577
3455.0,0.025931817807131254
3454.0,0.02605918459381234
3453.0,0.026187991335081984
3452.0,0.026320834096885667
3451.0,0.026456076054891094
3450.0,0.02659321186000775
3449.0,0.026735136001473356
3448.0,0.026883396571813004
3447.0,0.027033482099349103
3446.0,0.02717917550698211
3445.0,0.027320191767658042
3444.0,0.027460693541039694
3443.0,0.027601411407966125
3442.0,0.02773571366106769
3441.0,0.027854185038774924
3440.0,0.02795348503222933
3439.0,0.028039636688754435
3438.0,0.028123297254262748
3437.0,0.02821370176266602
3436.0,0.02831591576633198
3435.0,0.02842996040444802
3434.0,0.028548925931679257
3433.0,0.02865998615767626
3432.0,0.028752685844756855
3431.0,0.028829119030798808
3430.0,0.02890296379207727
3429.0,0.028985877987826314
3428.0,0.02907614946136538
3427.0,0.029162334401831365
3426.0,0.029235673729910462
3425.0,0.029295300180298148
3424.0,0.029343059677536268
3423.0,0.02937815228318332
3422.0,0.029399290035996825
3421.0,0.02941031021197458
3420.0,0.02941990960010145
3419.0,0.029433978302990764
3418.0,0.029449048403914713
3417.0,0.02945495307452619
3416.0,0.02944511622787535
3415.0,0.029424990316148057
3414.0,0.029409610438744363
3413.0,0.02941115182447933
3412.0,0.029428816533087515
3411.0,0.029451480344406387
3410.0,0.02946956093206215
3409.0,0.029483083504800507
3408.0,0.029498124955510456
3407.0,0.02951745517692656
3406.0,0.029536854161890183
3405.0,0.029549832196213877
3404.0,0.029553843809592195
3403.0,0.029552107129819823
3402.0,0.029551592911714233
3401.0,0.029560483210609424
3400.0,0.029585388546934585
3399.0,0.0296277001434814
3398.0,0.029680828742152943
3397.0,0.029732289191303732
3396.0,0.029770869660319887
3395.0,0.029793497652268762
3394.0,0.029806123137517196
3393.0,0.029818725875547167
3392.0,0.029839121782297848
3391.0,0.02987002915248671
3390.0,0.029909983915086744
3389.0,0.029955507289711934
3388.0,0.030002705062461027
3387.0,0.03004804268890115
3386.0,0.030088852626311495
3385.0,0.030123768978722078
3384.0,0.030152699215685863
3383.0,0.030176517686905387
3382.0,0.030196631199910992
3381.0,0.030214567503933393
3380.0,0.030231438444480133
3379.0,0.030247879079880788
3378.0,0.03026474967433529
3377.0,0.030283817737384762
3376.0,0.03030704491185688
3375.0,0.030334471645292058
3374.0,0.030362715479771055
3373.0,0.030386051303362832
3372.0,0.03039998948606403
3371.0,0.03040462725879723
3370.0,0.030405033144444246
3369.0,0.030408390660585732
3368.0,0.030420556952187476
3367.0,0.03044385792303752
3366.0,0.030475741707238525
3365.0,0.03050867205587382
3364.0,0.03053360853845332
3363.0,0.03054658556291246
3362.0,0.030552481525761503
3361.0,0.030560802407481713
3360.0,0.03057692156860394
3359.0,0.030598048327035263
3358.0,0.03061767425261233
3357.0,0.030632274010807273
3356.0,0.030642864873057736
3355.0,0.03065153791103544
3354.0,0.030658352969268887
3353.0,0.03066174026806072
3352.0,0.030661157178539865
3351.0,0.03065913593709152
3350.0,0.030660649202191678
3349.0,0.03066925545003059
3348.0,0.030682697869800206
3347.0,0.03069275709259575
3346.0,0.030691368035014086
3345.0,0.03067824772901996
3344.0,0.03066206080444598
3343.0,0.030653080777571916
3342.0,0.030654076410740465
3341.0,0.030658333559950575
3340.0,0.030656454575597035
3339.0,0.030645069760586077
3338.0,0.03062900876840023
3337.0,0.030615486664785654
3336.0,0.03060691513911802
3335.0,0.03059963010045389
3334.0,0.03058844337890937
3333.0,0.030570649170139137
3332.0,0.030545768913123314
3331.0,0.030513795084364463
3330.0,0.030475517571694193
3329.0,0.03043389660858225
3328.0,0.030393261008292094
3327.0,0.030356467268573273
3326.0,0.03032350940752796
3325.0,0.030293248122454576
3324.0,0.030265442210976816
3323.0,0.03024028481579752
3322.0,0.03021644607402898
3321.0,0.030190706191448473
3320.0,0.030160100236699426
3319.0,0.03012473394035542
3318.0,0.030088495909745883
3317.0,0.030056388659769805
3316.0,0.030030188330465245
3315.0,0.030006590878402975
3314.0,0.029980158665397022
3313.0,0.029948335953457222
3312.0,0.02991324631340135
3311.0,0.02987872493009963
3310.0,0.029846490738080995
3309.0,0.029815641554499263
3308.0,0.029785218317511783
3307.0,0.029756535620281653
3306.0,0.02973282724256642
3305.0,0.029716316870779406
3304.0,0.02970502664086977
3303.0,0.029692663064396593
3302.0,0.02967298967068377
3301.0,0.029644969253724923
3300.0,0.029612960486115038
3299.0,0.029581812858473576
3298.0,0.02955266122992946
3297.0,0.029523709633453306
3296.0,0.02949343091063606
3295.0,0.029461723902734556
3294.0,0.029428708720100845
3293.0,0.029393750137955234
3292.0,0.029355702780636095
3291.0,0.029313892520501365
3290.0,0.029269490419975494
3289.0,0.02922621034679674
3288.0,0.02918842235323544
3287.0,0.02915727336044615
3286.0,0.02912903957617674
3285.0,0.02909825453792201
3284.0,0.029062087991366774
3283.0,0.029021113060996376
3282.0,0.028976974501972973
3281.0,0.028930614649675696
3280.0,0.028882205977483977
3279.0,0.02883143774662658
3278.0,0.02877806528915669
3277.0,0.028723119905387798
3276.0,0.028669160422775432
3275.0,0.028618246458815923
3274.0,0.028569815235292437
3273.0,0.028521371000577708
3272.0,0.028470864598700525
3271.0,0.028417707596803052
3270.0,0.028362288870053418
3269.0,0.028305779268528848
3268.0,0.02824989247668977
3267.0,0.028195571545358268
3266.0,0.028142184773743778
3265.0,0.028089048329710486
3264.0,0.028036966281288628
3263.0,0.027986696723987965
3262.0,0.027936364647602532
3261.0,0.027881845990081082
3260.0,0.027820024687724508
3259.0,0.02775108794051187
3258.0,0.02767815292913118
3257.0,0.027605373983172213
3256.0,0.027535734793141947
3255.0,0.02746922453336608
3254.0,0.027403308463333505
3253.0,0.027336487478626437
3252.0,0.027270862014338863
3251.0,0.02720966444336509
3250.0,0.02715254191254722
3249.0,0.027095210525896016
3248.0,0.027034075544155677
3247.0,0.02696956716360622
3246.0,0.026904282650119224
3245.0,0.02683960132929169
3244.0,0.026775635279716173
3243.0,0.02671327197199587
3242.0,0.02665385214673334
3241.0,0.02659639816554981
3240.0,0.026536868291562266
3239.0,0.026471654443679722
3238.0,0.026401628319338594
3237.0,0.026331384042194247
3236.0,0.02626414596249564
3235.0,0.02619833971795328
3234.0,0.026129852581590958
3233.0,0.026056882385674815
3232.0,0.025981237982451853
3231.0,0.02590524266244866
3230.0,0.025829040185385274
3229.0,0.0257517648994858
3228.0,0.025674259169239273
3227.0,0.025599250782748106
3226.0,0.02552865580899135
3225.0,0.02546122911553094
3224.0,0.02539301656529811
3223.0,0.02531996344181972
3222.0,0.02524019996088988
3221.0,0.02515421931248166
3220.0,0.02506370990365611
3219.0,0.024971134370783243
3218.0,0.024879922032250968
3217.0,0.024792673845477505
3216.0,0.024708198532501745
3215.0,0.0246221558736685
3214.0,0.024532460130791158
3213.0,0.024442621151214858
3212.0,0.02435745225881133
3211.0,0.024276749563656982
3210.0,0.024195960939319226
3209.0,0.02411205148753875
3208.0,0.02402513950263235
3207.0,0.023934648011129985
3206.0,0.023838882969329095
3205.0,0.023740770185917727
3204.0,0.02364986198414277
3203.0,0.023573902659757052
3202.0,0.02350915726715129
3201.0,0.023442096077047107
3200.0,0.023360859641904857
3199.0,0.023264087353794524
3198.0,0.023160329049519528
3197.0,0.023061040592969356
3196.0,0.022973121998778993
3195.0,0.02289489574940565
3194.0,0.02281783194907447
3193.0,0.022733350118598724
3192.0,0.02263932024112235
3191.0,0.022540583932305784
3190.0,0.022443784181171617
3189.0,0.022352187484504404
3188.0,0.022264494954759025
3187.0,0.022176929975405484
3186.0,0.02208628367531671
3185.0,0.021992004187849523
3184.0,0.021896097849625873
3183.0,0.02180079106877438
3182.0,0.021706393713087115
3181.0,0.02161168882396184
3180.0,0.02151604587010522
3179.0,0.02142027482904432
3178.0,0.02132535689080142
3177.0,0.02123124259426585
3176.0,0.021137502001966898
3175.0,0.021044659990381864
3174.0,0.02095398026745641
3173.0,0.020865648875580792
3172.0,0.020777725427501573
3171.0,0.020687692013302904
3170.0,0.020595011625404138
3169.0,0.02050149368567222
3168.0,0.020408983479958672
3167.0,0.02031757775345806
3166.0,0.020226531605339538
3165.0,0.02013590076540945
3164.0,0.020046694218587197
3163.0,0.01996011560403699
3162.0,0.01987708242665974
3161.0,0.019797340903075965
3160.0,0.019718200816321026
3159.0,0.019635325191380473
3158.0,0.01954641349068578
3157.0,0.01945394612572177
3156.0,0.019363354436417485
3155.0,0.019278779252630284
3154.0,0.019200998182461824
3153.0,0.019128001697853263
3152.0,0.019056112329126337
3151.0,0.01898167350669836
3150.0,0.01890377597177145
3149.0,0.018825302408289137
3148.0,0.01875005232155874
3147.0,0.01867936513864108
3146.0,0.018612449628623698
3145.0,0.018548067504835827
3144.0,0.018483644164518583
3143.0,0.01841482466622213
3142.0,0.01833999422708469
3141.0,0.018264958893163662
3140.0,0.018199051431612524
3139.0,0.018145397939485938
3138.0,0.018098353304157454
3137.0,0.018051812026492146
3136.0,0.018006097817481886
3135.0,0.017964642463549393
3134.0,0.01792734308591942
3133.0,0.01789046228271451
3132.0,0.01785161650772895
3131.0,0.017811509848459695
3130.0,0.017770516870019605
3129.0,0.017726026616452447
3128.0,0.0176738007894966
3127.0,0.017610996877861402
3126.0,0.017537974483581877
3125.0,0.017458353123352754
3124.0,0.017377890493503603
3123.0,0.017302345953761032
3122.0,0.01723517934745151
3121.0,0.01717676876502743
3120.0,0.01712558601911042
3119.0,0.017080377422792517
3118.0,0.017041968524855948
3117.0,0.017012905017260032
3116.0,0.016994640184044063
3115.0,0.016985117761043233
3114.0,0.016979786375800093
3113.0,0.01697527652729944
3112.0,0.016972014036074026
3111.0,0.016973935748356102
3110.0,0.01698584419562525
3109.0,0.017009237372518922
3108.0,0.01703852665934123
3107.0,0.017061732589427184
3106.0,0.017067125559857888
3105.0,0.017050388067601976
3104.0,0.017015062256958657
3103.0,0.0169663136336246
3102.0,0.016905812214718915
3101.0,0.016832785037715136
3100.0,0.016747899848433258
3099.0,0.01665451982596328
3098.0,0.016557724431339918
3097.0,0.016463773991818913
3096.0,0.016379375790879006
3095.0,0.01630962440117683
3094.0,0.016256664598744107
3093.0,0.016220378364875374
3092.0,0.016199065765500932
3091.0,0.01618966740690141
3090.0,0.016189666477917135
3089.0,0.0161996135297055
3088.0,0.016221584836038087
3087.0,0.01625319326637015
3086.0,0.01628487595588625
3085.0,0.016305973347418217
3084.0,0.016312733467162506
3083.0,0.01630865397273657
3082.0,0.0162976729692584
3081.0,0.016279291021197958
3080.0,0.016251019118080922
3079.0,0.016213272710599674
3078.0,0.016170380220242107
3077.0,0.01612741026414861
3076.0,0.016086940171776067
3075.0,0.016048780000961424
3074.0,0.016011668002992148
3073.0,0.015974726306289624
3072.0,0.01593781906263682
3071.0,0.01590123693407819
3070.0,0.01586505876050671
3069.0,0.015828254108458638
3068.0,0.01578818344203719
3067.0,0.015741507731572346
3066.0,0.015686085271400904
3065.0,0.01562198569387022
3064.0,0.015551088828242923
3063.0,0.015477367389421407
3062.0,0.01540822557881262
3061.0,0.01535333132188178
3060.0,0.015319390980537514
3059.0,0.015304976907006877
3058.0,0.015301078813714765
3057.0,0.015296210205826537
3056.0,0.015280331751067903
3055.0,0.015246057382158396
3054.0,0.015188703257393188
3053.0,0.015105446791115987
3052.0,0.01499313211298045
3051.0,0.014847802474880344
3050.0,0.014668735691942398
3049.0,0.014463445470518366
3048.0,0.014246537319515348
3047.0,0.014032815853546023
3046.0,0.013832764176741754
3045.0,0.013653321572006102
3044.0,0.013498666823408383
3043.0,0.013368286378831005
3042.0,0.013256993417670327
3041.0,0.013158983576898146
3040.0,0.013071663086774096
3039.0,0.012995034962791426
3038.0,0.01292856556124733
3037.0,0.012869532724319253
3036.0,0.012814039081636738
3035.0,0.012760221334968395
3034.0,0.012711233887694223
3033.0,0.012673086543091319
3032.0,0.012647510111209181
3031.0,0.01262815917416607
3030.0,0.012607140890058297
3029.0,0.012584554636899958
3028.0,0.01256753049861667
3027.0,0.012560843346869154
3026.0,0.012561584751322886
3025.0,0.012564145980751468
3024.0,0.01256696465938309
3023.0,0.012572546715311314
3022.0,0.012583536166177231
3021.0,0.012600656693903502
3020.0,0.012623274621651144
3019.0,0.012650034449119683
3018.0,0.01267959620812285
3017.0,0.012711680847926253
3016.0,0.012746939365410562
3015.0,0.012786081184101752
3014.0,0.012830291013361708
3013.0,0.012881632661756341
3012.0,0.012940439818248738
3011.0,0.01300247978388221
3010.0,0.013061328871065009
3009.0,0.013114244240104087
3008.0,0.013163470405596126
3007.0,0.013211409588441709
3006.0,0.013257027268498388
3005.0,0.013297826633781075
3004.0,0.013333986191948952
3003.0,0.013369455085485229
3002.0,0.01341011177936938
3001.0,0.013460351966211408
3000.0,0.013519252911789514
2999.0,0.01358027600589258
2998.0,0.013637108983021513
2997.0,0.0136906577527269
2996.0,0.013747778050503229
2995.0,0.013813289722366041
2994.0,0.013886396917916835
2993.0,0.013965552961417566
2992.0,0.014053187312834635
2991.0,0.014153075231876595
2990.0,0.014265477208252091
2989.0,0.014386973553084183
2988.0,0.014513942685397598
2987.0,0.014644853401618068
2986.0,0.014780811452825202
2985.0,0.01492482901299838
2984.0,0.01507916641455638
2983.0,0.015242531520284881
2982.0,0.015411069612635948
2981.0,0.015582840638659112
2980.0,0.015759754490702983
2979.0,0.01594546915786766
2978.0,0.016143470397738845
2977.0,0.01635724232612721
2976.0,0.01658880547972293
2975.0,0.01683551312809592
2974.0,0.01709130095958433
2973.0,0.017352414180208536
2972.0,0.01761943110485604
2971.0,0.017891976210893282
2970.0,0.01816491717776309
2969.0,0.01843218434700478
2968.0,0.018691465619983295
2967.0,0.018942099434100478
2966.0,0.019180502473001397
2965.0,0.019400460342205685
2964.0,0.01959644776197192
2963.0,0.019763483315936768
2962.0,0.019894901121331666
2961.0,0.01998382322576815
2960.0,0.020026997171243236
2959.0,0.020025337497057958
2958.0,0.019980961646343096
2957.0,0.01989482719048019
2956.0,0.019765912273099154
2955.0,0.019591760472664466
2954.0,0.019371905736809816
2953.0,0.019111827796566023
2952.0,0.018821505882072844
2951.0,0.01850874551438856
2950.0,0.018176288391988364
2949.0,0.017826416666453394
2948.0,0.01746536928651792
2947.0,0.01710074336751623
2946.0,0.016737439122781594
2945.0,0.016378891513055414
2944.0,0.016030451378595476
2943.0,0.01569853991958834
2942.0,0.015387621449883503
2941.0,0.015100116788823097
2940.0,0.01483807065179327
2939.0,0.014603088955751443
2938.0,0.014394959225542348
2937.0,0.014211916919861865
2936.0,0.014052138386702252
2935.0,0.013914155390377173
2934.0,0.013796162194400101
2933.0,0.013695381197096321
2932.0,0.01360765108359693
2931.0,0.013528394787074197
2930.0,0.013455616171505109
2929.0,0.013390908372950025
2928.0,0.013334894572572403
2927.0,0.01328236122678944
2926.0,0.013225577394319031
2925.0,0.013162353108673773
2924.0,0.01309696371145518
2923.0,0.01303232056480966
2922.0,0.012966208222185867
2921.0,0.012896572944417452
2920.0,0.012825952311588656
2919.0,0.012758216993114153
2918.0,0.01269418698696581
2917.0,0.0126330883536695
2916.0,0.01257496391431968
2915.0,0.012519542071951516
2914.0,0.012465660443062292
2913.0,0.012414188087280498
2912.0,0.01236942975625275
2911.0,0.012335198886599872
2910.0,0.012310765554231162
2909.0,0.012291685726046823
2908.0,0.012272631638140737
2907.0,0.01224893719185697
2906.0,0.012218250165267883
2905.0,0.012182794430776987
2904.0,0.01214834543551575
2903.0,0.012118974664531601
2902.0,0.012094524679273182
2901.0,0.012073698520760835
2900.0,0.012057498619244704
2899.0,0.012048182897362154
2898.0,0.0120463142701411
2897.0,0.012051823516045872
2896.0,0.012065137457477039
2895.0,0.012084572886700326
2894.0,0.012104003583710936
2893.0,0.012116344163412722
2892.0,0.012118721670447426
2891.0,0.012112335984407075
2890.0,0.012097313062753242
2889.0,0.012070459857176828
2888.0,0.012028504292440678
2887.0,0.01197219598096769
2886.0,0.011906642381164474
2885.0,0.01183766495976226
2884.0,0.011767965646086398
2883.0,0.011696430508933164
2882.0,0.011621411711880594
2881.0,0.011543974929172144
2880.0,0.01146687862297521
2879.0,0.011391345850968206
2878.0,0.01131701190705229
2877.0,0.011245202889139477
2876.0,0.01117914697730489
2875.0,0.011119450030688413
2874.0,0.011061803045298827
2873.0,0.01100106666091214
2872.0,0.010936489135249739
2871.0,0.010871107704890295
2870.0,0.010807067328323816
2869.0,0.0107436775606765
2868.0,0.010679347092639848
2867.0,0.010614248786540525
2866.0,0.010551561552030023
2865.0,0.010496822036895975
2864.0,0.01045505078016139
2863.0,0.010426665202680901
2862.0,0.010406802302272849
2861.0,0.010389390665786907
2860.0,0.010371697223927554
2859.0,0.01035420383942706
2858.0,0.010336879109870177
2857.0,0.010316864936857156
2856.0,0.010289388457044779
2855.0,0.010250378109453362
2854.0,0.010198195973876228
2853.0,0.010133013270551168
2852.0,0.010054657686611464
2851.0,0.009961807613426932
2850.0,0.009854123358346054
2849.0,0.00973401060409926
2848.0,0.009604751757993153
2847.0,0.009468411208801663
2846.0,0.009328046198774323
2845.0,0.009190813935807956
2844.0,0.009065073114780503
2843.0,0.008953831350103672
2842.0,0.008853347155758022
2841.0,0.00875912505397236
2840.0,0.008671037871306804
2839.0,0.008591404766215817
2838.0,0.008520392993298922
2837.0,0.008455290903727644
2836.0,0.008393505577493299
2835.0,0.008335027114417162
2834.0,0.00828211576666586
2833.0,0.008236923532248572
2832.0,0.008198706912376634
2831.0,0.00816304945282687
2830.0,0.008124970436916236
2829.0,0.008082969069699977
2828.0,0.008039185707177822
2827.0,0.007995948251793764
2826.0,0.007953743771486875
2825.0,0.007913011236506626
2824.0,0.007875695640089659
2823.0,0.007843481492152214
2822.0,0.007815421828094592
2821.0,0.007788563570239392
2820.0,0.0077605773962076685
2819.0,0.007731295122160987
2818.0,0.007702376701243472
2817.0,0.007675973297662902
2816.0,0.007653228966328661
2815.0,0.007633664321035523
2814.0,0.007616280526769985
2813.0,0.0076009662991146955
2812.0,0.007587833257447182
2811.0,0.007575455353607163
2810.0,0.007561334625406941
2809.0,0.007544692376634602
2808.0,0.0075276441665265165
2807.0,0.007512693451977984
2806.0,0.007499668342579136
2805.0,0.0074854753534932
2804.0,0.007466203529159127
2803.0,0.007439676273731098
2802.0,0.0074068966188911775
2801.0,0.007371673325700318
2800.0,0.007338473865236178
2799.0,0.00730981933700171
2798.0,0.007285787672996145
2797.0,0.007265152360697838
2796.0,0.0072458192816044955
2795.0,0.007224614677311756
2794.0,0.007198387340198363
2793.0,0.007166718107374721
2792.0,0.007133226338466374
2791.0,0.007103227608472885
2790.0,0.007079852556523632
2789.0,0.007062030087134288
2788.0,0.007045984556244108
2787.0,0.0070288095521678536
2786.0,0.007010231917052719
2785.0,0.006990934305989415
2784.0,0.006969992824793981
2783.0,0.006945493236727938
2782.0,0.006918040119741805
2781.0,0.006891867710234131
2780.0,0.006871157602585727
2779.0,0.006855821237327456
2778.0,0.006841986271978561
2777.0,0.006826368340929007
2776.0,0.006809134242698642
2775.0,0.006792811876251952
2774.0,0.006779048730308891
2773.0,0.006766390010986875
2772.0,0.006751656198394339
2771.0,0.006734230187979461
2770.0,0.006718344863753608
2769.0,0.006709142250997587
2768.0,0.006706301094202265
2767.0,0.006703931780438299
2766.0,0.006697386896370039
2765.0,0.006687426655812869
2764.0,0.006676642318572665
2763.0,0.006665110981080122
2762.0,0.006651878548586192
2761.0,0.006638171523410509
2760.0,0.006625937670458796
2759.0,0.006614554996649379
2758.0,0.006601956256104347
2757.0,0.006588144370611252
2756.0,0.0065750723545940845
2755.0,0.006563778903292463
2754.0,0.006553815606071678
2753.0,0.006544445580910989
2752.0,0.006534086986036764
2751.0,0.006519708361648193
2750.0,0.0064994724042252705
2749.0,0.006475436411047275
2748.0,0.006451408234249355
2747.0,0.0064290628208119125
2746.0,0.006408192682281285
2745.0,0.006389403363292171
2744.0,0.006373760749643024
2743.0,0.006360617262978593
2742.0,0.006348710200278581
2741.0,0.006338477781572984
2740.0,0.00633023929993704
2739.0,0.0063209316849074035
2738.0,0.006306184627542101
2737.0,0.006285709867246371
2736.0,0.0062634228383146116
2735.0,0.006242237401558508
2734.0,0.006221925875251491
2733.0,0.006202077814992747
2732.0,0.006183658983034964
2731.0,0.00616684330380053
2730.0,0.006150430273670954
2729.0,0.0061343355322126345
2728.0,0.006119847786490792
2727.0,0.006106410159825382
2726.0,0.006090850783674811
2725.0,0.006071305745606884
2724.0,0.006049959786394787
2723.0,0.006030778174624397
2722.0,0.006016027163933509
2721.0,0.006005488634818212
2720.0,0.0059970466097512
2719.0,0.005987172550217615
2718.0,0.005972799510624589
2717.0,0.005953982924614265
2716.0,0.005933743077427139
2715.0,0.005915194774335495
2714.0,0.005899975219653955
2713.0,0.00588880178537466
2712.0,0.0058809169055681065
2711.0,0.005872908564708285
2710.0,0.005860929422512064
2709.0,0.005844966004487287
2708.0,0.005828826727225796
2707.0,0.005815188781153965
2706.0,0.005803208539392719
2705.0,0.0057917545621438155
2704.0,0.005782046198262881
2703.0,0.005775168204109133
2702.0,0.005769052937147103
2701.0,0.0057605120090747
2700.0,0.005749228814511486
2699.0,0.005737690656312765
2698.0,0.005727506198238443
2697.0,0.0057174472867009135
2696.0,0.005705428123328304
2695.0,0.005691424711164713
2694.0,0.005678022146736914
2693.0,0.005668144587001656
2692.0,0.005662263477616038
2691.0,0.005658009423393232
2690.0,0.00565269028144481
2689.0,0.005645681885748025
2688.0,0.005637990473602857
2687.0,0.005630406886575876
2686.0,0.005623226627843588
2685.0,0.005617119864462283
2684.0,0.005612701117269815
2683.0,0.005609311028861455
2682.0,0.005605529501122886
2681.0,0.005600963472906241
2680.0,0.005596447676522625
2679.0,0.005592407299848749
2678.0,0.005587984929137748
2677.0,0.005581954237868999
2676.0,0.0055738532894590055
2675.0,0.005564290762739938
2674.0,0.005554709563886323
2673.0,0.005546555685588239
2672.0,0.005540260836434212
2671.0,0.00553546134696899
2670.0,0.005532403700183654
2669.0,0.00553208707348073
2668.0,0.005534585678158987
2667.0,0.0055388322906850945
2666.0,0.005545103399315153
2665.0,0.005556176869011154
2664.0,0.005574368546832208
2663.0,0.0055983681688560084
2662.0,0.0056241030347247215
2661.0,0.00564774675126601
2660.0,0.005667127771783355
2659.0,0.0056821557704479445
2658.0,0.005695629194433165
2657.0,0.005711561020355268
2656.0,0.005730336032274894
2655.0,0.00574707091348076
2654.0,0.0057571995416988014
2653.0,0.0057622736434495125
2652.0,0.005767451384798313
2651.0,0.005774815624405282
2650.0,0.005782660632087105
2649.0,0.005790304984370822
2648.0,0.00579957949376869
2647.0,0.005811371044874026
2646.0,0.005824149214885726
2645.0,0.005836597192234614
2644.0,0.005848988279714355
2643.0,0.005861567626938532
2642.0,0.005874091359218958
2641.0,0.0058872376582136295
2640.0,0.005902131461196437
2639.0,0.005918380061009972
2638.0,0.005934883304514058
2637.0,0.005952255941771388
2636.0,0.005971847043330118
2635.0,0.005992777290042347
2634.0,0.006012898563004588
2633.0,0.006032173558427023
2632.0,0.006051545370818234
2631.0,0.006068521345741854
2630.0,0.006078014139712122
2629.0,0.006078819446382784
2628.0,0.006076039248405949
2627.0,0.00607562915750812
2626.0,0.006078919308637236
2625.0,0.006083162873961399
2624.0,0.006084724191287184
2623.0,0.006081049595703226
2622.0,0.006072163078157888
2621.0,0.006061492140160501
2620.0,0.006053319858325782
2619.0,0.006049021717613134
2618.0,0.006047779580881903
2617.0,0.006050077846649021
2616.0,0.006057092923464664
2615.0,0.006066709149764165
2614.0,0.006073889266482047
2613.0,0.0060759800065120235
2612.0,0.006074571076161325
2611.0,0.0060716250384627735
2610.0,0.006067266062176136
2609.0,0.006062149403254552
2608.0,0.006058294685374872
2607.0,0.006056098029291013
2606.0,0.006053731292860253
2605.0,0.006051006826039082
2604.0,0.006050849057419464
2603.0,0.006055001535310241
2602.0,0.006060578772480941
2601.0,0.006062771812104774
2600.0,0.006059685752610894
2599.0,0.006053857513709153
2598.0,0.006050501676762148
2597.0,0.006054312318291269
2596.0,0.006065493285642397
2595.0,0.006078568948700404
2594.0,0.006087406664718027
2593.0,0.006091421429629316
2592.0,0.006094754811481296
2591.0,0.006099816180426883
2590.0,0.006104912080642302
2589.0,0.006108680495667497
2588.0,0.006113411464019279
2587.0,0.006122513851132801
2586.0,0.006136688201037825
2585.0,0.006153318748106101
2584.0,0.006168134229656199
2583.0,0.00617756571475764
2582.0,0.006181372264634964
2581.0,0.006182537976715903
2580.0,0.0061829040612666145
2579.0,0.0061804190480278295
2578.0,0.006173121808493175
2577.0,0.006164064924037451
2576.0,0.006158706917553922
2575.0,0.006158569293480439
2574.0,0.006161056406263946
2573.0,0.0061641152943306635
2572.0,0.006166973093024676
2571.0,0.0061677372866727545
2570.0,0.006165230934389226
2569.0,0.006162639870848346
2568.0,0.006164532254931784
2567.0,0.006170458259087136
2566.0,0.006175984720143262
2565.0,0.006179392999035572
2564.0,0.006182032655656892
2563.0,0.006182605102594186
2562.0,0.00617758688174838
2561.0,0.00616826816141571
2560.0,0.0061612515054385725
2559.0,0.006160010625278121
2558.0,0.006161174847839509
2557.0,0.006160862550436429
2556.0,0.0061592383036009005
2555.0,0.006156552697829139
2554.0,0.006150193257932583
2553.0,0.006139616521543411
2552.0,0.006130184804423632
2551.0,0.006127841016360425
2550.0,0.006132089389881194
2549.0,0.006136979862428121
2548.0,0.006137333211314976
2547.0,0.0061320542204378
2546.0,0.006123179642236085
2545.0,0.006113874309597776
2544.0,0.00610639820871248
2543.0,0.006100792088817718
2542.0,0.006096097126890894
2541.0,0.0060925353871698115
2540.0,0.006091028916003986
2539.0,0.006091306195702672
2538.0,0.006092452093141963
2537.0,0.006094307172281597
2536.0,0.006096054265097229
2535.0,0.006094943207328958
2534.0,0.006089524761599333
2533.0,0.0060827632293516225
2532.0,0.006078448023788907
2531.0,0.006076061468627379
2530.0,0.006073194457896733
2529.0,0.00607112357327806
2528.0,0.006072567965174613
2527.0,0.0060747716764784025
2526.0,0.006071069583637784
2525.0,0.006060462408915675
2524.0,0.006050278563507407
2523.0,0.0060473496477355965
2522.0,0.006050407077684623
2521.0,0.0060525505319345176
2520.0,0.006048004313050871
2519.0,0.006035771502068821
2518.0,0.0060198315600183926
2517.0,0.006006317817891042
2516.0,0.005997843901780278
2515.0,0.005990905817769952
2514.0,0.005981404706593595
2513.0,0.005970749130188104
2512.0,0.005962365955606409
2511.0,0.005954519906644508
2510.0,0.005942742836599702
2509.0,0.0059284411218608335
2508.0,0.005918053971990508
2507.0,0.005912600872277697
2506.0,0.005904548196526995
2505.0,0.005887561217084157
2504.0,0.005864491692247894
2503.0,0.005843430405988075
2502.0,0.005829867342934706
2501.0,0.005824199981744868
2500.0,0.005822570857788478
2499.0,0.005818434713489877
2498.0,0.00580717356104582
2497.0,0.005791207156896634
2496.0,0.005777522006033407
2495.0,0.0057689610301745
2494.0,0.005761220233761645
2493.0,0.0057488301007938575
2492.0,0.0057302038558523505
2491.0,0.005706044662342827
2490.0,0.005677428362848333
2489.0,0.005647601189094397
2488.0,0.005622139941105251
2487.0,0.005604808296166367
2486.0,0.005594686946843213
2485.0,0.005587650869349054
2484.0,0.005578754490293818
2483.0,0.005564240750154721
2482.0,0.005544739360742183
2481.0,0.0055261055690581425
2480.0,0.005513464976264901
2479.0,0.005504820963607035
2478.0,0.005494349623665063
2477.0,0.0054812673992087665
2476.0,0.005470598613822535
2475.0,0.005465011564403665
2474.0,0.005460843613856396
2473.0,0.005453298562533158
2472.0,0.005441524459371799
2471.0,0.005427615191916013
2470.0,0.005414283006635165
2469.0,0.005404237688566004
2468.0,0.005398366993165548
2467.0,0.00539402279381661
2466.0,0.0053882432476247445
2465.0,0.005382411052546433
2464.0,0.0053801831896456605
2463.0,0.005381478049371771
2462.0,0.005382823477070508
2461.0,0.00538322903177243
2460.0,0.005384917895034466
2459.0,0.00538820563112973
2458.0,0.005390640638297688
2457.0,0.005391812453183738
2456.0,0.005394260191602858
2455.0,0.00539873290237918
2454.0,0.005402906030212923
2453.0,0.005405425086293072
2452.0,0.00540661283930886
2451.0,0.005404496847114807
2450.0,0.005395444230787267
2449.0,0.005380732153234424
2448.0,0.005368027729027091
2447.0,0.005363879577269803
2446.0,0.00536776542017905
2445.0,0.005374717014910883
2444.0,0.00538035028847275
2443.0,0.005382228038260712
2442.0,0.0053799791307607755
2441.0,0.005375928117891763
2440.0,0.0053731270773130484
2439.0,0.0053717595185279205
2438.0,0.005369602875080568
2437.0,0.005365904536903745
2436.0,0.005362139022300108
2435.0,0.005359574603053875
2434.0,0.005359343928583848
2433.0,0.0053639598693456594
2432.0,0.00537449661660379
2431.0,0.005386538985711705
2430.0,0.005393295066176527
2429.0,0.005393136978221724
2428.0,0.005390563510061706
2427.0,0.005390032125957206
2426.0,0.005392668499283802
2425.0,0.0053983577955690806
2424.0,0.0054063992975252485
2423.0,0.005414087280372572
2422.0,0.00541904953741832
2421.0,0.0054230368512437135
2420.0,0.005429260610353677
2419.0,0.005436592723410131
2418.0,0.005441255098426944
2417.0,0.005443795541068497
2416.0,0.0054490717728912785
2415.0,0.005459172601899855
2414.0,0.005471586311964611
2413.0,0.005484694058742648
2412.0,0.005499341971372959
2411.0,0.005513593957252016
2410.0,0.005521206065285162
2409.0,0.005517711067214132
2408.0,0.005504595396072948
2407.0,0.005486612407803062
2406.0,0.005469362914041534
2405.0,0.005460179131543745
2404.0,0.005465378995522272
2403.0,0.0054832850209770665
2402.0,0.0055031933728484726
2401.0,0.005514034321854789
2400.0,0.0055129333314621436
2399.0,0.005505178118670283
2398.0,0.005498551899138638
2397.0,0.0054981192297292
2396.0,0.00550341968500531
2395.0,0.0055094739218114475
2394.0,0.0055120868483912126
2393.0,0.00551139892644854
2392.0,0.005508286986560479
2391.0,0.005499612765147525
2390.0,0.00548080619726504
2389.0,0.005451618699567261
2388.0,0.005414705861691969
2387.0,0.005369639491712907
2386.0,0.005313903130355401
2385.0,0.005250220323997022
2384.0,0.00518798297230112
2383.0,0.005136936751625398
2382.0,0.005104217822681098
2381.0,0.005097376380512766
2380.0,0.005122357820593877
2379.0,0.005173035271122332
2378.0,0.005227921073729951
2377.0,0.0052641666917550185
2376.0,0.005270546839366762
2375.0,0.005246785777568742
2374.0,0.005199409675799247
2373.0,0.005143639693950267
2372.0,0.005099174663833433
2371.0,0.00507214991029729
2370.0,0.005050270026237678
2369.0,0.005026119883318306
2368.0,0.005010082300725343
2367.0,0.0050073671772835416
2366.0,0.005003462979536363
2365.0,0.004993187617493524
2364.0,0.004994332417468791
2363.0,0.0050071280462045615
2362.0,0.005007300875167241
2361.0,0.004979832803654467
2360.0,0.004926500559160495
2359.0,0.0048633865435763705
2358.0,0.004811542216832203
2357.0,0.004804933045490617
2356.0,0.0048497303489091845
2355.0,0.0048963415391181705
2354.0,0.004909040506793848
2353.0,0.004896697285073944
2352.0,0.004889701823737695
2351.0,0.004885541685347828
2350.0,0.004867778039925835
2349.0,0.004851128411842223
2348.0,0.004847943539027913
2347.0,0.0048560554148156755
2346.0,0.004837665164935084
2345.0,0.004779896625132676
2344.0,0.004720369749429104
2343.0,0.004688021765471142
2342.0,0.004714998655442112
2341.0,0.004801506971251023
2340.0,0.004910800377260326
2339.0,0.00498637158292877
2338.0,0.005007474732398101
2337.0,0.004995151252008682
2336.0,0.004977755891640836
2335.0,0.004959222236945588
2334.0,0.004936629113693718
2333.0,0.004906211731542555
2332.0,0.004869780733408916
2331.0,0.004825586328344482
2330.0,0.0047702765125416085
2329.0,0.004732549356910717
2328.0,0.004736705011944877
2327.0,0.004811820191812292
2326.0,0.004946803706958645
2325.0,0.005103725421072744
2324.0,0.005226782975310791
2323.0,0.0052665556776813754
2322.0,0.005226050338981703
2321.0,0.005139089711357618
2320.0,0.0050518432405951465
2319.0,0.004983162971978448
2318.0,0.004937410603854568
2317.0,0.004911981566208804
2316.0,0.004898589898547265
2315.0,0.004883276463160287
2314.0,0.0048513856005707925
2313.0,0.004807557737147354
2312.0,0.004765062282988922
2311.0,0.00473934947549104
2310.0,0.004732058514960335
2309.0,0.004743923434475041
2308.0,0.004771606673191321
2307.0,0.004810642719757201
2306.0,0.004850487271596179
2305.0,0.004883205072787102
2304.0,0.004906659342135462
2303.0,0.004924887109549635
2302.0,0.00494479380740751
2301.0,0.004974619903423928
2300.0,0.005016435318057533
2299.0,0.0050663576450328774
2298.0,0.005117095952048609
2297.0,0.005170452662289686
2296.0,0.005231032365841539
2295.0,0.005302147891405978
2294.0,0.005379806940371228
2293.0,0.005462317947364855
2292.0,0.005548856847054851
2291.0,0.005636082151064917
2290.0,0.0057161776181260315
2289.0,0.0057852029068093756
2288.0,0.005846861147587488
2287.0,0.005905693030395409
2286.0,0.0059596269114523545
2285.0,0.005999809536527113
2284.0,0.006017160480698093
2283.0,0.006007271601932233
2282.0,0.005975638555807873
2281.0,0.005936536832030147
2280.0,0.005903491895343572
2279.0,0.005878021288093028
2278.0,0.0058539905620419224
2277.0,0.005828824578359549
2276.0,0.005804578885502847
2275.0,0.005780203884845618
2274.0,0.005752640574713902
2273.0,0.005726088211062786
2272.0,0.005708631320938952
2271.0,0.005699940512501286
2270.0,0.005690989414889342
2269.0,0.0056769801020738475
2268.0,0.0056609884390160636
2267.0,0.005644412009540129
2266.0,0.005624819085185452
2265.0,0.005605681634210543
2264.0,0.00559619859815697
2263.0,0.005600125479160563
2262.0,0.005612820299710132
2261.0,0.005632169849427847
2260.0,0.0056612635192053295
2259.0,0.0056961804993966554
2258.0,0.005722205543867909
2257.0,0.005725483994569302
2256.0,0.005704644339086572
2255.0,0.005667855675525433
2254.0,0.005627877225280022
2253.0,0.0055997864537406196
2252.0,0.00559263386725038
2251.0,0.005600543029027237
2250.0,0.005609567434617435
2249.0,0.0056155196324648195
2248.0,0.005625744502124947
2247.0,0.005644284200485769
2246.0,0.0056646457148162455
2245.0,0.005678329793209672
2244.0,0.005680723248034708
2243.0,0.005669249761572999
2242.0,0.00564723603972838
2241.0,0.005629446277149476
2240.0,0.005630101731292291
2239.0,0.005644402531060228
2238.0,0.0056550139927332545
2237.0,0.005657477475473485
2236.0,0.005663954989384726
2235.0,0.005679373507684449
2234.0,0.005690928877366822
2233.0,0.005687180771670676
2232.0,0.0056730273525741805
2231.0,0.005657876684823003
2230.0,0.005642548499462569
2229.0,0.005626065447004763
2228.0,0.005613365747558168
2227.0,0.005607677973105921
2226.0,0.005603836499105868
2225.0,0.005595887795111864
2224.0,0.0055850345889202945
2223.0,0.005576613244065906
2222.0,0.005575152371697353
2221.0,0.005582481444802019
2220.0,0.005593067282357988
2219.0,0.005594690954327322
2218.0,0.00558445868513394
2217.0,0.005579129887850822
2216.0,0.005594789963878525
2215.0,0.0056202528108432155
2214.0,0.0056293331176533595
2213.0,0.005617324211255216
2212.0,0.005604132881392002
2211.0,0.0056012767941422265
2210.0,0.005598244803753736
2209.0,0.005585801412588486
2208.0,0.005570978524090551
2207.0,0.005561163508705756
2206.0,0.0055522520683840195
2205.0,0.005540541192925922
2204.0,0.005529937024144824
2203.0,0.005520872864043358
2202.0,0.00550759131150651
2201.0,0.0054910197074279675
2200.0,0.005478749790986143
2199.0,0.005469908771411265
2198.0,0.005458092130087752
2197.0,0.00545112861037196
2196.0,0.005466592759425637
2195.0,0.005503225068887127
2194.0,0.005537526804708857
2193.0,0.005554703767175797
2192.0,0.005563032462273461
2191.0,0.0055721806175966756
2190.0,0.005580023491527434
2189.0,0.0055886050562176815
2188.0,0.005609417336007355
2187.0,0.005641254254024401
2186.0,0.005662514892777369
2185.0,0.005655538935114867
2184.0,0.005620902291864676
2183.0,0.005562786923897222
2182.0,0.005486221377330178
2181.0,0.005418296245365603
2180.0,0.005400033288960222
2179.0,0.005437811073089128
2178.0,0.0054867570393596
2177.0,0.0054993564431317825
2176.0,0.005474586435567378
2175.0,0.005447102222994787
2174.0,0.005446005882765834
2173.0,0.005479684520246578
2172.0,0.00554384195905383
2171.0,0.005627301568215391
2170.0,0.005719170171963
2169.0,0.00582042152364135
2168.0,0.005937557972791517
2167.0,0.0060580519345768795
2166.0,0.006151603500282997
2165.0,0.006210054774228067
2164.0,0.006264793739417812
2163.0,0.006335125419768018
2162.0,0.006365001631517827
2161.0,0.006240232219501987
2160.0,0.005889379176498105
2159.0,0.005377809517971776
2158.0,0.004891381490827012
2157.0,0.004600102363880199
2156.0,0.004534204693099859
2155.0,0.004603024486765987
2154.0,0.004708161237519176
2153.0,0.004809850058480147
2152.0,0.004905271615060021
2151.0,0.004985267691557869
2150.0,0.005034935701209403
2149.0,0.005058387425326124
2148.0,0.005071773313370105
2147.0,0.0050766212355098685
2146.0,0.005064458645432577
2145.0,0.005043663206092477
2144.0,0.00503535432820255
2143.0,0.005044221350193864
2142.0,0.005056912304121701
2141.0,0.005067499290114905
2140.0,0.00508191348667893
2139.0,0.0050968019272759875
2138.0,0.005093903544408777
2137.0,0.005057764322337412
2136.0,0.004985596059742452
2135.0,0.004884785536557021
2134.0,0.00477891197953619
2133.0,0.004709217479459619
2132.0,0.004705420758807272
2131.0,0.004755828288868306
2130.0,0.004823425414261694
2129.0,0.004885853496040744
2128.0,0.004944713829660253
2127.0,0.005002797369755549
2126.0,0.005054157761432642
2125.0,0.0050972586054429045
2124.0,0.005137507327971471
2123.0,0.005173129010011449
2122.0,0.005195140483022344
2121.0,0.0052053750231895075
2120.0,0.005219086272044736
2119.0,0.005246098973961933
2118.0,0.005283424122563564
2117.0,0.005327685042433397
2116.0,0.005378409696457877
2115.0,0.005426508261823941
2114.0,0.005456534398139422
2113.0,0.00546579373305458
2112.0,0.0054666937501047005
2111.0,0.005466022735318288
2110.0,0.005457865042820983
2109.0,0.005440981648329703
2108.0,0.005425883912834537
2107.0,0.005418904849439882
2106.0,0.0054154207697422845
2105.0,0.005414107727953319
2104.0,0.005420365759103876
2103.0,0.005430512118795062
2102.0,0.005430690672391799
2101.0,0.005418505706374217
2100.0,0.005407823055135386
2099.0,0.005402699739593093
2098.0,0.005384157213199796
2097.0,0.005333887137288071
2096.0,0.005258336117579022
2095.0,0.0051808562180862714
2094.0,0.005122593391015711
2093.0,0.0050972810987058225
2092.0,0.005109247410690845
2091.0,0.005146182345274282
2090.0,0.005183904980608344
2089.0,0.00520621738474949
2088.0,0.0052133385847984255
2087.0,0.005210029326644999
2086.0,0.005198051710544226
2085.0,0.005183415450707802
2084.0,0.005176634904558414
2083.0,0.0051807589888500614
2082.0,0.005191080715499703
2081.0,0.005208051217500977
2080.0,0.005235819024983244
2079.0,0.005265822092639839
2078.0,0.0052791924014935245
2077.0,0.005270159967279302
2076.0,0.005251197612088082
2075.0,0.005230907423299814
2074.0,0.005203578822381476
2073.0,0.005166771895601208
2072.0,0.005129472695459574
2071.0,0.005096121077603039
2070.0,0.005061317136014887
2069.0,0.005026207561634969
2068.0,0.005002642119118347
2067.0,0.0049940946918836625
2066.0,0.004988724637984055
2065.0,0.004976373194668491
2064.0,0.004956895014520295
2063.0,0.004928471354495742
2062.0,0.004886879721953076
2061.0,0.004841939734261515
2060.0,0.004815929961697877
2059.0,0.004818138751902751
2058.0,0.0048338189100560125
2057.0,0.004841421375645304
2056.0,0.004831802092540699
2055.0,0.004818037628898055
2054.0,0.004839184145373768
2053.0,0.004937494152781846
2052.0,0.005102529985438683
2051.0,0.005247362305996538
2050.0,0.005275224150837682
2049.0,0.005180541933505587
2048.0,0.0050533991419782895
2047.0,0.004971026341089198
2046.0,0.004932941350751642
2045.0,0.004913582888822343
2044.0,0.004914038933489206
2043.0,0.004935776234571671
2042.0,0.004954296319496018
2041.0,0.004952095435529945
2040.0,0.004945249202696455
2039.0,0.0049504598537238615
2038.0,0.004955739327939802
2037.0,0.004943202203159931
2036.0,0.004910308734045023
2035.0,0.004855975312845302
2034.0,0.004779395814494902
2033.0,0.004704910510383429
2032.0,0.004667905600962901
2031.0,0.0046645929610034526
2030.0,0.004656728176947778
2029.0,0.00463203401833076
2028.0,0.0046150857520341525
2027.0,0.004614150299069459
2026.0,0.004606990285378512
2025.0,0.004590968601353063
2024.0,0.004594066551207229
2023.0,0.004621616857009611
2022.0,0.004643810298990758
2021.0,0.004649177917045293
2020.0,0.004663100735862867
2019.0,0.004697334540800416
2018.0,0.004727685248208715
2017.0,0.004740280972908182
2016.0,0.004754112030958926
2015.0,0.004777736727972933
2014.0,0.004792526341145766
2013.0,0.004797622747056073
2012.0,0.004821741086180783
2011.0,0.004868654917343412
2010.0,0.0048940160341933445
2009.0,0.004861870009711509
2008.0,0.004788541808056609
2007.0,0.004710661945620084
2006.0,0.004647860800205313
2005.0,0.004616294573736425
2004.0,0.004633872255711122
2003.0,0.0046914158608343925
2002.0,0.004757678414428911
2001.0,0.004822282092482592
2000.0,0.004903926729504238
1999.0,0.005002254243776118
1998.0,0.005080645153323808
1997.0,0.00511833613301557
1996.0,0.0051390416552071815
1995.0,0.005169685534930828
1994.0,0.005207571340201569
1993.0,0.005247040737378508
1992.0,0.005299568517150959
1991.0,0.0053644155091924816
1990.0,0.005416629078918437
1989.0,0.005447146707782366
1988.0,0.005478404604434491
1987.0,0.005522931014606221
1986.0,0.0055636855665550265
1985.0,0.0055965139189745805
1984.0,0.005655180070441506
1983.0,0.0057654212729194975
1982.0,0.005903321010770886
1981.0,0.006017537579627154
1980.0,0.006068395635025703
1979.0,0.006029470947423038
1978.0,0.00589630372301191
1977.0,0.005723221457431448
1976.0,0.005595441520248785
1975.0,0.005538126308355632
1974.0,0.005506134404234192
1973.0,0.005472968510836794
1972.0,0.005465133227959066
1971.0,0.005497254883541595
1970.0,0.005538978671561112
1969.0,0.005568683173093643
1968.0,0.005603244150867146
1967.0,0.005647849706318416
1966.0,0.005672186157520941
1965.0,0.00566790787185811
1964.0,0.005669673293235293
1963.0,0.005693840323515434
1962.0,0.005709983266145085
1961.0,0.005696335974575265
1960.0,0.005679135136862512
1959.0,0.005689147226113424
1958.0,0.0057241999737775535
1957.0,0.005778062374516598
1956.0,0.005858105430624982
1955.0,0.005951155638701941
1954.0,0.006014478386936362
1953.0,0.006029938998262887
1952.0,0.00602728245649538
1951.0,0.006034574279695276
1950.0,0.0060427585607619825
1949.0,0.006034936657107935
1948.0,0.006017779812910881
1947.0,0.005998167247206343
1946.0,0.005962244875812994
1945.0,0.005903363116338258
1944.0,0.005841076651075555
1943.0,0.005788933523355243
1942.0,0.005729767711852554
1941.0,0.0056501105721856225
1940.0,0.005563837996400279
1939.0,0.005481993417709264
1938.0,0.005399812934030738
1937.0,0.005320405049951744
1936.0,0.0052576338421213105
1935.0,0.0052079883693810424
1934.0,0.005149044404798018
1933.0,0.005078010052264598
1932.0,0.005016618644387906
1931.0,0.00497308676532085
1930.0,0.004930240931655483
1929.0,0.0048774297946396926
1928.0,0.0048330615793357665
1927.0,0.00480914492455331
1926.0,0.004791104009160565
1925.0,0.004762381007832573
1924.0,0.004727834390780907
1923.0,0.004703518591046538
1922.0,0.004689770131674615
1921.0,0.004676293999910135
1920.0,0.0046560593836793085
1919.0,0.004623517842450871
1918.0,0.00457829291523606
1917.0,0.004536006350509295
1916.0,0.004513389322849899
1915.0,0.0044991090977127305
1914.0,0.004468673388487341
1913.0,0.004425293134428125
1912.0,0.004394586865506467
1911.0,0.004384417024833689
1910.0,0.004374733653655649
1909.0,0.004352164415064945
1908.0,0.004329753049008875
1907.0,0.004312768669214798
1906.0,0.004289056972973301
1905.0,0.004256106999591486
1904.0,0.004226569081115181
1903.0,0.004206182064926444
1902.0,0.004181785021521903
1901.0,0.00414826224917802
1900.0,0.004122736803335686
1899.0,0.00411198788364453
1898.0,0.004100205972541437
1897.0,0.004077831654601328
1896.0,0.004055606307770613
1895.0,0.0040427944389318255
1894.0,0.0040306441515762835
1893.0,0.004014333227251351
1892.0,0.004002882689658035
1891.0,0.003997786901633175
1890.0,0.003984972608917256
1889.0,0.003960800841849976
1888.0,0.003943311786684026
1887.0,0.003937638298140704
1886.0,0.003924388380684199
1885.0,0.0038967104490054113
1884.0,0.00387314550463835
1883.0,0.0038646247380280797
1882.0,0.0038562451932670294
1881.0,0.003837843923950543
1880.0,0.0038255438772230544
1879.0,0.003828560509760847
1878.0,0.003829042427281915
1877.0,0.003814308932590737
1876.0,0.0037962343468181925
1875.0,0.003789509241015801
1874.0,0.003795063859863504
1873.0,0.0038117450390045336
1872.0,0.0038423627273839757
1871.0,0.003878705577370488
1870.0,0.003899361865970262
1869.0,0.0038974366319332156
1868.0,0.0038943653880062663
1867.0,0.00390040849196808
1866.0,0.0038940669965802843
1865.0,0.003865998863864675
1864.0,0.0038407293005789304
1863.0,0.0038387352554597816
1862.0,0.003848357360706058
1861.0,0.0038527013144889865
1860.0,0.0038593380185181917
1859.0,0.003877945781343071
1858.0,0.0038953242008693345
1857.0,0.003900028889856468
1856.0,0.003906311488239668
1855.0,0.00392797150526877
1854.0,0.00395467549548178
1853.0,0.003972440205103288
1852.0,0.0039953627490746995
1851.0,0.004036514150055344
1850.0,0.004082047991115012
1849.0,0.004124776716656828
1848.0,0.0041779119106740105
1847.0,0.004239126358293092
1846.0,0.004272087459676784
1845.0,0.004260933697196024
1844.0,0.004254180373322343
1843.0,0.004300920832694906
1842.0,0.004374035883461312
1841.0,0.004420705064371396
1840.0,0.004440517355489737
1839.0,0.004463400948709512
1838.0,0.0044975876523698
1837.0,0.004526803712455681
1836.0,0.004549858421030031
1835.0,0.004584261532732699
1834.0,0.004630400606621627
1833.0,0.004673767655665697
1832.0,0.004714512313757573
1831.0,0.004760239120269175
1830.0,0.004802538593578992
1829.0,0.004836161969585514
1828.0,0.004876047106302979
1827.0,0.004918685763401319
1826.0,0.004933117523185558
1825.0,0.0049144461114785
1824.0,0.004899799010322752
1823.0,0.004909761366596838
1822.0,0.004913457401084289
1821.0,0.004883807883073202
1820.0,0.004838562714465161
1819.0,0.004799352532519387
1818.0,0.004758741469495343
1817.0,0.004710232388117934
1816.0,0.004679541616553053
1815.0,0.004690248800004554
1814.0,0.004719550068826625
1813.0,0.004735825366112994
1812.0,0.00474214572439615
1811.0,0.004755301800867039
1810.0,0.00476767865818909
1809.0,0.004760573734399254
1808.0,0.004745022247956688
1807.0,0.004742272877731754
1806.0,0.004745647753056169
1805.0,0.004741930584204702
1804.0,0.004743851274131453
1803.0,0.004770677077710167
1802.0,0.004802084827162089
1801.0,0.004809637678014135
1800.0,0.0048094492730363205
1799.0,0.004831769893699316
1798.0,0.004868093923138247
1797.0,0.004893796741401171
1796.0,0.004915812373855657
1795.0,0.00494817731053643
1794.0,0.004969308356520052
1793.0,0.004957952913529634
1792.0,0.004949597293180881
1791.0,0.004985782737604483
1790.0,0.005036322280781006
1789.0,0.005054940534730547
1788.0,0.005054021671871996
1787.0,0.005069238514009324
1786.0,0.005099182198250192
1785.0,0.005122579105593987
1784.0,0.005156026032279031
1783.0,0.00522748044334478
1782.0,0.005300701601072157
1781.0,0.005332158729099166
1780.0,0.005347574271473672
1779.0,0.005390765448625258
1778.0,0.005448000544569069
1777.0,0.0054847008910198685
1776.0,0.0055256022578527445
1775.0,0.005604715445048633
1774.0,0.005689074085752192
1773.0,0.005732488117597416
1772.0,0.005783802674615801
1771.0,0.005907691329876014
1770.0,0.00604784519596833
1769.0,0.006124430504426429
1768.0,0.006171557547947964
1767.0,0.006273509102757537
1766.0,0.006421785779462429
1765.0,0.006552275994591767
1764.0,0.006667856625063686
1763.0,0.006837642898492129
1762.0,0.007070800890191158
1761.0,0.007306653815467059
1760.0,0.00754629626687418
1759.0,0.007842657953148797
1758.0,0.008193834551909505
1757.0,0.00856537364600714
1756.0,0.00898426206923145
1755.0,0.009487832254897972
1754.0,0.0100434793212355
1753.0,0.0106354628500806
1752.0,0.011391926114990424
1751.0,0.012480600392430909
1750.0,0.013862152017316748
1749.0,0.01537613930562954
1748.0,0.01702471159627962
1747.0,0.01890044902509448
1746.0,0.021024189513161925
1745.0,0.023450642202544413
1744.0,0.02628517015587174
1743.0,0.02949775969691664
1742.0,0.032972951985995674
1741.0,0.036858242397755585
1740.0,0.041437282676889085
1739.0,0.04636121449006422
1738.0,0.05071542527213104
1737.0,0.0543205197499932
1736.0,0.05804796209934762
1735.0,0.06347464056064157
1734.0,0.07079970180112245
1733.0,0.07753005608731092
1732.0,0.0825528091602555
1731.0,0.08718266649750511
1730.0,0.09226781680599058
1729.0,0.09763923163886468
1728.0,0.10285391333722188
1727.0,0.10791655685853264
1726.0,0.11306381180221832
1725.0,0.11841474172390357
1724.0,0.12395678906185753
1723.0,0.12949757661984948
1722.0,0.13458599575311975
1721.0,0.13890103899201464
1720.0,0.14280302005856307
1719.0,0.14733840682719937
1718.0,0.15287837122494527
1717.0,0.15763700309127207
1716.0,0.16022983201919508
1715.0,0.16151103822394644
1714.0,0.16190834260511594
1713.0,0.1608181549476267
1712.0,0.15808546411467383
1711.0,0.15411715064552192
1710.0,0.14912821324902795
1709.0,0.1430493260666202
1708.0,0.13592421851076045
1707.0,0.12773095952605024
1706.0,0.11847625815925425
1705.0,0.10934032453956363
1704.0,0.10207081158207491
1703.0,0.09669236420501916
1702.0,0.09163265485922577
1701.0,0.08486839299238177
1700.0,0.07712104428289784
1699.0,0.07153278605466447
1698.0,0.06823567176471493
1697.0,0.06518137049004029
1696.0,0.06143399083681395
1695.0,0.05782518940042314
1694.0,0.05534023296101809
1693.0,0.05367476882157617
1692.0,0.052212571872358005
1691.0,0.05067250461616826
1690.0,0.049115684992380775
1689.0,0.047765500929793224
1688.0,0.04672674385625252
1687.0,0.04588394804701444
1686.0,0.04504284955221642
1685.0,0.04399520664452539
1684.0,0.04275181912319195
1683.0,0.041702263674929206
1682.0,0.04097236957547921
1681.0,0.04032436474819517
1680.0,0.039616748452825284
1679.0,0.03887535647576587
1678.0,0.038165982436612476
1677.0,0.03746642417099738
1676.0,0.03668522477504985
1675.0,0.03584936930168509
1674.0,0.03514498865268618
1673.0,0.03464126260405504
1672.0,0.03419679480393045
1671.0,0.033663436207101376
1670.0,0.03301853386044441
1669.0,0.03237078307207387
1668.0,0.03182169874053894
1667.0,0.03136389863515416
1666.0,0.03094972965218764
1665.0,0.030538443264137786
1664.0,0.030084361443675427
1663.0,0.02957661571007747
1662.0,0.029079034701271128
1661.0,0.028658444013930896
1660.0,0.028295354800658826
1659.0,0.02794397023621381
1658.0,0.027612944859326458
1657.0,0.027338633993196852
1656.0,0.027102687901069566
1655.0,0.026825219854260937
1654.0,0.026430927116648573
1653.0,0.02595514182830076
1652.0,0.025610887709043177
1651.0,0.025464845889534685
1650.0,0.02535101339779428
1649.0,0.025173125485484265
1648.0,0.024914676102540136
1647.0,0.024562682420357453
1646.0,0.02418343810727539
1645.0,0.02387891783496664
1644.0,0.023637283251524283
1643.0,0.023397279378054272
1642.0,0.02314210818346419
1641.0,0.02289219656101601
1640.0,0.022671292576620046
1639.0,0.022471045014308764
1638.0,0.022266025481533756
1637.0,0.022020493130177846
1636.0,0.021696994186933174
1635.0,0.021329690444775652
1634.0,0.02103502464654659
1633.0,0.02082240890770928
1632.0,0.020604615517384954
1631.0,0.020346106627400686
1630.0,0.020061301810660993
1629.0,0.019771469629223368
1628.0,0.019478559268091073
1627.0,0.01918996709954898
1626.0,0.018918614089314115
1625.0,0.018656676014214446
1624.0,0.01837667157000343
1623.0,0.01808941069093746
1622.0,0.017867921513766816
1621.0,0.01775247792049536
1620.0,0.017707219892431715
1619.0,0.01769634283845739
1618.0,0.01775276547983243
1617.0,0.017912794138198494
1616.0,0.018083828045677586
1615.0,0.018132231272707394
1614.0,0.018030350152195243
1613.0,0.017800626333465668
1612.0,0.017461044742037753
1611.0,0.01703503941724561
1610.0,0.016555924027106796
1609.0,0.01605750222331923
1608.0,0.015554852709501694
1607.0,0.015061451522075758
1606.0,0.014595854541803233
1605.0,0.014166379607441649
1604.0,0.013761728766824993
1603.0,0.013367393396918208
1602.0,0.012991792752615064
1601.0,0.012647842872751785
1600.0,0.012332071624575142
1599.0,0.012042619658533855
1598.0,0.01179277951151833
1597.0,0.011589928264406347
1596.0,0.01141922474932899
1595.0,0.01126896567580929
1594.0,0.01114906165907821
1593.0,0.011067099461792452
1592.0,0.011011146245373433
1591.0,0.010974086971120898
1590.0,0.010972298445888784
1589.0,0.01102601699845353
1588.0,0.011145306195298951
1587.0,0.011353286112523887
1586.0,0.011702445569107094
1585.0,0.012240420170723182
1584.0,0.012983744463472816
1583.0,0.01390196412136843
1582.0,0.01491184905670587
1581.0,0.01588754720877082
1580.0,0.016700808804180293
1579.0,0.01723361159230119
1578.0,0.01736747135828633
1577.0,0.0169848225290426
1576.0,0.01614915220742017
1575.0,0.015240029792282124
1574.0,0.014532789250336173
1573.0,0.013975341750355674
1572.0,0.013445504374478785
1571.0,0.012878472455542623
1570.0,0.01229490617948227
1569.0,0.011799817121713116
1568.0,0.011466365696789847
1567.0,0.011242690021484116
1566.0,0.011046371054884697
1565.0,0.010852377634824086
1564.0,0.010691546264016893
1563.0,0.010583505280070968
1562.0,0.010502199002902064
1561.0,0.010405442438195477
1560.0,0.010304040205158571
1559.0,0.010224234511038365
1558.0,0.010160685629830425
1557.0,0.010142307297255262
1556.0,0.010122189348417684
1555.0,0.010050357065156239
1554.0,0.009962185839915693
1553.0,0.009902268085827625
1552.0,0.00986830914624737
1551.0,0.00981915344586907
1550.0,0.009750930619743364
1549.0,0.009682207425799737
1548.0,0.009625038475602673
1547.0,0.009577814303220033
1546.0,0.009543725157089549
1545.0,0.009533056486025298
1544.0,0.00953373082561066
1543.0,0.009516564678442972
1542.0,0.00948145329395278
1541.0,0.009434654677319038
1540.0,0.009340034003473736
1539.0,0.009221836803481261
1538.0,0.009178540621738542
1537.0,0.009198099338727594
1536.0,0.009203153242373368
1535.0,0.009182933001060043
1534.0,0.0091790916031508
1533.0,0.009216547389047846
1532.0,0.009260802235052615
1531.0,0.00928269859681501
1530.0,0.0092891336672666
1529.0,0.009290354204037989
1528.0,0.009280683244519266
1527.0,0.009250120957464672
1526.0,0.009206263347582141
1525.0,0.009167654476558904
1524.0,0.00912883258875243
1523.0,0.00906610859449061
1522.0,0.008978161214109277
1521.0,0.00888818825480159
1520.0,0.00882702897416414
1519.0,0.008795250529020781
1518.0,0.008770274743560671
1517.0,0.008749955598024009
1516.0,0.008745120738332923
1515.0,0.008778940107565705
1514.0,0.00888223071101474
1513.0,0.009080788966518207
1512.0,0.009418990642492311
1511.0,0.009905922617475391
1510.0,0.010562680047070633
1509.0,0.011469491770540177
1508.0,0.012968206903614395
1507.0,0.015139626230362423
1506.0,0.01680859993137349
1505.0,0.0171746193836782
1504.0,0.0166568351136641
1503.0,0.015613356244067081
1502.0,0.014238295642470852
1501.0,0.012736584461588919
1500.0,0.011303773855484395
1499.0,0.010062755745850565
1498.0,0.009030841656597927
1497.0,0.008217534451349404
1496.0,0.0076238015407671215
1495.0,0.007221445212275655
1494.0,0.006970398018548721
1493.0,0.006834608697232248
1492.0,0.006769527363280844
1491.0,0.006733783753025713
1490.0,0.006734136872981822
1489.0,0.006798137894329566
1488.0,0.006885620369872336
1487.0,0.006948011819958173
1486.0,0.007014214205981308
1485.0,0.007124398906458152
1484.0,0.007275688566161887
1483.0,0.0074393949391878145
1482.0,0.007619898472503821
1481.0,0.00783724966893412
1480.0,0.008064977202040396
1479.0,0.008262963232973848
1478.0,0.008447103737314889
1477.0,0.008668993719476714
1476.0,0.00892305752210865
1475.0,0.009154281678363203
1474.0,0.009363437187236132
1473.0,0.009622923018824801
1472.0,0.009922727899249683
1471.0,0.010188842911499378
1470.0,0.0104405475498527
1469.0,0.010732527938014264
1468.0,0.011079054432721119
1467.0,0.01149553231020226
1466.0,0.012049772801085644
1465.0,0.012796762007748633
1464.0,0.013626526182955177
1463.0,0.014373077138222314
1462.0,0.0150356411174251
1461.0,0.015687944379251393
1460.0,0.01636737820527649
1459.0,0.017089953381158388
1458.0,0.017954274249691992
1457.0,0.01892458733140353
1456.0,0.01964233645405061
1455.0,0.01998591838481663
1454.0,0.020136221924720234
1453.0,0.020198148128100214
1452.0,0.02017883872436953
1451.0,0.020078115408861927
1450.0,0.019941251194736394
1449.0,0.019801965141933477
1448.0,0.01964534888317667
1447.0,0.01948050588123239
1446.0,0.019350532285299784
1445.0,0.019267775547392695
1444.0,0.019191199796609677
1443.0,0.019080884423794686
1442.0,0.01894363887581226
1441.0,0.01879169966930294
1440.0,0.018597418364157126
1439.0,0.018296468554130745
1438.0,0.017814193582299444
1437.0,0.017094613680259583
1436.0,0.0162337419418019
1435.0,0.015430949715912787
1434.0,0.014724142403834139
1433.0,0.014020574561163714
1432.0,0.013273288135099997
1431.0,0.012517860580904207
1430.0,0.01182408071555369
1429.0,0.011246474420037213
1428.0,0.010817001489494356
1427.0,0.010537832444307673
1426.0,0.010373937011123593
1425.0,0.010308128364932286
1424.0,0.010358488900848622
1423.0,0.010513661613245804
1422.0,0.010747749549988214
1421.0,0.011116814551327854
1420.0,0.0118177354060123
1419.0,0.013023074734049674
1418.0,0.014640146569651947
1417.0,0.016537268631508072
1416.0,0.018807634727450187
1415.0,0.021618480633667
1414.0,0.025079857070963954
1413.0,0.029184202664197384
1412.0,0.033622503729834816
1411.0,0.03768884325424277
1410.0,0.04063491662643179
1409.0,0.04208511421111384
1408.0,0.04196079432185083
1407.0,0.040342020482646304
1406.0,0.03755680944923671
1405.0,0.034208916992283726
1404.0,0.030984939104082197
1403.0,0.028325049592354337
1402.0,0.026256510309402476
1401.0,0.024546400314953604
1400.0,0.022958994294471985
1399.0,0.021467361265610052
1398.0,0.020217437615476893
1397.0,0.019230572229883947
1396.0,0.018340365394859587
1395.0,0.017430218359717895
1394.0,0.016570370696720075
1393.0,0.0158682823741414
1392.0,0.01530681064967732
1391.0,0.01481660203740429
1390.0,0.014371005400249139
1389.0,0.013974764908117592
1388.0,0.013634068157033058
1387.0,0.013368925493364946
1386.0,0.013213234905628365
1385.0,0.01317684066877603
1384.0,0.01324683294248996
1383.0,0.013419049274405381
1382.0,0.01370435959491962
1381.0,0.014107267306708412
1380.0,0.01461670116672836
1379.0,0.015208236605547598
1378.0,0.015850071195928295
1377.0,0.016525146935243182
1376.0,0.01724268752554634
1375.0,0.018002427026543998
1374.0,0.018733813775839003
1373.0,0.019320704014431672
1372.0,0.019691294588227735
1371.0,0.019822944303573644
1370.0,0.01968326417327839
1369.0,0.019225073651756793
1368.0,0.01844005319548563
1367.0,0.01740175641942358
1366.0,0.016219268509961096
1365.0,0.014953742560546865
1364.0,0.013617630642049877
1363.0,0.01227337120907746
1362.0,0.01108746240881619
1361.0,0.010192057656360661
1360.0,0.009566410087442814
1359.0,0.009123254961550694
1358.0,0.00880999980921484
1357.0,0.008609682914299834
1356.0,0.008507223593758124
1355.0,0.008483909358855624
1354.0,0.008534001181727834
1353.0,0.008663856570419912
1352.0,0.008876264431382052
1351.0,0.009174643641034503
1350.0,0.009568698692740251
1349.0,0.010066905514667988
1348.0,0.010663298492763523
1347.0,0.011343821588692687
1346.0,0.012099476376672236
1345.0,0.012911497865230095
1344.0,0.013730128020256464
1343.0,0.01448957674708879
1342.0,0.015136725653668043
1341.0,0.015616462424080307
1340.0,0.015834197701865897
1339.0,0.015691538817533407
1338.0,0.015185933985670193
1337.0,0.014417354985390068
1336.0,0.013508534777651751
1335.0,0.012570436984951769
1334.0,0.01170315149450512
1333.0,0.010981644747499141
1332.0,0.01044354009407514
1331.0,0.010098780761994962
1330.0,0.009941221947731909
1329.0,0.009951273000706485
1328.0,0.010100097844470884
1327.0,0.010361584031067544
1326.0,0.010719799530452098
1325.0,0.011163581741174817
1324.0,0.011674869291969913
1323.0,0.012229082717412888
1322.0,0.012810393761644718
1321.0,0.013416798228973518
1320.0,0.014044667793369187
1319.0,0.014678526752482237
1318.0,0.015305750639004634
1317.0,0.015931160555939055
1316.0,0.016569235433701028
1315.0,0.017235678925135813
1314.0,0.01795092476318121
1313.0,0.018730955534386348
1312.0,0.01956686169789101
1311.0,0.020434906227122657
1310.0,0.02133041810439194
1309.0,0.02226564674279027
1308.0,0.0232294106257559
1307.0,0.024182544624810426
1306.0,0.02510880012518615
1305.0,0.026044283095996157
1304.0,0.027045999201418078
1303.0,0.028166345914319033
1302.0,0.029467247810534995
1301.0,0.03101280409383357
1300.0,0.032818986203818484
1299.0,0.034839404243336605
1298.0,0.037020299271904644
1297.0,0.03933244576428901
1296.0,0.041730887253882756
1295.0,0.044139288778667074
1294.0,0.046512584616308264
1293.0,0.04886089924385646
1292.0,0.051177350426885385
1291.0,0.05340639038658654
1290.0,0.05551877552076346
1289.0,0.05754363098922267
1288.0,0.05948255923497473
1287.0,0.061272453967816304
1286.0,0.0628793914690919
1285.0,0.06434163927683993
1284.0,0.06567717554913309
1283.0,0.06684239105917299
1282.0,0.06782306716145256
1281.0,0.06867318395641847
1280.0,0.06942648630937194
1279.0,0.0700687947726513
1278.0,0.07063763013687703
1277.0,0.07125118967543421
1276.0,0.072004357789285
1275.0,0.07293333755866996
1274.0,0.07411127018142881
1273.0,0.07567010925790046
1272.0,0.07767639409044506
1271.0,0.0800729905109848
1270.0,0.08279005406541011
1269.0,0.08581366320143985
1268.0,0.08908734549217982
1267.0,0.09246423374651305
1266.0,0.09583465792294257
1265.0,0.09918542864500736
1264.0,0.1024586109754194
1263.0,0.10549174073546462
1262.0,0.10817858418493456
1261.0,0.11053253587003324
1260.0,0.11251753638200111
1259.0,0.11401310891332127
1258.0,0.11503949831536664
1257.0,0.11581588028047059
1256.0,0.11652248187414065
1255.0,0.11720304993115489
1254.0,0.11794345414140432
1253.0,0.11892630909479081
1252.0,0.12023191431452722
1251.0,0.12177694195494039
1250.0,0.12352279586934967
1249.0,0.12555236013368945
1248.0,0.12786654661434094
1247.0,0.130311529463026
1246.0,0.1327985869539609
1245.0,0.13538646836472312
1244.0,0.13804552081406793
1243.0,0.14056449157435533
1242.0,0.1427970376719218
1241.0,0.1447532484697456
1240.0,0.14633480551860387
1239.0,0.14724692157757177
1238.0,0.14729050949216935
1237.0,0.14647224541017143
1236.0,0.144741619169667
1235.0,0.14194145732801908
1234.0,0.13810963480722224
1233.0,0.1335263014328877
1232.0,0.1284162044815917
1231.0,0.12288242815552539
1230.0,0.11711704331805778
1229.0,0.1113902881835909
1228.0,0.10582343439709889
1227.0,0.10038325331331378
1226.0,0.09508424905871225
1225.0,0.09002154534756338
1224.0,0.08522902517531471
1223.0,0.08066729954452147
1222.0,0.0763438191974585
1221.0,0.07231742669981905
1220.0,0.0685949347645818
1219.0,0.06512936905102788
1218.0,0.061910718697971115
1217.0,0.05896803252796526
1216.0,0.05628986956122905
1215.0,0.05382132552509781
1214.0,0.05153438622911631
1213.0,0.0494356897091007
1212.0,0.04751071729217434
1211.0,0.04572046664770784
1210.0,0.044050459794030064
1209.0,0.042509985898146724
1208.0,0.04108604183218183
1207.0,0.039744626062429365
1206.0,0.03847335651307531
1205.0,0.03728030676632388
1204.0,0.036155468935320983
1203.0,0.03507349927810335
1202.0,0.03403000850152463
1201.0,0.033037627877354044
1200.0,0.032090434550017366
1199.0,0.031166713713692888
1198.0,0.030263069579781997
1197.0,0.029393878494809268
1196.0,0.02856051267269255
1195.0,0.027751495939593626
1194.0,0.026970319684595866
1193.0,0.026235602395564318
1192.0,0.02555548049963047
1191.0,0.02492598899828774
1190.0,0.024353148455424332
1189.0,0.02385563964692037
1188.0,0.023447728279021494
1187.0,0.02313830190560068
1186.0,0.022944389858964655
1185.0,0.02288737088731914
1184.0,0.022975180244572603
1183.0,0.023200965131947065
1182.0,0.023555526667728945
1181.0,0.024024335341145023
1180.0,0.024570643684896403
1179.0,0.02513907385618384
1178.0,0.02568098740866746
1177.0,0.026159507695798143
1176.0,0.026527090297519967
1175.0,0.02672265062584361
1174.0,0.02670026306687864
1173.0,0.026440406092620397
1172.0,0.025933174249866457
1171.0,0.02518373742743915
1170.0,0.02424234316172777
1169.0,0.02320144167673905
1168.0,0.02215624522380662
1167.0,0.021181137776407823
1166.0,0.02033132590483505
1165.0,0.019637456978843604
1164.0,0.01909818414106292
1163.0,0.018693930051417985
1162.0,0.01840957585638172
1161.0,0.018237854299680292
1160.0,0.018170350409173988
1159.0,0.018201559918335938
1158.0,0.018339951316928733
1157.0,0.01860196612537371
1156.0,0.018995316921597383
1155.0,0.01951921660909016
1154.0,0.02017882736468622
1153.0,0.020984653621227124
1152.0,0.021934920778746203
1151.0,0.023013333409157895
1150.0,0.024209671953656534
1149.0,0.025527194757146408
1148.0,0.026962751204796062
1147.0,0.028497911238084463
1146.0,0.03011868602159587
1145.0,0.0318209561175072
1144.0,0.03358269977029907
1143.0,0.035355494768260096
1142.0,0.03710004695545733
1141.0,0.03880276615795869
1140.0,0.040443472797868356
1139.0,0.0419867768346822
1138.0,0.043425085761066434
1137.0,0.04478639315871229
1136.0,0.04608122466558755
1135.0,0.04729327566385034
1134.0,0.04844217833379135
1133.0,0.04959841028184634
1132.0,0.05081572776160033
1131.0,0.05210821998822341
1130.0,0.05351259283652629
1129.0,0.05510513148530449
1128.0,0.05692702287742532
1127.0,0.05895542046964426
1126.0,0.06117479538467839
1125.0,0.06360118602099982
1124.0,0.0661945477377776
1123.0,0.06882349925692478
1122.0,0.071363590317554
1121.0,0.07374694347591329
1120.0,0.07586950746438766
1119.0,0.07755946078655476
1118.0,0.07870270026036777
1117.0,0.07929726167566638
1116.0,0.07934817347116083
1115.0,0.07885435177590501
1114.0,0.07795451152443683
1113.0,0.07695089168624235
1112.0,0.07614667014493907
1111.0,0.07576735686504474
1110.0,0.07602423550102022
1109.0,0.07709478379180178
1108.0,0.07899231367631443
1107.0,0.08156208175042097
1106.0,0.08465478805865817
1105.0,0.08821242244191993
1104.0,0.09215021906621347
1103.0,0.09629819335000418
1102.0,0.10054255593981079
1101.0,0.10487903202529447
1100.0,0.10922889698944184
1099.0,0.1133693506261768
1098.0,0.11715851128680362
1097.0,0.12063218672906702
1096.0,0.12376141581554628
1095.0,0.1263567286874373
1094.0,0.1283367666278499
1093.0,0.1298179201026241
1092.0,0.13081912826510678
1091.0,0.13118017882536645
1090.0,0.13087977827278974
1089.0,0.13011737880290927
1088.0,0.12898696421060937
1087.0,0.12739051702131382
1086.0,0.12533834315336181
1085.0,0.12299895143346884
1084.0,0.12038893313940069
1083.0,0.1173323701736667
1082.0,0.11377527391598367
1081.0,0.10985101455680678
1080.0,0.10562405999888029
1079.0,0.10105987011648826
1078.0,0.09625410855047299
1077.0,0.09143310773078353
1076.0,0.08672626420475127
1075.0,0.0821428165775634
1074.0,0.077746115033349
1073.0,0.0736608421934383
1072.0,0.06992257655968985
1071.0,0.06647494681843469
1070.0,0.06330357389168212
1069.0,0.06044660051891429
1068.0,0.0578875526089802
1067.0,0.05555349729467866
1066.0,0.05341571464480006
1065.0,0.051499058817536345
1064.0,0.049797995920931974
1063.0,0.04826931482530245
1062.0,0.04690739729816949
1061.0,0.045752268526252686
1060.0,0.04482103407235472
1059.0,0.04409735149943674
1058.0,0.04358782751140154
1057.0,0.043321969037771614
1056.0,0.04328996122513425
1055.0,0.04344148156939945
1054.0,0.04375851727860049
1053.0,0.044272810161068925
1052.0,0.0449901642018562
1051.0,0.04585250791269659
1050.0,0.04680018503830339
1049.0,0.04780610015469013
1048.0,0.048819660621792556
1047.0,0.049756444229182954
1046.0,0.050572346295474434
1045.0,0.05127350593960378
1044.0,0.051839127777342724
1043.0,0.05221071494152576
1042.0,0.05236928669135434
1041.0,0.05234963529308724
1040.0,0.0521680900391112
1039.0,0.05181275578625101
1038.0,0.051314414846813865
1037.0,0.05074931231126932
1036.0,0.05015982430509986
1035.0,0.04954022164748874
1034.0,0.048903123991408504
1033.0,0.04828761621948146
1032.0,0.047694257278929085
1031.0,0.04708228895497052
1030.0,0.04644371648956128
1029.0,0.04582384812389291
1028.0,0.04527342998464328
1027.0,0.044855932346847836
1026.0,0.044721128733879865
1025.0,0.045122850150699674
1024.0,0.04635421250554453
1023.0,0.0486908986526812
1022.0,0.052356467826916664
1021.0,0.05742766887136388
1020.0,0.06366441949614281
1019.0,0.07038543262199226
1018.0,0.07651618110487465
1017.0,0.08078060368284343
1016.0,0.08202270086559414
1015.0,0.07976247452271934
1014.0,0.07464507711074247
1013.0,0.06811318155224533
1012.0,0.06155014435828721
1011.0,0.05576370924081155
1010.0,0.05100597899224899
1009.0,0.047192312979952945
1008.0,0.04410289463683535
1007.0,0.041536256975688225
1006.0,0.039385770537374624
1005.0,0.03760578222723224
1004.0,0.03613296196204235
1003.0,0.03487211789739991
1002.0,0.03374584399226275
1001.0,0.032718935716694326
1000.0,0.0317743268450669
999.0,0.03089897705551544
998.0,0.030095083525472466
997.0,0.029372969574679934
996.0,0.02872585400239517
995.0,0.028133156736734048
994.0,0.027588665334995457
993.0,0.027102024399105622
992.0,0.02667250774281978
991.0,0.026285503923273522
990.0,0.025935816719600775
989.0,0.02563078499799276
988.0,0.025368990835947267
987.0,0.025138445956003196
986.0,0.024937123772566905
985.0,0.024773230870410293
984.0,0.02464349839552753
983.0,0.02453252755427326
982.0,0.024435364514062276
981.0,0.024359632648440953
980.0,0.024303377579637887
979.0,0.024252226411053256
978.0,0.024200465782190886
977.0,0.024152487547975384
976.0,0.02410050636098446
975.0,0.024023146307227586
974.0,0.02390923393155387
973.0,0.023761178081204776
972.0,0.023572383123081252
971.0,0.02332466035879996
970.0,0.023012429558355408
969.0,0.022648522158154445
968.0,0.022242976621963437
967.0,0.021796766073192714
966.0,0.02131883209571123
965.0,0.020829015054721935
964.0,0.020341193421234884
963.0,0.019860433678966467
962.0,0.01939616680934396
961.0,0.018960416798502164
960.0,0.018553300539403288
959.0,0.018166583915459136
958.0,0.01780085368401656
957.0,0.01746401580657954
956.0,0.01715470802225353
955.0,0.01686327443678049
954.0,0.016588473791184284
953.0,0.016337758271290928
952.0,0.016110984548751907
951.0,0.01589858943244373
950.0,0.015696162755657512
949.0,0.015506934078692261
948.0,0.015329861449763928
947.0,0.015159020441874026
946.0,0.01499504991080829
945.0,0.014844220024895358
944.0,0.014705952794430929
943.0,0.01457328379910805
942.0,0.014445210175329296
941.0,0.014326608179742593
940.0,0.01421651187288235
939.0,0.014108344068862997
938.0,0.014000970052926956
937.0,0.013897588314852334
936.0,0.01379482363073866
935.0,0.013685454064977336
934.0,0.013571088148275793
933.0,0.013459585821820809
932.0,0.013350479466443861
931.0,0.01323518681609039
930.0,0.01311109504355474
929.0,0.012983540146028153
928.0,0.012854648838119827
927.0,0.012722266411941352
926.0,0.012589272221706346
925.0,0.012462119224215917
924.0,0.012340832600123534
923.0,0.012222099770135015
922.0,0.012111464983452606
921.0,0.012021053810531129
920.0,0.011956093324735104
919.0,0.011914617691710691
918.0,0.011899150279567384
917.0,0.011917561050042078
916.0,0.011973813124850251
915.0,0.01206981677264118
914.0,0.012216210208866422
913.0,0.012429398657954942
912.0,0.012716863791302664
911.0,0.013076128208164197
910.0,0.01350799783941493
909.0,0.014017367204277976
908.0,0.014598174823530225
907.0,0.015230650633817656
906.0,0.01589698876061583
905.0,0.016585612264508807
904.0,0.017275368134618597
903.0,0.017931870451923806
902.0,0.018527276105125178
901.0,0.019049120564299176
900.0,0.019485107849688005
899.0,0.019819335370109683
898.0,0.02005102830193552
897.0,0.020197325000796993
896.0,0.020271990378295
895.0,0.02028218616163658
894.0,0.02024926515969013
893.0,0.020208721095853248
892.0,0.020184696371706345
891.0,0.020186193926950598
890.0,0.020230534929844883
889.0,0.020346366092242482
888.0,0.020548763962890206
887.0,0.02083497303189898
886.0,0.02121185829090694
885.0,0.021705976104637894
884.0,0.022340092712940834
883.0,0.0231234461059564
882.0,0.024073967601595893
881.0,0.025222708290376688
880.0,0.02657735321808336
879.0,0.028099706132471126
878.0,0.02973061789043876
877.0,0.03140592222177852
876.0,0.03302284628014369
875.0,0.03442168655445924
874.0,0.03543216195156303
873.0,0.03591660471242756
872.0,0.03577071581381901
871.0,0.034957441496725444
870.0,0.03357309867746839
869.0,0.03182412238673685
868.0,0.02991865907635962
867.0,0.028012205396939695
866.0,0.02622710208928644
865.0,0.02465352169219983
864.0,0.023323237503951058
863.0,0.022220810713492137
862.0,0.021327151473658313
861.0,0.02063146416660957
860.0,0.020108538687407234
859.0,0.019717575283007924
858.0,0.019429365681598924
857.0,0.019231111515711073
856.0,0.019101508147830015
855.0,0.019006092216861288
854.0,0.018923717094744906
853.0,0.01885478137692737
852.0,0.018797704837149206
851.0,0.0187406601640261
850.0,0.018682194210286253
849.0,0.018635614083141894
848.0,0.018605368271231534
847.0,0.01858107837542753
846.0,0.0185601263849998
845.0,0.018552268502387028
844.0,0.018555705563952092
843.0,0.018552000176991417
842.0,0.018530593280171676
841.0,0.01849448375263353
840.0,0.01843550155642184
839.0,0.01832953076196582
838.0,0.018165162377032036
837.0,0.01795472562089222
836.0,0.017710756145335856
835.0,0.017435202908431584
834.0,0.01713777268969305
833.0,0.016840390934293424
832.0,0.01655524419580397
831.0,0.016278839038347037
830.0,0.016012910529402617
829.0,0.0157693011554086
828.0,0.015548553766135884
827.0,0.015338138809189095
826.0,0.015139584305481658
825.0,0.014970778549440521
824.0,0.014833534927155882
823.0,0.01470942312632302
822.0,0.01459481727312471
821.0,0.01450716208936086
820.0,0.014451993524126166
819.0,0.014414842153461189
818.0,0.0143878486041365
817.0,0.014377197614342432
816.0,0.014381258653514258
815.0,0.014385455519388194
814.0,0.014383914227535401
813.0,0.014384183448735932
812.0,0.014384960022794161
811.0,0.01437120912518686
810.0,0.014337934322976281
809.0,0.014297503176353078
808.0,0.014256429098446786
807.0,0.014204729068808875
806.0,0.014134023639955848
805.0,0.014046019414128995
804.0,0.013937764661211577
803.0,0.013800043182918113
802.0,0.013641294301470947
801.0,0.013504622391043473
800.0,0.013465629428247573
799.0,0.013626177217088281
798.0,0.014087959043594923
797.0,0.014882136716098972
796.0,0.015899985281964905
795.0,0.01690764529734793
794.0,0.01765511492663265
793.0,0.017984521491666274
792.0,0.017857467052719764
791.0,0.017334372482906375
790.0,0.016547921817476323
789.0,0.01564932557901256
788.0,0.014742631223347197
787.0,0.013872361117804186
786.0,0.013062495158557914
785.0,0.012337109652322896
784.0,0.01170413768222929
783.0,0.011150079871667693
782.0,0.010660796379874337
781.0,0.010230492541263674
780.0,0.009848948052236657
779.0,0.009500725224573759
778.0,0.009180980854542654
777.0,0.008893828403425934
776.0,0.008632629477518888
775.0,0.008379910806106984
774.0,0.00812852939521759
773.0,0.00788450988027058
772.0,0.007647548754487929
771.0,0.0074082862742671785
770.0,0.00716694887416135
769.0,0.006934787762492478
768.0,0.006713726402155408
767.0,0.0064934842309524055
766.0,0.006271570488455209
765.0,0.006057288294419495
764.0,0.005853780614682686
763.0,0.0056553150301628646
762.0,0.005464236442729007
761.0,0.005290651246716054
760.0,0.0051322477751247625
759.0,0.004974216860678634
758.0,0.004812951806064496
757.0,0.004660687221919719
756.0,0.004523761751250797
755.0,0.00439700949512953
754.0,0.00428353705898663
753.0,0.004198733986744854
752.0,0.004149892821380053
751.0,0.004133571507328753
750.0,0.004159273891259502
749.0,0.004255782740614162
748.0,0.004449297738218248
747.0,0.004757339345283003
746.0,0.005212541079009833
745.0,0.005873595696083747
744.0,0.006807378866977659
743.0,0.008082164840144299
742.0,0.009782749003384824
741.0,0.011998610283525876
740.0,0.01477188794269909
739.0,0.018069814041183255
738.0,0.021816816014196928
737.0,0.025925853491291933
736.0,0.030287943734457375
735.0,0.03478758458900132
734.0,0.039383753180106416
733.0,0.04414937678854296
732.0,0.04920048719352099
731.0,0.05463716627976772
730.0,0.060583295994877995
729.0,0.06719020325668594
728.0,0.07449473132869197
727.0,0.08226119447205764
726.0,0.08991943827284717
725.0,0.09650786157899327
724.0,0.10068558916760643
723.0,0.10116374146800855
722.0,0.09747738205510546
721.0,0.0903734149112062
720.0,0.0814488289396236
719.0,0.07236653157785393
718.0,0.06419958216229577
717.0,0.05732118063398527
716.0,0.05171269404148355
715.0,0.04725411466729566
714.0,0.0438107537086474
713.0,0.04120832431996756
712.0,0.039226269397692866
711.0,0.03764360196204873
710.0,0.03629604744147055
709.0,0.0350914548876809
708.0,0.0339793018815003
707.0,0.032924498662779904
706.0,0.03191011198543884
705.0,0.030935675899813976
704.0,0.029990355315104293
703.0,0.02903598752110232
702.0,0.02802858764847215
701.0,0.02694809421898306
700.0,0.025805077834955753
699.0,0.024639007052601813
698.0,0.023515730338179528
697.0,0.02250509294606942
696.0,0.02164297200914543
695.0,0.02091761715917771
694.0,0.02029739936921149
693.0,0.019760541004723672
692.0,0.019294566199634332
691.0,0.018886349955325794
690.0,0.018526497729152276
689.0,0.01821637681608224
688.0,0.01795963365519279
687.0,0.017753864006866977
686.0,0.017600743635750836
685.0,0.01750916321931243
684.0,0.017476999954329494
683.0,0.017482348555997437
682.0,0.017494729966787553
681.0,0.017481175544531997
680.0,0.01740179192753136
679.0,0.017222229200133023
678.0,0.01693845975083035
677.0,0.01658071346085188
676.0,0.016195063654893465
675.0,0.01581816012654455
674.0,0.015474679113766494
673.0,0.015183568539190898
672.0,0.014955783528751168
671.0,0.014795535712184185
670.0,0.014697097905661448
669.0,0.014630389127340025
668.0,0.01450089654093201
667.0,0.014204979615073249
666.0,0.013829616445821345
665.0,0.01350898276349994
664.0,0.013262295927974208
663.0,0.01306347263732412
662.0,0.01289373177550741
661.0,0.012753797814648658
660.0,0.012644400672694713
659.0,0.012552620729189126
658.0,0.012466037722535885
657.0,0.012384350595475192
656.0,0.012307053921764257
655.0,0.012215331068646015
654.0,0.012089947829914661
653.0,0.01193482920759496
652.0,0.011765390415136887
651.0,0.011589430572300819
650.0,0.011414355336132657
649.0,0.011254639996081537
648.0,0.011116406715781478
647.0,0.010985421246106821
646.0,0.010844279251615508
645.0,0.010693576210449762
644.0,0.010542817297342579
643.0,0.010394292812683083
642.0,0.010248991159274039
641.0,0.010114723948012964
640.0,0.009995581727218228
639.0,0.009885142769243887
638.0,0.009788471325076575
637.0,0.009752229347851818
636.0,0.009859564264420455
635.0,0.010171365907280563
634.0,0.010644800872665967
633.0,0.011109252204327614
632.0,0.011332368536784303
631.0,0.011157163693204523
630.0,0.010644902903650489
629.0,0.010031290041693647
628.0,0.009510891458201809
627.0,0.009125088852129568
626.0,0.008826000073999597
625.0,0.008574584385254658
624.0,0.008355738738401586
623.0,0.008147664263129356
622.0,0.007934090983701103
621.0,0.007731017248686902
620.0,0.007563287287790066
619.0,0.007429506360057184
618.0,0.007316103487731861
617.0,0.00723204512829796
616.0,0.007196305745568329
615.0,0.007197765001901746
614.0,0.007202488300752673
613.0,0.007194890718674114
612.0,0.007178212322291693
611.0,0.007146719098622318
610.0,0.007091589335430389
609.0,0.0070276549969218415
608.0,0.0069890785644872964
607.0,0.007001670840743612
606.0,0.007064208866351097
605.0,0.007148248267647239
604.0,0.007205921427013203
603.0,0.00719634247021015
602.0,0.007126991971456258
601.0,0.00704566722357306
600.0,0.006981405641217003
599.0,0.006922703717168631
598.0,0.006859694949644599
597.0,0.006807948383793977
596.0,0.006767981345049166
595.0,0.0066980290373061975
594.0,0.006559028486921994
593.0,0.0063641174959829586
592.0,0.006157465547641532
591.0,0.005971902446821961
590.0,0.00582120449136456
589.0,0.005708002532321184
588.0,0.005621649885696977
587.0,0.005536550646798172
586.0,0.005431414654956638
585.0,0.005304736858670896
584.0,0.0051566663209601325
583.0,0.0049776080128815705
582.0,0.004773288843832539
581.0,0.004575480255903118
580.0,0.004411253951334878
579.0,0.004277649874827377
578.0,0.004156842540983811
577.0,0.004050703642975682
576.0,0.003982870112856316
575.0,0.003958693402029407
574.0,0.0039401111224001886
573.0,0.003890073554393022
572.0,0.0038155346661051196
571.0,0.0037542914387535993
570.0,0.0037347980163378695
569.0,0.00375649194886297
568.0,0.00380439037705327
567.0,0.003857874177306415
566.0,0.003893721557603362
565.0,0.0038997003703190106
564.0,0.0038796712336344463
563.0,0.003848828746125849
562.0,0.0038302982982018584
561.0,0.003838943068285026
560.0,0.00386753756559597
559.0,0.0039018048989348953
558.0,0.003948788294606934
557.0,0.004029361669307771
556.0,0.004128864300247101
555.0,0.004178883099203407
554.0,0.004129245637432421
553.0,0.004013892720832017
552.0,0.003897508187522849
551.0,0.0038107997191570205
550.0,0.003758181971976717
