cm-1,A
4000.0,0.005882083672916816
3999.0,0.005879040934921882
3998.0,0.005884463534024705
3997.0,0.0058961159829327425
3996.0,0.005909269122137167
3995.0,0.005920727426712886
3994.0,0.005930705215348484
3993.0,0.005940226020182426
3992.0,0.005948408356942952
3991.0,0.005952952665291823
3990.0,0.005952532097505773
3989.0,0.00594778996948271
3988.0,0.0059399454640043335
3987.0,0.005929727780557875
3986.0,0.005918451359317566
3985.0,0.005909283644753762
3984.0,0.0059055005837691564
3983.0,0.005907350441019619
3982.0,0.005910863501283049
3981.0,0.005910406428094098
3980.0,0.005903276208555526
3979.0,0.0058918428430251085
3978.0,0.0058822472482881
3977.0,0.0058799923108574905
3976.0,0.005886111322468326
3975.0,0.005896206571401675
3974.0,0.005903212174865148
3973.0,0.005902994864826354
3972.0,0.0058973495589879936
3971.0,0.005892301864307864
3970.0,0.00589260761567378
3969.0,0.0058971110515152695
3968.0,0.005899230166641768
3967.0,0.005892094092795762
3966.0,0.005874550792977228
3965.0,0.005852899466270023
3964.0,0.005837800320318051
3963.0,0.005837527420316209
3962.0,0.005851196689059035
3961.0,0.005868447170774185
3960.0,0.005876787188595045
3959.0,0.005872010188182929
3958.0,0.005861052650022614
3957.0,0.005855441161657105
3956.0,0.005862261616267252
3955.0,0.0058779430009390345
3954.0,0.005891104705451074
3953.0,0.005890718335242583
3952.0,0.005872130292233404
3951.0,0.005840637984531396
3950.0,0.005810771327333145
3949.0,0.005800026011005881
3948.0,0.005815966916391621
3947.0,0.005850198184583074
3946.0,0.00588775413792194
3945.0,0.005917096575318634
3944.0,0.005933833044166977
3943.0,0.005937437702686277
3942.0,0.005927782845650344
3941.0,0.00590846021254981
3940.0,0.005888451962301463
3939.0,0.005876665299802969
3938.0,0.005877923774727412
3937.0,0.005891802482938582
3936.0,0.005912523983223928
3935.0,0.00593219160680002
3934.0,0.005943683874229779
3933.0,0.005945127161030472
3932.0,0.00594119222076692
3931.0,0.005936934755229993
3930.0,0.005932699997132544
3929.0,0.005924981978163757
3928.0,0.005911815619243362
3927.0,0.005896532177083228
3926.0,0.005885594683869409
3925.0,0.005882979040034903
3924.0,0.005886511969412218
3923.0,0.00589059250758029
3922.0,0.005889343072612487
3921.0,0.005875481481747467
3920.0,0.005848487840286297
3919.0,0.005826757261863975
3918.0,0.00583606469282367
3917.0,0.005880901505152547
3916.0,0.005935224604228714
3915.0,0.005967989223211471
3914.0,0.005968702329828091
3913.0,0.005944924712279471
3912.0,0.005910594342496034
3911.0,0.005879701637927678
3910.0,0.0058591245231006134
3909.0,0.005847038863775531
3908.0,0.005837581786811955
3907.0,0.005828365798680812
3906.0,0.005824190971634877
3905.0,0.0058310675506330865
3904.0,0.00584376107582126
3903.0,0.0058504614700484224
3902.0,0.005853260679041519
3901.0,0.005863246996136864
3900.0,0.005879868576065662
3899.0,0.005891508263961894
3898.0,0.005892318062171091
3897.0,0.0058875323656377085
3896.0,0.0058798607092233985
3895.0,0.005865111353668714
3894.0,0.005845980558046949
3893.0,0.005835711684950707
3892.0,0.005838439175920764
3891.0,0.005837081853428133
3890.0,0.0058209629965233515
3889.0,0.005804032236979956
3888.0,0.005795462498499873
3887.0,0.005791069495521084
3886.0,0.005790129933439135
3885.0,0.005789529673587949
3884.0,0.00578404635270857
3883.0,0.005779277405468746
3882.0,0.005777189225541272
3881.0,0.005775629834330464
3880.0,0.005774723463050255
3879.0,0.005774108853739233
3878.0,0.00578059111955811
3877.0,0.005794449050505284
3876.0,0.005802419456428018
3875.0,0.005797450737154249
3874.0,0.0057768055218335255
3873.0,0.005738373592219059
3872.0,0.005694344099490064
3871.0,0.005665466566445467
3870.0,0.0056596240019705394
3869.0,0.005663284658393798
3868.0,0.0056717447557868205
3867.0,0.005694861063459226
3866.0,0.00572283543042482
3865.0,0.0057402608082226135
3864.0,0.005744252174374894
3863.0,0.0057362435449826365
3862.0,0.0057267701452199315
3861.0,0.005727624187985102
3860.0,0.005737888190126967
3859.0,0.005748232622604144
3858.0,0.00574470594001663
3857.0,0.005718607563055213
3856.0,0.005680393526478505
3855.0,0.005670894573807177
3854.0,0.0057199374465709855
3853.0,0.005751254476153504
3852.0,0.005705691013041879
3851.0,0.005672304371405437
3850.0,0.005696265283247893
3849.0,0.005725937926119275
3848.0,0.005731920727623017
3847.0,0.005726521680702406
3846.0,0.005725001191558659
3845.0,0.005728406772939312
3844.0,0.005729031001672814
3843.0,0.00571939067919806
3842.0,0.00570098025008466
3841.0,0.00568569551340399
3840.0,0.005684359801236525
3839.0,0.005694207939324377
3838.0,0.0056967823584693315
3837.0,0.005680919148312917
3836.0,0.005657459215166892
3835.0,0.005641378718178354
3834.0,0.005633944089324797
3833.0,0.0056305313549784245
3832.0,0.005629726575545709
3831.0,0.0056310258624520165
3830.0,0.005635865623813614
3829.0,0.005647889458635066
3828.0,0.005667459867935829
3827.0,0.005689784726333018
3826.0,0.005705764919536709
3825.0,0.005709863696826467
3824.0,0.005706129130717799
3823.0,0.005701692103185489
3822.0,0.005702786931497567
3821.0,0.0056973905743552215
3820.0,0.0056634788777988965
3819.0,0.00563257029956791
3818.0,0.005640282435663666
3817.0,0.005663733003245821
3816.0,0.005669932132844307
3815.0,0.005655539153473682
3814.0,0.00565103282757582
3813.0,0.0056793832779256466
3812.0,0.005716836586548711
3811.0,0.005730276042191211
3810.0,0.005718855160975566
3809.0,0.005699724991401444
3808.0,0.005683009401307285
3807.0,0.00566340981021939
3806.0,0.005634543078919759
3805.0,0.0056112223899591395
3804.0,0.005606287208270075
3803.0,0.0056075225678202355
3802.0,0.005604610299474074
3801.0,0.005587223801548953
3800.0,0.0055585110818149675
3799.0,0.005555639494053274
3798.0,0.005583165261104019
3797.0,0.005606556064882522
3796.0,0.005611068773211738
3795.0,0.005609457689465361
3794.0,0.0056215351336009875
3793.0,0.005652015622844309
3792.0,0.005686634337345695
3791.0,0.005710356031893466
3790.0,0.005718555263430269
3789.0,0.005713410295788905
3788.0,0.00569995206517392
3787.0,0.0056844104692365515
3786.0,0.005671123124858495
3785.0,0.0056592074426903005
3784.0,0.005646483031220152
3783.0,0.00563621424574548
3782.0,0.005633577633028762
3781.0,0.005635565768933032
3780.0,0.005632149667979237
3779.0,0.005616848176167417
3778.0,0.0055982182419788236
3777.0,0.005596596309534039
3776.0,0.0056173446314730395
3775.0,0.005642746499779331
3774.0,0.005655255814728374
3773.0,0.005653467179294052
3772.0,0.00564535555357941
3771.0,0.005635651905800514
3770.0,0.005621514047184324
3769.0,0.005602689417808298
3768.0,0.0055927925819134324
3767.0,0.005602900778246078
3766.0,0.00562237795599165
3765.0,0.005633767209770586
3764.0,0.005635282505617015
3763.0,0.005639624335666928
3762.0,0.005653149583871456
3761.0,0.00566680601870248
3760.0,0.005667168507305071
3759.0,0.005646388346271358
3758.0,0.005610397432544337
3757.0,0.005575662137696663
3756.0,0.005550032431010929
3755.0,0.00552872777867555
3754.0,0.0055066879055294966
3753.0,0.005490860739625374
3752.0,0.005500042849580851
3751.0,0.005531323842580735
3750.0,0.005549490673982605
3749.0,0.005552260930715803
3748.0,0.005570417606548542
3747.0,0.0056062110100503215
3746.0,0.005636956677392582
3745.0,0.005643766771238693
3744.0,0.00561369560941095
3743.0,0.005572008386320537
3742.0,0.005574920782009464
3741.0,0.005614390561158943
3740.0,0.005633079711615419
3739.0,0.00561241491129201
3738.0,0.00557135325277734
3737.0,0.0055318990131863685
3736.0,0.0055078373664042566
3735.0,0.005502496286014598
3734.0,0.0055089181705855255
3733.0,0.005519653447708252
3732.0,0.005529025880517118
3731.0,0.005538522478537313
3730.0,0.005558287669963009
3729.0,0.005587007594866761
3728.0,0.005607095258177473
3727.0,0.005607867292292756
3726.0,0.005599381920615902
3725.0,0.005598591057444652
3724.0,0.005610149357965782
3723.0,0.005625360252924215
3722.0,0.005639779980444407
3721.0,0.005661003256937591
3720.0,0.005694665459092335
3719.0,0.005731156633264876
3718.0,0.005752422798203073
3717.0,0.005748577650338656
3716.0,0.005723537489461548
3715.0,0.005691245493083906
3714.0,0.005674845133675011
3713.0,0.005709604256523813
3712.0,0.005812968612257327
3711.0,0.005932297509563183
3710.0,0.006003820099659328
3709.0,0.006042471306243278
3708.0,0.006090538633505445
3707.0,0.006158702010576286
3706.0,0.006236980970114046
3705.0,0.006317575440859426
3704.0,0.006403315751660469
3703.0,0.006503859602478799
3702.0,0.006619634936313858
3701.0,0.006731493216675172
3700.0,0.0068241819657304656
3699.0,0.006901727070424278
3698.0,0.006967947392694843
3697.0,0.007017651260768027
3696.0,0.007046000880068314
3695.0,0.007054296500664564
3694.0,0.0070452056224729115
3693.0,0.007015070730469234
3692.0,0.006956980650768739
3691.0,0.006873716815245634
3690.0,0.006782129807800837
3689.0,0.006699900854331791
3688.0,0.006639796384785823
3687.0,0.00661957839623872
3686.0,0.006643745211751283
3685.0,0.006688451110956243
3684.0,0.006727215773128709
3683.0,0.006749235545553241
3682.0,0.006752123535426616
3681.0,0.006733589539588975
3680.0,0.006692142513570567
3679.0,0.006639135181009014
3678.0,0.006605015759496769
3677.0,0.006627818332086808
3676.0,0.006699921687358657
3675.0,0.0067368830267221045
3674.0,0.00671585651482848
3673.0,0.00671432947420362
3672.0,0.006754329024845829
3671.0,0.006807090082537143
3670.0,0.006863977390732003
3669.0,0.006915695490570922
3668.0,0.006972241476591528
3667.0,0.00705511966280982
3666.0,0.007147205977999103
3665.0,0.007222681966033635
3664.0,0.007280935750280345
3663.0,0.007331066664539005
3662.0,0.007374324693921331
3661.0,0.007406177074449431
3660.0,0.007428121553869974
3659.0,0.007453035407892383
3658.0,0.007497723064054894
3657.0,0.0075644327812820576
3656.0,0.007628544500807467
3655.0,0.007668093897359328
3654.0,0.007693732738550554
3653.0,0.007722375110596259
3652.0,0.007765448201975494
3651.0,0.00785200707560241
3650.0,0.007988069912487206
3649.0,0.008088107188506423
3648.0,0.008097692645572764
3647.0,0.008092979486660155
3646.0,0.008138734292457804
3645.0,0.008222591261180837
3644.0,0.00830986915918154
3643.0,0.008379017082362463
3642.0,0.008427592364098357
3641.0,0.008464443624135468
3640.0,0.008500628190655894
3639.0,0.008541594504645962
3638.0,0.008585805722961028
3637.0,0.008631669635753798
3636.0,0.00868182213803147
3635.0,0.008736561680136522
3634.0,0.008788684596680365
3633.0,0.008829989294091229
3632.0,0.008866873635226646
3631.0,0.00892414809775537
3630.0,0.00903736494828215
3629.0,0.009194178603424013
3628.0,0.009315162139983606
3627.0,0.009394591060498095
3626.0,0.00949075496334912
3625.0,0.00960186787482457
3624.0,0.009700090196178436
3623.0,0.00978378354987161
3622.0,0.009867711057242018
3621.0,0.009963021459656227
3620.0,0.010062587968923684
3619.0,0.010139610942775754
3618.0,0.010180019298390831
3617.0,0.010204381418471626
3616.0,0.010234275359558061
3615.0,0.01027271490403275
3614.0,0.010320663924586424
3613.0,0.010381410868403072
3612.0,0.010455775491946479
3611.0,0.010546302143990096
3610.0,0.010654993513104349
3609.0,0.010773098620271078
3608.0,0.010877971019284855
3607.0,0.010949361941988082
3606.0,0.01099096324176317
3605.0,0.011019224502483107
3604.0,0.011042859735909172
3603.0,0.011065793270365241
3602.0,0.011094483278803947
3601.0,0.011135024735482286
3600.0,0.011188475856920371
3599.0,0.011251942410714966
3598.0,0.011320182712987459
3597.0,0.011385271947059872
3596.0,0.011442469096721235
3595.0,0.01149562447622898
3594.0,0.011550107332581857
3593.0,0.011604235117108902
3592.0,0.011653985206896944
3591.0,0.011702884215629818
3590.0,0.011766945999169975
3589.0,0.011867754602343345
3588.0,0.012000206569830172
3587.0,0.012116157040614745
3586.0,0.012187345835707422
3585.0,0.012238168464702152
3584.0,0.01229197122994915
3583.0,0.012348457253121508
3582.0,0.012404412494328033
3581.0,0.012462613271395922
3580.0,0.012527898870187081
3579.0,0.01260341355017437
3578.0,0.012688571589169199
3577.0,0.012777033886295053
3576.0,0.012860281323931404
3575.0,0.01293582318240948
3574.0,0.013008730708897645
3573.0,0.013081998387250899
3572.0,0.01314998614382349
3571.0,0.013206678339385393
3570.0,0.013259505629745993
3569.0,0.013332957858331815
3568.0,0.013448481303173197
3567.0,0.013585021253365769
3566.0,0.013694357004215956
3565.0,0.013768692807428609
3564.0,0.013833490020956128
3563.0,0.013903743029397671
3562.0,0.013984339651673644
3561.0,0.014078958828414702
3560.0,0.014185696221422841
3559.0,0.014293630611041285
3558.0,0.014389182977631797
3557.0,0.014465550469257078
3556.0,0.014529138996476478
3555.0,0.014599175017921375
3554.0,0.014695784697633813
3553.0,0.014818782003769917
3552.0,0.014940922246658873
3551.0,0.015036517777366426
3550.0,0.015108381752022362
3549.0,0.015178026324250856
3548.0,0.01526321561999034
3547.0,0.015366740683915164
3546.0,0.015475973222425195
3545.0,0.015573217075310553
3544.0,0.015650831532587017
3543.0,0.015715376494218752
3542.0,0.015778936147318366
3541.0,0.015849288977726902
3540.0,0.01592690308498424
3539.0,0.016009191858693244
3538.0,0.016095408426186193
3537.0,0.016186045656981316
3536.0,0.01628013562749297
3535.0,0.016377315513831803
3534.0,0.01647950688139663
3533.0,0.01658608342811091
3532.0,0.016690656890031155
3531.0,0.01678736619374346
3530.0,0.01687920946611458
3529.0,0.016973992800124786
3528.0,0.017071837822547623
3527.0,0.01716415978741586
3526.0,0.017246476815864515
3525.0,0.01732457929876695
3524.0,0.01740735180981678
3523.0,0.017498396068034865
3522.0,0.017595214473835948
3521.0,0.017692635635189583
3520.0,0.017784317806706102
3519.0,0.017864889561895983
3518.0,0.01793540493461307
3517.0,0.018005482146107497
3516.0,0.01808639017642349
3515.0,0.01818100154646013
3514.0,0.01828069410562139
3513.0,0.018372539894598933
3512.0,0.01845147380913074
3511.0,0.018526605634415213
3510.0,0.018612688548544618
3509.0,0.018712927621414226
3508.0,0.018815933401132003
3507.0,0.018911268487905756
3506.0,0.01900032364709689
3505.0,0.019090642452850498
3504.0,0.01918429390519016
3503.0,0.01927451181114623
3502.0,0.019355297547673882
3501.0,0.019429951504792042
3500.0,0.01950770084462868
3499.0,0.019598037395502334
3498.0,0.019706322921832796
3497.0,0.019826398228026648
3496.0,0.019940471382967534
3495.0,0.020034209265930386
3494.0,0.020110172009182484
3493.0,0.020181756173827642
3492.0,0.020258330335493582
3491.0,0.020341554849138636
3490.0,0.020431404099390777
3489.0,0.020527140394391
3488.0,0.020622857264747
3487.0,0.020709793046345307
3486.0,0.020785108268296583
3485.0,0.020854069487601948
3484.0,0.020924215249328613
3483.0,0.021000894311647433
3482.0,0.02108576286002928
3481.0,0.021175437599290577
3480.0,0.02126368038635638
3479.0,0.02134827947364321
3478.0,0.02143392120508963
3477.0,0.021525761115442264
3476.0,0.021621651957289958
3475.0,0.021713808702722326
3474.0,0.02179832911372323
3473.0,0.021879470585681536
3472.0,0.02196441733030296
3471.0,0.02205804124493322
3470.0,0.022162391941113635
3469.0,0.022275950149795522
3468.0,0.022391918917595167
3467.0,0.022500840631502095
3466.0,0.022596506934608032
3465.0,0.02267803105591921
3464.0,0.022748109320232104
3463.0,0.022813168454373787
3462.0,0.022883315255496816
3461.0,0.022966783100504668
3460.0,0.023063454112523057
3459.0,0.023165644674294758
3458.0,0.02326345019999722
3457.0,0.023347704151205132
3456.0,0.023412928281972174
3455.0,0.02346374129785702
3454.0,0.02351633271955753
3453.0,0.023586520329899014
3452.0,0.023674986642752117
3451.0,0.02376879160208819
3450.0,0.02385723259007286
3449.0,0.023941034574895836
3448.0,0.024026560538319912
3447.0,0.024115696873473418
3446.0,0.024204155850117405
3445.0,0.02428715302843511
3444.0,0.024362511629401444
3443.0,0.02443129822143001
3442.0,0.02449882922008316
3441.0,0.02457174978311829
3440.0,0.024652520570743658
3439.0,0.024737951242826496
3438.0,0.024821928739390025
3437.0,0.024898574219145434
3436.0,0.024965482527227557
3435.0,0.025026830861774232
3434.0,0.025091240118514057
3433.0,0.025163145841614748
3432.0,0.025237749246706246
3431.0,0.02530764300158678
3430.0,0.025372574441370116
3429.0,0.025438007374178184
3428.0,0.025504950880791
3427.0,0.02556638354952414
3426.0,0.02561544522067403
3425.0,0.025654527244370038
3424.0,0.025695633571854302
3423.0,0.025752612846371262
3422.0,0.025830276311340813
3421.0,0.025918793462772476
3420.0,0.02600210504838613
3419.0,0.02607352994715606
3418.0,0.026138471942327764
3417.0,0.026201741753875612
3416.0,0.02625969871695245
3415.0,0.02630898851578601
3414.0,0.026357715129441014
3413.0,0.026419638543618052
3412.0,0.026497492395299194
3411.0,0.026578147786603102
3410.0,0.026645082484052326
3409.0,0.026692281418219145
3408.0,0.026726230648220394
3407.0,0.0267586858518838
3406.0,0.026799212954247063
3405.0,0.026851686460585382
3404.0,0.026914753424924664
3403.0,0.02698456155139148
3402.0,0.027056283591924652
3401.0,0.027123769618336967
3400.0,0.02718137455787489
3399.0,0.027228761239251078
3398.0,0.027272226718528487
3397.0,0.02731891837444328
3396.0,0.027371089288939165
3395.0,0.027427176668070076
3394.0,0.02748484576011527
3393.0,0.02753949713410344
3392.0,0.02758345561128345
3391.0,0.027612413264663876
3390.0,0.027631744722249378
3389.0,0.02765305550941693
3388.0,0.027685672662899365
3387.0,0.027732508456214264
3386.0,0.02779035698745567
3385.0,0.02785079497577728
3384.0,0.027903648684287415
3383.0,0.027944790289306107
3382.0,0.02797985129051557
3381.0,0.028016887036335307
3380.0,0.02805674064238331
3379.0,0.028094191402236273
3378.0,0.02812770536157651
3377.0,0.028163002607440438
3376.0,0.028205619954299075
3375.0,0.028253540442396172
3374.0,0.028299042768038258
3373.0,0.02833570860335602
3372.0,0.028362815503981
3371.0,0.02838528308607434
3370.0,0.028410506301620543
3369.0,0.028443409048656484
3368.0,0.02848275771586662
3367.0,0.02852222233919148
3366.0,0.028555530354214827
3365.0,0.02858127979245089
3364.0,0.028603999900347513
3363.0,0.028630893727101345
3362.0,0.028665732359128168
3361.0,0.028704632765316405
3360.0,0.028739199503618622
3359.0,0.02876501286654812
3358.0,0.028785716805592346
3357.0,0.028808247556450995
3356.0,0.028836120692512072
3355.0,0.02886790857118859
3354.0,0.028899292320981974
3353.0,0.028924999933846837
3352.0,0.0289419113626428
3351.0,0.02895308883843491
3350.0,0.02896662577332037
3349.0,0.028987851071611986
3348.0,0.02901419489335323
3347.0,0.029039549050161255
3346.0,0.02906102012874189
3345.0,0.029078995895504927
3344.0,0.02909406043325274
3343.0,0.029108149603401752
3342.0,0.02912645919150437
3341.0,0.02915301297145763
3340.0,0.029184034020252273
3339.0,0.029209399668855364
3338.0,0.029222342064416557
3337.0,0.029226490138113136
3336.0,0.029232559117440896
3335.0,0.029248248655797966
3334.0,0.029271371681389772
3333.0,0.02929281451112229
3332.0,0.029306424855143648
3331.0,0.029315471100943128
3330.0,0.02932819448428829
3329.0,0.029348347128968545
3328.0,0.029373461498216104
3327.0,0.029401718195148734
3326.0,0.029434702419605285
3325.0,0.029470922083250597
3324.0,0.02950233414045936
3323.0,0.029522473001180886
3322.0,0.029535060395796082
3321.0,0.029549943546927027
3320.0,0.02957204991234438
3319.0,0.029597660512122197
3318.0,0.029619528183950257
3317.0,0.02963227505335786
3316.0,0.029635049335927387
3315.0,0.029633254359281495
3314.0,0.029636664783993405
3313.0,0.02965162220988138
3312.0,0.02967483219985502
3311.0,0.02969723292013629
3310.0,0.029712902489162397
3309.0,0.029721749092760322
3308.0,0.029726024708026294
3307.0,0.029729233938476898
3306.0,0.029738095072437177
3305.0,0.029759930042520106
3304.0,0.02979480156040838
3303.0,0.02983197237648393
3302.0,0.029857064612249358
3301.0,0.02986396572669593
3300.0,0.02986005811370634
3299.0,0.029860004892822437
3298.0,0.029873337094152755
3297.0,0.029896641859495234
3296.0,0.029917513882951507
3295.0,0.02992549272713147
3294.0,0.029918693894976266
3293.0,0.029902358891225212
3292.0,0.02988468024113612
3291.0,0.02987336792670837
3290.0,0.029871572672968853
3289.0,0.029874903915395025
3288.0,0.02987483848480117
3287.0,0.029866513225882303
3286.0,0.029850930592265727
3285.0,0.02982922012784163
3284.0,0.029799389550917293
3283.0,0.029761360958594916
3282.0,0.029720899106915753
3281.0,0.029683912742950465
3280.0,0.02964906528107881
3279.0,0.029610213261464537
3278.0,0.029564749423574205
3277.0,0.029515565207369473
3276.0,0.029465216471323694
3275.0,0.029412023126808084
3274.0,0.029352760856793534
3273.0,0.02928652706194934
3272.0,0.029214855856607297
3271.0,0.029139524239926693
3270.0,0.029060979730560793
3269.0,0.0289783877427302
3268.0,0.02889162946510669
3267.0,0.028804014176352043
3266.0,0.028722229558142208
3265.0,0.028652228028580567
3264.0,0.0285948863303785
3263.0,0.028545411821849217
3262.0,0.028495852171351865
3261.0,0.0284379884764025
3260.0,0.028365665303220725
3259.0,0.028276387066610165
3258.0,0.02817178043002426
3257.0,0.028057639004462443
3256.0,0.02794372291563746
3255.0,0.027840747948675925
3254.0,0.027753561779623355
3253.0,0.027677151375293974
3252.0,0.02760203529585677
3251.0,0.027523279841262946
3250.0,0.027442232999173397
3249.0,0.027361439992835364
3248.0,0.027281926231426244
3247.0,0.02720460695229997
3246.0,0.027129424772257157
3245.0,0.027052334581291318
3244.0,0.026968179228940584
3243.0,0.026878016128387233
3242.0,0.026788734513639535
3241.0,0.02670398407260131
3240.0,0.026620184154351478
3239.0,0.02653335417240243
3238.0,0.026445433335902338
3237.0,0.026360924252838737
3236.0,0.026281143032156666
3235.0,0.026205161886474027
3234.0,0.026132816650983146
3233.0,0.026062891517058342
3232.0,0.025991166346360558
3231.0,0.025914497723218972
3230.0,0.025835287487449562
3229.0,0.025758594846407443
3228.0,0.02568601922346828
3227.0,0.025614700750257142
3226.0,0.02554106616230537
3225.0,0.025464331155371046
3224.0,0.02538861496449409
3223.0,0.02532216481318278
3222.0,0.02526980666942234
3221.0,0.025223460751480256
3220.0,0.025165196682626817
3219.0,0.0250849780319847
3218.0,0.024991988313851982
3217.0,0.024903502055739553
3216.0,0.02482622791109991
3215.0,0.02475331744968814
3214.0,0.024676141490410093
3213.0,0.024592656692060913
3212.0,0.02450527662652329
3211.0,0.0244176261978313
3210.0,0.024334846671470265
3209.0,0.024261050256996708
3208.0,0.024193387924995615
3207.0,0.024122354778821815
3206.0,0.024041175356624124
3205.0,0.023953580683308058
3204.0,0.02387042123661393
3203.0,0.023798663142019574
3202.0,0.023734377782326163
3201.0,0.023666519750873666
3200.0,0.02358732474135943
3199.0,0.02349888295961033
3198.0,0.023409291999048235
3197.0,0.023323218541378588
3196.0,0.023238463454419336
3195.0,0.023151508203826266
3194.0,0.02306255719860691
3193.0,0.022973738134634096
3192.0,0.022885522989761497
3191.0,0.02279721674419673
3190.0,0.022708990549123804
3189.0,0.022621032469282508
3188.0,0.022531842099609085
3187.0,0.022439400066825932
3186.0,0.022343816853479196
3185.0,0.022248296215542546
3184.0,0.022158292909959423
3183.0,0.02207851502751386
3182.0,0.02200705283397108
3181.0,0.021932204472647057
3180.0,0.021840115956244698
3179.0,0.021728899564056662
3178.0,0.021611921947652178
3177.0,0.021503855456350182
3176.0,0.021406875577654704
3175.0,0.021313750593057897
3174.0,0.021219492228901647
3173.0,0.021124329959349878
3172.0,0.021028275765558376
3171.0,0.020929410749733517
3170.0,0.020828125386059163
3169.0,0.020729007340146387
3168.0,0.02063751296361249
3167.0,0.0205561960115275
3166.0,0.02048272166984284
3165.0,0.020409179832610185
3164.0,0.02032533084375927
3163.0,0.020226283480024865
3162.0,0.020116993155744674
3161.0,0.020007276329874077
3160.0,0.019903447377995386
3159.0,0.019806500750054506
3158.0,0.019715522567962284
3157.0,0.019628905274395297
3156.0,0.019543884136089443
3155.0,0.019458930725623432
3154.0,0.019375634109151777
3153.0,0.019294946774944793
3152.0,0.01921298670208154
3151.0,0.019124469388581453
3150.0,0.019029900457854337
3149.0,0.018935567472525217
3148.0,0.018846438860373193
3147.0,0.018762959780827936
3146.0,0.018684830779065114
3145.0,0.018613178984974332
3144.0,0.01854685098494969
3143.0,0.018479546127237154
3142.0,0.018403739464362544
3141.0,0.01831753331139867
3140.0,0.018226734183138738
3139.0,0.01814003367600906
3138.0,0.018061740552686455
3137.0,0.017988560531039633
3136.0,0.017913447248863065
3135.0,0.01783264923919735
3134.0,0.017748672868753625
3133.0,0.017666546989708903
3132.0,0.01758843936333163
3131.0,0.017512730980930404
3130.0,0.017437157740480075
3129.0,0.017361912576376363
3128.0,0.017290839881064057
3127.0,0.017229286014041514
3126.0,0.017178335969170053
3125.0,0.0171312265294441
3124.0,0.01707849751995344
3123.0,0.017017977806600776
3122.0,0.01695672248852972
3121.0,0.016901266988461262
3120.0,0.01684957944164108
3119.0,0.01679481398842694
3118.0,0.01673331217187222
3117.0,0.016666307644164716
3116.0,0.01659680041487516
3115.0,0.01652838569987301
3114.0,0.016465565263857316
3113.0,0.016411395158163266
3112.0,0.01636524036870581
3111.0,0.01632461678467543
3110.0,0.016287648880749288
3109.0,0.01625261202143704
3108.0,0.016217685400028686
3107.0,0.0161833710605194
3106.0,0.01615249358957171
3105.0,0.016125097414175033
3104.0,0.01609623225310344
3103.0,0.016061371361637624
3102.0,0.016021497296676495
3101.0,0.015980361642522364
3100.0,0.01593960317586106
3099.0,0.015900399145786948
3098.0,0.015866601752752913
3097.0,0.015841152815367
3096.0,0.01582066608260305
3095.0,0.015797248468195694
3094.0,0.015766167666975302
3093.0,0.015729525717259624
3092.0,0.015693422849005195
3091.0,0.015663884038902173
3090.0,0.01564311639427769
3089.0,0.015627120657806477
3088.0,0.015608566302453988
3087.0,0.015584399438014693
3086.0,0.015558513250907431
3085.0,0.01553440885068261
3084.0,0.015508251849248565
3083.0,0.015471774949793014
3082.0,0.015420548268043293
3081.0,0.0153577251167124
3080.0,0.015292381720853336
3079.0,0.015236465801296896
3078.0,0.015198562379004044
3077.0,0.015176180244575012
3076.0,0.01515617774074208
3075.0,0.01512663834607288
3074.0,0.015086903982076103
3073.0,0.01504366800813642
3072.0,0.015001294341676248
3071.0,0.014959491515288454
3070.0,0.014917006331314972
3069.0,0.01487215709173136
3068.0,0.014821999805484098
3067.0,0.014766478633198554
3066.0,0.014711409177273354
3065.0,0.014661922515910971
3064.0,0.014614268755288283
3063.0,0.014560743302406145
3062.0,0.014501739958406507
3061.0,0.014446832016187029
3060.0,0.014403887361185938
3059.0,0.014370943393810886
3058.0,0.014339326969538095
3057.0,0.014300964098280295
3056.0,0.014252474577730368
3055.0,0.014196281710364527
3054.0,0.014138227681204858
3053.0,0.0140814501481557
3052.0,0.014023174887252642
3051.0,0.013959879954020538
3050.0,0.01389438831024923
3049.0,0.013833945315104781
3048.0,0.01378106472186694
3047.0,0.013730961421052613
3046.0,0.013678569928011534
3045.0,0.013624207049062673
3044.0,0.013571309219270048
3043.0,0.01352138826182361
3042.0,0.01347288725260093
3041.0,0.013423158415202013
3040.0,0.013371120859211988
3039.0,0.013319557587883479
3038.0,0.013274206273309037
3037.0,0.013238228831219558
3036.0,0.013207233362893067
3035.0,0.013171475407171254
3034.0,0.01312396001994727
3033.0,0.013065975821009403
3032.0,0.01300581999991833
3031.0,0.012953377917092128
3030.0,0.01291346538073491
3029.0,0.012882243033632751
3028.0,0.012850406633948666
3027.0,0.012810764909165613
3026.0,0.012762510952718367
3025.0,0.012707925297543289
3024.0,0.012648598912842873
3023.0,0.012587232725817613
3022.0,0.012529801048617109
3021.0,0.01248163926118937
3020.0,0.012442701146244448
3019.0,0.012409949281522776
3018.0,0.012382105686813276
3017.0,0.012358141640656375
3016.0,0.012333414138028726
3015.0,0.012302712924792599
3014.0,0.012266760401501847
3013.0,0.012231327256934618
3012.0,0.012199533591941631
3011.0,0.01216876468643379
3010.0,0.01213502114231904
3009.0,0.012097200357213215
3008.0,0.012057305178994072
3007.0,0.01201928931920888
3006.0,0.011987637955200569
3005.0,0.011963810650125153
3004.0,0.011944024660261576
3003.0,0.01192278408246433
3002.0,0.01189810737554628
3001.0,0.01187205944302143
3000.0,0.01184784137242919
2999.0,0.011828840786732313
2998.0,0.011818384783702817
2997.0,0.011817178385495503
2996.0,0.011822605187563109
2995.0,0.011833117201534146
2994.0,0.011851261711845133
2993.0,0.011878561366422206
2992.0,0.011909757253417684
2991.0,0.011937262916772206
2990.0,0.011960652914250334
2989.0,0.01198745631144246
2988.0,0.012024430902002264
2987.0,0.012071940129228532
2986.0,0.01212638160318657
2985.0,0.012184317062293459
2984.0,0.01224381507271587
2983.0,0.012305931712667995
2982.0,0.01237632719380023
2981.0,0.012462160536704871
2980.0,0.012566064822118531
2979.0,0.01268390564412889
2978.0,0.012808278891649228
2977.0,0.012932829458418659
2976.0,0.013054885525312889
2975.0,0.013177323209000802
2974.0,0.013307502145605367
2973.0,0.013452347328440768
2972.0,0.013614665440860894
2971.0,0.013794637057197856
2970.0,0.013991345480572499
2969.0,0.014199515444045515
2968.0,0.014409012803800022
2967.0,0.014613196143122903
2966.0,0.014815805113403704
2965.0,0.015024312783682721
2964.0,0.015238042480436668
2963.0,0.015449369901521971
2962.0,0.01565454490408568
2961.0,0.015855560306903774
2960.0,0.016050455309936863
2959.0,0.01623040255986713
2958.0,0.01639082713562454
2957.0,0.016539538425798916
2956.0,0.016689349541988068
2955.0,0.016846115538900724
2954.0,0.0170085156570428
2953.0,0.01717734914319061
2952.0,0.017362061221712875
2951.0,0.017580277272851014
2950.0,0.017854328997917734
2949.0,0.01820673328202771
2948.0,0.018654660831609153
2947.0,0.019208397396872336
2946.0,0.019875207857855282
2945.0,0.020662964644812952
2944.0,0.021578558179687894
2943.0,0.022624240893007762
2942.0,0.02379951896909796
2941.0,0.025107779140814527
2940.0,0.026558679156384175
2939.0,0.028162394922891982
2938.0,0.029922379772827974
2937.0,0.03183698993326004
2936.0,0.03391005052736067
2935.0,0.03615722798972051
2934.0,0.03859994995769673
2933.0,0.04125543289624966
2932.0,0.04413555906666309
2931.0,0.04725379548478798
2930.0,0.050631294533191394
2929.0,0.054300350950011504
2928.0,0.05830885792450248
2927.0,0.06272041002653024
2926.0,0.06760046068872225
2925.0,0.07299724471141342
2924.0,0.07892697500885859
2923.0,0.08535819625596629
2922.0,0.0921933826974808
2921.0,0.09925655893723925
2920.0,0.10628512074582454
2919.0,0.1128979131809201
2918.0,0.1185574436367893
2917.0,0.12260876383123796
2916.0,0.12445210056336004
2915.0,0.12377516682265433
2914.0,0.12069209816825208
2913.0,0.11572671508929494
2912.0,0.10963134557036994
2911.0,0.10314967719664986
2910.0,0.09684887702423595
2909.0,0.09105911406343697
2908.0,0.08592165367712373
2907.0,0.0814590845476622
2906.0,0.07762891284841045
2905.0,0.07435488016430782
2904.0,0.07154831580148581
2903.0,0.06912431725334234
2902.0,0.06700707109462185
2901.0,0.06513043679055731
2900.0,0.06343500410912295
2899.0,0.06186795073913092
2898.0,0.060385041369371235
2897.0,0.05895387615401013
2896.0,0.05755318812477501
2895.0,0.05616691400901547
2894.0,0.05478084421234572
2893.0,0.053383976609487876
2892.0,0.05197087863830774
2891.0,0.050540678744970334
2890.0,0.04909456853344745
2889.0,0.04763690918887379
2888.0,0.04617533088890618
2887.0,0.04471603327538484
2886.0,0.043259533789495375
2885.0,0.04180315520706044
2884.0,0.040347806108918464
2883.0,0.03890028385450469
2882.0,0.03746860275189172
2881.0,0.03605767136656459
2880.0,0.034670219578850595
2879.0,0.03331232844060065
2878.0,0.03199786466731921
2877.0,0.030748114858536943
2876.0,0.029587092890797063
2875.0,0.02853473247445326
2874.0,0.02760207190566952
2873.0,0.026790764779410635
2872.0,0.026099150564213993
2871.0,0.025530312941842298
2870.0,0.02509573001898773
2869.0,0.024811699158701815
2868.0,0.02469478095478246
2867.0,0.024763831661982677
2866.0,0.02504489548519766
2865.0,0.02557142023520309
2864.0,0.026381246152058044
2863.0,0.027517372383843504
2862.0,0.029033356074652843
2861.0,0.030995992731791572
2860.0,0.03348246889750389
2859.0,0.036577728312821585
2858.0,0.04038041382026236
2857.0,0.04500920870237453
2856.0,0.050607072170601425
2855.0,0.05731733124657506
2854.0,0.06522420090297422
2853.0,0.07424038796461967
2852.0,0.08394332558680642
2851.0,0.09343254278677117
2850.0,0.10134240298552655
2849.0,0.10620528444675897
2848.0,0.10707769164402964
2847.0,0.10400233082926122
2846.0,0.09790716250057739
2845.0,0.09011117158549613
2844.0,0.0818115716011929
2843.0,0.07383125585405119
2842.0,0.06661119267466964
2841.0,0.060315474759659364
2840.0,0.05494376825185432
2839.0,0.05041301319840428
2838.0,0.046601068146872884
2837.0,0.04338275412711841
2836.0,0.04064651072100349
2835.0,0.03829890139703319
2834.0,0.03626515107670979
2833.0,0.03448676013951128
2832.0,0.0329219371300377
2831.0,0.03153877728394137
2830.0,0.030309349167043993
2829.0,0.02920653942623299
2828.0,0.028206514193331183
2827.0,0.027291029860532157
2826.0,0.02644690199064232
2825.0,0.02566493660261901
2824.0,0.024940666945279095
2823.0,0.024273812067534657
2822.0,0.023663425152417955
2821.0,0.02310286556708544
2820.0,0.02258182453342176
2819.0,0.022093043762398477
2818.0,0.02163431011878594
2817.0,0.021203739775939024
2816.0,0.020797037656565095
2815.0,0.020410798977172233
2814.0,0.02004447761180592
2813.0,0.019696469433212207
2812.0,0.01936169688535332
2811.0,0.019036298870032754
2810.0,0.0187220941988812
2809.0,0.018422755920443734
2808.0,0.018138090218563625
2807.0,0.017865838767030864
2806.0,0.01760698559703261
2805.0,0.01736424492005598
2804.0,0.017135817883969406
2803.0,0.016915099793625123
2802.0,0.016696797394149976
2801.0,0.016480449601399008
2800.0,0.016268204516386373
2799.0,0.016062891910490474
2798.0,0.015868564159894266
2797.0,0.015688253803945226
2796.0,0.01551921998278815
2795.0,0.015352675595174139
2794.0,0.015179730155071848
2793.0,0.014997502802088919
2792.0,0.014810170372871889
2791.0,0.01462588428946378
2790.0,0.014451931915100849
2789.0,0.014289263383876366
2788.0,0.014131445756454331
2787.0,0.013971877715121607
2786.0,0.013811894505948665
2785.0,0.01365932270671152
2784.0,0.013518734813316165
2783.0,0.013385697395025882
2782.0,0.013251575596375357
2781.0,0.013111667902506707
2780.0,0.012967531177391745
2779.0,0.012824039813896352
2778.0,0.012686769179822897
2777.0,0.012560553164279585
2776.0,0.012447633434919855
2775.0,0.01234589637958174
2774.0,0.012249316380956972
2773.0,0.012151455734655784
2772.0,0.012049964608645764
2771.0,0.01194799938964691
2770.0,0.011850482320931709
2769.0,0.011758657220843306
2768.0,0.011669262176959846
2767.0,0.011579489569163428
2766.0,0.011491331951999851
2765.0,0.011409966969131085
2764.0,0.011338611120454995
2763.0,0.011275400044337715
2762.0,0.011213771356034264
2761.0,0.011145580550581586
2760.0,0.01106666956970768
2759.0,0.010981365728021294
2758.0,0.010899760944753121
2757.0,0.010828839878986536
2756.0,0.010767716955659614
2755.0,0.010711613078816889
2754.0,0.010657201023402398
2753.0,0.010602418245732211
2752.0,0.010544775196465643
2751.0,0.010483700315887159
2750.0,0.010422758517106615
2749.0,0.010366184370902901
2748.0,0.010314436567684318
2747.0,0.010265809011362741
2746.0,0.010220562710013911
2745.0,0.010179933878622042
2744.0,0.010142444655682124
2743.0,0.010104872819752217
2742.0,0.010066412209271222
2741.0,0.010028942708694345
2740.0,0.009993427335830087
2739.0,0.009958623941175731
2738.0,0.009922926503772958
2737.0,0.009885080171196913
2736.0,0.009843377761880654
2735.0,0.009796465465724038
2734.0,0.009745109953230186
2733.0,0.00969191969206322
2732.0,0.009639805905479564
2731.0,0.009591418387274108
2730.0,0.009548073133483588
2729.0,0.009507466997138612
2728.0,0.009464778282220346
2727.0,0.009418605211654186
2726.0,0.009373761679040686
2725.0,0.009334901898888042
2724.0,0.009298743766275848
2723.0,0.009256039428321174
2722.0,0.009201447912634027
2721.0,0.009139315918085531
2720.0,0.009080170465455489
2719.0,0.009033102475505836
2718.0,0.008999871062546853
2717.0,0.008973601680925454
2716.0,0.008944051266200086
2715.0,0.008906463839363863
2714.0,0.00886504658969462
2713.0,0.0088266465794595
2712.0,0.008792822456476215
2711.0,0.008759757801361429
2710.0,0.00872368537703921
2709.0,0.008683489438762354
2708.0,0.008639800816154874
2707.0,0.008594576710483262
2706.0,0.008550626867042025
2705.0,0.0085091654696595
2704.0,0.00846889257030626
2703.0,0.008429472253556025
2702.0,0.008393900381230647
2701.0,0.008364725310331509
2700.0,0.008339794982155105
2699.0,0.008314760061417978
2698.0,0.00828833311219351
2697.0,0.008262238805230648
2696.0,0.008237432971082474
2695.0,0.008213372902591325
2694.0,0.008189825240197578
2693.0,0.008166606667043002
2692.0,0.008142949791688758
2691.0,0.008119715882808059
2690.0,0.008100358513703845
2689.0,0.00808663057628929
2688.0,0.008074948656886478
2687.0,0.00806050036894114
2686.0,0.00804336997086028
2685.0,0.008026976163902024
2684.0,0.008011916687096193
2683.0,0.007995677547984435
2682.0,0.007978183255605476
2681.0,0.007963470584890634
2680.0,0.007954852675865374
2679.0,0.00795102662138491
2678.0,0.007947545786185615
2677.0,0.007940691546565059
2676.0,0.007930452606103878
2675.0,0.007921043095800967
2674.0,0.0079174409437627
2673.0,0.007919599221484126
2672.0,0.007921681149555368
2671.0,0.007918997635258104
2670.0,0.00791380529092462
2669.0,0.007912017419871901
2668.0,0.00791613274653366
2667.0,0.007924486657518217
2666.0,0.007935451599130545
2665.0,0.007948697437102166
2664.0,0.007963249279551284
2663.0,0.007977491359690498
2662.0,0.007990643696340626
2661.0,0.00800190622009176
2660.0,0.008009181944107411
2659.0,0.008010888744686182
2658.0,0.0080077216131621
2657.0,0.008000450437078865
2656.0,0.00798805434457721
2655.0,0.007970965118722728
2654.0,0.00795395888402517
2653.0,0.00794230527374945
2652.0,0.007936294835686556
2651.0,0.00793265263681194
2650.0,0.007929217553873862
2649.0,0.007924741588156675
2648.0,0.007916931332069428
2647.0,0.00790570781785772
2646.0,0.007896786680705805
2645.0,0.007896278445720637
2644.0,0.007901985580709205
2643.0,0.007905021837983526
2642.0,0.007900395434803701
2641.0,0.007891794283380027
2640.0,0.007886124104543356
2639.0,0.007887672740548038
2638.0,0.007897222421353869
2637.0,0.007911525159401675
2636.0,0.007922112272847726
2635.0,0.00791944102071732
2634.0,0.007901233284792695
2633.0,0.007874402201286938
2632.0,0.007847540412793801
2631.0,0.00782300011043968
2630.0,0.007797058766622078
2629.0,0.0077660688717942445
2628.0,0.007731249950280771
2627.0,0.007697799641748639
2626.0,0.0076688618744244616
2625.0,0.007640744145688809
2624.0,0.007606936261151647
2623.0,0.007567988663577526
2622.0,0.007533361387405335
2621.0,0.007510612361506556
2620.0,0.007495908757769013
2619.0,0.007479315380802921
2618.0,0.007456348552974516
2617.0,0.007429565466418954
2616.0,0.0074014181052619536
2615.0,0.0073712204259591225
2614.0,0.007338940061197166
2613.0,0.007307517084582185
2612.0,0.00728087533155772
2611.0,0.0072615136815778756
2610.0,0.007248340497041523
2609.0,0.007234628380482953
2608.0,0.007211421976249582
2607.0,0.007176554301495724
2606.0,0.0071374211043946255
2605.0,0.007101931402120673
2604.0,0.007070367776535374
2603.0,0.007040079927151921
2602.0,0.007013251710292054
2601.0,0.006993329744568446
2600.0,0.0069771466395758775
2599.0,0.006957605368749227
2598.0,0.006932528909341455
2597.0,0.006905158314399738
2596.0,0.006878054273024823
2595.0,0.00685218021521108
2594.0,0.0068297346418684
2593.0,0.00681162694589395
2592.0,0.006793845313428905
2591.0,0.00677211180688561
2590.0,0.006747849055638589
2589.0,0.006723719972380859
2588.0,0.006696546698017646
2587.0,0.006662459238646787
2586.0,0.006626597750594178
2585.0,0.0065988024837301835
2584.0,0.006580157190572928
2583.0,0.006562233109692356
2582.0,0.006540266002384583
2581.0,0.006519071105268358
2580.0,0.006503709827176445
2579.0,0.006491734294485917
2578.0,0.006478249165296314
2577.0,0.006463652563439822
2576.0,0.006452472322963168
2575.0,0.006446394585619747
2574.0,0.006440647225323217
2573.0,0.0064271601443823745
2572.0,0.006402220497352505
2571.0,0.006371727274514646
2570.0,0.006346130866574225
2569.0,0.0063288101229280495
2568.0,0.006313079604202284
2567.0,0.006292550989583879
2566.0,0.006269298266830138
2565.0,0.006247761586591497
2564.0,0.006226481748512844
2563.0,0.006202449513501947
2562.0,0.006179289836233134
2561.0,0.006163735426056798
2560.0,0.006156231450697742
2559.0,0.006151256807228202
2558.0,0.006145063895832661
2557.0,0.006137644754712067
2556.0,0.006129495416913834
2555.0,0.00612174197255377
2554.0,0.006116892867412475
2553.0,0.006114426150885964
2552.0,0.006108679674854409
2551.0,0.006095973916164838
2550.0,0.006079934497673671
2549.0,0.006064556168335828
2548.0,0.006046753450428136
2547.0,0.006022462775825723
2546.0,0.005995649102625685
2545.0,0.005973416226956278
2544.0,0.00595557485088233
2543.0,0.005936820081398625
2542.0,0.005916533243589797
2541.0,0.00589891358171917
2540.0,0.005885663733368121
2539.0,0.005875702320408041
2538.0,0.005869433548653978
2537.0,0.0058661775515126465
2536.0,0.005860568449542416
2535.0,0.005849376341256592
2534.0,0.005839132924978691
2533.0,0.005838581749674928
2532.0,0.005845304892756307
2531.0,0.005847857411116484
2530.0,0.005839704771262205
2529.0,0.005823727147765756
2528.0,0.0058049502294443825
2527.0,0.005786640323578685
2526.0,0.0057722910627661765
2525.0,0.005763391548684529
2524.0,0.005755253508846527
2523.0,0.005741552765992642
2522.0,0.005722164608521756
2521.0,0.0057008013966560345
2520.0,0.0056775016605425
2519.0,0.005651052433975871
2518.0,0.00562723710018157
2517.0,0.005616049871024589
2516.0,0.0056194026067732696
2515.0,0.005627594173929402
2514.0,0.005628837756085381
2513.0,0.005618158549321909
2512.0,0.005598026408393633
2511.0,0.005574805497912768
2510.0,0.005553849345213388
2509.0,0.005535104097643258
2508.0,0.005515692934671384
2507.0,0.005498423766493276
2506.0,0.005491456732216995
2505.0,0.005494962966734492
2504.0,0.005495467331549512
2503.0,0.00548116289734792
2502.0,0.005456937364010999
2501.0,0.005435822985202899
2500.0,0.005421253157607466
2499.0,0.005407809592218128
2498.0,0.005394875934658725
2497.0,0.005387483643774601
2496.0,0.00538482397935134
2495.0,0.00537899948275851
2494.0,0.005366262796999867
2493.0,0.00535093617856107
2492.0,0.005337103769773319
2491.0,0.005323722809916344
2490.0,0.005309062519520505
2489.0,0.00529400075846427
2488.0,0.0052801983035682554
2487.0,0.005269371548959506
2486.0,0.005263423116962746
2485.0,0.0052610987614951235
2484.0,0.005256687688321859
2483.0,0.005246579273021023
2482.0,0.005234503427368507
2481.0,0.005226080439951069
2480.0,0.0052217660495863715
2479.0,0.005219317332133198
2478.0,0.0052178840459953515
2477.0,0.005214180709735933
2476.0,0.005201043119725711
2475.0,0.005177466751973728
2474.0,0.005154220326183378
2473.0,0.005140585443057823
2472.0,0.0051306362052477945
2471.0,0.005112502219465003
2470.0,0.005086824003608793
2469.0,0.005065218153852843
2468.0,0.005053360841111676
2467.0,0.00504659639035853
2466.0,0.005040930538600867
2465.0,0.005037713746182849
2464.0,0.005037172242557232
2463.0,0.0050363803576759375
2462.0,0.005034476251416182
2461.0,0.005032707676421337
2460.0,0.005029395702190958
2459.0,0.005021376722391396
2458.0,0.005009771249500529
2457.0,0.004998612632307173
2456.0,0.0049895772297120725
2455.0,0.004983410831488629
2454.0,0.0049828243433350594
2453.0,0.004987050226274705
2452.0,0.004987730871875627
2451.0,0.004978761051921051
2450.0,0.004966658352599439
2449.0,0.004961885422479507
2448.0,0.004962892792332562
2447.0,0.00495891543035135
2446.0,0.004946596377484155
2445.0,0.00493325855089267
2444.0,0.004924199097393425
2443.0,0.004916631982328933
2442.0,0.004906879112122094
2441.0,0.004895075952328516
2440.0,0.004881951147976622
2439.0,0.004868111781406164
2438.0,0.004856678492737055
2437.0,0.004850193938786096
2436.0,0.004845603704661589
2435.0,0.004838309357522726
2434.0,0.0048291328416603515
2433.0,0.004820636365932419
2432.0,0.004809669381985635
2431.0,0.0047922734727897254
2430.0,0.0047740588053757265
2429.0,0.004766242651444481
2428.0,0.004771239611954512
2427.0,0.0047800424761154274
2426.0,0.0047838993898388716
2425.0,0.0047814445834728015
2424.0,0.004774738352297551
2423.0,0.004765588388221004
2422.0,0.004756285852033314
2421.0,0.004748117553938384
2420.0,0.004739280396793912
2419.0,0.0047288667490048425
2418.0,0.004720571113861818
2417.0,0.004716778248584817
2416.0,0.004711937920750905
2415.0,0.004698914160410378
2414.0,0.004680216589139937
2413.0,0.004666157350815281
2412.0,0.004662802602141458
2411.0,0.0046671006117039145
2410.0,0.004671701264959725
2409.0,0.004668731156420025
2408.0,0.004651734636443284
2407.0,0.004621353434370217
2406.0,0.004588128745020995
2405.0,0.004563962564085495
2404.0,0.004552135293974901
2403.0,0.004549433961359446
2402.0,0.004553334339808758
2401.0,0.0045607583431958865
2400.0,0.004563877606704941
2399.0,0.004554992626343034
2398.0,0.004534192592031512
2397.0,0.004507306895543236
2396.0,0.004479625573057722
2395.0,0.004456498759383533
2394.0,0.004444492949662148
2393.0,0.004444231879075103
2392.0,0.0044461895465734945
2391.0,0.00444091569416353
2390.0,0.0044296432496495385
2389.0,0.004418067899588086
2388.0,0.004404858235629962
2387.0,0.004385471998164057
2386.0,0.004363343454545767
2385.0,0.004346784483525434
2384.0,0.0043361320360327275
2383.0,0.004323077044476173
2382.0,0.004302128925627939
2381.0,0.004274363254685825
2380.0,0.004240155373498857
2379.0,0.004197681409392318
2378.0,0.004150552264145977
2377.0,0.004107649801416725
2376.0,0.004072774978250028
2375.0,0.0040431190715750276
2374.0,0.0040192024235409275
2373.0,0.004004124533436179
2372.0,0.003992051255010742
2371.0,0.003971765915460435
2370.0,0.003945046628700762
2369.0,0.00392581563378425
2368.0,0.003918804495108013
2367.0,0.003916427312797436
2366.0,0.003917939306193456
2365.0,0.003930506842220376
2364.0,0.0039505732225933515
2363.0,0.003968183158662187
2362.0,0.003989369313775321
2361.0,0.004023715773951756
2360.0,0.004052605838849229
2359.0,0.004051666256347821
2358.0,0.00403174425023624
2357.0,0.004018075882254754
2356.0,0.004010641887906996
2355.0,0.003991920905512621
2354.0,0.003970043348873558
2353.0,0.003970274164965069
2352.0,0.003994098380888321
2351.0,0.004018456224364279
2350.0,0.004022882341025181
2349.0,0.004013170898032795
2348.0,0.004009808617085537
2347.0,0.0040275506927597736
2346.0,0.004066341209101675
2345.0,0.004104150440232111
2344.0,0.00412100569752212
2343.0,0.00411685117890626
2342.0,0.004117976392369977
2341.0,0.0041445356858265375
2340.0,0.004182519232785825
2339.0,0.004207110024966444
2338.0,0.004207416083139809
2337.0,0.00419588753834475
2336.0,0.004185572708842681
2335.0,0.00418350185145417
2334.0,0.0041899024484793965
2333.0,0.00420401129310597
2332.0,0.004218081847823921
2331.0,0.004232291694291852
2330.0,0.004251519567637094
2329.0,0.00428715754385671
2328.0,0.004343016125849249
2327.0,0.004424246541688211
2326.0,0.004535123323929772
2325.0,0.004654994931753517
2324.0,0.004741994718688488
2323.0,0.00476067952443375
2322.0,0.004721815861473831
2321.0,0.004664732690353077
2320.0,0.004613641085075029
2319.0,0.004573191911357585
2318.0,0.004541163696949771
2317.0,0.004519363160870291
2316.0,0.004499733017802952
2315.0,0.004478633666198468
2314.0,0.00446152373254554
2313.0,0.004458317400985441
2312.0,0.004463014342392577
2311.0,0.004465913855559391
2310.0,0.0044673860527210795
2309.0,0.004474834228158479
2308.0,0.004484941099378349
2307.0,0.004490540058209886
2306.0,0.004494425969412501
2305.0,0.004505572539891752
2304.0,0.004522174912761923
2303.0,0.0045354687976114656
2302.0,0.004543051890893979
2301.0,0.004550626667499815
2300.0,0.0045582454991890614
2299.0,0.00456250212084727
2298.0,0.004564215043311836
2297.0,0.004567190697184624
2296.0,0.00456967606298415
2295.0,0.004571804412510179
2294.0,0.004584179912702637
2293.0,0.004615456622217374
2292.0,0.004656004558571547
2291.0,0.004687406991498201
2290.0,0.004706843257706748
2289.0,0.004725113978123559
2288.0,0.004746403395911309
2287.0,0.004764133475296877
2286.0,0.004777001794927188
2285.0,0.00478981005804432
2284.0,0.004799118287957445
2283.0,0.00479431315606337
2282.0,0.004775364755951901
2281.0,0.004754140860880236
2280.0,0.004736346154681786
2279.0,0.004718341770712393
2278.0,0.004702439438644387
2277.0,0.0046980302630545675
2276.0,0.004703320109365666
2275.0,0.004703575896495549
2274.0,0.004691419159616793
2273.0,0.004674504240364004
2272.0,0.004659746458838479
2271.0,0.004644875236028488
2270.0,0.004628502614558106
2269.0,0.004612931278664679
2268.0,0.004594581244275038
2267.0,0.004566738091332834
2266.0,0.0045347485648865905
2265.0,0.004514414173612971
2264.0,0.004512391771895755
2263.0,0.0045210432357450595
2262.0,0.0045327499824207584
2261.0,0.004545450040767099
2260.0,0.004555287915708206
2259.0,0.004557681722772876
2258.0,0.0045556657297323505
2257.0,0.004554604092241237
2256.0,0.004552015489563796
2255.0,0.004546573372603488
2254.0,0.004549729213442853
2253.0,0.004570293846445599
2252.0,0.0045928247725006985
2251.0,0.004593071803281897
2250.0,0.004571703576104631
2249.0,0.004552939271745786
2248.0,0.004551438550075384
2247.0,0.004560209934288297
2246.0,0.004569186181516741
2245.0,0.004575481212831281
2244.0,0.004575592858847069
2243.0,0.004568054201519367
2242.0,0.004564216834477379
2241.0,0.0045777571912666605
2240.0,0.004602365256237168
2239.0,0.004616861501309875
2238.0,0.004610946890952763
2237.0,0.004591111164384021
2236.0,0.00456577396312103
2235.0,0.004542184216169174
2234.0,0.004531740306432934
2233.0,0.004538064300767713
2232.0,0.004544557441615478
2231.0,0.004534070178843418
2230.0,0.0045148867003707085
2229.0,0.004505688879023986
2228.0,0.004503736249979205
2227.0,0.004492487173232268
2226.0,0.004473557568568094
2225.0,0.004463951982021545
2224.0,0.004465687625549426
2223.0,0.0044645420177061535
2222.0,0.0044551145130999675
2221.0,0.004442453098133869
2220.0,0.0044252046206013015
2219.0,0.004403858554293456
2218.0,0.004398863065993328
2217.0,0.004429782651970958
2216.0,0.004479852551226507
2215.0,0.0045116260487158485
2214.0,0.004513610273265915
2213.0,0.004504436416877662
2212.0,0.004495552250280159
2211.0,0.004481953805704788
2210.0,0.004467240941692605
2209.0,0.004465246203018845
2208.0,0.004475346008485268
2207.0,0.00448338983273188
2206.0,0.004487241744709337
2205.0,0.004496258369442764
2204.0,0.004509062810090066
2203.0,0.004516861869066184
2202.0,0.004521913257382468
2201.0,0.004526704027302473
2200.0,0.004516556139556106
2199.0,0.00448368669367729
2198.0,0.004456198378120488
2197.0,0.004466934571057471
2196.0,0.0045016753643113035
2195.0,0.0045168467378918446
2194.0,0.004501424730881147
2193.0,0.004482454298729379
2192.0,0.00447628501959543
2191.0,0.004475581994457862
2190.0,0.0044807428049027185
2189.0,0.0045004500733984805
2188.0,0.004521737488962639
2187.0,0.004522373973346552
2186.0,0.004512893779120448
2185.0,0.004523580677482535
2184.0,0.004547549809793211
2183.0,0.004541342471534172
2182.0,0.004488080512193517
2181.0,0.004419007366015663
2180.0,0.004368111452767973
2179.0,0.0043446926339110355
2178.0,0.004351525109275676
2177.0,0.004384486680114133
2176.0,0.004412461865593783
2175.0,0.004403419733897705
2174.0,0.004375486057662459
2173.0,0.00438147069851355
2172.0,0.0044404329548262565
2171.0,0.004524308187033238
2170.0,0.004608836369395352
2169.0,0.004693505557171962
2168.0,0.004770075993030138
2167.0,0.004814965955838507
2166.0,0.004825615960814377
2165.0,0.004831975038656307
2164.0,0.004861063118911794
2163.0,0.004912249473392379
2162.0,0.004957134347357563
2161.0,0.004930004124456792
2160.0,0.00474338652883609
2159.0,0.004384492631366458
2158.0,0.0039880707289108
2157.0,0.0037315647603467436
2156.0,0.0036645312696348036
2155.0,0.0037081541759637466
2154.0,0.003778699382647437
2153.0,0.00383909407846608
2152.0,0.003872766923193151
2151.0,0.003877881329935157
2150.0,0.003878572557242483
2149.0,0.0038930485194890213
2148.0,0.003897664025549784
2147.0,0.0038667988151761677
2146.0,0.003831173735860286
2145.0,0.003843166535574046
2144.0,0.0038952397582304355
2143.0,0.003927969120896341
2142.0,0.003914232602759753
2141.0,0.0038836529084916686
2140.0,0.003865243779030718
2139.0,0.0038533350940643156
2138.0,0.0038328450048857573
2137.0,0.0037957567109522653
2136.0,0.0037307468461946556
2135.0,0.0036368964744197285
2134.0,0.0035502451469867236
2133.0,0.0035155411324147
2132.0,0.0035297465392255824
2131.0,0.0035488376088009224
2130.0,0.003550942864560043
2129.0,0.003555871249415886
2128.0,0.0035825916352906495
2127.0,0.003621352594631345
2126.0,0.0036550503120135274
2125.0,0.0036796448769884004
2124.0,0.0036952600293447143
2123.0,0.003701277390988734
2122.0,0.0037071897167576273
2121.0,0.003727964819715292
2120.0,0.0037621731609031026
2119.0,0.003793192370051671
2118.0,0.0038141868494737507
2117.0,0.0038339074029024307
2116.0,0.0038564800028237636
2115.0,0.0038753040646521703
2114.0,0.0038883886004895843
2113.0,0.003900315705356235
2112.0,0.00390745231517069
2111.0,0.0039008606445876414
2110.0,0.003885616394424894
2109.0,0.0038782185348910647
2108.0,0.0038827172999159106
2107.0,0.0038869133639598025
2106.0,0.00388167507700597
2105.0,0.0038670463241462405
2104.0,0.003843109801363059
2103.0,0.003815254546574313
2102.0,0.0038033547168122035
2101.0,0.0038223491867845584
2100.0,0.003855816897988333
2099.0,0.003871727661716513
2098.0,0.003859761166234062
2097.0,0.003831133257724128
2096.0,0.0037895299149263762
2095.0,0.0037322753529668343
2094.0,0.0036767937263046746
2093.0,0.003653110561032575
2092.0,0.0036677486600876726
2091.0,0.003700611775060049
2090.0,0.00373569892255428
2089.0,0.0037707198032742033
2088.0,0.003799405540810496
2087.0,0.003812438337985105
2086.0,0.0038165668403640613
2085.0,0.0038284024144713525
2084.0,0.0038487030269886585
2083.0,0.0038649967447964067
2082.0,0.003877381556468164
2081.0,0.003896351492002575
2080.0,0.0039171871385980115
2079.0,0.003923454516082232
2078.0,0.00391559019002826
2077.0,0.003909400870078853
2076.0,0.003907940478826501
2075.0,0.0039015146744916197
2074.0,0.0038933075401406435
2073.0,0.0038950066892200885
2072.0,0.003898984092271484
2071.0,0.0038859240064422072
2070.0,0.0038584274272022018
2069.0,0.0038373278512082954
2068.0,0.003826881503375184
2067.0,0.00381495876389554
2066.0,0.0038045515984861424
2065.0,0.003811131536922256
2064.0,0.0038307301925845976
2063.0,0.0038460846293404778
2062.0,0.003858917267603585
2061.0,0.003879105072709778
2060.0,0.0038937156539772264
2059.0,0.00388632441173051
2058.0,0.003876685113297252
2057.0,0.003895550688412132
2056.0,0.003929535791754464
2055.0,0.003942791905006275
2054.0,0.003949525659564136
2053.0,0.0040030530645950866
2052.0,0.0041065497636103565
2051.0,0.004194053645841503
2050.0,0.0042144959176402584
2049.0,0.0041865439256564005
2048.0,0.004150050312308423
2047.0,0.004111355205063831
2046.0,0.00406848023099024
2045.0,0.004041341751223455
2044.0,0.004040398209878255
2043.0,0.004046825458431921
2042.0,0.0040507659376690505
2041.0,0.004070051348267879
2040.0,0.004110179531215166
2039.0,0.004148882249629557
2038.0,0.004178259250427124
2037.0,0.004213886167541096
2036.0,0.004248526659550412
2035.0,0.00424625138511525
2034.0,0.004202168773983539
2033.0,0.004159417229547975
2032.0,0.004144106963223506
2031.0,0.00413338245297669
2030.0,0.0041078811590829845
2029.0,0.0040828930738212674
2028.0,0.004068244908117458
2027.0,0.004047260769959726
2026.0,0.004017028420959147
2025.0,0.004003079024362041
2024.0,0.004014447854824686
2023.0,0.004027996887145416
2022.0,0.004030863228930083
2021.0,0.004036087492522878
2020.0,0.004045927726426471
2019.0,0.0040428458852199214
2018.0,0.004028339967613533
2017.0,0.0040283097180467305
2016.0,0.004045093246272278
2015.0,0.004049111387996505
2014.0,0.004027130812441824
2013.0,0.003994653204997196
2012.0,0.00396104713457483
2011.0,0.003921896882521359
2010.0,0.0038864022287133522
2009.0,0.0038708323793284712
2008.0,0.003861040962132898
2007.0,0.003823656183636968
2006.0,0.0037570831923074972
2005.0,0.003690939475496762
2004.0,0.0036392440474573087
2003.0,0.0035969243712269234
2002.0,0.003573575379207007
2001.0,0.0035863720055417615
2000.0,0.0036245960398182675
1999.0,0.0036617797185660526
1998.0,0.0036957125415263844
1997.0,0.003734359112945378
1996.0,0.003757998099247051
1995.0,0.0037424203335337707
1994.0,0.0037088897164304995
1993.0,0.0037057764234706228
1992.0,0.003738231382265659
1991.0,0.0037671117852119407
1990.0,0.0037832221645003237
1989.0,0.00381174890966575
1988.0,0.0038502853511030266
1987.0,0.0038684844370024157
1986.0,0.0038660949084462467
1985.0,0.0038732828272285045
1984.0,0.0038941722541434975
1983.0,0.003908438279669191
1982.0,0.00392830972108619
1981.0,0.003989368901421764
1980.0,0.00407158198200646
1979.0,0.004091176325375486
1978.0,0.003999958635557219
1977.0,0.003844571970844073
1976.0,0.003701738048733752
1975.0,0.0036072050748702867
1974.0,0.003568142907083185
1973.0,0.0035777574726533114
1972.0,0.0035982984161593984
1971.0,0.0035871836860651594
1970.0,0.0035508332635370856
1969.0,0.003528757077918547
1968.0,0.0035264735161203444
1967.0,0.003512097638832166
1966.0,0.0034810561019144575
1965.0,0.0034596360150244893
1964.0,0.0034463324531054168
1963.0,0.003416728480964375
1962.0,0.0033755152592538982
1961.0,0.003347573390334012
1960.0,0.003323122949994024
1959.0,0.003272375141478853
1958.0,0.0032115312491412884
1957.0,0.003191519028746707
1956.0,0.003221763967578133
1955.0,0.0032605013468196653
1954.0,0.0032812463046321353
1953.0,0.00329533201451064
1952.0,0.003307616685241943
1951.0,0.003305464577220288
1950.0,0.0032952148677735165
1949.0,0.003300044883239472
1948.0,0.0033134502727107033
1947.0,0.003300885634525253
1946.0,0.00325696138272979
1945.0,0.0032174317039925793
1944.0,0.003205885013784232
1943.0,0.0032090768870965333
1942.0,0.003214219268671275
1941.0,0.0032271075733832865
1940.0,0.0032403874649701747
1939.0,0.00323382698094171
1938.0,0.003209686236260751
1937.0,0.003191276353757466
1936.0,0.0031826181865414736
1935.0,0.003163645132543889
1934.0,0.0031319500579258747
1933.0,0.0031115802604881728
1932.0,0.0031121152157739286
1931.0,0.0031151868188525147
1930.0,0.003108239867290335
1929.0,0.0030996903936595
1928.0,0.0030938666186823365
1927.0,0.0030830136636649246
1926.0,0.003069794313254821
1925.0,0.003067545032475316
1924.0,0.003075749345265443
1923.0,0.003077408184110745
1922.0,0.0030715921640748823
1921.0,0.003074955811819225
1920.0,0.0030869791442939445
1919.0,0.0030899935510596355
1918.0,0.003082277898241583
1917.0,0.0030817389278327808
1916.0,0.0030894958518471105
1915.0,0.0030888881596712555
1914.0,0.003079855803319315
1913.0,0.0030794713929663915
1912.0,0.0030910296596500073
1911.0,0.003098731160499729
1910.0,0.003097416904554424
1909.0,0.0031005826706839894
1908.0,0.003110576973153001
1907.0,0.0031135442474588154
1906.0,0.0031086448772946348
1905.0,0.003109490109414854
1904.0,0.003117998618678717
1903.0,0.0031211750082521844
1902.0,0.003118111515623843
1901.0,0.003122914535776928
1900.0,0.003137120982666097
1899.0,0.0031469195696245734
1898.0,0.0031502834976969915
1897.0,0.00315887536685161
1896.0,0.003171577626893528
1895.0,0.003169982763152812
1894.0,0.0031501809469606794
1893.0,0.0031289060670404746
1892.0,0.0031120677366695405
1891.0,0.003087873339430353
1890.0,0.0030528947353044883
1889.0,0.003022199289399514
1888.0,0.003003765462804411
1887.0,0.0029908335450981715
1886.0,0.002983276013561441
1885.0,0.0029866571209258893
1884.0,0.0029913697645176512
1883.0,0.0029800957913381273
1882.0,0.002956244931465143
1881.0,0.002938983847020049
1880.0,0.002930533675856739
1879.0,0.0029172587252262365
1878.0,0.002901633059748477
1877.0,0.0029014538155880468
1876.0,0.002916317641998665
1875.0,0.0029251403711827223
1874.0,0.002918262107214549
1873.0,0.0029052081356308267
1872.0,0.0028897340752444423
1871.0,0.0028643099348791548
1870.0,0.0028346450678490838
1869.0,0.0028233677545688994
1868.0,0.0028283433504480322
1867.0,0.0028235824781966713
1866.0,0.0028100771313421345
1865.0,0.0028071792977281034
1864.0,0.002815469731782204
1863.0,0.0028206019733289234
1862.0,0.002822093297550417
1861.0,0.002833572722950726
1860.0,0.0028519067902836566
1859.0,0.002855562437281311
1858.0,0.0028397207199729697
1857.0,0.002822497762859384
1856.0,0.0028120076818257595
1855.0,0.002796605367817597
1854.0,0.002773537686928785
1853.0,0.002758083434998784
1852.0,0.002756241995170653
1851.0,0.002755090890120588
1850.0,0.00275032635920709
1849.0,0.002751699845757279
1848.0,0.002757422450045788
1847.0,0.0027486938730668705
1846.0,0.002721197993832699
1845.0,0.002698265045931736
1844.0,0.002695881253713239
1843.0,0.0026999837053878904
1842.0,0.002702954992196023
1841.0,0.002712177079704011
1840.0,0.0027247307436516544
1839.0,0.0027274692953397537
1838.0,0.0027186185299487497
1837.0,0.0027122999520389057
1836.0,0.0027145697182273
1835.0,0.002714389118454537
1834.0,0.002706863664995996
1833.0,0.0026997803197696454
1832.0,0.002695385917497924
1831.0,0.0026861232957515833
1830.0,0.0026742292639647287
1829.0,0.0026743494011577723
1828.0,0.0026858468090331226
1827.0,0.0026928918831345557
1826.0,0.0026944481060590993
1825.0,0.002705124631546293
1824.0,0.0027238654794991416
1823.0,0.002734115197224876
1822.0,0.002735691426459187
1821.0,0.0027400597951988256
1820.0,0.002742362259107955
1819.0,0.002724778924725115
1818.0,0.0026892715888650344
1817.0,0.0026625678292964503
1816.0,0.002659297684222978
1815.0,0.002664920637612625
1814.0,0.0026657620767759475
1813.0,0.0026654695698117453
1812.0,0.002666476463450984
1811.0,0.0026610095809897895
1810.0,0.0026507292340921195
1809.0,0.0026517696869626903
1808.0,0.002666246655530229
1807.0,0.002677574257505478
1806.0,0.0026781382786274653
1805.0,0.0026767071465295554
1804.0,0.002677511873795456
1803.0,0.002672340073328954
1802.0,0.002660646392770475
1801.0,0.0026568450073233773
1800.0,0.0026629385546064243
1799.0,0.002665361667282174
1798.0,0.002663545020133325
1797.0,0.00266993577751693
1796.0,0.002681436718028463
1795.0,0.002678631535774995
1794.0,0.0026566583257937237
1793.0,0.0026374934271079582
1792.0,0.002634930278570577
1791.0,0.0026343130659804473
1790.0,0.002631568802698827
1789.0,0.0026375471164156736
1788.0,0.0026489672122852782
1787.0,0.0026525792474631936
1786.0,0.0026474317156907415
1785.0,0.0026473022892369836
1784.0,0.0026538632531173836
1783.0,0.002650916915036998
1782.0,0.0026363793213099343
1781.0,0.0026295017437811975
1780.0,0.0026355528634121593
1779.0,0.0026377161910990147
1778.0,0.0026293160875924247
1777.0,0.002622794406856861
1776.0,0.0026204464021598213
1775.0,0.0026072709519342914
1774.0,0.0025816898857719092
1773.0,0.0025730202728913285
1772.0,0.0025938611607237575
1771.0,0.0026090015864430665
1770.0,0.002609969184254818
1769.0,0.002624546011518122
1768.0,0.002661983466731986
1767.0,0.002700097084043509
1766.0,0.0027221475098623054
1765.0,0.002737581638656212
1764.0,0.002758180045495081
1763.0,0.0027827328494745246
1762.0,0.0028099680118464677
1761.0,0.002849245138495517
1760.0,0.0029000997644879336
1759.0,0.0029511518621384504
1758.0,0.0030082753614284557
1757.0,0.003093908036241836
1756.0,0.0031968510587947517
1755.0,0.0032785551908379442
1754.0,0.0033372957377553357
1753.0,0.0034109130888040676
1752.0,0.0035284951938610643
1751.0,0.0036672699047368544
1750.0,0.003788566989764052
1749.0,0.003907948981968142
1748.0,0.004040982063657429
1747.0,0.004153811761834651
1746.0,0.004232147589688075
1745.0,0.0043018898378060465
1744.0,0.0043749202233963
1743.0,0.0044301895162631305
1742.0,0.0044614170563665335
1741.0,0.004502435104426712
1740.0,0.004571103145244099
1739.0,0.004628923936911873
1738.0,0.004646277819630062
1737.0,0.0046455007934324555
1736.0,0.004652304572080693
1735.0,0.00466354699546326
1734.0,0.004661520711003198
1733.0,0.004663074596452915
1732.0,0.004685054419977073
1731.0,0.004704744792647034
1730.0,0.00471689346721638
1729.0,0.004740971287071193
1728.0,0.004775623735870768
1727.0,0.004799153203979472
1726.0,0.0048101918563148065
1725.0,0.0048298361680921085
1724.0,0.004863313307154109
1723.0,0.004886613387649046
1722.0,0.004886415250743683
1721.0,0.004882003275919799
1720.0,0.004891868217901554
1719.0,0.004911142487718413
1718.0,0.004934595928655111
1717.0,0.004990080828893026
1716.0,0.005079388790137795
1715.0,0.005153851423779411
1714.0,0.005206172250876947
1713.0,0.005269900324168838
1712.0,0.00535174204432718
1711.0,0.0054271310556300275
1710.0,0.0054859318787721266
1709.0,0.005548092747894176
1708.0,0.005629162844850029
1707.0,0.005724397909714057
1706.0,0.005835620007320807
1705.0,0.0059692343694051474
1704.0,0.006097671615102967
1703.0,0.006191836726524752
1702.0,0.0062866445501865344
1701.0,0.0065033246043502
1700.0,0.00685578815710274
1699.0,0.007136415694465969
1698.0,0.007322012761323115
1697.0,0.007588431950585049
1696.0,0.007989716139652134
1695.0,0.008352288463158547
1694.0,0.008583786226943025
1693.0,0.008768211127490393
1692.0,0.008978773956770084
1691.0,0.009233233826418137
1690.0,0.009518356722125016
1689.0,0.009809119534740606
1688.0,0.010062509342555651
1687.0,0.010256082603806874
1686.0,0.010437679615600992
1685.0,0.010778288375199166
1684.0,0.011310510586316495
1683.0,0.011710922215053508
1682.0,0.01195332597143486
1681.0,0.01221688565798491
1680.0,0.012528967830878913
1679.0,0.01281630737909807
1678.0,0.013042280019898262
1677.0,0.013276631824798634
1676.0,0.01361024704688075
1675.0,0.014002092351134351
1674.0,0.014316655263757076
1673.0,0.014548745214175427
1672.0,0.014784656498004943
1671.0,0.015084123743960336
1670.0,0.015459763152029519
1669.0,0.015861138811795218
1668.0,0.016211366685598944
1667.0,0.016481763228083826
1666.0,0.016700370767893512
1665.0,0.016928919942617273
1664.0,0.01722878935386034
1663.0,0.017591112113928314
1662.0,0.01792422746904354
1661.0,0.018188749311819807
1660.0,0.01841558213231756
1659.0,0.018610536822275616
1658.0,0.01875814839144062
1657.0,0.018862313737852198
1656.0,0.01894596236895798
1655.0,0.019031652500382242
1654.0,0.019133692778293396
1653.0,0.01921060904331864
1652.0,0.019233280419860607
1651.0,0.019243529427167203
1650.0,0.01923174139072707
1649.0,0.019212075010262307
1648.0,0.019213145978272003
1647.0,0.01919060867841738
1646.0,0.01910684960331824
1645.0,0.019039625216918897
1644.0,0.01901878540961176
1643.0,0.018996120174872778
1642.0,0.018944364133493156
1641.0,0.01887349204095285
1640.0,0.01879760848111143
1639.0,0.018709297411462013
1638.0,0.018590488177501193
1637.0,0.018424971797073073
1636.0,0.018200026703625447
1635.0,0.017956493383172848
1634.0,0.01777152528502073
1633.0,0.01764662650901551
1632.0,0.017535652537188813
1631.0,0.017397482539727383
1630.0,0.0172035556001436
1629.0,0.01694577093685455
1628.0,0.01664620062094814
1627.0,0.016348729484488372
1626.0,0.01607860345934754
1625.0,0.015816860751705557
1624.0,0.015513546280178323
1623.0,0.015155040229012609
1622.0,0.014817349283261907
1621.0,0.01456372652080481
1620.0,0.014366979958283718
1619.0,0.01416800956852012
1618.0,0.013906706591987786
1617.0,0.013548340475674638
1616.0,0.013164210155582426
1615.0,0.01286141595983783
1614.0,0.012639367560457745
1613.0,0.012442643208973418
1612.0,0.012233732317446367
1611.0,0.012000904731503712
1610.0,0.011755132090764564
1609.0,0.011511460478512633
1608.0,0.011276686915550371
1607.0,0.011057691447830297
1606.0,0.010862351778147691
1605.0,0.01068406896625392
1604.0,0.010503422670560548
1603.0,0.010314030719200857
1602.0,0.010130523608881612
1601.0,0.009966394378740109
1600.0,0.00982019819462061
1599.0,0.009687778710561553
1598.0,0.00956784405672119
1597.0,0.009452245894267056
1596.0,0.009329542399939106
1595.0,0.00920339223806398
1594.0,0.009090686514913288
1593.0,0.008995949835824097
1592.0,0.008907895709019521
1591.0,0.008822563260539314
1590.0,0.008747240182709705
1589.0,0.008681059662206371
1588.0,0.008613932136807823
1587.0,0.008548132567297206
1586.0,0.008498243996988144
1585.0,0.008466803097336295
1584.0,0.008439265285445469
1583.0,0.008409201188350094
1582.0,0.008387819813111805
1581.0,0.008377702188872113
1580.0,0.008365001162422569
1579.0,0.008344515049384695
1578.0,0.008334426480680333
1577.0,0.008353597726399473
1576.0,0.008384220863329173
1575.0,0.008404586156067888
1574.0,0.008427596449712223
1573.0,0.00845388843519182
1572.0,0.00847255431283218
1571.0,0.008492030204421165
1570.0,0.008537191610072756
1569.0,0.008603903817912067
1568.0,0.008663270334097924
1567.0,0.008719883063228974
1566.0,0.008799809221786562
1565.0,0.008903787606210078
1564.0,0.009000884398365931
1563.0,0.00905543030384101
1562.0,0.009079606963239178
1561.0,0.009096964597758729
1560.0,0.00918405978968749
1559.0,0.009404327237280772
1558.0,0.009588673980725123
1557.0,0.00971430468576826
1556.0,0.009857913546184852
1555.0,0.01000893031901575
1554.0,0.010155818647746635
1553.0,0.010278827323991003
1552.0,0.010369228874324062
1551.0,0.010440619565222256
1550.0,0.010508847328355829
1549.0,0.010568034601335478
1548.0,0.010600407899633625
1547.0,0.010605029367844016
1546.0,0.010600394029929685
1545.0,0.010601517253980734
1544.0,0.01058797953513411
1543.0,0.01052136207928969
1542.0,0.010410165097283977
1541.0,0.010298184851564088
1540.0,0.01018458673313456
1539.0,0.010081058447760034
1538.0,0.010039044472291975
1537.0,0.010031807158495585
1536.0,0.010005882972112953
1535.0,0.009930197293815758
1534.0,0.009795426786072746
1533.0,0.00964387905180668
1532.0,0.009527157746048317
1531.0,0.009441731010896301
1530.0,0.009363387648563003
1529.0,0.009282268759645251
1528.0,0.009186219594318208
1527.0,0.009057859506476952
1526.0,0.00891336436759149
1525.0,0.008794838269895078
1524.0,0.0087022079390199
1523.0,0.008593674823774183
1522.0,0.008454904940167748
1521.0,0.00833700394873213
1520.0,0.008262722150240279
1519.0,0.008186331025137621
1518.0,0.008084691429082443
1517.0,0.007970385160414767
1516.0,0.00784906931708476
1515.0,0.007719508734360196
1514.0,0.00759071149074778
1513.0,0.007472456808922991
1512.0,0.007348680296664729
1511.0,0.007197745894014863
1510.0,0.007024788970232582
1509.0,0.006870151061418096
1508.0,0.0067130556952756625
1507.0,0.006433349009675487
1506.0,0.0061588614117958785
1505.0,0.006079650442498935
1504.0,0.006084603050018728
1503.0,0.006057786707744722
1502.0,0.00599387671666652
1501.0,0.0059252977636972725
1500.0,0.00586210720963256
1499.0,0.005769894671808339
1498.0,0.005650128380241477
1497.0,0.005566480577468307
1496.0,0.005527265057763171
1495.0,0.005469336986267341
1494.0,0.005399914962974837
1493.0,0.005367287730164925
1492.0,0.005362573039654324
1491.0,0.005319117625983923
1490.0,0.005236851188908714
1489.0,0.0052205742593452245
1488.0,0.00526377322513253
1487.0,0.005277994848939785
1486.0,0.005286218563280268
1485.0,0.005352936302631329
1484.0,0.005466899334243436
1483.0,0.005590493908753664
1482.0,0.005762959919871475
1481.0,0.006056696021210102
1480.0,0.0064648691761283
1479.0,0.007015729190378046
1478.0,0.008010679523245103
1477.0,0.009923200633358976
1476.0,0.012989822102168634
1475.0,0.01697437514061539
1474.0,0.021524925694763747
1473.0,0.025451027435057956
1472.0,0.026751125581701233
1471.0,0.02575697903457882
1470.0,0.024353324272152553
1469.0,0.02327205432457111
1468.0,0.022529430015355907
1467.0,0.022202294926875248
1466.0,0.022714237115599552
1465.0,0.02436779127070582
1464.0,0.026314999567763172
1463.0,0.027232189213337275
1462.0,0.026747262424979285
1461.0,0.025158372867078532
1460.0,0.022831241487348285
1459.0,0.02014798027695968
1458.0,0.017455943149466194
1457.0,0.015251001655926301
1456.0,0.013961584673497632
1455.0,0.01332847643976638
1454.0,0.012888034404656239
1453.0,0.012432620509825222
1452.0,0.01195181083629056
1451.0,0.01153972943312896
1450.0,0.011221320097405412
1449.0,0.010936966217596102
1448.0,0.010662914015517872
1447.0,0.01045336386091164
1446.0,0.010320451301647379
1445.0,0.01020961549429727
1444.0,0.010092857775252671
1443.0,0.009986652056446561
1442.0,0.00989333772352341
1441.0,0.009788722597805647
1440.0,0.009668073468334175
1439.0,0.009552582151998992
1438.0,0.009441782344325803
1437.0,0.00929475654601037
1436.0,0.009116959399929453
1435.0,0.008976532894575184
1434.0,0.008875971061563206
1433.0,0.008764294821808918
1432.0,0.00862304211445375
1431.0,0.008469418634900359
1430.0,0.008315348760706614
1429.0,0.008157140428592096
1428.0,0.008012960260659176
1427.0,0.007904823477566894
1426.0,0.00781903699093999
1425.0,0.0077225196646561
1424.0,0.007612724179825185
1423.0,0.00752308920765402
1422.0,0.00746137862172564
1421.0,0.007400012421408532
1420.0,0.007326422122580954
1419.0,0.00726424328979419
1418.0,0.007226156153687728
1417.0,0.007192205058950167
1416.0,0.007157045759008482
1415.0,0.007127948547687855
1414.0,0.007096055210760434
1413.0,0.007045228164679238
1412.0,0.006977843729033412
1411.0,0.006912451984201682
1410.0,0.00685103722903213
1409.0,0.006778604888845315
1408.0,0.006694558150266562
1407.0,0.006612567480780418
1406.0,0.0065317008717740346
1405.0,0.006435216013060745
1404.0,0.006329783649472505
1403.0,0.006243885895889405
1402.0,0.006176254316173237
1401.0,0.006098196789618959
1400.0,0.00599701768228491
1399.0,0.005892693972812136
1398.0,0.005803548836753743
1397.0,0.0057192027720282725
1396.0,0.005632227533681794
1395.0,0.005555597010592498
1394.0,0.005494726816260679
1393.0,0.0054404750208685215
1392.0,0.0053928250564237576
1391.0,0.005357997197160649
1390.0,0.005329399480196626
1389.0,0.005291330424242632
1388.0,0.005242786582318521
1387.0,0.005202329806955274
1386.0,0.005176288310505869
1385.0,0.005154337946246112
1384.0,0.005138740649938115
1383.0,0.005143773093910222
1382.0,0.005171627790103413
1381.0,0.00520971129199463
1380.0,0.005248217103188288
1379.0,0.005279711168163556
1378.0,0.005287079589077002
1377.0,0.005257765172981775
1376.0,0.005206150828661898
1375.0,0.0051656115801389305
1374.0,0.005153806274175439
1373.0,0.005161400126161359
1372.0,0.005181716982171722
1371.0,0.005215295976665732
1370.0,0.005248055701037973
1369.0,0.005253045953271048
1368.0,0.005217248853036499
1367.0,0.005152474646253159
1366.0,0.005070083909546631
1365.0,0.004969107828982266
1364.0,0.004853315473826806
1363.0,0.0047400377246168135
1362.0,0.0046415706691480384
1361.0,0.004555996320959005
1360.0,0.00448549969721153
1359.0,0.004436878185881145
1358.0,0.0044058552635248376
1357.0,0.0043805098085664155
1356.0,0.004358742192072091
1355.0,0.004348317663983377
1354.0,0.004346710764794599
1353.0,0.004339507515234644
1352.0,0.004321126455059705
1351.0,0.00429718911764987
1350.0,0.004267427127702561
1349.0,0.004224847696315405
1348.0,0.004172765399774411
1347.0,0.004124594309172437
1346.0,0.0040839398556811405
1345.0,0.004042751338325033
1344.0,0.0039989797873506705
1343.0,0.003959633843795634
1342.0,0.0039254226553118955
1341.0,0.0038867676599677924
1340.0,0.003839481641515498
1339.0,0.00379325137690938
1338.0,0.003754464403586201
1337.0,0.0037180668232709795
1336.0,0.003682927811534263
1335.0,0.00365423729952262
1334.0,0.00363160087412371
1333.0,0.0036099303881096
1332.0,0.0035912938831690515
1331.0,0.0035833717891879256
1330.0,0.0035852790213893038
1329.0,0.003588301223466795
1328.0,0.003591598735395366
1327.0,0.0036031372740850114
1326.0,0.0036242855236593603
1325.0,0.0036470766773304005
1324.0,0.0036677437520768984
1323.0,0.0036903615347747103
1322.0,0.003715925905308004
1321.0,0.0037405289766234092
1320.0,0.0037655507949427044
1319.0,0.003797331236969886
1318.0,0.0038340470355713342
1317.0,0.0038664946353040557
1316.0,0.003893004788397391
1315.0,0.003919667451160931
1314.0,0.003946981899504625
1313.0,0.003968710588461582
1312.0,0.003984506642882393
1311.0,0.00400124143134895
1310.0,0.004020536725109714
1309.0,0.004036901669954587
1308.0,0.004048262965851737
1307.0,0.004057667751176047
1306.0,0.004064240222311558
1305.0,0.004063018027940163
1304.0,0.004055080319768272
1303.0,0.004047848890435505
1302.0,0.004043903926018994
1301.0,0.0040391072398014176
1300.0,0.004032651693407486
1299.0,0.004029109575116231
1298.0,0.004028715001063569
1297.0,0.0040251283672633935
1296.0,0.004015226646254022
1295.0,0.0040029163834289635
1294.0,0.003991707229871636
1293.0,0.0039816680583324585
1292.0,0.0039747431042285964
1291.0,0.003974650395496763
1290.0,0.003980237499286494
1289.0,0.003986653946635877
1288.0,0.003994199958797979
1287.0,0.004008205760785809
1286.0,0.004029333056490581
1285.0,0.004052148282369538
1284.0,0.004073683751055525
1283.0,0.00409594484798583
1282.0,0.004120157200254956
1281.0,0.0041454896778415325
1280.0,0.004173454134702999
1279.0,0.004206902901812666
1278.0,0.004244626532026079
1277.0,0.004283108772282358
1276.0,0.004322889501849898
1275.0,0.0043672538373194765
1274.0,0.004416197068947396
1273.0,0.004467863780994789
1272.0,0.004524394616975686
1271.0,0.004589660127087534
1270.0,0.004662500650081837
1269.0,0.0047391116240386305
1268.0,0.004820338892807839
1267.0,0.004909628366933481
1266.0,0.005005456116708687
1265.0,0.005101908856808058
1264.0,0.005194933493873291
1263.0,0.005282431622548216
1262.0,0.005360714945452356
1261.0,0.005426788237318196
1260.0,0.0054822793276284735
1259.0,0.0055302561292809105
1258.0,0.005570925804998422
1257.0,0.005605571248164111
1256.0,0.005641407332857969
1255.0,0.005686581552238516
1254.0,0.005742228071971504
1253.0,0.005804325569183096
1252.0,0.005870915498647167
1251.0,0.0059421144245866
1250.0,0.006015887105037818
1249.0,0.006089667466517676
1248.0,0.006164031876941154
1247.0,0.0062399417759149605
1246.0,0.0063149036169699935
1245.0,0.006386381578006372
1244.0,0.0064561856290372595
1243.0,0.006526811550104036
1242.0,0.006596228063902118
1241.0,0.006660828956858694
1240.0,0.006720710306249505
1239.0,0.006777704126526629
1238.0,0.006830877772343831
1237.0,0.006878206086032367
1236.0,0.00692044001959291
1235.0,0.0069593776658281965
1234.0,0.0069943552139825555
1233.0,0.007023968405919076
1232.0,0.007049206347990684
1231.0,0.007071594740114143
1230.0,0.007090356701782296
1229.0,0.007104612827473047
1228.0,0.007116166381290468
1227.0,0.007126747717128872
1226.0,0.007134446842483268
1225.0,0.007136306215372777
1224.0,0.007132981488287923
1223.0,0.007127638616801964
1222.0,0.007121528126010088
1221.0,0.007113611063150239
1220.0,0.007103370457446134
1219.0,0.007091273699172655
1218.0,0.007077440448608612
1217.0,0.0070621470848954895
1216.0,0.007046618712262355
1215.0,0.007031479704294445
1214.0,0.0070159510647560645
1213.0,0.0070003471313651415
1212.0,0.006987380986037272
1211.0,0.006978944071474051
1210.0,0.006973879881069341
1209.0,0.006971113517255593
1208.0,0.00697201411026793
1207.0,0.006976879780840011
1206.0,0.006982053259616341
1205.0,0.0069837761439617745
1204.0,0.006982219728986413
1203.0,0.0069786732022246575
1202.0,0.006971927920821162
1201.0,0.006961176580434696
1200.0,0.006949798587633073
1199.0,0.00694221018501837
1198.0,0.0069387360568892355
1197.0,0.0069372043983266535
1196.0,0.006937752705965475
1195.0,0.006942275471408411
1194.0,0.006950942035259102
1193.0,0.006962965084130693
1192.0,0.006978976528046675
1191.0,0.006998880012787783
1190.0,0.007019314183142514
1189.0,0.007037407135321792
1188.0,0.007055489236995041
1187.0,0.007078190663235098
1186.0,0.0071062998895286686
1185.0,0.007137492465398182
1184.0,0.007171874058258531
1183.0,0.007212445705597307
1182.0,0.007260567727291375
1181.0,0.007314643585774683
1180.0,0.007373043379799751
1179.0,0.007435040609546377
1178.0,0.007498808460321381
1177.0,0.007561096455748441
1176.0,0.0076191631690513
1175.0,0.0076719674961909755
1174.0,0.007720278816964399
1173.0,0.007766296795630103
1172.0,0.0078119195535651265
1171.0,0.007856887757582023
1170.0,0.007899807599502234
1169.0,0.007940873380486931
1168.0,0.007981661542889627
1167.0,0.008022414230836552
1166.0,0.008062013147561792
1165.0,0.00810067281053304
1164.0,0.008139925955361189
1163.0,0.008179716486446229
1162.0,0.00821834469863026
1161.0,0.0082556640984309
1160.0,0.008293601161858656
1159.0,0.0083332168183187
1158.0,0.008373828203620245
1157.0,0.008415032789672417
1156.0,0.00845686789590439
1155.0,0.008498185352754331
1154.0,0.008537995588633518
1153.0,0.008578126233278763
1152.0,0.008621032381588742
1151.0,0.00866501293425354
1150.0,0.008705349649550697
1149.0,0.008740734892709916
1148.0,0.008775265018425793
1147.0,0.008813580332188483
1146.0,0.008856796624568024
1145.0,0.008903345359824963
1144.0,0.008950929493001355
1143.0,0.008997286204256511
1142.0,0.00904172499307974
1141.0,0.00908650745295151
1140.0,0.009135048704609358
1139.0,0.009188944369299734
1138.0,0.009247764384685048
1137.0,0.009310165018785711
1136.0,0.009373634450536655
1135.0,0.00943579922812029
1134.0,0.009498542569110011
1133.0,0.009567719712550785
1132.0,0.009645342602834225
1131.0,0.009724897564299983
1130.0,0.009798464069504756
1129.0,0.009866000296213859
1128.0,0.009933413715614296
1127.0,0.010004141210155495
1126.0,0.010077337800634542
1125.0,0.010152171385877026
1124.0,0.010229284335348277
1123.0,0.010309776821442114
1122.0,0.010396348514352779
1121.0,0.01049263440658336
1120.0,0.010597599374609018
1119.0,0.010703819184457869
1118.0,0.01080535179817408
1117.0,0.010903829827330878
1116.0,0.011002961493139618
1115.0,0.011101749458502534
1114.0,0.011197941382153735
1113.0,0.01129319307154739
1112.0,0.011389263230624173
1111.0,0.01148370776158801
1110.0,0.011574567824301187
1109.0,0.011664247480507204
1108.0,0.011753799239731015
1107.0,0.011839292543768348
1106.0,0.011919017754802632
1105.0,0.011997856784970036
1104.0,0.012079162064414936
1103.0,0.012159118680240001
1102.0,0.012234396196658557
1101.0,0.012308186215404976
1100.0,0.012382796304081069
1099.0,0.012454162832204916
1098.0,0.012519902783119489
1097.0,0.012584689103254193
1096.0,0.01265122784750877
1095.0,0.012714074728027842
1094.0,0.012769645700220518
1093.0,0.01282402033531743
1092.0,0.012883118177012653
1091.0,0.012942667636141247
1090.0,0.012995487769887522
1089.0,0.01304204237829111
1088.0,0.013087024401509755
1087.0,0.013131998400564213
1086.0,0.01317696638108434
1085.0,0.013221720660424981
1084.0,0.013260395623840831
1083.0,0.013283098110858876
1082.0,0.013288549276597285
1081.0,0.013286472991877678
1080.0,0.013282781767796856
1079.0,0.013272265182061342
1078.0,0.013250394069058837
1077.0,0.013221152357151225
1076.0,0.0131872388712688
1075.0,0.01314351537683937
1074.0,0.01308742946623191
1073.0,0.013026406335844523
1072.0,0.012967976935139899
1071.0,0.012910825321497392
1070.0,0.01285115426359896
1069.0,0.01278985453318279
1068.0,0.012728396653836651
1067.0,0.012665447809439793
1066.0,0.012602154371651268
1065.0,0.012543431788479968
1064.0,0.012490031015328548
1063.0,0.01243596329640372
1062.0,0.012376609097856772
1061.0,0.01231260411647618
1060.0,0.012243811697848786
1059.0,0.012167728249574279
1058.0,0.012086765971069842
1057.0,0.012009068511811542
1056.0,0.011939149192717978
1055.0,0.011874790020220944
1054.0,0.01181474865678055
1053.0,0.011760987386018612
1052.0,0.011709666671691423
1051.0,0.011648789006022127
1050.0,0.011571130524641354
1049.0,0.011481954197320747
1048.0,0.01138932228273767
1047.0,0.011295966780646908
1046.0,0.01120368240630147
1045.0,0.011115746112608668
1044.0,0.011031293135164178
1043.0,0.010944205084828781
1042.0,0.010850566836093875
1041.0,0.010752577839972159
1040.0,0.010654150175036582
1039.0,0.010558205247520791
1038.0,0.010468893646689003
1037.0,0.010390007392070254
1036.0,0.010319201253155266
1035.0,0.010248859374425691
1034.0,0.010174491460378994
1033.0,0.010097657705404585
1032.0,0.010019434337813809
1031.0,0.009936457098667754
1030.0,0.009845381799405572
1029.0,0.009746173306607866
1028.0,0.009638685771751854
1027.0,0.009520266169256907
1026.0,0.009389060377520943
1025.0,0.009246978895927977
1024.0,0.009098734159000187
1023.0,0.008950558462701486
1022.0,0.008808966090268953
1021.0,0.00867684193897481
1020.0,0.008550738297926089
1019.0,0.008425226334369108
1018.0,0.008299834587669152
1017.0,0.008178935443909161
1016.0,0.00806555406963535
1015.0,0.007958682076814345
1014.0,0.00785647091653172
1013.0,0.007758837055109428
1012.0,0.007666485680523232
1011.0,0.007579746310379118
1010.0,0.00749854232330366
1009.0,0.00742125945008097
1008.0,0.007343391539874231
1007.0,0.007259612588925016
1006.0,0.0071680945126154525
1005.0,0.007071150972452769
1004.0,0.00697100138289114
1003.0,0.006866559894271465
1002.0,0.006755165677812779
1001.0,0.006636272640716701
1000.0,0.006512509331320845
999.0,0.006387384619619306
998.0,0.00626249072556575
997.0,0.006137476173156012
996.0,0.006012870076217148
995.0,0.005891614267668536
994.0,0.005776420679366014
993.0,0.005666617643440339
992.0,0.005559541173047843
991.0,0.005454379855882031
990.0,0.0053525369090903765
989.0,0.005254742261214057
988.0,0.005160231051447934
987.0,0.005068784303872951
986.0,0.0049815484852781255
985.0,0.004899660371991698
984.0,0.004823411905211632
983.0,0.004752320537395946
982.0,0.0046845753244309195
981.0,0.004617128477903383
980.0,0.004548007749997429
979.0,0.004478091101825237
978.0,0.00440940488081616
977.0,0.004342746186015886
976.0,0.004278395305357554
975.0,0.0042173840369858304
974.0,0.004159523933205603
973.0,0.004101373165360429
972.0,0.004038969520609518
971.0,0.003972157726083207
970.0,0.0039038977130398736
969.0,0.0038357523805956765
968.0,0.0037666224038563436
967.0,0.0036959789670780534
966.0,0.003625921395246152
965.0,0.0035593704636975366
964.0,0.0034975022422694666
963.0,0.003438792355259829
962.0,0.0033793775488037137
961.0,0.003315238364254124
960.0,0.0032459600826035607
959.0,0.0031761730365298655
958.0,0.003111737474941601
957.0,0.003054507146538538
956.0,0.0030017391847072736
955.0,0.00294981539742796
954.0,0.0028973659839798276
953.0,0.0028456018737895617
952.0,0.002796973830530703
951.0,0.002753239806570223
950.0,0.002714148479226584
949.0,0.002678539234241208
948.0,0.0026467034650127994
947.0,0.0026201100252209964
946.0,0.0025985903219661937
945.0,0.0025798281413590488
944.0,0.0025623895367618585
943.0,0.002547405005572701
942.0,0.0025362726108798307
941.0,0.002528074740567229
940.0,0.0025200075554538287
939.0,0.002509391366880984
938.0,0.002495240393834316
937.0,0.002479039031599003
936.0,0.002463503251745929
935.0,0.0024490137293384615
934.0,0.0024320918055178464
933.0,0.002409538944363892
932.0,0.0023830805114589252
931.0,0.0023571837230425496
930.0,0.0023334118988614077
929.0,0.002310692599436886
928.0,0.0022904981262531097
927.0,0.0022767131628418516
926.0,0.0022693091298782754
925.0,0.0022629313862402704
924.0,0.0022538805341876605
923.0,0.0022446880112756084
922.0,0.0022397314373972165
921.0,0.002239830780972332
920.0,0.0022433669099819345
919.0,0.0022493144367989708
918.0,0.0022565423077789957
917.0,0.0022629015391933995
916.0,0.0022675507133259228
915.0,0.0022720026052901634
914.0,0.0022766577657645877
913.0,0.0022782685566304747
912.0,0.0022727811136821928
911.0,0.002258660239965325
910.0,0.0022355767814251602
909.0,0.0022022952848970304
908.0,0.002158568634548519
907.0,0.002107379919991484
906.0,0.0020525806053184005
905.0,0.0019956314050354426
904.0,0.0019371119661583003
903.0,0.0018797577788265327
902.0,0.0018269096900783565
901.0,0.0017788270476185647
900.0,0.001733047082307003
899.0,0.0016877803727553447
898.0,0.00164314607956383
897.0,0.0016002051931042198
896.0,0.001560562365723168
895.0,0.0015258998637915858
894.0,0.0014965844657720518
893.0,0.001471831367482703
892.0,0.0014517827897248333
891.0,0.0014371190596912087
890.0,0.001425731706710866
889.0,0.001412792684356968
888.0,0.001396159993053415
887.0,0.0013797180700618626
886.0,0.0013695289209694796
885.0,0.0013681619229142959
884.0,0.001373914369999174
883.0,0.001383402969690116
882.0,0.00139366721270467
881.0,0.0014039869018496992
880.0,0.0014168233582199047
879.0,0.0014347619385380937
878.0,0.0014558395571537615
877.0,0.0014750728584042906
876.0,0.0014917511664652534
875.0,0.0015114566225016626
874.0,0.0015381883399490756
873.0,0.0015665576694420358
872.0,0.0015837647040659452
871.0,0.0015782620252076513
870.0,0.0015469354216433653
869.0,0.0014971322396187315
868.0,0.001443236146381309
867.0,0.0013989499906323873
866.0,0.001369853960963839
865.0,0.0013529576919375417
864.0,0.0013430674000351663
863.0,0.0013374837447216734
862.0,0.00133497156435074
861.0,0.0013338490907044802
860.0,0.0013324683481321725
859.0,0.0013292416610947246
858.0,0.0013215596415574215
857.0,0.0013072737671680765
856.0,0.0012878930500535466
855.0,0.0012676763527839669
854.0,0.0012490970132458977
853.0,0.001232380709627383
852.0,0.001220141193242561
851.0,0.0012181110351397538
850.0,0.0012284783765267179
849.0,0.0012452477333587916
848.0,0.0012589542442304686
847.0,0.0012648723165815789
846.0,0.001265895988473097
845.0,0.0012691627874839482
844.0,0.0012805040998318403
843.0,0.0013003332232769602
842.0,0.0013241282709860703
841.0,0.0013479220052732138
840.0,0.001372109953327455
839.0,0.0013978238231212492
838.0,0.0014222316338038596
837.0,0.0014420853413951117
836.0,0.0014604861311672654
835.0,0.0014842397124928024
834.0,0.0015139896032374377
833.0,0.0015428486219226211
832.0,0.0015666927748889544
831.0,0.001590189269817157
830.0,0.0016194181457578252
829.0,0.0016532439449491105
828.0,0.001686422909958271
827.0,0.0017176915078553287
826.0,0.0017495840214616606
825.0,0.0017826053593314034
824.0,0.001814549993226592
823.0,0.0018437178224880836
822.0,0.0018688776054446136
821.0,0.0018887617692415163
820.0,0.0019050796767973517
819.0,0.0019229973767828496
818.0,0.0019454001299979934
817.0,0.001969354310514352
816.0,0.001991160627557093
815.0,0.002012384274009171
814.0,0.002037440942673104
813.0,0.0020671366582117098
812.0,0.002098582350451578
811.0,0.0021301049401527407
810.0,0.0021618383125720144
809.0,0.0021918644577482048
808.0,0.0022161238007596677
807.0,0.002233187540191872
806.0,0.0022462017428849512
805.0,0.002259600290462233
804.0,0.002276589144896177
803.0,0.0022994581042709186
802.0,0.002328273466589153
801.0,0.0023583852060765033
800.0,0.0023827739718861375
799.0,0.00239814176116202
798.0,0.002405887886495314
797.0,0.002406648440199679
796.0,0.0023982466953005764
795.0,0.0023811545114918154
794.0,0.0023618292155292184
793.0,0.0023471608263751173
792.0,0.002338107784105496
791.0,0.0023310613688262882
790.0,0.002322685612406981
789.0,0.0023115828569283403
788.0,0.002298437813716061
787.0,0.0022868381932703314
786.0,0.0022809189829415084
785.0,0.0022799885574146116
784.0,0.0022786786418128703
783.0,0.002274204003156172
782.0,0.0022694676603763225
781.0,0.002266765846961855
780.0,0.002263224221118212
779.0,0.0022559909348043683
778.0,0.0022472069666626604
777.0,0.002239279106001478
776.0,0.002229536361363689
775.0,0.002215096002793418
774.0,0.002199732985419956
773.0,0.002190071513433116
772.0,0.0021872971408819393
771.0,0.002187972419585995
770.0,0.0021909433163922716
769.0,0.002197993447332107
768.0,0.0022088937387867774
767.0,0.0022208306443460314
766.0,0.002231967606734191
765.0,0.0022415815912347507
764.0,0.0022482632142670146
763.0,0.0022520813588894433
762.0,0.0022567974076417954
761.0,0.0022660490235617324
760.0,0.0022794263540544843
759.0,0.0022956809676885383
758.0,0.00231621147216724
757.0,0.002340864620725908
756.0,0.00236423204576964
755.0,0.0023818157657187465
754.0,0.0023966610139752294
753.0,0.002414361907075483
752.0,0.002435168501801603
751.0,0.0024564880683682175
750.0,0.002478327049698272
749.0,0.0025001098817400893
748.0,0.0025176825930273263
747.0,0.002530621697123652
746.0,0.002546520222405637
745.0,0.0025699455365818234
744.0,0.0025941810130951323
743.0,0.0026134817749134884
742.0,0.002635748736661779
741.0,0.002672791109807237
740.0,0.002728720333273209
739.0,0.002811677373993056
738.0,0.002946974765930813
737.0,0.003171968274154815
736.0,0.003551402210964082
735.0,0.0042303466355080544
734.0,0.005424574428618652
733.0,0.007242168618337819
732.0,0.009430481407230547
731.0,0.011333412751240142
730.0,0.012259105383971042
729.0,0.012015530180124204
728.0,0.011041853091029093
727.0,0.010005357582565114
726.0,0.009359449374391988
725.0,0.0092563910638381
724.0,0.009741459836972409
723.0,0.010920694264314728
722.0,0.012883762995016885
721.0,0.015422006766211992
720.0,0.01784126988677934
719.0,0.01925586156254917
718.0,0.019226635406531217
717.0,0.017983566151760184
716.0,0.01605773696020099
715.0,0.013921396656454635
714.0,0.011905370728147981
713.0,0.010215995789362525
712.0,0.00892737321927981
711.0,0.00798991268225316
710.0,0.007297338699264463
709.0,0.006765189173437606
708.0,0.0063515783985496335
707.0,0.006028517076041924
706.0,0.0057670400328563316
705.0,0.005550333609475858
704.0,0.005374952400146302
703.0,0.005232215377107971
702.0,0.005105514934272441
701.0,0.004987822596109236
700.0,0.0048842052275763085
699.0,0.0047944244866613105
698.0,0.004708648203133853
697.0,0.004622814631540132
696.0,0.004542741369415876
695.0,0.004469829400050022
694.0,0.004397432372494922
693.0,0.004325082918360595
692.0,0.004262661438500441
691.0,0.004215600333283894
690.0,0.00417710059402692
689.0,0.004139367524978997
688.0,0.00410246173548061
687.0,0.004067697099655582
686.0,0.004032583532482103
685.0,0.003995876430765948
684.0,0.003957910225424994
683.0,0.003915768155919986
682.0,0.003868297203542531
681.0,0.0038250527822223483
680.0,0.0037989447069902873
679.0,0.0037895447159406103
678.0,0.003783346719095895
677.0,0.0037714269272966336
676.0,0.003754677960626748
675.0,0.003734902657861537
674.0,0.003711369374406703
673.0,0.003684683907287367
672.0,0.0036548269382656574
671.0,0.0036176684012365593
670.0,0.003568869291252989
669.0,0.0035164699039804243
668.0,0.003487647008678893
667.0,0.0034918596328204874
666.0,0.0034976968865734898
665.0,0.0034871572908554156
664.0,0.003472405605152276
663.0,0.0034627695273308215
662.0,0.003455374032257616
661.0,0.0034490014432945306
660.0,0.0034471344378784034
659.0,0.003443086499789635
658.0,0.0034224196497279484
657.0,0.003385787216586796
656.0,0.0033498155700108466
655.0,0.0033236084894221504
654.0,0.0033003665781419396
653.0,0.003274263523934126
652.0,0.003251507939396686
651.0,0.003238722975457907
650.0,0.0032330726222409554
649.0,0.0032291562059428725
648.0,0.0032234650531654343
647.0,0.0032075802591408323
646.0,0.003171652899750135
645.0,0.003118816027304343
644.0,0.0030639858891621094
643.0,0.0030173197135645474
642.0,0.0029782635558311633
641.0,0.002945941806274502
640.0,0.00292223879555229
639.0,0.0029005070507475143
638.0,0.0028677674066768994
637.0,0.002824803287071614
636.0,0.0027884236310765954
635.0,0.002768407104898181
634.0,0.0027555433593276844
633.0,0.0027391994399165462
632.0,0.002721489981585524
631.0,0.0027065076032887665
630.0,0.0026921125109453823
629.0,0.0026774752064800257
628.0,0.002663153373286868
627.0,0.002638482827261324
626.0,0.0025856172772187273
625.0,0.0025053871583708667
624.0,0.002421511841094048
623.0,0.0023498205296785648
622.0,0.0022834423713106143
621.0,0.0022180173900691945
620.0,0.0021692467550794097
619.0,0.002150021363624957
618.0,0.0021463173717190726
617.0,0.0021356697089568717
616.0,0.002114035359506826
615.0,0.0020828685137650074
614.0,0.0020361098746670687
613.0,0.0019799362516781183
612.0,0.0019417820277098615
611.0,0.0019426799407055357
610.0,0.0019714417770832758
609.0,0.0020064418820800764
608.0,0.002046281124746452
607.0,0.0020955736620058884
606.0,0.002145409926922656
605.0,0.0021906169718633245
604.0,0.002242620340640411
603.0,0.00230266248372143
602.0,0.0023434485432148253
601.0,0.0023388431229357733
600.0,0.002296892909153765
599.0,0.002249582001345758
598.0,0.0022176312871252032
597.0,0.002196015738389617
596.0,0.002170508336987798
595.0,0.002133816242963583
594.0,0.002086890044881586
593.0,0.0020336058932964797
592.0,0.001974252404206386
591.0,0.0019039040552234856
590.0,0.0018199386824619642
589.0,0.0017303759395398833
588.0,0.001652109460237877
587.0,0.0015993276230196023
586.0,0.001569466491490573
585.0,0.0015443727842366368
584.0,0.0015103345422297367
583.0,0.0014682820087316903
582.0,0.0014205512162751013
581.0,0.0013573908623328525
580.0,0.0012650733698347605
579.0,0.0011496923753731938
578.0,0.001050086391225133
577.0,0.0010109314941372024
576.0,0.0010360280120244685
575.0,0.0010668576827919036
574.0,0.001035225396922596
573.0,0.0009493465268170679
572.0,0.0008850500394788889
571.0,0.0008977557209177728
570.0,0.000957295913357677
569.0,0.0009905803447980775
568.0,0.0009736923962560541
567.0,0.0009418779630005594
566.0,0.0009352239973454125
565.0,0.0009661767189752684
564.0,0.001031093025266533
563.0,0.0011100828457330377
562.0,0.0011632116767694857
561.0,0.0011622244604154893
560.0,0.0011064536292147429
559.0,0.0010075618462255644
558.0,0.0008882439164122579
557.0,0.0007855943869596167
556.0,0.0007383665257083847
555.0,0.0007590527090171591
554.0,0.0008137622595421659
553.0,0.0008573908845388369
552.0,0.0008730384951105248
551.0,0.0008554905560688611
550.0,0.0007999943138328253
