cm-1,A
4000.0,0.0025606906770611615
3999.0,0.002568880055878137
3998.0,0.002572948780377616
3997.0,0.0025720812116474404
3996.0,0.002567197281563712
3995.0,0.0025593374900626875
3994.0,0.002550772058325498
3993.0,0.0025461263696655804
3992.0,0.002549697084722003
3991.0,0.0025611083862695705
3990.0,0.0025751676546330446
3989.0,0.002586490228944107
3988.0,0.002593458860150239
3987.0,0.0025977247291373764
3986.0,0.0026008381566884715
3985.0,0.002603028366940676
3984.0,0.002604799836509052
3983.0,0.002608146365952804
3982.0,0.002615198650038353
3981.0,0.0026257334443343045
3980.0,0.002636655127787724
3979.0,0.00264452114459815
3978.0,0.002648076948667269
3977.0,0.002648198870063843
3976.0,0.0026462070416503735
3975.0,0.0026424579666473645
3974.0,0.0026368315635407627
3973.0,0.002629862391761665
3972.0,0.002622322737604786
3971.0,0.0026142889025567283
3970.0,0.0026058044646878
3969.0,0.0025982454437336773
3968.0,0.0025941436446251026
3967.0,0.0025945653904438796
3966.0,0.0025971005925560352
3965.0,0.0025971484417022413
3964.0,0.0025915717224430862
3963.0,0.0025813233970347627
3962.0,0.0025709244380474955
3961.0,0.002565194583192535
3960.0,0.0025658616610651852
3959.0,0.002570535631063492
3958.0,0.002574780265541079
3957.0,0.0025752682291084765
3956.0,0.002571662678868685
3955.0,0.0025658728511452934
3954.0,0.0025598154461918135
3953.0,0.0025540994022895704
3952.0,0.0025489910804801534
3951.0,0.0025467799325565015
3950.0,0.002551102396251598
3949.0,0.002562621740506626
3948.0,0.0025770534401297574
3947.0,0.0025883465303932355
3946.0,0.0025934041712560854
3945.0,0.002592392167742084
3944.0,0.0025875771626644242
3943.0,0.00258328789421366
3942.0,0.0025828876890338723
3941.0,0.0025871388060790534
3940.0,0.0025941662474983796
3939.0,0.0026004316866096245
3938.0,0.0026056418404585505
3937.0,0.002612275052322117
3936.0,0.0026208283878306872
3935.0,0.002628325413738893
3934.0,0.0026328782066467604
3933.0,0.0026381459360243255
3932.0,0.0026485420613931087
3931.0,0.002662078547615629
3930.0,0.0026713079826175753
3929.0,0.0026723786327435646
3928.0,0.002669187336406002
3927.0,0.0026688045502309713
3926.0,0.0026750698846591614
3925.0,0.0026850147256938846
3924.0,0.002694162028280399
3923.0,0.0027013356644980313
3922.0,0.002706025679022236
3921.0,0.002706517393948774
3920.0,0.002702739565637816
3919.0,0.002697765420629809
3918.0,0.0026945936954873174
3917.0,0.002694216214422701
3916.0,0.002697816743378663
3915.0,0.002705667337821103
3914.0,0.002714303141058628
3913.0,0.002718563369781434
3912.0,0.0027177282085302477
3911.0,0.002714917393884058
3910.0,0.002712226057030917
3909.0,0.0027070024692575946
3908.0,0.0026955513863681667
3907.0,0.002677129273875539
3906.0,0.002656343773989555
3905.0,0.0026415954619933455
3904.0,0.0026385241853160504
3903.0,0.0026464147368846693
3902.0,0.0026603129730753215
3901.0,0.002672538713697681
3900.0,0.0026785635457633687
3899.0,0.0026827881463152682
3898.0,0.002692506447112427
3897.0,0.0027072538118396118
3896.0,0.0027177958837113648
3895.0,0.0027167561555210256
3894.0,0.002708103278009027
3893.0,0.0027006392377898142
3892.0,0.002697399774263894
3891.0,0.0026942262618796413
3890.0,0.0026944968410241386
3889.0,0.0027027915044002824
3888.0,0.002709296618400625
3887.0,0.0027027972536186
3886.0,0.0026873422095580485
3885.0,0.0026765094799724833
3884.0,0.0026805957400651446
3883.0,0.0026937942757834484
3882.0,0.0026983032420227803
3881.0,0.0026866614324895623
3880.0,0.002667926753617882
3879.0,0.0026585344396909067
3878.0,0.0026670451075255864
3877.0,0.0026817701363002627
3876.0,0.0026865475874636273
3875.0,0.002680116271341841
3874.0,0.002673571326667766
3873.0,0.0026775953744201768
3872.0,0.00268886807484743
3871.0,0.002690538872880426
3870.0,0.0026736257500091605
3869.0,0.00265242188461331
3868.0,0.002648709159585064
3867.0,0.002655969557441476
3866.0,0.002650331928919945
3865.0,0.0026309175132162577
3864.0,0.0026168943237758913
3863.0,0.002617482043925168
3862.0,0.002626571778761626
3861.0,0.0026335256512530257
3860.0,0.002634286073414283
3859.0,0.0026282905617771267
3858.0,0.002616050808685394
3857.0,0.0025991869426806426
3856.0,0.0025826347689399207
3855.0,0.0025763775187174114
3854.0,0.0025826275185343505
3853.0,0.0025757751915301587
3852.0,0.002559572241736352
3851.0,0.0025641036651428417
3850.0,0.0025779115565028156
3849.0,0.002583637328703015
3848.0,0.002585318408923858
3847.0,0.002590767487997761
3846.0,0.0026003707215725876
3845.0,0.0026096514702571537
3844.0,0.0026141640492712975
3843.0,0.0026118822180407853
3842.0,0.002608326580094046
3841.0,0.002610927488669688
3840.0,0.002621386583684127
3839.0,0.002633982656523379
3838.0,0.002641087262060209
3837.0,0.0026413079138116365
3836.0,0.002640551157448199
3835.0,0.0026430265132769666
3834.0,0.0026478148990243516
3833.0,0.002652222846254833
3832.0,0.0026544093966928287
3831.0,0.002654482560129543
3830.0,0.0026546737936482736
3829.0,0.0026561276730033842
3828.0,0.0026572469836902077
3827.0,0.0026554710681093345
3826.0,0.002652388987995845
3825.0,0.0026528659385056984
3824.0,0.002657006421725579
3823.0,0.0026597577362515255
3822.0,0.0026605713594656157
3821.0,0.0026586549781483
3820.0,0.002658751942555597
3819.0,0.0026732959180067167
3818.0,0.00268993987711653
3817.0,0.0026878132882474613
3816.0,0.0026677663646951623
3815.0,0.0026494096199089733
3814.0,0.002650732614145443
3813.0,0.0026644246759506248
3812.0,0.0026721017811901166
3811.0,0.0026717172960641963
3810.0,0.0026714578293146546
3809.0,0.0026713566823314758
3808.0,0.0026626151791459387
3807.0,0.002642576718433276
3806.0,0.0026250227778641883
3805.0,0.002624670878890403
3804.0,0.0026314291539751063
3803.0,0.002624278602560476
3802.0,0.002602106927100463
3801.0,0.002578267372427728
3800.0,0.0025717347809946613
3799.0,0.0025859910914075943
3798.0,0.0025997481926614448
3797.0,0.0026003960970232493
3796.0,0.0025938436605358745
3795.0,0.0025902200041254845
3794.0,0.002591096947234032
3793.0,0.002589848301617006
3792.0,0.002582802134578499
3791.0,0.0025746140575415195
3790.0,0.0025707559034785126
3789.0,0.0025720184278911267
3788.0,0.002576012560776251
3787.0,0.0025812118898877615
3786.0,0.0025868654946873803
3785.0,0.002591417724627951
3784.0,0.002593426242657115
3783.0,0.002592260372690559
3782.0,0.0025870534591189874
3781.0,0.0025784610852903345
3780.0,0.002572248659609708
3779.0,0.0025735199009685183
3778.0,0.0025817450688395737
3777.0,0.0025908793056070743
3776.0,0.0025922996605407273
3775.0,0.002582965202182261
3774.0,0.0025719589422949583
3773.0,0.0025704856454714506
3772.0,0.002579923545174264
3771.0,0.002591156407971456
3770.0,0.002595110150730443
3769.0,0.002591811808728149
3768.0,0.0025889289912526944
3767.0,0.002588013295241432
3766.0,0.0025843011561136765
3765.0,0.002577398209456655
3764.0,0.0025730451712244525
3763.0,0.0025738309320682395
3762.0,0.002572944571599663
3761.0,0.002564835572649654
3760.0,0.0025558338055201336
3759.0,0.0025524930220355646
3758.0,0.0025536924168132746
3757.0,0.0025555162241188128
3756.0,0.0025571013571180955
3755.0,0.0025577483967498815
3754.0,0.0025573342950719396
3753.0,0.0025622747736655134
3752.0,0.0025803996717191366
3751.0,0.0026005724791217785
3750.0,0.0026017932740549643
3749.0,0.002591431872939521
3748.0,0.002592377179539201
3747.0,0.0026069874868506326
3746.0,0.002623842539848557
3745.0,0.0026368397500634473
3744.0,0.0026379060056645016
3743.0,0.002640608580828923
3742.0,0.0026606034623443105
3741.0,0.0026726416773954886
3740.0,0.0026605171738536956
3739.0,0.00263996193128268
3738.0,0.0026309515698399516
3737.0,0.002639040679015342
3736.0,0.0026542244847397242
3735.0,0.002660801294795701
3734.0,0.002656664963542805
3733.0,0.0026512484306929407
3732.0,0.002648648903507314
3731.0,0.002650271847453275
3730.0,0.0026565071245115033
3729.0,0.0026622630372495843
3728.0,0.0026623495590099395
3727.0,0.002661031744446425
3726.0,0.002666451488068584
3725.0,0.00267972981875494
3724.0,0.002692639309558365
3723.0,0.0026980083966136057
3722.0,0.0026990333007473333
3721.0,0.002704748523057834
3720.0,0.0027214067158147547
3719.0,0.002748519102561987
3718.0,0.002782590378976789
3717.0,0.002821483548206977
3716.0,0.0028644768749724724
3715.0,0.002910396922470631
3714.0,0.002962193941495366
3713.0,0.003029938679319337
3712.0,0.003116171910838187
3711.0,0.003203394144727076
3710.0,0.0032791280084178438
3709.0,0.0033515936357172
3708.0,0.0034305525110684045
3707.0,0.0035174590650636044
3706.0,0.003610825643505131
3705.0,0.003710885328105415
3704.0,0.003820258778124216
3703.0,0.003941422889132937
3702.0,0.004068583003516538
3701.0,0.00418698372156661
3700.0,0.004287991781395061
3699.0,0.00437110613556925
3698.0,0.004431067547345072
3697.0,0.004459622612638802
3696.0,0.004455235706804991
3695.0,0.0044238864146355465
3694.0,0.004370281511917059
3693.0,0.004295631140796605
3692.0,0.004203948156322005
3691.0,0.004105388652846893
3690.0,0.004011051732251549
3689.0,0.003925921213252338
3688.0,0.0038541184990941186
3687.0,0.0038039467387423875
3686.0,0.003774636300349134
3685.0,0.0037531188364355837
3684.0,0.0037318335853993335
3683.0,0.0037157485738268624
3682.0,0.00371147787922675
3681.0,0.0037174008486017852
3680.0,0.003726417508320288
3679.0,0.00373806083284043
3678.0,0.0037566289056489843
3677.0,0.0037824228063369353
3676.0,0.003802666535755372
3675.0,0.0038020053085348234
3674.0,0.0038035254101313302
3673.0,0.0038352368618707697
3672.0,0.003880917887640849
3671.0,0.0039191572266002225
3670.0,0.003940398469207618
3669.0,0.003943448227496097
3668.0,0.003947076418287274
3667.0,0.003963317057572352
3666.0,0.003985244574545965
3665.0,0.004005286730921473
3664.0,0.0040221454923064365
3663.0,0.004037559137313032
3662.0,0.004054886202613843
3661.0,0.004077431496992155
3660.0,0.004106202904262678
3659.0,0.004139269276885951
3658.0,0.00417244279928944
3657.0,0.0042010070456518535
3656.0,0.004220575415659358
3655.0,0.004235416009940946
3654.0,0.004252759124998231
3653.0,0.0042690264534069895
3652.0,0.004280646917443294
3651.0,0.004297869406333463
3650.0,0.0043228365058324645
3649.0,0.004333503334675928
3648.0,0.004321859807564641
3647.0,0.00431061596463516
3646.0,0.004316848151822485
3645.0,0.004335918159581738
3644.0,0.004354939450435134
3643.0,0.0043661824505406895
3642.0,0.0043708834692126435
3641.0,0.004373030446605197
3640.0,0.004373814246457608
3639.0,0.004372398119280642
3638.0,0.004370701833020348
3637.0,0.004373106290466708
3636.0,0.004379487470472775
3635.0,0.004384271834229923
3634.0,0.004384151738787085
3633.0,0.004382960053116352
3632.0,0.004384843019206925
3631.0,0.004391435900840134
3630.0,0.004410580547609859
3629.0,0.004444047940832085
3628.0,0.004478561669354956
3627.0,0.0045202171246268245
3626.0,0.004575412882436092
3625.0,0.004631908555983659
3624.0,0.0046841805409081946
3623.0,0.004732685675660464
3622.0,0.004771828172472847
3621.0,0.004790735741156271
3620.0,0.0047835413362502174
3619.0,0.004755483232754787
3618.0,0.0047217066967962535
3617.0,0.004694815822815767
3616.0,0.0046714572296686265
3615.0,0.0046417956053567255
3614.0,0.004607078674617168
3613.0,0.004580769511903346
3612.0,0.004575336012256799
3611.0,0.004591162798707943
3610.0,0.0046177554784874834
3609.0,0.004642426536690301
3608.0,0.00465768027787802
3607.0,0.004664640899643659
3606.0,0.004669816925897408
3605.0,0.0046746426139460725
3604.0,0.004673915008186808
3603.0,0.004662476484443059
3602.0,0.004638211895248549
3601.0,0.004602377177919529
3600.0,0.0045598413390278425
3599.0,0.004517100318160798
3598.0,0.0044771594332379296
3597.0,0.004439784561113418
3596.0,0.004403012231256866
3595.0,0.004365310348481158
3594.0,0.004326972214015793
3593.0,0.004291470304620232
3592.0,0.004261788783562833
3591.0,0.004236982842066668
3590.0,0.004214177025384862
3589.0,0.004192064595698807
3588.0,0.004168476856944886
3587.0,0.0041421624488216895
3586.0,0.004123250032821636
3585.0,0.004122549841654492
3584.0,0.004135057932718483
3583.0,0.004148683539993068
3582.0,0.004157358256422364
3581.0,0.004161830201099951
3580.0,0.004164402641268532
3579.0,0.004166700453404341
3578.0,0.004169448373547659
3577.0,0.004172724776850604
3576.0,0.004175125128826979
3575.0,0.004174384952145119
3574.0,0.004170022077687253
3573.0,0.00416414082732303
3572.0,0.004159622253575442
3571.0,0.004157922953621529
3570.0,0.0041592587096362845
3569.0,0.004163704621717158
3568.0,0.004169257374104431
3567.0,0.004169437174741698
3566.0,0.0041647913067450245
3565.0,0.004167777634975884
3564.0,0.0041840581521921955
3563.0,0.004206239017997885
3562.0,0.004225216632332218
3561.0,0.0042372152688675245
3560.0,0.004243150608631825
3559.0,0.004245949222686384
3558.0,0.00424832713364388
3557.0,0.004251530029462217
3556.0,0.004256622632613503
3555.0,0.004265114098728907
3554.0,0.004277232137912455
3553.0,0.004289676909702809
3552.0,0.004298339348259871
3551.0,0.004303909008806773
3550.0,0.004310426775602779
3549.0,0.0043189480805492925
3548.0,0.0043271403814778946
3547.0,0.004333673018700163
3546.0,0.004340625249794953
3545.0,0.004351380594136698
3544.0,0.004366708125478088
3543.0,0.0043834295506429925
3542.0,0.004397342941715485
3541.0,0.004406605241633809
3540.0,0.004412576801028627
3539.0,0.004418329793632563
3538.0,0.004427293869600871
3537.0,0.004441941296687018
3536.0,0.004462048196834354
3535.0,0.004484441713958166
3534.0,0.004504120769254971
3533.0,0.004517000827073537
3532.0,0.004523145623323486
3531.0,0.004528048287999634
3530.0,0.004538502007438215
3529.0,0.004556508119668056
3528.0,0.004577979119250215
3527.0,0.004597773887722969
3526.0,0.004613326775794763
3525.0,0.004622952743543261
3524.0,0.004624726496870825
3523.0,0.004619812213173509
3522.0,0.0046148643509276235
3521.0,0.004617529521393961
3520.0,0.004629780797263618
3519.0,0.004646930039561334
3518.0,0.004662120535194556
3517.0,0.004671322895329805
3516.0,0.0046751900664626575
3515.0,0.004677795418294734
3514.0,0.004683102014579443
3513.0,0.004691757366007347
3512.0,0.004701147154984191
3511.0,0.004709294320884612
3510.0,0.004717355544807884
3509.0,0.004727634058656014
3508.0,0.004740883379355791
3507.0,0.004756746417510201
3506.0,0.004774515641038922
3505.0,0.004792082312662489
3504.0,0.0048051275664996815
3503.0,0.00481060319071855
3502.0,0.0048118029303008125
3501.0,0.004816163159338568
3500.0,0.0048271571166325355
3499.0,0.004841802523022484
3498.0,0.004855613050194959
3497.0,0.004867100225769997
3496.0,0.004877683168059498
3495.0,0.004889212606591269
3494.0,0.004902243347257515
3493.0,0.00491555302939156
3492.0,0.0049269814050686405
3491.0,0.004935675769297817
3490.0,0.004943337964831854
3489.0,0.004952085877451794
3488.0,0.0049617158390427695
3487.0,0.004971097261792486
3486.0,0.004981714848773241
3485.0,0.004997089147356032
3484.0,0.00501806671006632
3483.0,0.005040567271022716
3482.0,0.005059298971278478
3481.0,0.005073360087433431
3480.0,0.0050865606985612995
3479.0,0.005102376853842766
3478.0,0.00512007091885917
3477.0,0.005136164910280211
3476.0,0.0051489244446824775
3475.0,0.005160416480758035
3474.0,0.005173559750540102
3473.0,0.005187745827240502
3472.0,0.00519911953438084
3471.0,0.0052055786438545085
3470.0,0.00520982588742014
3469.0,0.005216231160537982
3468.0,0.005226034047733476
3467.0,0.005237297695952867
3466.0,0.005248341605525614
3465.0,0.005258814333741209
3464.0,0.005268587708174658
3463.0,0.005278346479911912
3462.0,0.005290390113249105
3461.0,0.005306057136640056
3460.0,0.005322695409898845
3459.0,0.0053362877702729985
3458.0,0.005347492532426338
3457.0,0.0053618029034140525
3456.0,0.0053821927564372055
3455.0,0.005404162456883108
3454.0,0.00541970348241992
3453.0,0.005425307009880602
3452.0,0.005424778994228744
3451.0,0.005424846127198584
3450.0,0.00542893744268882
3449.0,0.005435482998601363
3448.0,0.005441237227023702
3447.0,0.005445738550230521
3446.0,0.005452213310344711
3445.0,0.005463594353628573
3444.0,0.005478730505730604
3443.0,0.005493674215049439
3442.0,0.0055055001949293105
3441.0,0.005513746217266658
3440.0,0.005519342234277566
3439.0,0.005523827551087698
3438.0,0.005529380473692291
3437.0,0.005537708097385442
3436.0,0.0055478903410381385
3435.0,0.005556312115709682
3434.0,0.005559319552447345
3433.0,0.00555613875106222
3432.0,0.005549456533324814
3431.0,0.005543878143656384
3430.0,0.005543339321636609
3429.0,0.005548926826411732
3428.0,0.005558353070349492
3427.0,0.00556753645273363
3426.0,0.0055734487796011995
3425.0,0.005576112482586954
3424.0,0.005578105011348752
3423.0,0.005581763074246914
3422.0,0.005586725432764216
3421.0,0.00559060552444845
3420.0,0.005591993496159926
3419.0,0.005591727445726783
3418.0,0.005591001027655203
3417.0,0.005589805143820379
3416.0,0.005587845965332209
3415.0,0.00558560247935218
3414.0,0.005583710402265381
3413.0,0.005582816218900808
3412.0,0.005585046720266468
3411.0,0.005593666767364034
3410.0,0.00560909210999477
3409.0,0.005626285681527173
3408.0,0.005638574666997655
3407.0,0.005643696922492492
3406.0,0.005644399527453225
3405.0,0.00564420129420231
3404.0,0.005645086079562206
3403.0,0.005648571709124847
3402.0,0.005655784828027985
3401.0,0.005665676546266244
3400.0,0.0056751977038080985
3399.0,0.005682005609932397
3398.0,0.005685648594470188
3397.0,0.005686705001022753
3396.0,0.005687252884682414
3395.0,0.005691926779146907
3394.0,0.0057047906917525575
3393.0,0.005723350689703812
3392.0,0.00573851167262906
3391.0,0.005743015823079593
3390.0,0.005737935271445439
3389.0,0.005729504647249145
3388.0,0.005722474810720005
3387.0,0.0057185010511166465
3386.0,0.005718702389613861
3385.0,0.005724719240749139
3384.0,0.005737108891173362
3383.0,0.0057543051776386515
3382.0,0.005772952318805856
3381.0,0.005788522751118436
3380.0,0.005796924624307047
3379.0,0.005797546422575297
3378.0,0.005794450601631564
3377.0,0.00579326422721394
3376.0,0.005796859988901847
3375.0,0.005804307497982171
3374.0,0.005812887147309997
3373.0,0.005820277406294549
3372.0,0.005825996413254734
3371.0,0.005831712040257255
3370.0,0.0058391871214892085
3369.0,0.005847062386592423
3368.0,0.0058510466639393795
3367.0,0.005848335732287413
3366.0,0.005840397566019765
3365.0,0.005830179776152859
3364.0,0.005818422808159545
3363.0,0.005804669756987867
3362.0,0.005790729940472585
3361.0,0.005780996491725487
3360.0,0.005779112877657375
3359.0,0.0057848216472032934
3358.0,0.00579349346151904
3357.0,0.005798646165767198
3356.0,0.005796657325932226
3355.0,0.005789898661848428
3354.0,0.005783815729835119
3353.0,0.0057805954896695995
3352.0,0.005777811438284684
3351.0,0.00577371467309001
3350.0,0.005770619768926049
3349.0,0.005770677109050779
3348.0,0.005770872778785447
3347.0,0.005765689203837715
3346.0,0.0057538538228426965
3345.0,0.005739661567756743
3344.0,0.005728112253992935
3343.0,0.005721234243461569
3342.0,0.005718806485000193
3341.0,0.0057201914444645965
3340.0,0.00572461891713634
3339.0,0.00573061431205648
3338.0,0.005735484638542163
3337.0,0.005735493258936667
3336.0,0.005727960195316807
3335.0,0.005714159096623702
3334.0,0.0056988362445316056
3333.0,0.005685798027075648
3332.0,0.005675242413817503
3331.0,0.005666158437480778
3330.0,0.005659187555644362
3329.0,0.00565521139546866
3328.0,0.005652660264398432
3327.0,0.005648638928700029
3326.0,0.005642349151027961
3325.0,0.005635610572023995
3324.0,0.005630128444513641
3323.0,0.005625721451957525
3322.0,0.005621087500584491
3321.0,0.005615229158588
3320.0,0.005608236649979434
3319.0,0.005601246214674067
3318.0,0.005595052544077711
3317.0,0.005588612558378236
3316.0,0.005580364949417917
3315.0,0.005571548352598191
3314.0,0.005566197773116732
3313.0,0.005566390829137843
3312.0,0.005568911162164052
3311.0,0.0055682372752677515
3310.0,0.0055619736168061994
3309.0,0.005552465153192399
3308.0,0.00554447914541932
3307.0,0.00554212280370356
3306.0,0.005546093344595415
3305.0,0.005552418838475133
3304.0,0.005555543068694971
3303.0,0.0055542019442429685
3302.0,0.005552567382329484
3301.0,0.0055542357647923625
3300.0,0.005557577813239057
3299.0,0.00555913297552962
3298.0,0.0055588499196514134
3297.0,0.005558786898706694
3296.0,0.005558480198918315
3295.0,0.00555520218042904
3294.0,0.005547931828828833
3293.0,0.005538008853132813
3292.0,0.005526648056440179
3291.0,0.005514970647880974
3290.0,0.005506007627676397
3289.0,0.005503317165829391
3288.0,0.005507070409644158
3287.0,0.005513603574122021
3286.0,0.005518785298649487
3285.0,0.00551991093807885
3284.0,0.005515022847453857
3283.0,0.005503462034554988
3282.0,0.005487729253485287
3281.0,0.005472436495511126
3280.0,0.005460597161459364
3279.0,0.005452291716553087
3278.0,0.005446526948935994
3277.0,0.005442003381728658
3276.0,0.005436041030732922
3275.0,0.00542570671106604
3274.0,0.005411406072217153
3273.0,0.005397624730352647
3272.0,0.005388832232745359
3271.0,0.005385418486252253
3270.0,0.005383653153574109
3269.0,0.005378299409635365
3268.0,0.005365594708511208
3267.0,0.005346015533702611
3266.0,0.005324979571065317
3265.0,0.005308991382675116
3264.0,0.005299475979308792
3263.0,0.005291066143191955
3262.0,0.0052771769288312165
3261.0,0.005256963217233936
3260.0,0.005236164171112882
3259.0,0.005221370521482029
3258.0,0.0052139502850803154
3257.0,0.005209436640653977
3256.0,0.005202362740838861
3255.0,0.005191016750296949
3254.0,0.00517710439370991
3253.0,0.00516191754224251
3252.0,0.005144963794873355
3251.0,0.005126699003642356
3250.0,0.0051101423084892045
3249.0,0.005097841782561591
3248.0,0.005088275970413211
3247.0,0.005077165764770172
3246.0,0.005062116062973809
3245.0,0.00504472902322114
3244.0,0.005028388993723865
3243.0,0.005015001910152778
3242.0,0.005003589355471086
3241.0,0.0049911081035779944
3240.0,0.00497528765767972
3239.0,0.004957746559513374
3238.0,0.004943367483864591
3237.0,0.004935054682275114
3236.0,0.004929905483975913
3235.0,0.0049222025486239645
3234.0,0.004909449491069178
3233.0,0.004893681088033385
3232.0,0.004877538553995284
3231.0,0.004861535631649969
3230.0,0.004845519494533351
3229.0,0.004830693905031044
3228.0,0.004819010230941974
3227.0,0.00481136419109939
3226.0,0.004806888401460065
3225.0,0.0048035101202905
3224.0,0.004799149252484935
3223.0,0.004792968150593123
3222.0,0.0047854448758049995
3221.0,0.004776755689066459
3220.0,0.004765627684197912
3219.0,0.0047508911620803024
3218.0,0.004733862034595649
3217.0,0.004717647171827653
3216.0,0.00470374501005877
3215.0,0.004690297528613642
3214.0,0.004674336331927882
3213.0,0.0046554956878393505
3212.0,0.004637004151648059
3211.0,0.004622836665288753
3210.0,0.004613993812348302
3209.0,0.004607873508190767
3208.0,0.004601445898979428
3207.0,0.00459424940051891
3206.0,0.0045874089174777095
3205.0,0.004580517738734033
3204.0,0.004571205696782971
3203.0,0.004557877213496472
3202.0,0.004541591140619714
3201.0,0.004525112430323915
3200.0,0.004511252759095202
3199.0,0.004501586140906172
3198.0,0.004494669564257606
3197.0,0.004485576401689927
3196.0,0.00446987737973392
3195.0,0.004448911572318483
3194.0,0.004429053464002381
3193.0,0.004415028574550133
3192.0,0.004405641146057018
3191.0,0.004396472324654176
3190.0,0.004384672247731733
3189.0,0.004370309221643659
3188.0,0.004355322459614978
3187.0,0.004342453006024535
3186.0,0.00433298905524479
3185.0,0.004324076130112828
3184.0,0.004310800785738059
3183.0,0.0042928565390522215
3182.0,0.004276417103819611
3181.0,0.0042666042452909414
3180.0,0.004260100149836197
3179.0,0.0042482169595352975
3178.0,0.004226477460433533
3177.0,0.004198805033310533
3176.0,0.004172948363857525
3175.0,0.004154130196066584
3174.0,0.004142718157392726
3173.0,0.004135465090808811
3172.0,0.004128392190001609
3171.0,0.004119616818797838
3170.0,0.004109433650531354
3169.0,0.004097753974423711
3168.0,0.00408357548576068
3167.0,0.004068192060935333
3166.0,0.004056254896216378
3165.0,0.004050743556555932
3164.0,0.004048125890573799
3163.0,0.00404116846965173
3162.0,0.004026370257348892
3161.0,0.004006931896504981
3160.0,0.003989038389543437
3159.0,0.00397688626731013
3158.0,0.003970291513171796
3157.0,0.0039648430238697595
3156.0,0.003954984797786596
3155.0,0.003939175312990862
3154.0,0.003921898811796114
3153.0,0.003909162275910953
3152.0,0.0039023588086878743
3151.0,0.0038975745986615656
3150.0,0.0038901610488623617
3149.0,0.0038786846381650567
3148.0,0.0038652546347134765
3147.0,0.0038536090918259193
3146.0,0.0038460911680432636
3145.0,0.003840900530900801
3144.0,0.0038331539062684385
3143.0,0.003820076903036731
3142.0,0.0038041061763041412
3141.0,0.0037895516835042536
3140.0,0.0037776313693453877
3139.0,0.0037668734320520526
3138.0,0.003757191428931712
3137.0,0.003750375715213864
3136.0,0.0037466260987383737
3135.0,0.0037433547260467305
3134.0,0.003737965066874637
3133.0,0.0037302703221920065
3132.0,0.0037219380555152384
3131.0,0.003714929022912446
3130.0,0.0037104700047249483
3129.0,0.0037077761849219366
3128.0,0.003703445592892339
3127.0,0.003693907354397132
3126.0,0.0036792175250834943
3125.0,0.0036636602360542933
3124.0,0.0036524801159529873
3123.0,0.0036482242258975553
3122.0,0.003649535141896196
3121.0,0.003652450810255963
3120.0,0.0036530481976795315
3119.0,0.003649997991926705
3118.0,0.0036451978009688253
3117.0,0.0036418554731176426
3116.0,0.0036419298825467383
3115.0,0.003645047373433171
3114.0,0.0036489423327995957
3113.0,0.0036509893707170962
3112.0,0.0036507414910463155
3111.0,0.003651114153426384
3110.0,0.0036554497051063343
3109.0,0.0036632672186271446
3108.0,0.0036710874235021647
3107.0,0.0036782624620491774
3106.0,0.0036888818698424947
3105.0,0.0037057932897471765
3104.0,0.0037254229176195463
3103.0,0.0037413515143473516
3102.0,0.0037517792661652507
3101.0,0.0037611065804169534
3100.0,0.003774765327269658
3099.0,0.003794840857224254
3098.0,0.0038201897532585474
3097.0,0.003847705781572424
3096.0,0.0038732456914896607
3095.0,0.0038938968114668685
3094.0,0.003910477826509902
3093.0,0.003926482880203553
3092.0,0.003944072150928893
3091.0,0.003962270393969995
3090.0,0.003979119128329779
3089.0,0.003994243174084621
3088.0,0.004008583725710819
3087.0,0.004022285109130498
3086.0,0.004033802295225566
3085.0,0.0040412877252864726
3084.0,0.0040444922304676
3083.0,0.0040449187748149845
3082.0,0.004043891923188405
3081.0,0.004040953755988708
3080.0,0.00403518979561617
3079.0,0.0040279834705698936
3078.0,0.004023124632454172
3077.0,0.004023512992293672
3076.0,0.004028229011355649
3075.0,0.004033196887344545
3074.0,0.004034292372412195
3073.0,0.004030165490442551
3072.0,0.004023301166426683
3071.0,0.004018476524083903
3070.0,0.004018862029548376
3069.0,0.004023027461173259
3068.0,0.00402651100392588
3067.0,0.004026224677451969
3066.0,0.004022756970669201
3065.0,0.00401892799509699
3064.0,0.004017529098949519
3063.0,0.00402020574997916
3062.0,0.004026336889491715
3061.0,0.004032836377658485
3060.0,0.004036962407794128
3059.0,0.0040399568183786
3058.0,0.004045886887111209
3057.0,0.004056023574460547
3056.0,0.004066359635867312
3055.0,0.004071767232793707
3054.0,0.00407147927711863
3053.0,0.004069322668067266
3052.0,0.004070152376683185
3051.0,0.004077049539104067
3050.0,0.004090311524286733
3049.0,0.004107740914002682
3048.0,0.004126413763287257
3047.0,0.004144774442502933
3046.0,0.0041625741303707164
3045.0,0.004179178131450928
3044.0,0.004193581059643885
3043.0,0.004206460090287929
3042.0,0.004220295942881892
3041.0,0.004236615205334652
3040.0,0.004254193915263756
3039.0,0.00427060564896836
3038.0,0.0042844973969378515
3037.0,0.004296205064354837
3036.0,0.004307534680406952
3035.0,0.004320892398127427
3034.0,0.004336724996151606
3033.0,0.004351600872158905
3032.0,0.004360834995992484
3031.0,0.004363711728879023
3030.0,0.004364402990088853
3029.0,0.004366782952372886
3028.0,0.004370614098476427
3027.0,0.004373410456209572
3026.0,0.004374084556715628
3025.0,0.004373727797837175
3024.0,0.004374100000627989
3023.0,0.004376177737900962
3022.0,0.0043790687243417245
3021.0,0.004380571929102904
3020.0,0.0043805947175398485
3019.0,0.004383376998965898
3018.0,0.004393783233410544
3017.0,0.004410870235314661
3016.0,0.004428111474177624
3015.0,0.004440386997638487
3014.0,0.004448154383292852
3013.0,0.0044546339327842166
3012.0,0.004462255034805745
3011.0,0.0044730655813363775
3010.0,0.0044888555901710205
3009.0,0.00450869097665432
3008.0,0.004528691614066336
3007.0,0.0045461105178311355
3006.0,0.004561895774583732
3005.0,0.004578287819315003
3004.0,0.004596147705803905
3003.0,0.004616123183571749
3002.0,0.004639881389362135
3001.0,0.004668204420884626
3000.0,0.004699579842007889
2999.0,0.004732276302033081
2998.0,0.004766341055904389
2997.0,0.004802624662592382
2996.0,0.004841684622444194
2995.0,0.004884686699193114
2994.0,0.00493301569245567
2993.0,0.00498561963184338
2992.0,0.005039202091379534
2991.0,0.0050926502078566405
2990.0,0.005149200975770325
2989.0,0.005212368845288881
2988.0,0.0052818765048021354
2987.0,0.005355596789575938
2986.0,0.0054338520422094454
2985.0,0.005519574836525244
2984.0,0.005615390128156197
2983.0,0.005722354742943577
2982.0,0.005840493524747319
2981.0,0.005969183825386581
2980.0,0.006107922693582327
2979.0,0.006257559562426365
2978.0,0.006419715977142769
2977.0,0.006594797899290765
2976.0,0.006782588751853702
2975.0,0.006984929240462042
2974.0,0.007205033366594279
2973.0,0.007443356420064445
2972.0,0.0076969131371570475
2971.0,0.007964185932983297
2970.0,0.008247540542726271
2969.0,0.008548969128192248
2968.0,0.008866295110439577
2967.0,0.009196310377245128
2966.0,0.009539328214242655
2965.0,0.009897829013759957
2964.0,0.010271903793086614
2963.0,0.010658534774022477
2962.0,0.011054029705270425
2961.0,0.011455122199562197
2960.0,0.011858368673114466
2959.0,0.012260349996778669
2958.0,0.01265869653277759
2957.0,0.01305272954282109
2956.0,0.013444789135023876
2955.0,0.013841657064829649
2954.0,0.014253654809695947
2953.0,0.014692572526159926
2952.0,0.015173007712115546
2951.0,0.01571625630384607
2950.0,0.016350726131891057
2949.0,0.01710728232357018
2948.0,0.018013704332071227
2947.0,0.019093502599464636
2946.0,0.020367135494926195
2945.0,0.02185334294776852
2944.0,0.02357049304411039
2943.0,0.02553454750469322
2942.0,0.027754398127196087
2941.0,0.03023173775164703
2940.0,0.032969226190828725
2939.0,0.03597929991695604
2938.0,0.0392824913798834
2937.0,0.042900972442821844
2936.0,0.04686063294255842
2935.0,0.05119641958754888
2934.0,0.0559477935342296
2933.0,0.06114989941311774
2932.0,0.0668367951773824
2931.0,0.07305427461484809
2930.0,0.07986790967282452
2929.0,0.08736609451168693
2928.0,0.0956691090372233
2927.0,0.10493289163989873
2926.0,0.11532344260513815
2925.0,0.1269750737955019
2924.0,0.13995509176226012
2923.0,0.15422990330553096
2922.0,0.16962196139241018
2921.0,0.18576955903464573
2920.0,0.2020826108692061
2919.0,0.21764461718438324
2918.0,0.23111870055514502
2917.0,0.24086371242535734
2916.0,0.2454037393328974
2915.0,0.24403448634897207
2914.0,0.2371415258232766
2913.0,0.22606884981815073
2912.0,0.21259651629374537
2911.0,0.19836681271047804
2910.0,0.1845613409173899
2909.0,0.17185079570596823
2908.0,0.16053714567080493
2907.0,0.15068430305349537
2906.0,0.1422064359612231
2905.0,0.13494079080546562
2904.0,0.12870950752512608
2903.0,0.12334430198247576
2902.0,0.11867783066943244
2901.0,0.11454891336435769
2900.0,0.11082260133313751
2899.0,0.10739635237668746
2898.0,0.1041824248568312
2897.0,0.1010993801105932
2896.0,0.09808384199466218
2895.0,0.09509789931786793
2894.0,0.0921211889005689
2893.0,0.08914004019932094
2892.0,0.0861478632757136
2891.0,0.08314617897850692
2890.0,0.08013843014147774
2889.0,0.07712859346360837
2888.0,0.07412485861014591
2887.0,0.0711390253769415
2886.0,0.06818048105892002
2885.0,0.06525394502073283
2884.0,0.06236337514367493
2883.0,0.059512887040965315
2882.0,0.05670360697459005
2881.0,0.053936607932081736
2880.0,0.05122181060135587
2879.0,0.04858347815240831
2878.0,0.04605712708600603
2877.0,0.04368457642231914
2876.0,0.04151075297221667
2875.0,0.03957722368779247
2874.0,0.03791257952303582
2873.0,0.036526573242681194
2872.0,0.035415574536328584
2871.0,0.03457293715216365
2870.0,0.03399822546534053
2869.0,0.033702593248955824
2868.0,0.033712787945522994
2867.0,0.03407266467071541
2866.0,0.03483936412226433
2865.0,0.03607790796611434
2864.0,0.037862792687753
2863.0,0.04028455534918897
2862.0,0.043454015989715766
2861.0,0.04750416599436047
2860.0,0.052596150219795565
2859.0,0.05892859656684613
2858.0,0.06675080967203222
2857.0,0.07636879749319965
2856.0,0.0881504964617102
2855.0,0.10247941170361466
2854.0,0.11962739449788244
2853.0,0.13950999141902837
2852.0,0.16128846941396918
2851.0,0.18293099294537876
2850.0,0.20104024092413803
2849.0,0.21166177640525863
2848.0,0.21214783014725833
2847.0,0.2027552088469265
2846.0,0.18632842268669988
2845.0,0.16658714237243483
2844.0,0.14657317622133234
2843.0,0.12811783227662465
2842.0,0.11202307785276548
2841.0,0.09844454654771947
2840.0,0.08719957572426025
2839.0,0.07796379837488498
2838.0,0.07036993500678951
2837.0,0.06408478576685707
2836.0,0.058836889505341355
2835.0,0.05441462001223164
2834.0,0.050654887057406256
2833.0,0.04742807066321577
2832.0,0.044633121787056806
2831.0,0.04218709748045134
2830.0,0.040023096730001276
2829.0,0.03809000706840742
2828.0,0.03635168449357118
2827.0,0.03478143533689025
2826.0,0.033356489361876414
2825.0,0.032057349264231545
2824.0,0.030869067981681278
2823.0,0.029779468916854318
2822.0,0.028777020235191512
2821.0,0.027851252110828607
2820.0,0.026994855988352422
2819.0,0.02620218659248615
2818.0,0.0254654679389255
2817.0,0.02477499179569198
2816.0,0.024124055908469902
2815.0,0.02351143662572025
2814.0,0.02293682114430637
2813.0,0.022395445292676095
2812.0,0.02188017328191859
2811.0,0.021387831850008452
2810.0,0.020920189991372472
2809.0,0.020478242230647134
2808.0,0.020058845530488808
2807.0,0.019657787296955862
2806.0,0.019273068256584164
2805.0,0.01890337992044704
2804.0,0.018545830373604768
2803.0,0.018197876517488363
2802.0,0.017860323188353365
2801.0,0.01753609722086537
2800.0,0.017226562222848
2799.0,0.016930084907522725
2798.0,0.01664329867027258
2797.0,0.01636259534262676
2796.0,0.01608536304937241
2795.0,0.015811625747751717
2794.0,0.015543594778324454
2793.0,0.015282097812441914
2792.0,0.015024356409430291
2791.0,0.01476704978465668
2790.0,0.014510721116742932
2789.0,0.01425917775979195
2788.0,0.01401483050842901
2787.0,0.013776354679480102
2786.0,0.01354128902468793
2785.0,0.013309677340036609
2784.0,0.013084583264487264
2783.0,0.012869747825109124
2782.0,0.012666989459726464
2781.0,0.01247522826404277
2780.0,0.012291820530147875
2779.0,0.012114958376483572
2778.0,0.011944554985357462
2777.0,0.011781086740712045
2776.0,0.011624596897984023
2775.0,0.01147482506030849
2774.0,0.011331213378056721
2773.0,0.011192570328548533
2772.0,0.011057844194676009
2771.0,0.010927360098859097
2770.0,0.010802022508115782
2769.0,0.010681404388143054
2768.0,0.010564336003933089
2767.0,0.010451363806625556
2766.0,0.010344268395596148
2765.0,0.01024260695731287
2764.0,0.010143288116035458
2763.0,0.0100445404007386
2762.0,0.009947977317480693
2761.0,0.009855351579604505
2760.0,0.009765642293157354
2759.0,0.009677195121193666
2758.0,0.009590474265627648
2757.0,0.009506764059392638
2756.0,0.009426117625702304
2755.0,0.009348730064343126
2754.0,0.00927662844673777
2753.0,0.009211577609254803
2752.0,0.009152641163730008
2751.0,0.009097915827091452
2750.0,0.009047237774692726
2749.0,0.009000942820760997
2748.0,0.00895730741172473
2747.0,0.00891399260699898
2746.0,0.008871520042368249
2745.0,0.008832731132969
2744.0,0.008798772547439545
2743.0,0.008767412790768354
2742.0,0.008735290619986416
2741.0,0.008700438514617114
2740.0,0.008662633852239277
2739.0,0.008622514970401595
2738.0,0.008580370867670706
2737.0,0.008535100024816977
2736.0,0.008484869317070083
2735.0,0.008429419208797567
2734.0,0.008371036676980753
2733.0,0.008312675922624786
2732.0,0.008255743967787011
2731.0,0.008200255267273906
2730.0,0.008146095944144704
2729.0,0.008093222717611917
2728.0,0.008041411630161586
2727.0,0.007990323120096407
2726.0,0.007939235361225054
2725.0,0.00788685883807257
2724.0,0.0078326771119149
2723.0,0.00777834423656148
2722.0,0.007726017524565934
2721.0,0.0076754812156233625
2720.0,0.007624971045997735
2719.0,0.007574859528659047
2718.0,0.0075279156792817815
2717.0,0.007485222509768519
2716.0,0.007444597715350172
2715.0,0.007403991306515194
2714.0,0.007363860986966985
2713.0,0.007325104071439667
2712.0,0.00728732322700501
2711.0,0.007250381898721528
2710.0,0.007214884739251359
2709.0,0.007179435571997243
2708.0,0.007140234762084356
2707.0,0.007095693841607539
2706.0,0.00704912758681751
2705.0,0.007004887006039908
2704.0,0.006963824533849972
2703.0,0.006924391229219279
2702.0,0.006885762116828269
2701.0,0.006847628436227429
2700.0,0.006809168363538121
2699.0,0.006770777041335198
2698.0,0.0067350669783765235
2697.0,0.006703865359230711
2696.0,0.006675916878313379
2695.0,0.006649543285260188
2694.0,0.006625675970807371
2693.0,0.006605917881794951
2692.0,0.006589627739887157
2691.0,0.006575444717500085
2690.0,0.006563873693794929
2689.0,0.006555643711553824
2688.0,0.0065488549982749
2687.0,0.006540535054814025
2686.0,0.006530178455196
2685.0,0.006519666275442929
2684.0,0.006510737858228881
2683.0,0.006504450517068177
2682.0,0.0065018650430662215
2681.0,0.006503094969732351
2680.0,0.006506609349183293
2679.0,0.006511258305519815
2678.0,0.0065178259249027825
2677.0,0.0065270525635451535
2676.0,0.006537769823924374
2675.0,0.006548929353435698
2674.0,0.006562011841505379
2673.0,0.006579237481152814
2672.0,0.0066004759122808895
2671.0,0.006623721739698274
2670.0,0.006647432245386775
2669.0,0.006670676039129733
2668.0,0.006692303586619836
2667.0,0.006711963050829568
2666.0,0.0067310678665027015
2665.0,0.006751380918867719
2664.0,0.006773449714840705
2663.0,0.006796967526829208
2662.0,0.006820684752996638
2661.0,0.006841099593144001
2660.0,0.006853949813120701
2659.0,0.006858808511724896
2658.0,0.006860043755102414
2657.0,0.006861259191869114
2656.0,0.006861050575246641
2655.0,0.006856402120043653
2654.0,0.00684763714304322
2653.0,0.006837349925981234
2652.0,0.006826744205298442
2651.0,0.006816315941409466
2650.0,0.006808464967851702
2649.0,0.006806000737017566
2648.0,0.006809021230037392
2647.0,0.006815980708008327
2646.0,0.006826468621060034
2645.0,0.006840222103558193
2644.0,0.006854940533598036
2643.0,0.0068683002783286404
2642.0,0.006881365223458611
2641.0,0.006897121177197525
2640.0,0.006916356868860439
2639.0,0.006937296859514625
2638.0,0.006957957447858869
2637.0,0.00697607271544556
2636.0,0.006987670692548305
2635.0,0.006988756459667511
2634.0,0.006978090109105177
2633.0,0.00695639659128915
2632.0,0.006924272658194794
2631.0,0.006883224229834098
2630.0,0.006837336985002265
2629.0,0.006790901504369062
2628.0,0.006744671275493408
2627.0,0.006696645625859435
2626.0,0.006645874636736963
2625.0,0.006593687710485921
2624.0,0.00654224240707227
2623.0,0.006493445622697883
2622.0,0.006447854539073188
2621.0,0.006403003942150497
2620.0,0.0063548970783904885
2619.0,0.0063031076257693205
2618.0,0.006252006832638712
2617.0,0.006204994678613645
2616.0,0.006160415418438595
2615.0,0.00611581466962911
2614.0,0.006073018532420911
2613.0,0.0060351616379645465
2612.0,0.006001315765266777
2611.0,0.00596789732924281
2610.0,0.005933148510014804
2609.0,0.005896643028835477
2608.0,0.005857240579937372
2607.0,0.005816009419627028
2606.0,0.00577863380589279
2605.0,0.005749645641603841
2604.0,0.005725597771858848
2603.0,0.005699092134971223
2602.0,0.005668549787345668
2601.0,0.005639011524554626
2600.0,0.005613941387350457
2599.0,0.005591209952964881
2598.0,0.005567323653474698
2597.0,0.0055411033188672515
2596.0,0.005512574448862632
2595.0,0.005481853395768035
2594.0,0.005449863602117311
2593.0,0.005417687886773742
2592.0,0.005385231791980014
2591.0,0.005352572515267965
2590.0,0.005321552843630521
2589.0,0.005293502358064777
2588.0,0.005266722183042918
2587.0,0.005239088834761753
2586.0,0.00521164764773479
2585.0,0.005186525290676308
2584.0,0.005162808366526937
2583.0,0.005137841485848258
2582.0,0.005111348221244038
2581.0,0.005085005305374767
2580.0,0.0050591598489442315
2579.0,0.005033272129584508
2578.0,0.00500845257164621
2577.0,0.004986391905542455
2576.0,0.004966794816731937
2575.0,0.004948447235845694
2574.0,0.004931198940148616
2573.0,0.004914170402636268
2572.0,0.00489428279802628
2571.0,0.004870224603589355
2570.0,0.0048461067657968844
2569.0,0.0048274978625063945
2568.0,0.0048150721222264955
2567.0,0.004805151234334943
2566.0,0.004794800003746276
2565.0,0.004783075216924388
2564.0,0.004769021966127762
2563.0,0.004752250788557843
2562.0,0.004734339221664436
2561.0,0.004716392855250469
2560.0,0.004696597413992207
2559.0,0.004673414672396723
2558.0,0.004649824087102994
2557.0,0.004631101796481004
2556.0,0.004619333883611136
2555.0,0.004612719541585739
2554.0,0.004608925689525415
2553.0,0.004606334684046687
2552.0,0.004603166829707073
2551.0,0.0045979571345830346
2550.0,0.004590039874436749
2549.0,0.004578192359178029
2548.0,0.00456061740963654
2547.0,0.004537341565311744
2546.0,0.004509991197717121
2545.0,0.004478290517189995
2544.0,0.0044407243692610445
2543.0,0.0044005028000695945
2542.0,0.004366351288735115
2541.0,0.004344009799200084
2540.0,0.0043304967604251635
2539.0,0.004319936303134764
2538.0,0.004311173249870386
2537.0,0.0043063199223056774
2536.0,0.004305865251101577
2535.0,0.004309066500582109
2534.0,0.0043156629387914
2533.0,0.004323483722231061
2532.0,0.004327897931644064
2531.0,0.004327443958743225
2530.0,0.004326502542173286
2529.0,0.004328621552149391
2528.0,0.004330627285155056
2527.0,0.004327039096723493
2526.0,0.004316774679098987
2525.0,0.004301681689277308
2524.0,0.0042822530305095035
2523.0,0.004259037435028556
2522.0,0.004234829986794264
2521.0,0.004211404216868712
2520.0,0.004187387518596533
2519.0,0.004162892939222705
2518.0,0.0041420828602945926
2517.0,0.004126916666997048
2516.0,0.004112550874306596
2515.0,0.00409374200818365
2514.0,0.00407197035323879
2513.0,0.004051658743165219
2512.0,0.00403363731669415
2511.0,0.004017374109334524
2510.0,0.004005246558812023
2509.0,0.003998491143296329
2508.0,0.00399220932625644
2507.0,0.00398059132836089
2506.0,0.003964949490367133
2505.0,0.0039513943388816445
2504.0,0.003942771974563214
2503.0,0.003937466361931657
2502.0,0.003933431577335964
2501.0,0.003928741015710604
2500.0,0.003920915650868384
2499.0,0.003910191891661176
2498.0,0.0039008147738230706
2497.0,0.0038952239872744893
2496.0,0.003890146394449727
2495.0,0.0038819875629122723
2494.0,0.003871809776854053
2493.0,0.0038610476018268837
2492.0,0.0038476174532669624
2491.0,0.003831540272840892
2490.0,0.0038189228990107614
2489.0,0.0038137286955834153
2488.0,0.0038104634609570868
2487.0,0.0038024415996785986
2486.0,0.003793080592633347
2485.0,0.003790740843544133
2484.0,0.0037952876374243716
2483.0,0.0037981329714146354
2482.0,0.0037941400903397596
2481.0,0.0037859926375949544
2480.0,0.00377753640733734
2479.0,0.0037695241497619006
2478.0,0.003761891339984274
2477.0,0.0037548141051066772
2476.0,0.003747581281760284
2475.0,0.0037402202138051895
2474.0,0.003734470519322521
2473.0,0.003729317982581505
2472.0,0.003718914981878891
2471.0,0.0037001625668307853
2470.0,0.0036789589064113335
2469.0,0.0036627229901189566
2468.0,0.003649678751259995
2467.0,0.0036324785835594453
2466.0,0.0036101956290589725
2465.0,0.0035892742427154926
2464.0,0.0035737296375045946
2463.0,0.0035618469115681808
2462.0,0.00355271832175162
2461.0,0.0035491377718651447
2460.0,0.0035524065430188
2459.0,0.0035590615319014514
2458.0,0.0035639783992129836
2457.0,0.0035636339487016087
2456.0,0.003556844128682896
2455.0,0.003545683523685542
2454.0,0.0035348601300462497
2453.0,0.003527098900255773
2452.0,0.003520549149145836
2451.0,0.0035134902485243922
2450.0,0.003508628087617929
2449.0,0.003508571137139915
2448.0,0.00350996634349578
2447.0,0.003507269427513478
2446.0,0.0035003017715390895
2445.0,0.0034932309912719265
2444.0,0.0034880217944133745
2443.0,0.0034836151181411824
2442.0,0.003479629046465105
2441.0,0.0034761075004364865
2440.0,0.003471429222475517
2439.0,0.003465024666594622
2438.0,0.0034601645735707533
2437.0,0.0034594864531008003
2436.0,0.003459943724575974
2435.0,0.003456984821790461
2434.0,0.003451571303616993
2433.0,0.003448063700811313
2432.0,0.003447126721429333
2431.0,0.0034458668941137307
2430.0,0.0034433587295340214
2429.0,0.003441048298730257
2428.0,0.0034392588629087928
2427.0,0.0034381694689340067
2426.0,0.0034406534530597045
2425.0,0.0034490339562787964
2424.0,0.0034600621467331966
2423.0,0.0034679192517538286
2422.0,0.0034714440322056953
2421.0,0.0034740038255586404
2420.0,0.003476879588262919
2419.0,0.0034768670723352236
2418.0,0.003470289321776894
2417.0,0.003456578789778779
2416.0,0.0034385269507901514
2415.0,0.003420906168806961
2414.0,0.003407485272062888
2413.0,0.0033980687174768867
2412.0,0.003390553393173198
2411.0,0.003386020115069434
2410.0,0.003386821856624528
2409.0,0.003387931219020904
2408.0,0.0033770124384240726
2407.0,0.003348340383269031
2406.0,0.003311786689996046
2405.0,0.00328268424610279
2404.0,0.0032669532107453096
2403.0,0.0032607021115614743
2402.0,0.003258873592956602
2401.0,0.0032576599600481725
2400.0,0.0032525815488473105
2399.0,0.003241782847801822
2398.0,0.003229683246504032
2397.0,0.0032217274174542888
2396.0,0.003217259196518143
2395.0,0.0032123636209967785
2394.0,0.0032066832328206197
2393.0,0.0032016454333582507
2392.0,0.003195045308063963
2391.0,0.003183949329680129
2390.0,0.003171245515445332
2389.0,0.003163294186299271
2388.0,0.003162041785728968
2387.0,0.003164740052584677
2386.0,0.0031700803373643054
2385.0,0.0031788144804831336
2384.0,0.003189057214664382
2383.0,0.0031967093987730595
2382.0,0.0032006168026721795
2381.0,0.003202083924073562
2380.0,0.0031986626573907518
2379.0,0.003184266962876648
2378.0,0.0031581846813985787
2377.0,0.0031288628340151404
2376.0,0.003106103240254063
2375.0,0.0030934901283142385
2374.0,0.0030890827761685374
2373.0,0.0030886694477671086
2372.0,0.0030877840259307798
2371.0,0.0030872687249758977
2370.0,0.003096787470176326
2369.0,0.003123374426461014
2368.0,0.0031576324839265217
2367.0,0.0031834377263368057
2366.0,0.0031998158180052815
2365.0,0.0032183497546373983
2364.0,0.0032411619931560854
2363.0,0.0032606663735456594
2362.0,0.003274357546016104
2361.0,0.0032819468080305374
2360.0,0.0032823820443258333
2359.0,0.003281608213196254
2358.0,0.0032891203488951484
2357.0,0.0032973281025513385
2356.0,0.0032841835734606223
2355.0,0.003253474122910463
2354.0,0.003238262807779146
2353.0,0.0032601858393930937
2352.0,0.0033058973960644056
2351.0,0.0033481299688362933
2350.0,0.003377280925768558
2349.0,0.003396331224850218
2348.0,0.0034111476174423765
2347.0,0.0034267816195295894
2346.0,0.0034474497275332992
2345.0,0.003475191686189421
2344.0,0.003500618779233684
2343.0,0.0035168963139392898
2342.0,0.0035256588014510367
2341.0,0.003533596356683816
2340.0,0.0035474958952187788
2339.0,0.00356648425303145
2338.0,0.0035846065274407687
2337.0,0.0035911862987032
2336.0,0.003580595080585768
2335.0,0.0035612289199588405
2334.0,0.003550906643112507
2333.0,0.0035597719884602076
2332.0,0.003583030659108829
2331.0,0.0036083964665125316
2330.0,0.0036336680437508437
2329.0,0.003664162333570084
2328.0,0.0037111904310803768
2327.0,0.003788000352781452
2326.0,0.003893283040177136
2325.0,0.0040012921161725595
2324.0,0.004066916089008852
2323.0,0.00406772901186644
2322.0,0.004022101654420302
2321.0,0.0039661420346154275
2320.0,0.003918291370976546
2319.0,0.003878077964640194
2318.0,0.003846224620088627
2317.0,0.0038233413699407413
2316.0,0.0038050827095722356
2315.0,0.0037864637531969487
2314.0,0.0037714331682186268
2313.0,0.003764448067887711
2312.0,0.003760958415114077
2311.0,0.0037545888440394188
2310.0,0.0037481145035533825
2309.0,0.0037469475086030863
2308.0,0.003745270273051939
2307.0,0.00373300933504831
2306.0,0.003710570217506099
2305.0,0.003689806251229834
2304.0,0.0036785671434594134
2303.0,0.0036754168390063444
2302.0,0.0036754783210462038
2301.0,0.003675182180040236
2300.0,0.0036711679905138293
2299.0,0.0036619982063890045
2298.0,0.0036513507007013635
2297.0,0.003644585552662216
2296.0,0.0036426868010375566
2295.0,0.00364444018484716
2294.0,0.003651231256720894
2293.0,0.003665568131631618
2292.0,0.003684682231671524
2291.0,0.003702890187652034
2290.0,0.0037174084676529027
2289.0,0.0037297094241780706
2288.0,0.003741477656250788
2287.0,0.003753893456876465
2286.0,0.0037669397684862056
2285.0,0.003776236701498621
2284.0,0.0037738561770662045
2283.0,0.003757592997677958
2282.0,0.003735885956831204
2281.0,0.003718939240711037
2280.0,0.003708343515732966
2279.0,0.0037000025208662616
2278.0,0.0036922288419792212
2277.0,0.003684487932751274
2276.0,0.0036737938240659664
2275.0,0.003659153963052754
2274.0,0.003645556879788449
2273.0,0.0036360162744512757
2272.0,0.003625131897283233
2271.0,0.0036077977407472104
2270.0,0.0035888844653974347
2269.0,0.003576168740351213
2268.0,0.003568273010664407
2267.0,0.0035580065612997955
2266.0,0.0035429100584088513
2265.0,0.0035251762053570314
2264.0,0.0035065448508454613
2263.0,0.003490875198437266
2262.0,0.003485767191746505
2261.0,0.003493749807119505
2260.0,0.0035069568163511675
2259.0,0.003517422392943428
2258.0,0.003524873363165957
2257.0,0.0035279889733776998
2256.0,0.003518564513759671
2255.0,0.0034948677687134345
2254.0,0.0034717666702141405
2253.0,0.0034649508277535667
2252.0,0.0034726341259022683
2251.0,0.0034831767705587914
2250.0,0.003492709572221031
2249.0,0.0035031056444085086
2248.0,0.003510999360035188
2247.0,0.0035124971340652258
2246.0,0.0035129801465474944
2245.0,0.0035202743577580275
2244.0,0.0035324066203713325
2243.0,0.003542231828260499
2242.0,0.00354784131625893
2241.0,0.0035488195952899544
2240.0,0.0035404058790192115
2239.0,0.0035221855597621548
2238.0,0.0035046108919139186
2237.0,0.003496043001283201
2236.0,0.0034911415904598717
2235.0,0.0034823540321997706
2234.0,0.003473080577953447
2233.0,0.003468037323666081
2232.0,0.0034616861377891155
2231.0,0.0034496817972658952
2230.0,0.0034407614841853703
2229.0,0.0034424692232644894
2228.0,0.0034460906337135814
2227.0,0.0034410279566856536
2226.0,0.003433174607368638
2225.0,0.0034334560799009206
2224.0,0.0034392309837832707
2223.0,0.003443582828745821
2222.0,0.0034506526314392726
2221.0,0.003463172626464203
2220.0,0.003467494803203088
2219.0,0.003452503553216223
2218.0,0.00343311111689518
2217.0,0.0034315050257379374
2216.0,0.0034434407736782186
2215.0,0.003446826356243756
2214.0,0.0034370602150798337
2213.0,0.003430712624530545
2212.0,0.0034380283055058048
2211.0,0.0034547085819738163
2210.0,0.0034780412548839354
2209.0,0.003507868494287511
2208.0,0.0035325479862604913
2207.0,0.0035351913700832505
2206.0,0.003516389523994393
2205.0,0.003494376727043236
2204.0,0.003481581616597072
2203.0,0.0034757386375875773
2202.0,0.0034724822883438053
2201.0,0.003471015686719826
2200.0,0.0034672471368763728
2199.0,0.0034554859158077286
2198.0,0.003439698360177524
2197.0,0.0034339350914954006
2196.0,0.0034503227500312294
2195.0,0.003489858793932237
2194.0,0.0035395017762681344
2193.0,0.0035762408534287388
2192.0,0.003585538342390577
2191.0,0.0035795406759291624
2190.0,0.0035829902816317772
2189.0,0.0035988579726460137
2188.0,0.003608487196056607
2187.0,0.0036083537180891644
2186.0,0.0036157399269738403
2185.0,0.003626551066822032
2184.0,0.0036037009714769497
2183.0,0.0035320218545410375
2182.0,0.0034534986563369823
2181.0,0.003416896359697926
2180.0,0.003419970868879115
2179.0,0.0034342593474074685
2178.0,0.0034545401428142724
2177.0,0.0034825694317286264
2176.0,0.0034917898093774578
2175.0,0.003458581882753578
2174.0,0.0034127447991202514
2173.0,0.003407373007276824
2172.0,0.0034460645450645876
2171.0,0.003486155102585554
2170.0,0.0035087517863740996
2169.0,0.0035412006562654677
2168.0,0.003607082746926761
2167.0,0.0036926422064320055
2166.0,0.003774060606325007
2165.0,0.0038472072106892734
2164.0,0.00391589055560314
2163.0,0.003969122533739662
2162.0,0.003978322136769569
2161.0,0.003906214581727287
2160.0,0.003725895489002317
2159.0,0.0034568348639162343
2158.0,0.0031781713573183134
2157.0,0.0029762445611293915
2156.0,0.0028808530804903644
2155.0,0.0028691844621969156
2154.0,0.002906857124060352
2153.0,0.002962825674088611
2152.0,0.003012153179157479
2151.0,0.0030488683728617854
2150.0,0.00308280018701485
2149.0,0.0031132887217149713
2148.0,0.0031242724216705856
2147.0,0.0031143727429603267
2146.0,0.0031055314756336
2145.0,0.0031064914172526416
2144.0,0.0030953080214367714
2143.0,0.0030580921352172732
2142.0,0.003018528053015227
2141.0,0.0030052886061271537
2140.0,0.003012207983478285
2139.0,0.0030154723684434623
2138.0,0.0030081955954459564
2137.0,0.0029904804104279826
2136.0,0.0029467438685603278
2135.0,0.002866840956893951
2134.0,0.002777899073914748
2133.0,0.0027233136243649814
2132.0,0.002715770720886462
2131.0,0.002734766192631231
2130.0,0.0027609577225355285
2129.0,0.002788414549226065
2128.0,0.0028122401353977613
2127.0,0.0028279121818723463
2126.0,0.002840364400840554
2125.0,0.0028566218231493024
2124.0,0.0028724263364350326
2123.0,0.0028806146464172983
2122.0,0.0028868281571484966
2121.0,0.0029015745512545182
2120.0,0.002922088476521331
2119.0,0.002938324498987884
2118.0,0.0029521692916304257
2117.0,0.0029743441286515584
2116.0,0.0030045511893776336
2115.0,0.003029797158804288
2114.0,0.003041655844846291
2113.0,0.0030431592885439233
2112.0,0.003040648905689833
2111.0,0.0030395672762085118
2110.0,0.003045284711102815
2109.0,0.003057225418726571
2108.0,0.0030657651151743924
2107.0,0.003064682736979874
2106.0,0.0030614662315126707
2105.0,0.0030660540083445867
2104.0,0.0030766064839674962
2103.0,0.003085813695001257
2102.0,0.003091973556956332
2101.0,0.0030930210754884007
2100.0,0.003080677410119875
2099.0,0.0030532979182148695
2098.0,0.0030235078671521105
2097.0,0.0029993453590654567
2096.0,0.0029701071880354176
2095.0,0.0029279755895313953
2094.0,0.0028912343904909325
2093.0,0.0028854435238221095
2092.0,0.0029111244123267745
2091.0,0.002948404541899826
2090.0,0.00298345081431064
2089.0,0.0030125647000684057
2088.0,0.003030379463499735
2087.0,0.0030348487994048485
2086.0,0.0030383095128613353
2085.0,0.0030550235841575865
2084.0,0.0030815051112401534
2083.0,0.0031048531595222655
2082.0,0.00312427649972337
2081.0,0.0031466787881441376
2080.0,0.0031673776828177284
2079.0,0.0031749182332268134
2078.0,0.0031714594585314946
2077.0,0.0031696532382256993
2076.0,0.0031716409134981242
2075.0,0.003168757494766812
2074.0,0.00316026050834735
2073.0,0.0031560557954880214
2072.0,0.0031619089766924315
2071.0,0.003175179872884946
2070.0,0.0031919213489358094
2069.0,0.0032058696710484946
2068.0,0.0032072300788436835
2067.0,0.0031954152350179912
2066.0,0.003185831422399008
2065.0,0.0031917016218660386
2064.0,0.0032073653656134998
2063.0,0.0032217435301077103
2062.0,0.0032343507418986514
2061.0,0.00324508017952643
2060.0,0.003247122012467531
2059.0,0.003244955391799775
2058.0,0.0032575743205986414
2057.0,0.003284460226332263
2056.0,0.003293396543308215
2055.0,0.003271883661200162
2054.0,0.0032677191642282903
2053.0,0.003337641972892276
2052.0,0.003468456312468132
2051.0,0.003586561712469685
2050.0,0.0036373664724408724
2049.0,0.0036250535483521654
2048.0,0.0035809507288995426
2047.0,0.0035278562732710588
2046.0,0.003482835605657649
2045.0,0.0034611965469664267
2044.0,0.0034626877117341333
2043.0,0.0034761497952441947
2042.0,0.003500839999922167
2041.0,0.003541797675335542
2040.0,0.003590142986732707
2039.0,0.003634489152312086
2038.0,0.0036824839763437544
2037.0,0.0037409104471484884
2036.0,0.0037855122583704583
2035.0,0.003784757665690369
2034.0,0.0037471785774545784
2033.0,0.0037098033269210963
2032.0,0.0036834971753635353
2031.0,0.003648049577241258
2030.0,0.003599579242535826
2029.0,0.0035656132155256898
2028.0,0.0035703008310550236
2027.0,0.003613830071589585
2026.0,0.003685508242511854
2025.0,0.003768057876086514
2024.0,0.00383240741583165
2023.0,0.0038558925801184104
2022.0,0.003844608973900197
2021.0,0.0038220683246914513
2020.0,0.0038038745394051417
2019.0,0.003796935027190653
2018.0,0.003807167201111096
2017.0,0.003825121547123631
2016.0,0.003821330436180866
2015.0,0.0037804033625232344
2014.0,0.0037221929888136534
2013.0,0.003673054305081111
2012.0,0.003636997680012773
2011.0,0.0036101120407837015
2010.0,0.0035968314235336916
2009.0,0.0035860941687191747
2008.0,0.0035393932668107368
2007.0,0.0034375825315151815
2006.0,0.0033167981828835765
2005.0,0.0032255988879646945
2004.0,0.0031711929940874996
2003.0,0.003139861413360378
2002.0,0.003140456976579333
2001.0,0.003186013809553789
2000.0,0.0032538252820903113
1999.0,0.003304269474053924
1998.0,0.003326395084724351
1997.0,0.003333284527078476
1996.0,0.0033292255843370656
1995.0,0.003313834501509727
1994.0,0.003303659379806632
1993.0,0.0033152541711350654
1992.0,0.0033341546519586734
1991.0,0.003337228261340826
1990.0,0.003334429122374247
1989.0,0.0033486059350655035
1988.0,0.003372291920187457
1987.0,0.0033834083456081576
1986.0,0.0033886539651826917
1985.0,0.0034126508052491735
1984.0,0.0034554418498695064
1983.0,0.0035008656523973372
1982.0,0.003555313182978
1981.0,0.003631081574834257
1980.0,0.0036944557011115006
1979.0,0.003679402249617994
1978.0,0.0035687368434256656
1977.0,0.0034254108296741838
1976.0,0.0033214311627657866
1975.0,0.0032711060243239736
1974.0,0.003249368347665941
1973.0,0.003231846932981873
1972.0,0.003203827996348588
1971.0,0.003164160202876333
1970.0,0.0031302313120555427
1969.0,0.003120712753348886
1968.0,0.003132369861224905
1967.0,0.003149317574989541
1966.0,0.003166464933403024
1965.0,0.0031821101815644034
1964.0,0.0031827562835125564
1963.0,0.003160421061438868
1962.0,0.003129993010224922
1961.0,0.0031064818750108055
1960.0,0.0030801144944067275
1959.0,0.0030396855397839097
1958.0,0.003002966772237844
1957.0,0.002994607973930445
1956.0,0.003010204787932416
1955.0,0.003028938834140197
1954.0,0.003044778474818043
1953.0,0.003058645922205583
1952.0,0.003057425242004294
1951.0,0.003031668376287381
1950.0,0.0030001769656822688
1949.0,0.002986668253367043
1948.0,0.002983831254623424
1947.0,0.0029697443802334618
1946.0,0.002948957377017017
1945.0,0.002945520373009451
1944.0,0.002962163327915427
1943.0,0.0029761708057378993
1942.0,0.0029756893693683017
1941.0,0.0029710645893249376
1940.0,0.002968563023215373
1939.0,0.0029643812976422653
1938.0,0.0029616560559055025
1937.0,0.002965939813202486
1936.0,0.0029675809767416104
1935.0,0.0029515066118240172
1934.0,0.002923527132039645
1933.0,0.0029058902706014926
1932.0,0.0029064553692929106
1931.0,0.0029124421042817012
1930.0,0.002913021866609251
1929.0,0.0029091157518951207
1928.0,0.0029039028312622776
1927.0,0.0028983498724148783
1926.0,0.002895618305300658
1925.0,0.0028970717836711373
1924.0,0.0028972856280571288
1923.0,0.002895410243344953
1922.0,0.0029034859772503812
1921.0,0.002928578603968326
1920.0,0.002957299100121108
1919.0,0.0029707482570680934
1918.0,0.002966768368154179
1917.0,0.0029572961147371363
1916.0,0.0029484993905123645
1915.0,0.0029400429691162646
1914.0,0.0029371189023270697
1913.0,0.0029446451774343832
1912.0,0.0029553431966230647
1911.0,0.002959004259860131
1910.0,0.0029585463361310586
1909.0,0.0029628351421536804
1908.0,0.00297133722139185
1907.0,0.0029800720391848523
1906.0,0.002994840794625284
1905.0,0.003021089353470988
1904.0,0.003048934068778251
1903.0,0.0030649080282667395
1902.0,0.0030704060965183865
1901.0,0.0030759950864100768
1900.0,0.0030847935328303707
1899.0,0.003093663796865446
1898.0,0.0031039019576430188
1897.0,0.003116144881972824
1896.0,0.0031208697586663746
1895.0,0.003109650592871143
1894.0,0.0030903164035409386
1893.0,0.0030746788828557824
1892.0,0.0030588853002297255
1891.0,0.003031090005815067
1890.0,0.002992613314680445
1889.0,0.0029574192913635086
1888.0,0.0029306419979447957
1887.0,0.0029053252149790283
1886.0,0.002879063163792336
1885.0,0.0028563874544361473
1884.0,0.002838211274824382
1883.0,0.002822153604629095
1882.0,0.0028095260756279016
1881.0,0.0028009340308037815
1880.0,0.0027905751965495175
1879.0,0.0027750013641142128
1878.0,0.0027613301571274415
1877.0,0.0027557907356535547
1876.0,0.002751366730963451
1875.0,0.00273977696094458
1874.0,0.0027264648213486706
1873.0,0.002719349663684206
1872.0,0.0027133787135126906
1871.0,0.002700024105294183
1870.0,0.0026856693528031993
1869.0,0.0026829144684816933
1868.0,0.0026854749720445505
1867.0,0.0026797820086028523
1866.0,0.002670449091600223
1865.0,0.002668114972275726
1864.0,0.0026698870851364644
1863.0,0.0026673677492398667
1862.0,0.0026635637223099027
1861.0,0.0026670427710052363
1860.0,0.0026735567645140667
1859.0,0.002671060455626463
1858.0,0.0026593761765898545
1857.0,0.0026482142335790613
1856.0,0.0026398395051068406
1855.0,0.0026289747352062597
1854.0,0.002616852216420057
1853.0,0.0026090673798454035
1852.0,0.002603466544632797
1851.0,0.0025930466850395367
1850.0,0.00257987511776471
1849.0,0.0025735499146472135
1848.0,0.0025751826423683136
1847.0,0.0025771889604152185
1846.0,0.002577114388145433
1845.0,0.0025793163555995866
1844.0,0.0025809850784305425
1843.0,0.002575430229773984
1842.0,0.002566861429188528
1841.0,0.002562147846677989
1840.0,0.00256015364088512
1839.0,0.0025571071220933045
1838.0,0.0025554648154193344
1837.0,0.002559625229325853
1836.0,0.0025657005413342376
1835.0,0.002567452641593121
1834.0,0.0025666390984936125
1833.0,0.0025673270501092257
1832.0,0.0025665435844211795
1831.0,0.002559652334704125
1830.0,0.0025531607111884238
1829.0,0.0025570970921271322
1828.0,0.0025665952941492237
1827.0,0.002571749025148593
1826.0,0.0025771178516086615
1825.0,0.002592830435793654
1824.0,0.0026135454823057996
1823.0,0.0026270499840021153
1822.0,0.0026339623342448984
1821.0,0.0026395951685945556
1820.0,0.0026382680230720846
1819.0,0.0026202437384770707
1818.0,0.0025908441243225975
1817.0,0.002566986007983413
1816.0,0.002556102602248033
1815.0,0.002553734141931671
1814.0,0.0025566117237559955
1813.0,0.002564407341555727
1812.0,0.0025702257109395167
1811.0,0.0025662344563165095
1810.0,0.002558982932114811
1809.0,0.002559624739995403
1808.0,0.0025647091010451545
1807.0,0.0025637021014136836
1806.0,0.002557301261736238
1805.0,0.002555083774658954
1804.0,0.0025597111258598873
1803.0,0.0025648894216406914
1802.0,0.0025660211086231846
1801.0,0.002564182358991933
1800.0,0.0025596246884910245
1799.0,0.002553196751442198
1798.0,0.0025514873459090283
1797.0,0.002558421659545486
1796.0,0.0025671728248353623
1795.0,0.002568602335827283
1794.0,0.0025638192476274773
1793.0,0.0025620515730144728
1792.0,0.002563525688014449
1791.0,0.002561293092393103
1790.0,0.002558235574687171
1789.0,0.0025597711760532165
1788.0,0.0025630079904882122
1787.0,0.0025628951001551484
1786.0,0.0025609984554162525
1785.0,0.002562372935063332
1784.0,0.0025653416669124537
1783.0,0.0025651153716379506
1782.0,0.0025625093146733266
1781.0,0.0025617021317176935
1780.0,0.002560137078130312
1779.0,0.0025532890602320882
1778.0,0.0025469008632702877
1777.0,0.0025498838299373105
1776.0,0.0025618809829381197
1775.0,0.002573916665401166
1774.0,0.002581016079308061
1773.0,0.002586682616182388
1772.0,0.002589920255894787
1771.0,0.0025872600800569785
1770.0,0.002585029096680809
1769.0,0.002589424311816277
1768.0,0.0025964958374132107
1767.0,0.002600438681796969
1766.0,0.0026046138329472975
1765.0,0.002616313356275303
1764.0,0.0026346619544427596
1763.0,0.002653104046931995
1762.0,0.0026695071059887926
1761.0,0.0026882523388675884
1760.0,0.0027085970096262756
1759.0,0.002726311320041868
1758.0,0.0027465185702654
1757.0,0.002778471163101693
1756.0,0.002818743366528615
1755.0,0.002854949677713663
1754.0,0.002886519462574213
1753.0,0.0029238746400260633
1752.0,0.002971712004165627
1751.0,0.003019957064013613
1750.0,0.0030613471691843808
1749.0,0.0031016059295656357
1748.0,0.0031399840649417353
1747.0,0.0031696400842653807
1746.0,0.003194188060628378
1745.0,0.0032230616577892403
1744.0,0.0032535664359993896
1743.0,0.0032752405722730644
1742.0,0.0032899831524669902
1741.0,0.0033089230837488473
1740.0,0.003329090155094247
1739.0,0.0033368119413991473
1738.0,0.0033337478688609673
1737.0,0.0033316612449812936
1736.0,0.003331276560015902
1735.0,0.003326468946675709
1734.0,0.0033191013191913917
1733.0,0.0033203877645103692
1732.0,0.003327498679307027
1731.0,0.0033282207645264645
1730.0,0.0033262065031127944
1729.0,0.0033317481587634484
1728.0,0.003344102476853473
1727.0,0.003355883705741877
1726.0,0.0033667626767584823
1725.0,0.003379900097602447
1724.0,0.0033867396391292735
1723.0,0.0033751906310114004
1722.0,0.0033506323678280147
1721.0,0.0033265714554735525
1720.0,0.0033034565361205704
1719.0,0.003270346617147704
1718.0,0.003230693342886152
1717.0,0.0032071246297244796
1716.0,0.0032006649889661856
1715.0,0.0031923035541347768
1714.0,0.003181540718551808
1713.0,0.0031774384247136188
1712.0,0.0031759659924009112
1711.0,0.0031671361675386193
1710.0,0.0031513353284725702
1709.0,0.0031371049268785296
1708.0,0.0031260857845869933
1707.0,0.0031107342359566444
1706.0,0.0030917040509421097
1705.0,0.003081020454771605
1704.0,0.0030813540884413746
1703.0,0.0030840728534529123
1702.0,0.0030874013045193304
1701.0,0.003104071143607102
1700.0,0.003128147983392604
1699.0,0.0031385193083050063
1698.0,0.003139554365636645
1697.0,0.0031427314090674142
1696.0,0.0031443960466394504
1695.0,0.0031426385797296476
1694.0,0.003147882043942322
1693.0,0.0031629979861456225
1692.0,0.003178307404864855
1691.0,0.0031870211259074897
1690.0,0.003193503090746748
1689.0,0.0032066287556434094
1688.0,0.003222734075827251
1687.0,0.0032307572832321763
1686.0,0.003231070888631522
1685.0,0.003244209875546421
1684.0,0.0032728471691728846
1683.0,0.0032982737479759464
1682.0,0.0033210040860366403
1681.0,0.003346133606006319
1680.0,0.003370396899788658
1679.0,0.0033893083993844393
1678.0,0.0034057453223476806
1677.0,0.0034293817809341633
1676.0,0.003459475406249586
1675.0,0.003482628435711994
1674.0,0.0034968919025135737
1673.0,0.0035156169436442765
1672.0,0.003540562308050936
1671.0,0.0035630958231046995
1670.0,0.0035822987448438613
1669.0,0.0036056498078123776
1668.0,0.0036308433194933206
1667.0,0.0036474961453216515
1666.0,0.0036577975766379136
1665.0,0.0036719142273225255
1664.0,0.003691356762298653
1663.0,0.0037081270466086842
1662.0,0.003720993356698346
1661.0,0.0037378600322616386
1660.0,0.0037570033164868732
1659.0,0.003769817974923875
1658.0,0.0037784622305589346
1657.0,0.0037911343020877765
1656.0,0.003808754283439902
1655.0,0.003819000883102719
1654.0,0.003819206665275233
1653.0,0.0038207055601550133
1652.0,0.0038284293701064884
1651.0,0.003832335749458968
1650.0,0.0038296375375706463
1649.0,0.0038323130895442153
1648.0,0.0038443808168893423
1647.0,0.0038538979924967413
1646.0,0.003861055874882016
1645.0,0.00387898459318868
1644.0,0.003899061695112325
1643.0,0.0039094722692022705
1642.0,0.003914915584756843
1641.0,0.003924326841075024
1640.0,0.003935565961165752
1639.0,0.003939429334299858
1638.0,0.003937107265552559
1637.0,0.003942492890770541
1636.0,0.0039551899147349644
1635.0,0.003958700940965466
1634.0,0.003959305862330347
1633.0,0.003967117078298623
1632.0,0.003973097012565751
1631.0,0.00396809676130815
1630.0,0.0039539736521125605
1629.0,0.003940102751153002
1628.0,0.003926960629151506
1627.0,0.003908685181093264
1626.0,0.0038891472622791896
1625.0,0.0038756072548246576
1624.0,0.0038598815734673317
1623.0,0.003827563056656767
1622.0,0.003789501620488459
1621.0,0.0037664584253675193
1620.0,0.003754537895201091
1619.0,0.0037355131003323208
1618.0,0.0037011408543586493
1617.0,0.0036579431230434004
1616.0,0.0036143594350278455
1615.0,0.0035733833745426385
1614.0,0.0035389432965724672
1613.0,0.003512846147805773
1612.0,0.00348782581710039
1611.0,0.003454863232551105
1610.0,0.003417392569564333
1609.0,0.0033862757690165677
1608.0,0.003359803105236584
1607.0,0.0033299233766352224
1606.0,0.003301360718622964
1605.0,0.0032833801002557362
1604.0,0.003270315139196175
1603.0,0.0032500038224131398
1602.0,0.0032268094779449993
1601.0,0.0032135562726197196
1600.0,0.0032072686317140718
1599.0,0.003196390701493424
1598.0,0.003183275100624098
1597.0,0.003177706742519314
1596.0,0.0031752194380136214
1595.0,0.0031644858341143174
1594.0,0.003150716021838067
1593.0,0.0031470017592809267
1592.0,0.003149141882845799
1591.0,0.003144179437552957
1590.0,0.003135664302578669
1589.0,0.0031365152077431143
1588.0,0.003143562619641451
1587.0,0.003143427249260708
1586.0,0.003137603566197876
1585.0,0.003137026430996524
1584.0,0.003139652693733154
1583.0,0.0031347586582488826
1582.0,0.0031261943408468474
1581.0,0.0031268088343945175
1580.0,0.003133067961331828
1579.0,0.003128853931016401
1578.0,0.003110291419970148
1577.0,0.00309120988789469
1576.0,0.003074300855498943
1575.0,0.0030520904101609876
1574.0,0.0030343149642349156
1573.0,0.003029887388102966
1572.0,0.0030286597004901316
1571.0,0.0030129677816693214
1570.0,0.0029832558799626433
1569.0,0.0029639111648815204
1568.0,0.0029613527943191838
1567.0,0.0029578606347485516
1566.0,0.0029508676075390805
1565.0,0.0029513194006541223
1564.0,0.0029567031861793477
1563.0,0.0029535904865407906
1562.0,0.002947317064952614
1561.0,0.0029533531805495607
1560.0,0.002978706646672289
1559.0,0.002970728939643719
1558.0,0.0029366724635994158
1557.0,0.002943239881780301
1556.0,0.0029589836746276685
1555.0,0.002951964763380426
1554.0,0.00294114279218702
1553.0,0.0029489258984462725
1552.0,0.0029687248688804123
1551.0,0.002977344013622722
1550.0,0.0029802518192694723
1549.0,0.0029949452881876046
1548.0,0.0030147440971301925
1547.0,0.00302110973895233
1546.0,0.0030198658151627147
1545.0,0.003033176354906625
1544.0,0.003053046617147277
1543.0,0.003045843788233155
1542.0,0.003014754529093314
1541.0,0.003007060846687196
1540.0,0.0030143318711481903
1539.0,0.0029934441647154436
1538.0,0.0029732262377565105
1537.0,0.0029781359769380147
1536.0,0.0029853514728534806
1535.0,0.002968326459740009
1534.0,0.002930372203228455
1533.0,0.0029090003468344506
1532.0,0.002907312692730605
1531.0,0.00289685612337409
1530.0,0.002880277149644131
1529.0,0.002879047594622328
1528.0,0.0028870978673817146
1527.0,0.0028746930508047955
1526.0,0.0028470009450977346
1525.0,0.002840481820995479
1524.0,0.0028528673881591687
1523.0,0.0028469065599552863
1522.0,0.002823602955350762
1521.0,0.0028232533476834185
1520.0,0.0028366097718442694
1519.0,0.0028242853204888305
1518.0,0.002801124887024153
1517.0,0.002806466388085635
1516.0,0.0028259642188061987
1515.0,0.002822193042926693
1514.0,0.00281029859455573
1513.0,0.0028247528710606826
1512.0,0.002852226088617681
1511.0,0.002854628862793254
1510.0,0.0028402635380900907
1509.0,0.002861414512222122
1508.0,0.0029250194461556793
1507.0,0.0029405761566198077
1506.0,0.002920469117276274
1505.0,0.002956965249065878
1504.0,0.003003531838878131
1503.0,0.0030070874691433573
1502.0,0.0029952446069116327
1501.0,0.0030146638414187527
1500.0,0.00306279561332648
1499.0,0.0030817128538289237
1498.0,0.0030717144659813318
1497.0,0.0031092317439467406
1496.0,0.003185960592637151
1495.0,0.0032172955647332023
1494.0,0.003225228216896698
1493.0,0.0032841332305817536
1492.0,0.0033803329152805846
1491.0,0.0034359064433515107
1490.0,0.0034667036322882476
1489.0,0.003575465162928766
1488.0,0.003730171341143735
1487.0,0.003836671050790273
1486.0,0.0039346459987744005
1485.0,0.004102443547392125
1484.0,0.0043272549451382585
1483.0,0.004576959068483205
1482.0,0.004925865058497752
1481.0,0.005474724307842918
1480.0,0.006214111300499271
1479.0,0.007227229686026417
1478.0,0.009025094393612458
1477.0,0.012389350231838714
1476.0,0.017755160016748074
1475.0,0.02483356447010576
1474.0,0.03279724808839088
1473.0,0.03926991258159505
1472.0,0.04106462651433915
1471.0,0.038810037860586094
1470.0,0.03571224444804143
1469.0,0.03327210732642852
1468.0,0.03162930510813453
1467.0,0.030893309723483954
1466.0,0.03162464370911826
1465.0,0.03408954220328491
1464.0,0.03685203188990748
1463.0,0.03773072823106745
1462.0,0.035993014133627335
1461.0,0.03226376334455517
1460.0,0.027557011166389755
1459.0,0.022868814777765555
1458.0,0.018883027696207783
1457.0,0.015954689266694855
1456.0,0.014147032237152173
1455.0,0.013099901306105225
1454.0,0.012314870389464116
1453.0,0.011521492986261176
1452.0,0.01072889595219933
1451.0,0.010080467791330216
1450.0,0.009600629214373633
1449.0,0.009185757099044092
1448.0,0.008806975783707567
1447.0,0.008533819568353572
1446.0,0.00835706494379268
1445.0,0.008193055624125447
1444.0,0.00802189226492509
1443.0,0.007879291492302348
1442.0,0.00776174238696388
1441.0,0.007629452311586666
1440.0,0.007485365356253118
1439.0,0.007363470383030752
1438.0,0.007248522841700699
1437.0,0.007074648103244893
1436.0,0.006853908541936558
1435.0,0.0066685171483099655
1434.0,0.006511612721809524
1433.0,0.006322707454411699
1432.0,0.006093974461914302
1431.0,0.0058594687981161075
1430.0,0.00562642876853255
1429.0,0.0053780384471598065
1428.0,0.005142332097560245
1427.0,0.004960540387785401
1426.0,0.004813867401363801
1425.0,0.0046549464112701335
1424.0,0.004492803273948936
1423.0,0.0043775922392213455
1422.0,0.004306294461957659
1421.0,0.004230122941468767
1420.0,0.004137906235855222
1419.0,0.004065802547028665
1418.0,0.004016294790362396
1417.0,0.003955086287425201
1416.0,0.00389062407863657
1415.0,0.003850313289446442
1414.0,0.003823137795171852
1413.0,0.0037811716579226754
1412.0,0.003730110720279535
1411.0,0.0036976214588932818
1410.0,0.0036789507370232725
1409.0,0.003647700665290011
1408.0,0.003607231699053113
1407.0,0.003582140212978686
1406.0,0.0035683158074316986
1405.0,0.003539331318296559
1404.0,0.0035022874309420275
1403.0,0.003485435611562433
1402.0,0.0034813858392990986
1401.0,0.0034627626652239635
1400.0,0.0034333278044151707
1399.0,0.0034201962451607918
1398.0,0.003420137962824278
1397.0,0.0034066786952928712
1396.0,0.0033851696565399595
1395.0,0.0033813344319357755
1394.0,0.0033878071285390714
1393.0,0.003380954649228536
1392.0,0.0033698302258794717
1391.0,0.0033765320097168205
1390.0,0.003397407637401044
1389.0,0.003413353620272469
1388.0,0.0034264538596878403
1387.0,0.003455984756557344
1386.0,0.00349795820036626
1385.0,0.0035383079632746285
1384.0,0.0035923566813858008
1383.0,0.0036861738158969976
1382.0,0.003816988415546325
1381.0,0.003958952448944559
1380.0,0.004096000433907656
1379.0,0.004218170571343191
1378.0,0.004301426108533469
1377.0,0.004330520552332636
1376.0,0.004330649860960893
1375.0,0.004349760497330983
1374.0,0.0044089612051864385
1373.0,0.004493428000707676
1372.0,0.004591202806577772
1371.0,0.004699677519565916
1370.0,0.0047994829245339606
1369.0,0.004860022661574522
1368.0,0.004871996505759672
1367.0,0.004850217826474482
1366.0,0.00480348449619846
1365.0,0.004729010637589684
1364.0,0.004634165997566714
1363.0,0.004539956001763094
1362.0,0.004457890480561918
1361.0,0.004385561898739904
1360.0,0.0043275683577617486
1359.0,0.004292609833809051
1358.0,0.004275791170492567
1357.0,0.004265952663427535
1356.0,0.004264492202343215
1355.0,0.0042784949013796305
1354.0,0.004298805777988572
1353.0,0.004306764162312104
1352.0,0.004297969674059777
1351.0,0.004279163905779543
1350.0,0.004248010809593278
1349.0,0.004198275852005502
1348.0,0.0041387322165695115
1347.0,0.004084457252814786
1346.0,0.004035091682826326
1345.0,0.003981744858090018
1344.0,0.0039285163937758825
1343.0,0.0038865393547823828
1342.0,0.0038525256247211575
1341.0,0.003812431846264607
1340.0,0.0037650064337736043
1339.0,0.0037223847938425442
1338.0,0.0036857163344640844
1337.0,0.0036460703161429455
1336.0,0.0036064872321660045
1335.0,0.0035774823782472485
1334.0,0.0035573207796950894
1333.0,0.0035360941179053925
1332.0,0.0035149215180032317
1331.0,0.0035039901609578675
1330.0,0.003504080636763763
1329.0,0.0035074757475562026
1328.0,0.003514442209699686
1327.0,0.0035312862443512274
1326.0,0.0035546026244593783
1325.0,0.0035752045033234942
1324.0,0.003595064072095296
1323.0,0.003623714577716989
1322.0,0.0036606689179697546
1321.0,0.0036970157969692793
1320.0,0.003731706358395406
1319.0,0.003770550824108332
1318.0,0.0038113729316473317
1317.0,0.003847119257794537
1316.0,0.0038809401672068432
1315.0,0.003921308944603504
1314.0,0.003965655887689517
1313.0,0.004003796007495237
1312.0,0.004034925180184162
1311.0,0.004066200822609628
1310.0,0.004097329677530617
1309.0,0.004121901996802647
1308.0,0.0041405851118847155
1307.0,0.004158984726071654
1306.0,0.004174876237762351
1305.0,0.004181759944279776
1304.0,0.004182594145507072
1303.0,0.004186197834470124
1302.0,0.004192458331341481
1301.0,0.004194339454022264
1300.0,0.004192044313487337
1299.0,0.00419152892006143
1298.0,0.0041910483501786935
1297.0,0.004182686494422761
1296.0,0.004166093465427763
1295.0,0.00414788423093541
1294.0,0.004129063819915903
1293.0,0.004105855844200658
1292.0,0.004081207224077978
1291.0,0.004062688906673411
1290.0,0.004050058798395
1289.0,0.004036993988445461
1288.0,0.004024158729518386
1287.0,0.00401846656990153
1286.0,0.0040206614988382424
1285.0,0.004025806631766156
1284.0,0.004034122541868597
1283.0,0.004049223789029531
1282.0,0.00406768183424195
1281.0,0.00408221189661086
1280.0,0.004093859271059308
1279.0,0.00410961888328246
1278.0,0.004129682287755597
1277.0,0.00414837968673988
1276.0,0.004165897175876754
1275.0,0.004187682918508557
1274.0,0.004213839880838098
1273.0,0.004240084140334124
1272.0,0.00426771913111024
1271.0,0.00430199569094124
1270.0,0.004342135916347994
1269.0,0.004383791024273724
1268.0,0.0044292906959202
1267.0,0.004484311715096666
1266.0,0.004546638027917548
1265.0,0.0046088354566078266
1264.0,0.004669646630978024
1263.0,0.004732224223383292
1262.0,0.004793986318660648
1261.0,0.004849329497004066
1260.0,0.004900529166164838
1259.0,0.004955309939350483
1258.0,0.0050155620096776835
1257.0,0.005078485873649702
1256.0,0.005146054408017243
1255.0,0.005223160883900234
1254.0,0.005308842556996477
1253.0,0.005398689283241667
1252.0,0.005493353868725839
1251.0,0.005595486222095668
1250.0,0.005701219504364599
1249.0,0.005804115535546424
1248.0,0.005904798086279475
1247.0,0.006007773026423666
1246.0,0.006111648039993427
1245.0,0.006211135935373606
1244.0,0.006306037897934116
1243.0,0.006399902544614761
1242.0,0.006492264193403066
1241.0,0.0065799832751477945
1240.0,0.006663669295652544
1239.0,0.006745604248579825
1238.0,0.006824048057223923
1237.0,0.006896331989921556
1236.0,0.0069646651284646964
1235.0,0.007032394316708141
1234.0,0.007097660709792693
1233.0,0.007156984475863972
1232.0,0.007211539423222971
1231.0,0.007263570785553557
1230.0,0.007310477222567391
1229.0,0.007349013088211121
1228.0,0.007381654958263585
1227.0,0.007412441622857124
1226.0,0.007440336517017787
1225.0,0.007463242350402605
1224.0,0.007484755661986859
1223.0,0.0075098375935438826
1222.0,0.0075370064299854385
1221.0,0.0075616072680603115
1220.0,0.007583557153597683
1219.0,0.007605266949799728
1218.0,0.007625524715569711
1217.0,0.007642509163616931
1216.0,0.007659511406325557
1215.0,0.007680538496640538
1214.0,0.0077034327660640035
1213.0,0.007724367630808889
1212.0,0.007745804024209669
1211.0,0.007772558943943108
1210.0,0.007803117473709428
1209.0,0.007832517188459015
1208.0,0.007860696914724056
1207.0,0.00789016799045428
1206.0,0.007918334157255966
1205.0,0.007940159844392334
1204.0,0.00795630607246649
1203.0,0.007970994514391224
1202.0,0.00798370217226627
1201.0,0.007990396008904879
1200.0,0.007991595225257636
1199.0,0.007992325012745544
1198.0,0.007995114677157246
1197.0,0.007999137000586765
1196.0,0.008005019701127061
1195.0,0.008014441993589439
1194.0,0.00802609537582063
1193.0,0.008037666390602128
1192.0,0.008050413731236038
1191.0,0.00806646799274853
1190.0,0.008083475678383259
1189.0,0.008097408181597895
1188.0,0.008108838735355095
1187.0,0.008121314715571898
1186.0,0.008135767453860245
1185.0,0.00815161147327748
1184.0,0.008170770871479327
1183.0,0.008195251117280117
1182.0,0.00822354425353074
1181.0,0.00825496466236407
1180.0,0.008293877546719713
1179.0,0.008342339348623204
1178.0,0.008391287552810583
1177.0,0.008427082264813538
1176.0,0.008445688070744316
1175.0,0.008454394876509995
1174.0,0.008461521568915541
1173.0,0.008470627826052896
1172.0,0.008483112708776053
1171.0,0.008498973157643091
1170.0,0.008514212897695255
1169.0,0.008523314960575434
1168.0,0.008525352002760512
1167.0,0.008523978912839751
1166.0,0.008521973014224235
1165.0,0.008519792108009915
1164.0,0.00851838605090006
1163.0,0.008518625264638513
1162.0,0.008518604088333034
1161.0,0.008516041792255636
1160.0,0.008512821568678483
1159.0,0.008513024129019815
1158.0,0.008517279731543202
1157.0,0.008523207305809587
1156.0,0.008530402482749647
1155.0,0.008540477001103707
1154.0,0.0085527706876923
1153.0,0.008564364696364835
1152.0,0.008574203387161264
1151.0,0.008583731823655849
1150.0,0.008593937871194493
1149.0,0.008604679002906936
1148.0,0.00861606178263212
1147.0,0.008627957533019493
1146.0,0.008639591432253372
1145.0,0.008651882470389234
1144.0,0.008668023616476355
1143.0,0.008689174085344751
1142.0,0.008712032403720054
1141.0,0.008733465355291514
1140.0,0.008754713821054387
1139.0,0.008778206706001374
1138.0,0.008803826060050852
1137.0,0.008831985133702407
1136.0,0.00886659371329377
1135.0,0.008910097140973428
1134.0,0.008958233462699255
1133.0,0.009004226844723332
1132.0,0.009045845174318357
1131.0,0.009084737175959073
1130.0,0.009121993180675053
1129.0,0.009158618784969461
1128.0,0.009197589623374827
1127.0,0.009240815348420781
1126.0,0.009286167997260595
1125.0,0.009331779490594903
1124.0,0.009381186036346826
1123.0,0.009440020689812955
1122.0,0.009509440647572934
1121.0,0.00958658757183551
1120.0,0.009669369647728111
1119.0,0.009756836088806448
1118.0,0.009846750553128824
1117.0,0.009936496084910545
1116.0,0.010025091692044193
1115.0,0.010111930667813027
1114.0,0.010195512435395562
1113.0,0.010275507198622684
1112.0,0.01035376519535202
1111.0,0.0104314492126277
1110.0,0.010507516923598852
1109.0,0.010581442082119086
1108.0,0.01065451351815676
1107.0,0.01072718816714651
1106.0,0.010798138900921414
1105.0,0.010867037069516144
1104.0,0.01093529847945415
1103.0,0.011003223915258166
1102.0,0.011069373266838671
1101.0,0.011133288109885849
1100.0,0.011195419576961707
1099.0,0.011254459435303624
1098.0,0.011308516674673492
1097.0,0.01135950654338049
1096.0,0.01141241881464684
1095.0,0.011469367070054078
1094.0,0.01152775979731405
1093.0,0.011584482386175559
1092.0,0.011638056273899052
1091.0,0.011686573978986519
1090.0,0.011727864235521102
1089.0,0.011762550206469134
1088.0,0.011793450061952938
1087.0,0.01182146276661606
1086.0,0.011845232485993382
1085.0,0.011864819264829967
1084.0,0.011881999808785555
1083.0,0.011896607911950423
1082.0,0.01190601814427527
1081.0,0.011908685245827048
1080.0,0.011905072673940986
1079.0,0.0118947426457285
1078.0,0.011875596291453391
1077.0,0.011846861506079356
1076.0,0.011810763910132064
1075.0,0.011770625627416207
1074.0,0.011728666078330846
1073.0,0.01168587662944025
1072.0,0.011642867351751096
1071.0,0.011600382403707154
1070.0,0.011559159843667483
1069.0,0.01151888186629671
1068.0,0.011477386734771628
1067.0,0.011432375413711778
1066.0,0.011384374598089242
1065.0,0.011336137859120927
1064.0,0.011288027951911517
1063.0,0.011235783489904585
1062.0,0.011174332374996753
1061.0,0.011102477719823329
1060.0,0.011022559472224015
1059.0,0.01093733168136737
1058.0,0.010849084017927795
1057.0,0.010760435573308691
1056.0,0.010673796207414182
1055.0,0.0105902144330039
1054.0,0.010509631668233618
1053.0,0.010431071203101206
1052.0,0.010350695861467711
1051.0,0.010261043572279287
1050.0,0.01015635280902676
1049.0,0.01003952800750989
1048.0,0.009920597820077174
1047.0,0.009807573291198232
1046.0,0.009701403225095951
1045.0,0.009599797778850411
1044.0,0.00950220751122212
1043.0,0.009409096130588216
1042.0,0.009319089461777818
1041.0,0.009230202341143539
1040.0,0.009143209740639435
1039.0,0.009061018239814842
1038.0,0.00898480504674776
1037.0,0.00891310907217815
1036.0,0.008844416663835489
1035.0,0.008777885280052723
1034.0,0.008711296271228507
1033.0,0.008640839697405466
1032.0,0.008563509467161034
1031.0,0.008477753746057776
1030.0,0.008381894441336314
1029.0,0.00827457981285566
1028.0,0.008157511561391776
1027.0,0.008035439748113004
1026.0,0.00791252678649283
1025.0,0.007790643641147264
1024.0,0.007671613705021339
1023.0,0.007558310434192221
1022.0,0.0074524066197369995
1021.0,0.007353618780106171
1020.0,0.007262192546880824
1019.0,0.0071792742909280475
1018.0,0.007103793049047952
1017.0,0.0070323260893744195
1016.0,0.006963753829325057
1015.0,0.0069012992072837575
1014.0,0.006848405766513259
1013.0,0.006804947952128891
1012.0,0.00676849232184262
1011.0,0.006736435732327499
1010.0,0.00670555262929924
1009.0,0.0066718918078931015
1008.0,0.006632537697087497
1007.0,0.00658590473550093
1006.0,0.0065299043718981325
1005.0,0.006462080633458787
1004.0,0.006382254915335676
1003.0,0.006292913619616121
1002.0,0.0061963754438779375
1001.0,0.006093842386598522
1000.0,0.005987866681191528
999.0,0.00588296132797459
998.0,0.0057822591483422565
997.0,0.00568556966159299
996.0,0.00559182806759429
995.0,0.0055015454697163275
994.0,0.005416211359804684
993.0,0.005337383905825926
992.0,0.005266653754213892
991.0,0.005204061787232725
990.0,0.005146499388181092
989.0,0.005090416457003827
988.0,0.005035911375371468
987.0,0.004985315851485578
986.0,0.004938619449517692
985.0,0.004894032367867049
984.0,0.004852319058914131
983.0,0.004816044151461268
982.0,0.004784440203360673
981.0,0.00475337719129537
980.0,0.004720793483280039
979.0,0.004688104769377995
978.0,0.004656315947583236
977.0,0.004625362910695785
976.0,0.00459744204677216
975.0,0.004575883742127362
974.0,0.004559665373031928
973.0,0.00454346363780774
972.0,0.004524166653366478
971.0,0.00450340586973539
970.0,0.004483176838189331
969.0,0.004463195004041357
968.0,0.004443336086638127
967.0,0.0044245352928501515
966.0,0.0044062870571659266
965.0,0.004386948865198844
964.0,0.004367048551605647
963.0,0.004348500490668622
962.0,0.0043304629761396
961.0,0.004310300968593798
960.0,0.0042888372150029445
959.0,0.004269950199161351
958.0,0.00425423876204785
957.0,0.004237566600978052
956.0,0.004216872742529426
955.0,0.004193422368966705
954.0,0.004169665935780992
953.0,0.004146945601255383
952.0,0.004126887303286868
951.0,0.004110829653963835
950.0,0.004097121544683874
949.0,0.004082918871213033
948.0,0.004068921668936949
947.0,0.004058340788762684
946.0,0.00405144555798553
945.0,0.0040455970535159804
944.0,0.004040202855404904
943.0,0.004036553827597301
942.0,0.004033024561914673
941.0,0.004025995304643193
940.0,0.004015807681392826
939.0,0.00400627703527734
938.0,0.003997803327473453
937.0,0.003986658748182076
936.0,0.003971905857681518
935.0,0.003957112856570554
934.0,0.003943887424805181
933.0,0.003929485669723282
932.0,0.003912598147121068
931.0,0.0038959781602509336
930.0,0.0038812150086680154
929.0,0.0038659557840624408
928.0,0.003848601223665666
927.0,0.0038312694013957313
926.0,0.003816098688141796
925.0,0.0038029473596943642
924.0,0.003792441360131402
923.0,0.0037866645332923967
922.0,0.0037849957816820682
921.0,0.0037838118483845074
920.0,0.003782123825158853
919.0,0.003783071691768526
918.0,0.0037881815727884363
917.0,0.003794663611125864
916.0,0.0038001008295273646
915.0,0.0038051482998447974
914.0,0.003809526760393446
913.0,0.003809760058631753
912.0,0.0038031679495685485
911.0,0.0037900205248559246
910.0,0.0037694735559116567
909.0,0.0037374680636739033
908.0,0.003691532322890934
907.0,0.0036346969785043984
906.0,0.0035726698272917105
905.0,0.0035100217231075885
904.0,0.003450295672969785
903.0,0.003395940512686756
902.0,0.0033463351435534736
901.0,0.0032993046968789407
900.0,0.0032555324635487994
899.0,0.0032175862542441216
898.0,0.003184345332390605
897.0,0.0031517071395442057
896.0,0.0031196055656843654
895.0,0.003092583336969344
894.0,0.003072203039257736
893.0,0.0030548335167127354
892.0,0.003038318680548662
891.0,0.0030243191830294563
890.0,0.0030119539574505138
889.0,0.00299573536179553
888.0,0.002972937729258611
887.0,0.002947235656074079
886.0,0.0029219425645816513
885.0,0.0028954691171282003
884.0,0.0028669925305729346
883.0,0.0028407358773218728
882.0,0.0028202122725977706
881.0,0.0028032934089740206
880.0,0.0027873232367667568
879.0,0.002774003059878078
878.0,0.0027646198107335136
877.0,0.0027553085767142104
876.0,0.00274184847748219
875.0,0.002725073287518455
874.0,0.002707766797462438
873.0,0.002690660607815898
872.0,0.0026748099828036017
871.0,0.0026629838097860675
870.0,0.0026552003221189573
869.0,0.002647332591025941
868.0,0.0026369439404345077
867.0,0.0026261972926670306
866.0,0.002617062975031051
865.0,0.002608492200626957
864.0,0.0026003216642893887
863.0,0.0025948371322477965
862.0,0.0025920470665231243
861.0,0.0025883023044481583
860.0,0.0025820122830627944
859.0,0.0025759005771498755
858.0,0.00257136857947353
857.0,0.0025657604234391044
856.0,0.0025578085699455365
855.0,0.002550820654482891
854.0,0.002547851076038693
853.0,0.0025484990442106114
852.0,0.002552590926835148
851.0,0.00256144114423423
850.0,0.002572922332718311
849.0,0.0025811436493606826
848.0,0.0025841772120222613
847.0,0.0025868129452578884
846.0,0.0025929847634933094
845.0,0.0026013836035424323
844.0,0.0026114058488502334
843.0,0.002626581670549763
842.0,0.002647837866497548
841.0,0.0026696501164666913
840.0,0.0026878642546016196
839.0,0.0027057962033581267
838.0,0.002727478684266598
837.0,0.0027499022201507204
836.0,0.0027675580382804294
835.0,0.0027805742245032915
834.0,0.00279286434909329
833.0,0.002805703826144973
832.0,0.002818526576312533
831.0,0.0028329163260104404
830.0,0.0028500947365449995
829.0,0.002866949058654197
828.0,0.002880393322811309
827.0,0.002893593040940413
826.0,0.002911775005876925
825.0,0.002933977094420212
824.0,0.0029555568226157223
823.0,0.0029762501450787382
822.0,0.002998467621216224
821.0,0.0030203619428468905
820.0,0.0030375632626651063
819.0,0.0030497020802226047
818.0,0.003060264524803114
817.0,0.003071807594565542
816.0,0.00308476582250094
815.0,0.0030991379810232033
814.0,0.0031143374130072937
813.0,0.0031289930731056683
812.0,0.0031432576368336765
811.0,0.0031593419676467405
810.0,0.0031778259546762083
809.0,0.0031961537142768813
808.0,0.003212801664687942
807.0,0.0032294915482087186
806.0,0.0032467155824925965
805.0,0.0032610678203355723
804.0,0.0032704632908985803
803.0,0.003278041364653317
802.0,0.003286709930421883
801.0,0.003293416064225248
800.0,0.003293699970186359
799.0,0.003288890550762645
798.0,0.0032835768117944974
797.0,0.0032785501030022438
796.0,0.0032717888234830026
795.0,0.0032641052062884297
794.0,0.003257639699136301
793.0,0.0032502284512779026
792.0,0.00323743060043896
791.0,0.0032193305693932785
790.0,0.0031997616728041945
789.0,0.003179771008435006
788.0,0.003157870197365644
787.0,0.0031363220884461545
786.0,0.003120659369940913
785.0,0.0031119417992661416
784.0,0.003104874104910267
783.0,0.003094658009194648
782.0,0.0030811649000355252
781.0,0.003065903331903164
780.0,0.0030497623203173795
779.0,0.0030345436315653944
778.0,0.003021977473209316
777.0,0.003010193383028346
776.0,0.002995372001615704
775.0,0.002977580534934396
774.0,0.0029609527859933357
773.0,0.0029478976089770343
772.0,0.002937589872509758
771.0,0.002930080371039652
770.0,0.0029266781926436075
769.0,0.0029257861749174296
768.0,0.002923632091379539
767.0,0.0029199623091646274
766.0,0.0029180122929922782
765.0,0.002918499955047911
764.0,0.002919208526173581
763.0,0.0029206944091963107
762.0,0.002926006576254414
761.0,0.0029340694721425352
760.0,0.0029402932569580296
759.0,0.0029448286246258125
758.0,0.002952601015789504
757.0,0.002963621222350098
756.0,0.0029719571261773384
755.0,0.002977077726995263
754.0,0.0029867498370049696
753.0,0.0030043691258642238
752.0,0.0030231747379192266
751.0,0.0030384314184896937
750.0,0.0030553701126997124
749.0,0.00307846069284119
748.0,0.0031030370302312514
747.0,0.0031260124715001025
746.0,0.0031550794636516677
745.0,0.0031974016966738374
744.0,0.003248859481716428
743.0,0.003305722557866253
742.0,0.003377607514971624
741.0,0.0034774345661269307
740.0,0.003610435358094846
739.0,0.003787819733758101
738.0,0.0040413254431759735
737.0,0.0044211656813212845
736.0,0.00502200566392299
735.0,0.006049099651463556
734.0,0.007799647629962112
733.0,0.010428532234903164
732.0,0.013603528694103908
731.0,0.01640828746944299
730.0,0.017811283504441177
729.0,0.017461608810058305
728.0,0.015969280144856643
727.0,0.014339794643806426
726.0,0.013281961775467532
725.0,0.013040657419956612
724.0,0.013666210057895327
723.0,0.015275180474559983
722.0,0.017981227280485568
721.0,0.021519141815451524
720.0,0.024953797111270173
719.0,0.027048977663046325
718.0,0.027150624731458746
717.0,0.02549305385120863
716.0,0.0227162518439411
715.0,0.019450947117875365
714.0,0.0162387245567378
713.0,0.013488886116791401
712.0,0.01138568157198543
711.0,0.009877361439063983
710.0,0.008791771060992161
709.0,0.007978283003175423
708.0,0.007356418135407209
707.0,0.006874547134393101
706.0,0.006480449658314506
705.0,0.006142442506712916
704.0,0.0058599840304809055
703.0,0.005632169176862427
702.0,0.005437386336918806
701.0,0.005257051807735754
700.0,0.005095815357424515
699.0,0.004961627779272642
698.0,0.004844923922689019
697.0,0.004733733807868934
696.0,0.004632252450638464
695.0,0.004547128893028857
694.0,0.004469447393091515
693.0,0.004388107622846704
692.0,0.004309806114334577
691.0,0.004247741849300688
690.0,0.004199373145785855
689.0,0.004151970213281901
688.0,0.004103144180501378
687.0,0.004058747549591824
686.0,0.004016985265804663
685.0,0.003973227101163187
684.0,0.003932922732494742
683.0,0.003902598882347251
682.0,0.00387577847262422
681.0,0.003842062203391779
680.0,0.0038039282704924703
679.0,0.003771275372000914
678.0,0.003744644330829804
677.0,0.003717223787776027
676.0,0.003686387803080694
675.0,0.003654324276958107
674.0,0.003621018885361716
673.0,0.0035863595077653856
672.0,0.0035535703585087026
671.0,0.0035216751560258586
670.0,0.00348025808884625
669.0,0.0034210261488484776
668.0,0.003374044416300873
667.0,0.0033813185372580557
666.0,0.003406281615377675
665.0,0.003407177615757257
664.0,0.0033922099657123753
663.0,0.003377258228710953
662.0,0.003362544614209493
661.0,0.0033420416397505785
660.0,0.003321324085018752
659.0,0.0033101768042095485
658.0,0.0033036518409042957
657.0,0.003289617427782972
656.0,0.003267934366215096
655.0,0.003247422955476238
654.0,0.003229335614938998
653.0,0.0032105043371017054
652.0,0.003196498169731607
651.0,0.003193121079032998
650.0,0.0031911292125670065
649.0,0.0031792435087771723
648.0,0.003165234067829325
647.0,0.003162414620588933
646.0,0.0031637847380343053
645.0,0.003153233285683438
644.0,0.0031351009558267767
643.0,0.003128228865131558
642.0,0.003132862572327966
641.0,0.0031279342773165996
640.0,0.0031033189770217117
639.0,0.0030722222806487264
638.0,0.003048006078465957
637.0,0.0030275224664980927
636.0,0.0030036780195086114
635.0,0.0029782434229701756
634.0,0.0029579092696773134
633.0,0.0029494741881399117
632.0,0.002956948380498923
631.0,0.0029708598042928968
630.0,0.002968149430275735
629.0,0.002939494737373175
628.0,0.0029055484481532307
627.0,0.0028893665411188277
626.0,0.0028837271415245148
625.0,0.002868040063063404
624.0,0.0028474349995218037
623.0,0.0028427273115274798
622.0,0.0028501766956289523
621.0,0.0028468340676914457
620.0,0.0028257022132953456
619.0,0.002790197056880441
618.0,0.0027322213655173993
617.0,0.002657595017294108
616.0,0.0026123254423255264
615.0,0.002630494899753543
614.0,0.0026773133380278385
613.0,0.002699488816448971
612.0,0.0027031148645968767
611.0,0.0027286936787977146
610.0,0.0027740259837904647
609.0,0.002800989574355519
608.0,0.0028042204686972924
607.0,0.0028113224819041023
606.0,0.002826995177140879
605.0,0.0028338643918625244
604.0,0.002840740322545175
603.0,0.0028714908274260005
602.0,0.002912544165415514
601.0,0.0029267385932092065
600.0,0.0029151023988614024
599.0,0.0029161821075785023
598.0,0.0029434776230440655
597.0,0.002970199216235921
596.0,0.0029806277559212145
595.0,0.002987180549833535
594.0,0.002990457073837911
593.0,0.0029668206808657082
592.0,0.0029118122728900198
591.0,0.002860203875327824
590.0,0.0028397701202231528
589.0,0.0028391616581131835
588.0,0.0028430498141053763
587.0,0.0028560191609024762
586.0,0.00287583611015785
585.0,0.0028806735080113485
584.0,0.00286167362874891
583.0,0.002838822877808583
582.0,0.002826897437713325
581.0,0.0028117092580754823
580.0,0.002774529118920528
579.0,0.0027138087124514497
578.0,0.0026387810025354083
577.0,0.0025679882855742433
576.0,0.0025336828518277735
575.0,0.0025495732942745044
574.0,0.002574620240592487
573.0,0.002562964879530583
572.0,0.0025298915035060817
571.0,0.002519361568755483
570.0,0.0025325878588835886
569.0,0.0025448648937483618
568.0,0.0025705664980315572
567.0,0.0026322399666112964
566.0,0.002690598972352102
565.0,0.0026947851509857425
564.0,0.0026714461393255247
563.0,0.0026861168318838336
562.0,0.002738024421791919
561.0,0.0027664988405096467
560.0,0.002753468750889875
559.0,0.0027351503570425075
558.0,0.002720976871394166
557.0,0.0026827679466820903
556.0,0.00263260092156224
555.0,0.002623130510778579
554.0,0.002650123970581893
553.0,0.0026425745256068015
552.0,0.0025769093305286228
551.0,0.002522668335069317
550.0,0.002545616196137962
