cm-1,A
4000.0,0.0018807420779272388
3999.0,0.001877104537497243
3998.0,0.001874144530990299
3997.0,0.0018694964450343531
3996.0,0.0018633137782058584
3995.0,0.0018602879396358947
3994.0,0.0018651683264730304
3993.0,0.0018766211700304613
3992.0,0.0018871439070390714
3991.0,0.0018901897806088315
3990.0,0.0018862341965567358
3989.0,0.001881624980447823
3988.0,0.0018822384784092597
3987.0,0.0018888173382749836
3986.0,0.00189770831766806
3985.0,0.001904424247948129
3984.0,0.0019070960914484552
3983.0,0.0019070944198683508
3982.0,0.0019069228436806524
3981.0,0.0019078550269214598
3980.0,0.0019090170155017386
3979.0,0.001908940879221845
3978.0,0.0019074022470434724
3977.0,0.0019052259855689112
3976.0,0.0019028619209824574
3975.0,0.0018989818985673595
3974.0,0.001891731944977269
3973.0,0.0018814068906496456
3972.0,0.0018711693787591688
3971.0,0.0018653495589913268
3970.0,0.0018662636106613313
3969.0,0.0018721291472952812
3968.0,0.0018779436878987085
3967.0,0.00187917317082463
3966.0,0.001875169228551148
3965.0,0.0018687136469626485
3964.0,0.0018634389765006948
3963.0,0.001862047588220831
3962.0,0.0018661344647533315
3961.0,0.0018752125615557206
3960.0,0.0018848149138098284
3959.0,0.0018885762609722146
3958.0,0.0018831984869863514
3957.0,0.0018717491597502042
3956.0,0.0018608571645887034
3955.0,0.0018556151770715143
3954.0,0.0018576970593458877
3953.0,0.0018662807696590619
3952.0,0.00187904176259564
3951.0,0.0018924210341193697
3950.0,0.0019021285006473867
3949.0,0.0019049293132189556
3948.0,0.001902268213149122
3947.0,0.0018999470356391148
3946.0,0.0019020273194879532
3945.0,0.0019049610797337918
3944.0,0.0019022169201858667
3943.0,0.001894883443750989
3942.0,0.0018894131849239524
3941.0,0.001887339194769258
3940.0,0.0018832153411992509
3939.0,0.0018719702311902307
3938.0,0.0018578799970663208
3937.0,0.0018523048526646524
3936.0,0.001860662940350497
3935.0,0.001876551145859856
3934.0,0.0018897957347739002
3933.0,0.0018972642329460297
3932.0,0.0019024814469412975
3931.0,0.0019064001826898415
3930.0,0.0019069609655172496
3929.0,0.0019066372010718537
3928.0,0.0019103858101168908
3927.0,0.001916422863347548
3926.0,0.0019167396235549436
3925.0,0.0019095977125340394
3924.0,0.0019031023519690262
3923.0,0.0019026732696303316
3922.0,0.0019055016154275115
3921.0,0.0019079562818841399
3920.0,0.0019108404230829355
3919.0,0.0019142063496663652
3918.0,0.0019123638338540937
3917.0,0.0019018223116815513
3916.0,0.0018891843538692416
3915.0,0.0018815577426131557
3914.0,0.0018772442106618882
3913.0,0.0018703288783494948
3912.0,0.0018603616335691395
3911.0,0.0018538175710709585
3910.0,0.0018562310778812222
3909.0,0.0018701540348318125
3908.0,0.0018943635582102788
3907.0,0.0019226132508663556
3906.0,0.001943344050151269
3905.0,0.001951173287985098
3904.0,0.001955387629856432
3903.0,0.0019661449230098304
3902.0,0.0019785274141633554
3901.0,0.001975506326472795
3900.0,0.0019500247745862119
3899.0,0.0019150001037152135
3898.0,0.0018871667880749707
3897.0,0.001871128531075364
3896.0,0.001864416760936241
3895.0,0.0018657779616051955
3894.0,0.001873524602884486
3893.0,0.001878142375504095
3892.0,0.0018695359367693386
3891.0,0.001854767202568771
3890.0,0.0018537928436571528
3889.0,0.0018774864607595783
3888.0,0.0019058027320766543
3887.0,0.0019059481765037961
3886.0,0.0018841181498175852
3885.0,0.0018807881967235936
3884.0,0.00191178238062202
3883.0,0.001952500042614989
3882.0,0.001965157778658806
3881.0,0.001937795875866337
3880.0,0.0018960621948420882
3879.0,0.0018704834945060993
3878.0,0.0018711524248628568
3877.0,0.0018854472045608762
3876.0,0.0018899640297285374
3875.0,0.0018817421760605538
3874.0,0.0018864146288331638
3873.0,0.0019201425464987175
3872.0,0.0019555908965466634
3871.0,0.0019486364746061037
3870.0,0.0019077693792555394
3869.0,0.001886135812594965
3868.0,0.0019068632289644255
3867.0,0.0019395426241676028
3866.0,0.0019445307766170821
3865.0,0.0019262461262181691
3864.0,0.0019169887528182631
3863.0,0.0019203161014755546
3862.0,0.0019176029416723937
3861.0,0.0019028942022025598
3860.0,0.0018833042498987334
3859.0,0.0018692429500144466
3858.0,0.0018702519272127136
3857.0,0.0018932819771855505
3856.0,0.0019225576174333675
3855.0,0.0019155992473824336
3854.0,0.0018778782818417526
3853.0,0.0018626837617893213
3852.0,0.0018769774510077938
3851.0,0.0018941306985401762
3850.0,0.0018952772070571274
3849.0,0.0018797118894681797
3848.0,0.0018622432058310948
3847.0,0.0018545284199011428
3846.0,0.0018569955461242276
3845.0,0.0018645405640990492
3844.0,0.0018740423364803022
3843.0,0.0018881735583664988
3842.0,0.0019114903854322478
3841.0,0.0019369120390351612
3840.0,0.0019457838119088435
3839.0,0.0019311484869941739
3838.0,0.0019055255016488517
3837.0,0.001887062254743159
3836.0,0.0018839725069921247
3835.0,0.0018936951326161957
3834.0,0.001905907816624237
3833.0,0.001908402377279737
3832.0,0.001899420591308737
3831.0,0.0018888678107325174
3830.0,0.0018871559129170412
3829.0,0.0018939335878128231
3828.0,0.001897442169863389
3827.0,0.0018908919826628118
3826.0,0.001887774463031084
3825.0,0.00190756726708316
3824.0,0.0019456001651789153
3823.0,0.0019653650352246454
3822.0,0.0019434469461094197
3821.0,0.0019137165761203122
3820.0,0.0019137642296477193
3819.0,0.0019417442605103889
3818.0,0.0019619469869207257
3817.0,0.001942226323453815
3816.0,0.001906463396572874
3815.0,0.0018974906198654497
3814.0,0.0019127430695487935
3813.0,0.0019190158689437681
3812.0,0.0019023896085353662
3811.0,0.0018827592118193523
3810.0,0.0018852749074078192
3809.0,0.0019007277073949365
3808.0,0.0018998816654817088
3807.0,0.0018861340587893365
3806.0,0.0018939940943726516
3805.0,0.0019402969688183678
3804.0,0.001997041913802496
3803.0,0.0020105975477220693
3802.0,0.0019760709586346533
3801.0,0.0019507206213004134
3800.0,0.0019653170076527225
3799.0,0.001995063090413537
3798.0,0.002000250178750579
3797.0,0.001969868591800047
3796.0,0.0019313088579036575
3795.0,0.0019125389611834099
3794.0,0.001913218949456081
3793.0,0.001917458037398955
3792.0,0.0019172156005285929
3791.0,0.001914608387962236
3790.0,0.0019124685738594232
3789.0,0.0019121703860341495
3788.0,0.0019170745448831737
3787.0,0.001929676068042529
3786.0,0.001946791992234096
3785.0,0.0019619513256334577
3784.0,0.001974020325285813
3783.0,0.0019856196435088236
3782.0,0.0019952893796524847
3781.0,0.0019969228941266407
3780.0,0.0019914017723894504
3779.0,0.0019882949244681347
3778.0,0.001991596521961658
3777.0,0.0019953676603505508
3776.0,0.0019913308106925204
3775.0,0.00198174584147434
3774.0,0.001981938281770671
3773.0,0.0019999871616625114
3772.0,0.0020211427473890544
3771.0,0.0020280445527760147
3770.0,0.0020281793121358907
3769.0,0.0020407662046002624
3768.0,0.002067881406789561
3767.0,0.002092672795241268
3766.0,0.0021019815034569343
3765.0,0.002103277566672353
3764.0,0.0021127024764640958
3763.0,0.0021314652373712216
3762.0,0.002144473981888403
3761.0,0.002144977119312764
3760.0,0.002148674204391037
3759.0,0.002165464678572526
3758.0,0.0021817714947644654
3757.0,0.002187872673714386
3756.0,0.0021920561955006343
3755.0,0.0022011090172264743
3754.0,0.0022093335635791243
3753.0,0.0022138168139932005
3752.0,0.0022250673668674555
3751.0,0.0022381524477386337
3750.0,0.002227447383238948
3749.0,0.0022020227782100586
3748.0,0.0022028015203219573
3747.0,0.0022342735189094885
3746.0,0.0022381127350391983
3745.0,0.002189085325471429
3744.0,0.002151267007863236
3743.0,0.0021655306922341586
3742.0,0.0022031912049911093
3741.0,0.002226053114846668
3740.0,0.0022284118395097105
3739.0,0.0022313525420884443
3738.0,0.0022407841266531515
3737.0,0.0022454371879351755
3736.0,0.002250201018582057
3735.0,0.002264928919660891
3734.0,0.0022761221481335152
3733.0,0.002266165218137472
3732.0,0.0022428668574134124
3731.0,0.002230064221791842
3730.0,0.0022406609071894497
3729.0,0.002264239131736249
3728.0,0.0022793195050187466
3727.0,0.0022833258784920665
3726.0,0.0022951507926147743
3725.0,0.002322777295534739
3724.0,0.0023541937536469453
3723.0,0.0023776469554239645
3722.0,0.00239499842973623
3721.0,0.002413221087549054
3720.0,0.0024340459624506462
3719.0,0.002453603217015262
3718.0,0.00247011776204598
3717.0,0.0024931208790259507
3716.0,0.0025335671598304427
3715.0,0.0025889161242677637
3714.0,0.0026481084985305915
3713.0,0.0027101995074054787
3712.0,0.002787777222945021
3711.0,0.0028815699627922284
3710.0,0.0029779253074844903
3709.0,0.0030728028247996213
3708.0,0.00317025272763512
3707.0,0.003274625006532774
3706.0,0.0033908945290288903
3705.0,0.003524798210439198
3704.0,0.0036820927700996955
3703.0,0.0038660454548124553
3702.0,0.0040686438560225465
3701.0,0.004264486358037006
3700.0,0.004429788909373867
3699.0,0.004557109175573363
3698.0,0.004645994095198343
3697.0,0.004700153154890939
3696.0,0.004728854265959946
3695.0,0.004736569558198645
3694.0,0.004720826274929677
3693.0,0.0046842383050174005
3692.0,0.004637847309087383
3691.0,0.004587579191187978
3690.0,0.004524388336060923
3689.0,0.004443423184701693
3688.0,0.004361501390453708
3687.0,0.004302835133925409
3686.0,0.0042713614834306475
3685.0,0.004250487249121776
3684.0,0.004227988779111607
3683.0,0.004209144313632561
3682.0,0.004200175035891837
3681.0,0.004197067440269962
3680.0,0.004201696656739508
3679.0,0.0042296174702989835
3678.0,0.004284455328201755
3677.0,0.004341817078145828
3676.0,0.004397342598452723
3675.0,0.004465018081242637
3674.0,0.004540394051444258
3673.0,0.004619540240492827
3672.0,0.00469011536495983
3671.0,0.004748787516188012
3670.0,0.004823879019151349
3669.0,0.004916866597900362
3668.0,0.004997129812793296
3667.0,0.005055600425872574
3666.0,0.005104491606185958
3665.0,0.005158521806626919
3664.0,0.005224879116769313
3663.0,0.00530031224586071
3662.0,0.005378083008561909
3661.0,0.0054587147091212755
3660.0,0.005549259175730993
3659.0,0.005652380946253954
3658.0,0.005760735006421533
3657.0,0.005865378991388944
3656.0,0.005965526286462209
3655.0,0.006063625735556284
3654.0,0.00616499654296329
3653.0,0.006271941761771399
3652.0,0.006380786871136411
3651.0,0.006500117443237799
3650.0,0.006644794269277632
3649.0,0.006793234659225607
3648.0,0.006902565184913608
3647.0,0.0069648609754978125
3646.0,0.007001517193758612
3645.0,0.007032428862703385
3644.0,0.007067469537970274
3643.0,0.007112559558032926
3642.0,0.007173790316963764
3641.0,0.007252729647165749
3640.0,0.0073409285764506355
3639.0,0.007427811277010666
3638.0,0.00751249591761648
3637.0,0.007601016735751597
3636.0,0.007694256891366137
3635.0,0.0077864120487176475
3634.0,0.007878918333064007
3633.0,0.007982663209016779
3632.0,0.008106109317164132
3631.0,0.008244035212234357
3630.0,0.008395342394608518
3629.0,0.008570419889397945
3628.0,0.008737514334594713
3627.0,0.008858590210289681
3626.0,0.008944818501992167
3625.0,0.009022907817410523
3624.0,0.009116067560482699
3623.0,0.009238374506973361
3622.0,0.009384763243904769
3621.0,0.009533435965289088
3620.0,0.009660088785252652
3619.0,0.00974641218656093
3618.0,0.009786672922982917
3617.0,0.009794069250488844
3616.0,0.00978485200696204
3615.0,0.009766295061347066
3614.0,0.009748220885012631
3613.0,0.00974673265323924
3612.0,0.009768779302513948
3611.0,0.009805975495654474
3610.0,0.009848182014880563
3609.0,0.009896402103841247
3608.0,0.009954907992134499
3607.0,0.01001405489211879
3606.0,0.010058578202989181
3605.0,0.010087499932673752
3604.0,0.010113978201059097
3603.0,0.010154038940502109
3602.0,0.010214924600962412
3601.0,0.010291050579001475
3600.0,0.010370313059800447
3599.0,0.010443061374692711
3598.0,0.01050864720760525
3597.0,0.010574047309650137
3596.0,0.01064424262586527
3595.0,0.010715191004105031
3594.0,0.010778660294725014
3593.0,0.010831518447003263
3592.0,0.010881634767577676
3591.0,0.010942843456471372
3590.0,0.0110245944830078
3589.0,0.011129829919830879
3588.0,0.01125204562982132
3587.0,0.01136740051030262
3586.0,0.011453935223786682
3585.0,0.011515999255860807
3584.0,0.011570968041299725
3583.0,0.011631824736207316
3582.0,0.011705680716948948
3581.0,0.011794240185947543
3580.0,0.011894110923152904
3579.0,0.011999232280394841
3578.0,0.012105756260507302
3577.0,0.01221284363592275
3576.0,0.012320019591998983
3575.0,0.01242629635212366
3574.0,0.012531926105446196
3573.0,0.01263783230052146
3572.0,0.012744178631828664
3571.0,0.012853509572378258
3570.0,0.0129732247899603
3569.0,0.013115770687169386
3568.0,0.013291025399536378
3567.0,0.013479631156544818
3566.0,0.013635632349410249
3565.0,0.013740596207103665
3564.0,0.013818372675909591
3563.0,0.013899079483082846
3562.0,0.013995648554356581
3561.0,0.01410263921565405
3560.0,0.014206839572941415
3559.0,0.014301046195016254
3558.0,0.014389011575666237
3557.0,0.014478534671547541
3556.0,0.014574441162085037
3555.0,0.01467848753444069
3554.0,0.014791076496261893
3553.0,0.014909375520219308
3552.0,0.015024369784148131
3551.0,0.01512718383774795
3550.0,0.015218435749248208
3549.0,0.015307622926165963
3548.0,0.015406483974916167
3547.0,0.015521414377824602
3546.0,0.015646186928578297
3545.0,0.015763321601388297
3544.0,0.015858103121832137
3543.0,0.015930654934073068
3542.0,0.01599256492443075
3541.0,0.016055189430525897
3540.0,0.016122376349220778
3539.0,0.01619335652326855
3538.0,0.016269706291310655
3537.0,0.016355502431648974
3536.0,0.016449068136439624
3535.0,0.016541043348315423
3534.0,0.01662456528375701
3533.0,0.016702116348114058
3532.0,0.016781321449927722
3531.0,0.01686653320601519
3530.0,0.016956318323204055
3529.0,0.017046873125951004
3528.0,0.017135119040973014
3527.0,0.017219622515905027
3526.0,0.017301015136899002
3525.0,0.01738173309489023
3524.0,0.017462607467286315
3523.0,0.017539506734234316
3522.0,0.0176068471903301
3521.0,0.017665445793013396
3520.0,0.017723939496026405
3519.0,0.01779207235266571
3518.0,0.017872400430420748
3517.0,0.01795768156401641
3516.0,0.018037000969662955
3515.0,0.01810580802735783
3514.0,0.01817015744593016
3513.0,0.01824001977189868
3512.0,0.018320250704523748
3511.0,0.0184090178286236
3510.0,0.018501633953458434
3509.0,0.01859255340727418
3508.0,0.018676085020556468
3507.0,0.018750539040651472
3506.0,0.01882258183751186
3505.0,0.018904743969772524
3504.0,0.019004887695668663
3503.0,0.01911555966200871
3502.0,0.019218272877143498
3501.0,0.019301549613868995
3500.0,0.019370109517902634
3499.0,0.019437875112230836
3498.0,0.019517102667473366
3497.0,0.01961120556699212
3496.0,0.019713815526256513
3495.0,0.01981475520110092
3494.0,0.01990817874736288
3493.0,0.01999543302545255
3492.0,0.020081434050364444
3491.0,0.02017080563101525
3490.0,0.020266907358074154
3489.0,0.02037057968088873
3488.0,0.02047803103227815
3487.0,0.02058280352030431
3486.0,0.020682068325754623
3485.0,0.020779562468558783
3484.0,0.020881069643530276
3483.0,0.02098811992038894
3482.0,0.021097096289187406
3481.0,0.0212036101495241
3480.0,0.02130669649564235
3479.0,0.021409285398660348
3478.0,0.021515629107395243
3477.0,0.02162754211970317
3476.0,0.021741937965553838
3475.0,0.021852352663946962
3474.0,0.021954071082094337
3473.0,0.022047498641693135
3472.0,0.022136041469027323
3471.0,0.02222310777668347
3470.0,0.022313095197655466
3469.0,0.02241302561574605
3468.0,0.022529605414185843
3467.0,0.022663630467789776
3466.0,0.022808383696739553
3465.0,0.022953946988204847
3464.0,0.023092459006646783
3463.0,0.02322032621189162
3462.0,0.02333814524315769
3461.0,0.02345072572912147
3460.0,0.023566692620958073
3459.0,0.02369496570860969
3458.0,0.02383816218827252
3457.0,0.023988913792183063
3456.0,0.024135225346422304
3455.0,0.02427094126368415
3454.0,0.024399540920533272
3453.0,0.024527374136006662
3452.0,0.024656168248727735
3451.0,0.024784238528565997
3450.0,0.02491364503510522
3449.0,0.025052742081987777
3448.0,0.025209998018983493
3447.0,0.025384217381729548
3446.0,0.025562020298204344
3445.0,0.025727632326239803
3444.0,0.025873644915303085
3443.0,0.02600226132754125
3442.0,0.02611886036635757
3441.0,0.02622526090187063
3440.0,0.02631997815861947
3439.0,0.026404586566611894
3438.0,0.026486792859463155
3437.0,0.026576201015306715
3436.0,0.026678501121405428
3435.0,0.026793212032945032
3434.0,0.026913696434811882
3433.0,0.02702872335135002
3432.0,0.02712881918097113
3431.0,0.02721422297664746
3430.0,0.027294749925778117
3429.0,0.02737904293383212
3428.0,0.027465217035879314
3427.0,0.027544241138899805
3426.0,0.02761010594031988
3425.0,0.027663426261220606
3424.0,0.027706934457635897
3423.0,0.027741952487974904
3422.0,0.027769638047442112
3421.0,0.02779218487903745
3420.0,0.027810826716841992
3419.0,0.02782409602438146
3418.0,0.02782893971082285
3417.0,0.027822717829219523
3416.0,0.027805122467876746
3415.0,0.027780432778463836
3414.0,0.02775755510874864
3413.0,0.027744979733610724
3412.0,0.027744549792259703
3411.0,0.027751343176565822
3410.0,0.027759916369744043
3409.0,0.02776952953923563
3408.0,0.027782800157893903
3407.0,0.02780059082903616
3406.0,0.027819259457065634
3405.0,0.027832296627531387
3404.0,0.02783443224620054
3403.0,0.027826115577239602
3402.0,0.027815652603152448
3401.0,0.027815906898463916
3400.0,0.02783664471231146
3399.0,0.027877979661710343
3398.0,0.02792964536074765
3397.0,0.027976450099206226
3396.0,0.028007026276115878
3395.0,0.028020425706266346
3394.0,0.028025186453731997
3393.0,0.028031785583471705
3392.0,0.028045837717052928
3391.0,0.02806812481762104
3390.0,0.028098149313396686
3389.0,0.02813430370012547
3388.0,0.02817182362356909
3387.0,0.028204713268511025
3386.0,0.028230929587759815
3385.0,0.028253090480668624
3384.0,0.028273121521694325
3383.0,0.028289440671657416
3382.0,0.028300967147255704
3381.0,0.02831032844372467
3380.0,0.028320442273179564
3379.0,0.028330028210107064
3378.0,0.028335604382864032
3377.0,0.02833706226922677
3376.0,0.02833864532477408
3375.0,0.02834451051528087
3374.0,0.028354737290233516
3373.0,0.028365039340819256
3372.0,0.028369057063458082
3371.0,0.028362343826271584
3370.0,0.02834661991274906
3369.0,0.02833030808647563
3368.0,0.028323253040992695
3367.0,0.028329974833973946
3366.0,0.028347403798079256
3365.0,0.02836760464348058
3364.0,0.028381976754016228
3363.0,0.028385196698430037
3362.0,0.028378473413071703
3361.0,0.028369335338339567
3360.0,0.028366144714708198
3359.0,0.028371738453554562
3358.0,0.028382703620487254
3357.0,0.028393702193799657
3356.0,0.028400440973512485
3355.0,0.028399132421966122
3354.0,0.028386894523140735
3353.0,0.028365329037981987
3352.0,0.028342578048034417
3351.0,0.028329122910391503
3350.0,0.028329763764915715
3349.0,0.028339349944329364
3348.0,0.028346529463823288
3347.0,0.02834236241256663
3346.0,0.02832662389501387
3345.0,0.02830690582090791
3344.0,0.028291588299021266
3343.0,0.028282899079788155
3342.0,0.028276233380256033
3341.0,0.028265515013398662
3340.0,0.028248667748173785
3339.0,0.028228171122265687
3338.0,0.028207513910770005
3337.0,0.02818803206229064
3336.0,0.02816859663138161
3335.0,0.02814713267253835
3334.0,0.02812194059151025
3333.0,0.02809214763136681
3332.0,0.02805770576358732
3331.0,0.028019117862270744
3330.0,0.027976836583310224
3329.0,0.027930821414033545
3328.0,0.027881020636241982
3327.0,0.0278287792341642
3326.0,0.027777796939237834
3325.0,0.02773280567244084
3324.0,0.02769609575009687
3323.0,0.02766512971588589
3322.0,0.027634326217546388
3321.0,0.027599407974396546
3320.0,0.02755968520427964
3319.0,0.027516637292811754
3318.0,0.02747188680703715
3317.0,0.027427299137513846
3316.0,0.027385545694399098
3315.0,0.0273485857351486
3314.0,0.027315517910660978
3313.0,0.02728308525736656
3312.0,0.02724861113670409
3311.0,0.02721174545746682
3310.0,0.02717336552352329
3309.0,0.02713405728412451
3308.0,0.02709444166451108
3307.0,0.02705629981825879
3306.0,0.02702236217950145
3305.0,0.026994593920041283
3304.0,0.026972396911090556
3303.0,0.026952144768656226
3302.0,0.026928703075371572
3301.0,0.026898263240163124
3300.0,0.026860404451054493
3299.0,0.02681779053767425
3298.0,0.02677430062487346
3297.0,0.02673327730764462
3296.0,0.026696113281335542
3295.0,0.026661065042688753
3294.0,0.02662410323113778
3293.0,0.026582844257750426
3292.0,0.026539918185561003
3291.0,0.026500656860804883
3290.0,0.026466666230329148
3289.0,0.02643344209436913
3288.0,0.02639546971696679
3287.0,0.026351896181214272
3286.0,0.02630541750970553
3285.0,0.02625701779848402
3284.0,0.026204552828129248
3283.0,0.026146793516517438
3282.0,0.02608662902433074
3281.0,0.02602872024900918
3280.0,0.025974759086307385
3279.0,0.025922325502522207
3278.0,0.02586822517635955
3277.0,0.025812160468500246
3276.0,0.025756861904053217
3275.0,0.025704684895872014
3274.0,0.025654345774472766
3273.0,0.02560153194493117
3272.0,0.025543118437036338
3271.0,0.025480520800601276
3270.0,0.02541852300917775
3269.0,0.025361065187895764
3268.0,0.02530837259934823
3267.0,0.02525735593770163
3266.0,0.02520402171477817
3265.0,0.02514604334218582
3264.0,0.025084198421895458
3263.0,0.025021719842189902
3262.0,0.02496158219492428
3261.0,0.024903765246311275
3260.0,0.024845432245167276
3259.0,0.024784252334073217
3258.0,0.024721105700553893
3257.0,0.024659391803361064
3256.0,0.024602240067638
3255.0,0.024550115630554283
3254.0,0.02449992636393014
3253.0,0.02444625144955165
3252.0,0.024384917763010452
3251.0,0.02431652518919042
3250.0,0.02424601477397173
3249.0,0.02417802201256098
3248.0,0.024113269235807505
3247.0,0.024050043589834234
3246.0,0.023987772579196102
3245.0,0.023927270491549385
3244.0,0.023868011225820464
3243.0,0.023807566444541146
3242.0,0.023744153676679387
3241.0,0.023677874816187407
3240.0,0.023609162655294207
3239.0,0.02353793805213701
3238.0,0.023464967286199123
3237.0,0.02339245501989052
3236.0,0.023322186687084863
3235.0,0.023253857394076146
3234.0,0.023185760856451184
3233.0,0.023116151378602165
3232.0,0.023043525058618657
3231.0,0.022967210518815454
3230.0,0.022888990898284084
3229.0,0.022812838284122436
3228.0,0.022741352089127437
3227.0,0.022672641189559434
3226.0,0.02260171074175475
3225.0,0.022524939598318066
3224.0,0.022442672347652043
3223.0,0.022357905803954203
3222.0,0.022273275361935636
3221.0,0.022189041316897678
3220.0,0.022103544781983894
3219.0,0.022015878521517564
3218.0,0.021927695061526295
3217.0,0.02184122993991627
3216.0,0.021755941446729612
3215.0,0.021669077999786877
3214.0,0.021579932867632694
3213.0,0.021491431666460538
3212.0,0.021406262248846612
3211.0,0.021323089123580694
3210.0,0.02123824495943787
3209.0,0.0211501648002122
3208.0,0.021060764536405017
3207.0,0.020973240719179866
3206.0,0.020889834822266178
3205.0,0.02081086499010978
3204.0,0.020734189585311334
3203.0,0.02065593833093609
3202.0,0.02057323978265628
3201.0,0.020486397094462715
3200.0,0.02039810825820451
3199.0,0.02031134409564546
3198.0,0.02022809061957454
3197.0,0.02014839545577651
3196.0,0.02006948545153189
3195.0,0.019987255772642237
3194.0,0.019900109832844643
3193.0,0.019810499588811186
3192.0,0.019721737710451957
3191.0,0.01963436438746689
3190.0,0.019546644719182313
3189.0,0.019457016017650538
3188.0,0.019364383761780516
3187.0,0.019267794547510056
3186.0,0.019168365817626872
3185.0,0.019070371424023135
3184.0,0.018977857698582335
3183.0,0.018890856373098182
3182.0,0.018806747419202505
3181.0,0.018723863495518377
3180.0,0.01864093081606973
3179.0,0.01855434972208723
3178.0,0.018460334826859267
3177.0,0.018360501706943193
3176.0,0.018261919607388804
3175.0,0.01816990574950975
3174.0,0.01808283283136798
3173.0,0.017995295480408038
3172.0,0.017904630227601515
3171.0,0.017813056666865754
3170.0,0.01772483197377003
3169.0,0.017642552328447532
3168.0,0.017565131525390118
3167.0,0.017488009245793218
3166.0,0.01740579085190489
3165.0,0.017316068416557067
3164.0,0.017221733809865577
3163.0,0.017129860905602125
3162.0,0.01704721786679045
3161.0,0.016974893446696317
3160.0,0.01690641128258742
3159.0,0.016832567504202367
3158.0,0.016749939646470702
3157.0,0.01666427720540792
3156.0,0.01658423707391446
3155.0,0.01651237162471406
3154.0,0.016443724268774294
3153.0,0.01637226634228995
3152.0,0.016296422822637224
3151.0,0.01621854715309702
3150.0,0.016141520279342306
3149.0,0.01606701637831081
3148.0,0.01599552751691924
3147.0,0.015926513568147588
3146.0,0.01585870024548124
3145.0,0.015790678407876752
3144.0,0.015721363350048097
3143.0,0.01565085312063269
3142.0,0.015581833754392468
3141.0,0.015519189103524983
3140.0,0.015466200171342346
3139.0,0.015420943951429768
3138.0,0.015378092247878578
3137.0,0.015334527112657346
3136.0,0.015291989519419267
3135.0,0.015254413840340087
3134.0,0.015223766105582855
3133.0,0.015197929552981285
3132.0,0.015171271927005552
3131.0,0.015137534460568272
3130.0,0.015093639659117163
3129.0,0.015041322662513446
3128.0,0.014984655918416512
3127.0,0.014925953599529175
3126.0,0.014864608925775055
3125.0,0.014799648983042292
3124.0,0.014732413390066007
3123.0,0.014666219204030575
3122.0,0.01460381689774444
3121.0,0.014545747742489599
3120.0,0.014491212422816993
3119.0,0.014440885977873099
3118.0,0.014398948047470848
3117.0,0.014370920607609021
3116.0,0.014358560674401378
3115.0,0.014357816917174505
3114.0,0.014362683985328792
3113.0,0.014370016070705764
3112.0,0.01437957463248939
3111.0,0.014391352202927254
3110.0,0.01440499590337833
3109.0,0.014420670221551114
3108.0,0.01443776991932779
3107.0,0.014452159507733174
3106.0,0.014456676763324884
3105.0,0.014445556146756064
3104.0,0.014417579214620422
3103.0,0.014374478012874888
3102.0,0.014317630457859321
3101.0,0.01424750169020331
3100.0,0.014165548963626342
3099.0,0.014075773446851972
3098.0,0.013984509295649528
3097.0,0.013898635367013704
3096.0,0.013822976395357706
3095.0,0.01375868695065284
3094.0,0.013704772828374203
3093.0,0.013661477343280843
3092.0,0.013631582889191182
3091.0,0.013618577390954352
3090.0,0.013623821208418627
3089.0,0.01364479448883962
3088.0,0.013675330088809185
3087.0,0.013708011187730334
3086.0,0.013737460836734081
3085.0,0.01376109391672006
3084.0,0.01377663009825322
3083.0,0.013780619460946435
3082.0,0.013771189416856917
3081.0,0.01375135599811569
3080.0,0.013726653635595432
3079.0,0.013699082676785365
3078.0,0.013665426160925233
3077.0,0.01362217213781301
3076.0,0.013571022547324459
3075.0,0.013518998233935361
3074.0,0.013473619309649652
3073.0,0.013437831056447538
3072.0,0.013408526913305227
3071.0,0.013379521182880324
3070.0,0.013346623312178722
3069.0,0.013309695201414815
3068.0,0.013269457952927572
3067.0,0.013223753229372828
3066.0,0.013168462200112006
3065.0,0.013102132234650687
3064.0,0.01302860615361642
3063.0,0.012955408152892402
3062.0,0.012890878068388477
3061.0,0.012841782626498321
3060.0,0.012810961860215749
3059.0,0.012796067401411648
3058.0,0.012791125117184464
3057.0,0.012788625122320998
3056.0,0.012779154183835933
3055.0,0.012750857584241333
3054.0,0.012692680783566055
3053.0,0.012599237380730348
3052.0,0.01247134061353336
3051.0,0.012312623566845024
3050.0,0.0121278890494903
3049.0,0.011924932026927328
3048.0,0.011714920762935845
3047.0,0.01150851820850457
3046.0,0.011312534606295622
3045.0,0.011130860866132936
3044.0,0.010966888145069369
3043.0,0.010823698276573493
3042.0,0.010702865784789383
3041.0,0.010603963126793492
3040.0,0.010524634691260576
3039.0,0.010460830810382555
3038.0,0.010407650023310946
3037.0,0.010360699732402872
3036.0,0.010316885982695128
3035.0,0.010274668455045176
3034.0,0.010234479008325914
3033.0,0.010198173990943974
3032.0,0.010167133873554791
3031.0,0.010141375134079976
3030.0,0.010121055937097584
3029.0,0.010107430432049912
3028.0,0.010100822406422093
3027.0,0.0100988021808331
3026.0,0.010098060547278522
3025.0,0.010097853912696932
3024.0,0.010100493935433665
3023.0,0.010109164162769064
3022.0,0.010126436140068577
3021.0,0.010153621949212746
3020.0,0.0101896926783496
3019.0,0.010231296941115785
3018.0,0.010275511614221883
3017.0,0.01032226508943736
3016.0,0.010372733930764367
3015.0,0.01042659375172637
3014.0,0.010482609638605422
3013.0,0.010540773456441688
3012.0,0.010601585052944708
3011.0,0.01066394674473767
3010.0,0.010725915003531615
3009.0,0.010786686210987554
3008.0,0.010845924411934337
3007.0,0.01090231501171551
3006.0,0.010955373479509426
3005.0,0.011007793754086179
3004.0,0.011062864502655718
3003.0,0.011119771534264598
3002.0,0.011174219845753742
3001.0,0.011224069168670296
3000.0,0.011271951353374082
2999.0,0.011322323692211205
2998.0,0.011378633855465283
2997.0,0.011442986506722815
2996.0,0.011515484707209488
2995.0,0.011593220950634657
2994.0,0.01167304118440551
2993.0,0.011756693625994366
2992.0,0.011850391028086892
2991.0,0.011957946666693602
2990.0,0.012076514921365255
2989.0,0.01220057488478721
2988.0,0.012327948401263819
2987.0,0.012460142505405477
2986.0,0.012598952976771521
2985.0,0.012745141785403367
2984.0,0.012899682659642033
2983.0,0.01306393379291089
2982.0,0.013238131646771994
2981.0,0.013420832183853926
2980.0,0.013610121528264744
2979.0,0.013805065397351386
2978.0,0.014006298235479372
2977.0,0.014215804519993477
2976.0,0.01443621964623653
2975.0,0.014669837569485668
2974.0,0.01491776443842677
2973.0,0.01517924224192636
2972.0,0.015451093687104723
2971.0,0.015728230668217554
2970.0,0.01600529827271753
2969.0,0.01627762498166459
2968.0,0.016540654935089816
2967.0,0.016789957714437132
2966.0,0.01702319262066486
2965.0,0.017240283568192183
2964.0,0.017439376895730264
2963.0,0.017613132241286675
2962.0,0.01775065953625511
2961.0,0.017843416875446712
2960.0,0.017887722582794145
2959.0,0.01788271579168552
2958.0,0.01782872963001994
2957.0,0.01772765165553438
2956.0,0.01758188447491012
2955.0,0.01739229389256178
2954.0,0.017159618005931226
2953.0,0.016887849933860208
2952.0,0.01658363505172759
2951.0,0.016252029841118308
2950.0,0.015895374497882524
2949.0,0.015516872994105209
2948.0,0.015123212874834497
2947.0,0.014723036622154819
2946.0,0.014324696388005397
2945.0,0.013935286178947872
2944.0,0.013559707504484566
2943.0,0.013200455799875423
2942.0,0.012860020992526072
2941.0,0.012542753824946075
2940.0,0.012252261145650353
2939.0,0.011988748118505893
2938.0,0.011751571985771902
2937.0,0.011542592700920182
2936.0,0.011363181427968548
2935.0,0.01120852101739517
2934.0,0.011069314669548842
2933.0,0.01093967176729062
2932.0,0.010819819893822245
2931.0,0.010711456441646184
2930.0,0.010614371479552114
2929.0,0.010527647478120598
2928.0,0.0104491639770285
2927.0,0.010372622501526513
2926.0,0.010289536131267023
2925.0,0.010196807924045752
2924.0,0.010099895132991504
2923.0,0.010006694085865787
2922.0,0.009921161182293536
2921.0,0.00984352337405681
2920.0,0.009773524586784868
2919.0,0.009711228486072162
2918.0,0.009656543160150407
2917.0,0.009609863791044324
2916.0,0.009572284128206243
2915.0,0.00954471469291471
2914.0,0.00952741024504886
2913.0,0.009519905958536547
2912.0,0.009520265917011297
2911.0,0.00952505123966989
2910.0,0.009531013547861428
2909.0,0.009535908526728226
2908.0,0.009536271076032558
2907.0,0.009526815281523647
2906.0,0.00950552343255507
2905.0,0.00947811987328948
2904.0,0.009453867216697873
2903.0,0.00943699510933555
2902.0,0.009425167399892161
2901.0,0.00941642859641003
2900.0,0.00941408106656344
2899.0,0.00942296626063476
2898.0,0.009443638500549455
2897.0,0.009471611519376973
2896.0,0.00950072047663543
2895.0,0.009526114454516179
2894.0,0.009545524238880988
2893.0,0.009558842505691589
2892.0,0.009565767183948496
2891.0,0.009563657507146554
2890.0,0.009548747918111597
2889.0,0.009519324944637315
2888.0,0.009476548742584927
2887.0,0.009422358548690035
2886.0,0.009358138910896515
2885.0,0.009284905825893587
2884.0,0.009203362146281547
2883.0,0.009114286236736303
2882.0,0.009020782461407553
2881.0,0.008929416389993627
2880.0,0.008846366626243432
2879.0,0.00877268761823366
2878.0,0.008704888471058205
2877.0,0.008639791102624063
2876.0,0.008576312081255179
2875.0,0.008513320529044362
2874.0,0.008449268711526268
2873.0,0.008384312656443054
2872.0,0.008319857742189638
2871.0,0.008255259861332678
2870.0,0.00818776613166524
2869.0,0.008116963463983561
2868.0,0.00804715054607738
2867.0,0.007983756423335774
2866.0,0.007929102755599774
2865.0,0.007882332068262542
2864.0,0.00784158078881844
2863.0,0.007805150371469852
2862.0,0.007771606744357808
2861.0,0.007739610875618764
2860.0,0.007706973057103281
2859.0,0.007670117144330569
2858.0,0.007625977145263316
2857.0,0.007574064161070555
2856.0,0.00751497248459717
2855.0,0.0074472756904245
2854.0,0.00736799444466763
2853.0,0.007276163507022109
2852.0,0.007173847154582889
2851.0,0.007063935519990138
2850.0,0.006949425453639106
2849.0,0.00683458907914224
2848.0,0.0067238764755192856
2847.0,0.0066188121554606304
2846.0,0.006518057593863655
2845.0,0.0064208257012502105
2844.0,0.006328333669873662
2843.0,0.006241601732652919
2842.0,0.0061598099546725845
2841.0,0.006081823325777504
2840.0,0.006007987153381628
2839.0,0.005939600247973284
2838.0,0.005877322051630555
2837.0,0.005820304039299812
2836.0,0.005766369893338636
2835.0,0.005713426425649107
2834.0,0.005661492875455846
2833.0,0.005613011726457845
2832.0,0.005570100800727562
2831.0,0.005531857175510534
2830.0,0.005495374005241277
2829.0,0.005458768804634448
2828.0,0.005422258108865187
2827.0,0.00538695771500038
2826.0,0.00535383744151396
2825.0,0.0053233210668525675
2824.0,0.005294376967401756
2823.0,0.005264443431955436
2822.0,0.0052317162579364525
2821.0,0.005197225521115004
2820.0,0.005163764169465039
2819.0,0.005133318750030617
2818.0,0.005106545293348797
2817.0,0.005083671581736765
2816.0,0.0050641363855695575
2815.0,0.0050459405098363256
2814.0,0.005027012075182518
2813.0,0.005007236395930429
2812.0,0.004988189084711163
2811.0,0.004971261339767365
2810.0,0.004956913250633406
2809.0,0.004944699066702119
2808.0,0.004932830717550575
2807.0,0.0049187947954316
2806.0,0.004901655190762467
2805.0,0.004882782116987741
2804.0,0.004863062897253782
2803.0,0.004840698920669523
2802.0,0.004813536623382155
2801.0,0.004782573456265232
2800.0,0.004751144464046114
2799.0,0.0047213512665020205
2798.0,0.004693244167258122
2797.0,0.004666592215836239
2796.0,0.004641480501717745
2795.0,0.004617621988598902
2794.0,0.004594708342575567
2793.0,0.004573019510200466
2792.0,0.004552389473443278
2791.0,0.004531412881732166
2790.0,0.004509008406973262
2789.0,0.004485769830901557
2788.0,0.004462390329267549
2787.0,0.004438218415305816
2786.0,0.004413261238467028
2785.0,0.004390050322932328
2784.0,0.004371077190079765
2783.0,0.004355287746883047
2782.0,0.004339442412211271
2781.0,0.004322192677213735
2780.0,0.004304521048732569
2779.0,0.004287037028331251
2778.0,0.004269470487733755
2777.0,0.004252356204211701
2776.0,0.004236809292981318
2775.0,0.004222793782055458
2774.0,0.004209540084094571
2773.0,0.00419719178291686
2772.0,0.004186079148891034
2771.0,0.004175123860259255
2770.0,0.004163168164022774
2769.0,0.004151146260534513
2768.0,0.0041405986433887074
2767.0,0.0041307203966646526
2766.0,0.004119547903616853
2765.0,0.004107580710748572
2764.0,0.0040973163121926824
2763.0,0.004089217263520449
2762.0,0.0040809303153963115
2761.0,0.004070968117363553
2760.0,0.004060567089572631
2759.0,0.004051013525300186
2758.0,0.004041384318843763
2757.0,0.004030019758605519
2756.0,0.004016562758204224
2755.0,0.004001672449248185
2754.0,0.003986042458621935
2753.0,0.0039704963215764595
2752.0,0.00395596664899126
2751.0,0.003942554242430703
2750.0,0.003929134768201059
2749.0,0.003914240938826335
2748.0,0.0038971466258195904
2747.0,0.0038784458447129622
2746.0,0.0038600498003551397
2745.0,0.003843943585000515
2744.0,0.0038300669053917312
2743.0,0.0038160586075335085
2742.0,0.0037998698518500644
2741.0,0.0037818818381928675
2740.0,0.0037638088579006147
2739.0,0.0037467775496754195
2738.0,0.0037314181661419433
2737.0,0.003718133695603785
2736.0,0.003705653532640567
2735.0,0.003690846275767946
2734.0,0.003672095344178044
2733.0,0.003651756867597982
2732.0,0.0036332512468932286
2731.0,0.003616735599875475
2730.0,0.003599623724802616
2729.0,0.003580545982068528
2728.0,0.0035606367083903826
2727.0,0.0035415345332248218
2726.0,0.0035241809547987
2725.0,0.003508997000159147
2724.0,0.0034951919746432896
2723.0,0.0034803647472880835
2722.0,0.0034628186181672104
2721.0,0.00344389417655185
2720.0,0.0034263154438271765
2719.0,0.0034109155824657844
2718.0,0.0033967958589823264
2717.0,0.003383887643380129
2716.0,0.003372959405905899
2715.0,0.003363336606156818
2714.0,0.0033528545287510626
2713.0,0.0033402600136323915
2712.0,0.003326266682737824
2711.0,0.003312458107603742
2710.0,0.0033003558100554347
2709.0,0.003290712175366443
2708.0,0.003281939613438049
2707.0,0.0032701578321057386
2706.0,0.00325306815248052
2705.0,0.0032335435651878377
2704.0,0.0032172789108165225
2703.0,0.0032070248737258817
2702.0,0.003200787925364071
2701.0,0.0031952470173649003
2700.0,0.003188829898266932
2699.0,0.0031814287879350454
2698.0,0.0031732459475428618
2697.0,0.003164652177783658
2696.0,0.0031562357108498654
2695.0,0.0031487231800349427
2694.0,0.0031431771826007657
2693.0,0.0031403073794863913
2692.0,0.003138603698085391
2691.0,0.0031343923413948947
2690.0,0.003125525768414633
2689.0,0.003114220111334407
2688.0,0.003104596076694159
2687.0,0.0030979775693260386
2686.0,0.0030922870076780648
2685.0,0.0030854112076471023
2684.0,0.0030773964231040037
2683.0,0.003069680989711723
2682.0,0.0030637174345901526
2681.0,0.0030600716840867197
2680.0,0.003057613291632147
2679.0,0.003054027449157389
2678.0,0.003048115394384642
2677.0,0.003040917357873479
2676.0,0.0030337894239765104
2675.0,0.0030267483378196803
2674.0,0.003019871803045228
2673.0,0.0030145254559824633
2672.0,0.003011311720296537
2671.0,0.0030082188392482586
2670.0,0.0030030958557672894
2669.0,0.002997077931207357
2668.0,0.002993646376689754
2667.0,0.002995244310189415
2666.0,0.0030024618679173635
2665.0,0.003015082539228905
2664.0,0.003031595746242696
2663.0,0.0030488811354245846
2662.0,0.0030647511672210756
2661.0,0.0030801000737206334
2660.0,0.003096401161060699
2659.0,0.0031123528508091866
2658.0,0.0031256003091581393
2657.0,0.0031365797293673395
2656.0,0.0031474879552456517
2655.0,0.003158012150997984
2654.0,0.0031655685568860205
2653.0,0.003170011308568762
2652.0,0.003174914274521475
2651.0,0.0031833264113814855
2650.0,0.0031946325987535053
2649.0,0.003206186868369933
2648.0,0.003216037436357306
2647.0,0.0032236064021611693
2646.0,0.0032297578137769423
2645.0,0.003236771569750236
2644.0,0.0032464439272468556
2643.0,0.0032578556809160133
2642.0,0.003268583665770386
2641.0,0.0032781648731228224
2640.0,0.003288726269995934
2639.0,0.003302143613054344
2638.0,0.003318280154743486
2637.0,0.003335984476776072
2636.0,0.003354190213655567
2635.0,0.003372132793444199
2634.0,0.0033899429610494396
2633.0,0.003408555486987456
2632.0,0.0034275103905279953
2631.0,0.0034436230060966248
2630.0,0.0034538451329647777
2629.0,0.003458820578232399
2628.0,0.0034614752888104455
2627.0,0.0034627838520660675
2626.0,0.0034612759752774115
2625.0,0.0034563240642260934
2624.0,0.003449327749966629
2623.0,0.0034416881693616107
2622.0,0.003433929818225219
2621.0,0.0034269878078653972
2620.0,0.0034223273347449845
2619.0,0.0034203450231873886
2618.0,0.003419718050829898
2617.0,0.003418097696737685
2616.0,0.0034130423866905136
2615.0,0.003403965293004684
2614.0,0.003394410256572951
2613.0,0.0033901477403153225
2612.0,0.003392748177896943
2611.0,0.003397187930443057
2610.0,0.0033981908482618355
2609.0,0.003396567116005361
2608.0,0.003396289668176496
2607.0,0.0033977371080848827
2606.0,0.003398083745986439
2605.0,0.0033964951718853014
2604.0,0.0033944010130169226
2603.0,0.0033917863261030976
2602.0,0.00338788570873182
2601.0,0.0033851650380701823
2600.0,0.0033876264717043964
2599.0,0.0033946742725592637
2598.0,0.0034008734361011764
2597.0,0.003402806854880232
2596.0,0.0034029320454316107
2595.0,0.0034056952335963613
2594.0,0.0034126558062202543
2593.0,0.003422361584203926
2592.0,0.0034325041564185373
2591.0,0.0034413561367317557
2590.0,0.0034486926752009383
2589.0,0.0034555985629863986
2588.0,0.003462607144856509
2587.0,0.003469027846143811
2586.0,0.0034751348497278527
2585.0,0.0034828004604799912
2584.0,0.003492042374696999
2583.0,0.003499587760205732
2582.0,0.0035036683960382323
2581.0,0.0035074415978128435
2580.0,0.003513810192969761
2579.0,0.003519661630001826
2578.0,0.0035200669808115505
2577.0,0.0035164379478646547
2576.0,0.003515231717917151
2575.0,0.0035191936248222073
2574.0,0.0035248485987772185
2573.0,0.003528538801775038
2572.0,0.003530305700631617
2571.0,0.0035314114266676326
2570.0,0.0035318808166196003
2569.0,0.0035311757920794638
2568.0,0.0035284663197687237
2567.0,0.003522478179544565
2566.0,0.0035138494532258816
2565.0,0.0035065818874303704
2564.0,0.0035038675604255626
2563.0,0.0035036407356577514
2562.0,0.0035016838275435044
2561.0,0.003497679838080127
2560.0,0.0034942797726234577
2559.0,0.0034917663223075256
2558.0,0.0034884761049368456
2557.0,0.0034855951874373852
2556.0,0.0034864074926337007
2555.0,0.003490764263521867
2554.0,0.003494842773305402
2553.0,0.003496733821155798
2552.0,0.003498101457210423
2551.0,0.0035000812322723597
2550.0,0.003501541213922871
2549.0,0.003501677229388098
2548.0,0.0035006039216977205
2547.0,0.0034970391217090755
2546.0,0.003488918354607899
2545.0,0.003476923482344481
2544.0,0.003464716858886885
2543.0,0.003455631690419815
2542.0,0.0034511807084086164
2541.0,0.0034514835621939875
2540.0,0.0034542189453918067
2539.0,0.00345485048121058
2538.0,0.0034516101509870995
2537.0,0.0034488421874385358
2536.0,0.0034516034006486732
2535.0,0.003458341930956289
2534.0,0.0034630809711421445
2533.0,0.00346340658692505
2532.0,0.003461619434275395
2531.0,0.003459297995782814
2530.0,0.003456216583463824
2529.0,0.0034542525844442253
2528.0,0.003456769893708604
2527.0,0.0034631600708032615
2526.0,0.0034682808922553206
2525.0,0.003468266141320728
2524.0,0.003463554912919463
2523.0,0.0034562703625147986
2522.0,0.0034484968165622637
2521.0,0.0034431217640009315
2520.0,0.0034421965858876316
2519.0,0.0034436802257702395
2518.0,0.0034428388825748996
2517.0,0.003437011288487092
2516.0,0.003426445242657842
2515.0,0.003411690696372454
2514.0,0.0033941109910323
2513.0,0.0033780676093144854
2512.0,0.0033679261195604764
2511.0,0.003362565747448854
2510.0,0.0033564425131173145
2509.0,0.0033460993877571493
2508.0,0.0033325216987377124
2507.0,0.003317811350396229
2506.0,0.0033033261260464047
2505.0,0.0032905810469868206
2504.0,0.0032799016121235836
2503.0,0.0032682893425212576
2502.0,0.003252422627241451
2501.0,0.0032336904224892936
2500.0,0.003216699390091171
2499.0,0.0032030179669859894
2498.0,0.003189877447301626
2497.0,0.0031746465982707634
2496.0,0.003156974245232552
2495.0,0.0031368566629558876
2494.0,0.0031144164417571908
2493.0,0.003091865192878048
2492.0,0.0030725513736235
2491.0,0.003057777853644225
2490.0,0.003046531011294664
2489.0,0.0030370734236729547
2488.0,0.003026391998619978
2487.0,0.0030105025218044555
2486.0,0.002989291579347947
2485.0,0.002969216758891749
2484.0,0.002956616778926213
2483.0,0.0029494531567869848
2482.0,0.0029401420428569166
2481.0,0.0029256874521937743
2480.0,0.002910484540353615
2479.0,0.0028994312081410964
2478.0,0.0028925396569582946
2477.0,0.002886410854010234
2476.0,0.0028773719463409527
2475.0,0.0028633499451285703
2474.0,0.0028460865060743763
2473.0,0.002831106993625333
2472.0,0.0028222063891621208
2471.0,0.0028166340706977317
2470.0,0.0028088182015389663
2469.0,0.0027975471873220156
2468.0,0.00278600025194375
2467.0,0.002776299775504939
2466.0,0.0027683106791621037
2465.0,0.00276273976216507
2464.0,0.002760929351627588
2463.0,0.00276183771193659
2462.0,0.0027628920646265267
2461.0,0.002763489853102102
2460.0,0.0027648247120088208
2459.0,0.002767604649339975
2458.0,0.002772828303536907
2457.0,0.0027822563057471198
2456.0,0.002793985168393123
2455.0,0.0028002267143181943
2454.0,0.002794950003143621
2453.0,0.002782243433404009
2452.0,0.0027718479607930935
2451.0,0.0027678964980252397
2450.0,0.0027676681468538607
2449.0,0.0027695068226605453
2448.0,0.0027744148518566714
2447.0,0.0027798268643608338
2446.0,0.0027796551439823033
2445.0,0.002772883522556194
2444.0,0.0027661810365750836
2443.0,0.002765318159609705
2442.0,0.0027685946535394596
2441.0,0.002771076391454951
2440.0,0.0027712400534339954
2439.0,0.0027710049090371447
2438.0,0.002772418762389873
2437.0,0.0027764538109913105
2436.0,0.0027826393605027465
2435.0,0.002788496191664479
2434.0,0.0027915509072509717
2433.0,0.002792772781869502
2432.0,0.0027959250551817623
2431.0,0.0028031762058024334
2430.0,0.0028135493868245726
2429.0,0.0028254694652175578
2428.0,0.0028380223443894162
2427.0,0.0028496510836625846
2426.0,0.0028584998858687677
2425.0,0.0028646128017832135
2424.0,0.0028697847664086156
2423.0,0.0028753937369219423
2422.0,0.002882388494935206
2421.0,0.002892472277558431
2420.0,0.0029063514332297296
2419.0,0.002921234665182006
2418.0,0.002932966008266485
2417.0,0.0029406937791728047
2416.0,0.002947445863316701
2415.0,0.002956687561726839
2414.0,0.002970202317134573
2413.0,0.002987909763205103
2412.0,0.0030068024873762403
2411.0,0.003020854198901678
2410.0,0.0030250094008212984
2409.0,0.003019496639538188
2408.0,0.003008840764272434
2407.0,0.0029978993835415857
2406.0,0.0029905857459139587
2405.0,0.002989938659525344
2404.0,0.0029960060658150156
2403.0,0.003005087903289374
2402.0,0.0030139819039397215
2401.0,0.003023535544753181
2400.0,0.003035354773862825
2399.0,0.0030470728514052324
2398.0,0.003054439338064597
2397.0,0.003056683890945662
2396.0,0.003056380878613617
2395.0,0.0030552980475658425
2394.0,0.0030539093440442935
2393.0,0.003053560591778425
2392.0,0.003055105890032185
2391.0,0.0030560822404063857
2390.0,0.003052564279100076
2389.0,0.0030432789599529816
2388.0,0.0030291180321776086
2387.0,0.003009758504214648
2386.0,0.0029840754567482686
2385.0,0.002952996380438988
2384.0,0.002918630798118175
2383.0,0.0028813150630801017
2382.0,0.00284084588267371
2381.0,0.0027999818725201447
2380.0,0.002762971988528433
2379.0,0.0027305686791791973
2378.0,0.00270088005563907
2377.0,0.002675652110429542
2376.0,0.002659876369399166
2375.0,0.0026535438901975072
2374.0,0.0026489532603440856
2373.0,0.0026383909973569475
2372.0,0.0026204936825586955
2371.0,0.0025984482594221085
2370.0,0.0025777975513618045
2369.0,0.0025652221886883525
2368.0,0.0025603609552445053
2367.0,0.002550190646220386
2366.0,0.0025239017799194062
2365.0,0.0024930724927212677
2364.0,0.0024800109353770913
2363.0,0.0024858668210581813
2362.0,0.0024928709661764586
2361.0,0.0024912388112777652
2360.0,0.0024818105510963947
2359.0,0.0024634604850935814
2358.0,0.002437839171506676
2357.0,0.0024199100996614687
2356.0,0.002419323241701953
2355.0,0.002422557861779986
2354.0,0.0024137585148501233
2353.0,0.0023957516835630367
2352.0,0.0023813164711990087
2351.0,0.0023739751019957963
2350.0,0.002370347618873711
2349.0,0.0023684586997590818
2348.0,0.0023651598479543325
2347.0,0.002360295468655482
2346.0,0.002359688586044867
2345.0,0.0023707945602735717
2344.0,0.0023888368732975043
2343.0,0.002395175274272276
2342.0,0.0023837347369992817
2341.0,0.0023713462837864096
2340.0,0.0023769906079014703
2339.0,0.0023950374958552397
2338.0,0.002403655766276782
2337.0,0.0023926802560002773
2336.0,0.0023722830969443868
2335.0,0.002354784290104134
2334.0,0.002341955907076142
2333.0,0.002329462618139896
2332.0,0.0023157557558016613
2331.0,0.002303414515721958
2330.0,0.002299422175919833
2329.0,0.002320462800966954
2328.0,0.0023827111269616517
2327.0,0.002491591348901496
2326.0,0.002630461798355164
2325.0,0.0027639009128068233
2324.0,0.0028482902379687912
2323.0,0.0028550810115509882
2322.0,0.002797447889647658
2321.0,0.0027223534048254755
2320.0,0.002670577118645082
2319.0,0.0026461538774815714
2318.0,0.0026302946753196947
2317.0,0.002610261385799232
2316.0,0.0025869902322670935
2315.0,0.0025662285190094667
2314.0,0.002552297058150085
2313.0,0.0025496921508971317
2312.0,0.002558958865156113
2311.0,0.00257551887744222
2310.0,0.002594128912004247
2309.0,0.0026158502654234847
2308.0,0.0026416668337262894
2307.0,0.002667057106439591
2306.0,0.0026860867706013135
2305.0,0.0027003568864599472
2304.0,0.002715843136832959
2303.0,0.002735518574586969
2302.0,0.0027591937261617927
2301.0,0.0027888993644721804
2300.0,0.0028263147027336234
2299.0,0.0028683737557239452
2298.0,0.002910198291000635
2297.0,0.0029529328083978583
2296.0,0.0030006444238640205
2295.0,0.003053246312458774
2294.0,0.003106612432820276
2293.0,0.0031599276281482763
2292.0,0.0032148221638262026
2291.0,0.003269633537572902
2290.0,0.003320307305958694
2289.0,0.0033669673902920784
2288.0,0.0034122314736690805
2287.0,0.003452834538565175
2286.0,0.0034800385276834815
2285.0,0.0034890613594722
2284.0,0.003482720839468061
2283.0,0.0034647590685580086
2282.0,0.0034368737175461874
2281.0,0.0034027168844980825
2280.0,0.003368102764640825
2279.0,0.0033348632172939784
2278.0,0.0033004991464099147
2277.0,0.003265074487679604
2276.0,0.003232965065025602
2275.0,0.00320727311302672
2274.0,0.003187989501363552
2273.0,0.003175986269985099
2272.0,0.0031725507617067876
2271.0,0.0031746206242156405
2270.0,0.003175563967126806
2269.0,0.0031705028484843517
2268.0,0.0031574294902763185
2267.0,0.0031356052910833654
2266.0,0.0031088168625185535
2265.0,0.0030872343265102567
2264.0,0.003078768231412331
2263.0,0.003080748129926812
2262.0,0.0030859204224468707
2261.0,0.0030933511759255643
2260.0,0.0031062788733544943
2259.0,0.00312225182427899
2258.0,0.003133023069288519
2257.0,0.0031316831124320616
2256.0,0.003115327722400165
2255.0,0.003085361447055509
2254.0,0.003052296641781284
2253.0,0.003033017982261621
2252.0,0.0030340715844098115
2251.0,0.003043007429510809
2250.0,0.0030453811638002093
2249.0,0.003042776163393179
2248.0,0.003045230124255209
2247.0,0.003053026245692634
2246.0,0.003059937992215071
2245.0,0.003067206296249821
2244.0,0.0030788622487908845
2243.0,0.0030879948457845944
2242.0,0.0030839490192354413
2241.0,0.0030706604922444607
2240.0,0.0030630107478855717
2239.0,0.0030660406558023906
2238.0,0.003072183850670306
2237.0,0.003076856235903731
2236.0,0.0030816434390648923
2235.0,0.0030830594960880985
2234.0,0.0030740004985709253
2233.0,0.0030577850630068067
2232.0,0.003046573218396081
2231.0,0.0030441472267132125
2230.0,0.0030423061506552867
2229.0,0.0030349811621271892
2228.0,0.0030239130069158226
2227.0,0.0030113118013086718
2226.0,0.0029989305933108184
2225.0,0.0029926240941176015
2224.0,0.002995367767422917
2223.0,0.0029979203302235046
2222.0,0.0029898007920321564
2221.0,0.0029767724432215627
2220.0,0.0029731674197890786
2219.0,0.0029796464828611502
2218.0,0.0029839637429228652
2217.0,0.0029817453791766615
2216.0,0.0029799819733434965
2215.0,0.0029808157797010875
2214.0,0.002978988317971864
2213.0,0.002975906004341267
2212.0,0.002980177132498202
2211.0,0.0029915396812928425
2210.0,0.0029976412136675304
2209.0,0.002989079868414243
2208.0,0.002967334797324503
2207.0,0.00293869044171217
2206.0,0.002910829448765176
2205.0,0.002892883455460347
2204.0,0.002886863407279026
2203.0,0.002883720672297131
2202.0,0.002878845888750745
2201.0,0.0028830719129643843
2200.0,0.0029039467940268344
2199.0,0.0029254033840720546
2198.0,0.0029249617822483423
2197.0,0.0029047372182015654
2196.0,0.002886856114287529
2195.0,0.0028838263718970213
2194.0,0.0028932068350023487
2193.0,0.002914101856167434
2192.0,0.0029449654517649517
2191.0,0.0029696411261983134
2190.0,0.002970557392677192
2189.0,0.002956242779392258
2188.0,0.002953034596208212
2187.0,0.0029682560645817656
2186.0,0.0029828506177250035
2185.0,0.0029782584835055213
2184.0,0.002948860140359396
2183.0,0.0028914610264157647
2182.0,0.0028119113945264257
2181.0,0.0027447290187457905
2180.0,0.0027341000923318936
2179.0,0.0027835330774620727
2178.0,0.002845909666122481
2177.0,0.002870175989012333
2176.0,0.0028453570801269673
2175.0,0.0027996165141437354
2174.0,0.0027728869233640497
2173.0,0.0027925623834696425
2172.0,0.0028583073745377606
2171.0,0.002946496593187362
2170.0,0.003037092833077577
2169.0,0.0031314037251819926
2168.0,0.0032336577049216254
2167.0,0.003325701892907919
2166.0,0.003384367103299148
2165.0,0.003420771033642779
2164.0,0.0034728967254042
2163.0,0.003546982545534559
2162.0,0.0035826101399556824
2161.0,0.003487688188157475
2160.0,0.00321293020131994
2159.0,0.0028104081627623443
2158.0,0.0024258627723773045
2157.0,0.0022009331825283487
2156.0,0.002164326309803911
2155.0,0.002236197959954121
2154.0,0.0023296373111934988
2153.0,0.0024151156455294747
2152.0,0.0024960115023926026
2151.0,0.0025626646210339973
2150.0,0.0025972537600222442
2149.0,0.002603693104900139
2148.0,0.0026019281169106147
2147.0,0.0026004631057869702
2146.0,0.002597897467075523
2145.0,0.0026016702912387206
2144.0,0.002619973742650107
2143.0,0.002643236169087079
2142.0,0.002655478151187785
2141.0,0.0026567564863632857
2140.0,0.0026558450016531277
2139.0,0.002649383468432038
2138.0,0.0026268107777014447
2137.0,0.002586541200626989
2136.0,0.0025305718005576784
2135.0,0.0024565209600580827
2134.0,0.0023762385876176942
2133.0,0.0023265956515617844
2132.0,0.0023357097127181315
2131.0,0.002387945186645066
2130.0,0.002445232438259352
2129.0,0.0024913451185038407
2128.0,0.002535936442502195
2127.0,0.0025836516404474687
2126.0,0.0026250164280370056
2125.0,0.0026562114290351532
2124.0,0.00268569803774309
2123.0,0.002717794928240182
2122.0,0.0027468343004230724
2121.0,0.0027704192025705034
2120.0,0.002794679991173482
2119.0,0.0028245065231688035
2118.0,0.002860400300244193
2117.0,0.0029039697967327026
2116.0,0.0029541934947364097
2115.0,0.0029996930638391487
2114.0,0.003027757806932967
2113.0,0.00303958191335932
2112.0,0.00304463908126116
2111.0,0.0030433565657730375
2110.0,0.0030302680481993547
2109.0,0.00301075062910719
2108.0,0.0029974051050010984
2107.0,0.002991488355156401
2106.0,0.0029843132021579906
2105.0,0.002975464487359491
2104.0,0.002972336677663387
2103.0,0.0029734371474243793
2102.0,0.0029698480842697346
2101.0,0.0029620546338328057
2100.0,0.0029571501860249593
2099.0,0.0029497725774957095
2098.0,0.002923455987785468
2097.0,0.0028733444558112302
2096.0,0.0028126643904653964
2095.0,0.0027573862076335077
2094.0,0.002719946422661706
2093.0,0.002712962754535026
2092.0,0.0027391648107298223
2091.0,0.0027783264378794317
2090.0,0.0028023056963265747
2089.0,0.0028047797147389615
2088.0,0.00280155697115546
2087.0,0.002803773903148022
2086.0,0.0028075988635794546
2085.0,0.0028090098029966135
2084.0,0.002809998788653868
2083.0,0.0028093790258325486
2082.0,0.002803685655972504
2081.0,0.0027975547388090364
2080.0,0.002797476354300259
2079.0,0.0027969753146485643
2078.0,0.002784472796479085
2077.0,0.0027631574937683812
2076.0,0.002744577478118905
2075.0,0.002725704681446497
2074.0,0.002695186105003148
2073.0,0.0026585311417433337
2072.0,0.0026342423883340994
2071.0,0.0026242967401305254
2070.0,0.0026123305717160867
2069.0,0.0025914054598589987
2068.0,0.0025711430813933427
2067.0,0.002555288950088568
2066.0,0.0025351465410652072
2065.0,0.0025080321003228376
2064.0,0.00248156404515031
2063.0,0.002457229487093344
2062.0,0.0024300582858670277
2061.0,0.002404705275204685
2060.0,0.0023922779133311446
2059.0,0.0023913633606458713
2058.0,0.0023890761043379996
2057.0,0.0023779564090291878
2056.0,0.0023583880405298706
2055.0,0.00233600114342054
2054.0,0.002335594083998802
2053.0,0.002397015183719249
2052.0,0.0025247930276220383
2051.0,0.002653673862426106
2050.0,0.0026982020309560847
2049.0,0.0026398565115932342
2048.0,0.002537980745076169
2047.0,0.002451092662130337
2046.0,0.00239243046793265
2045.0,0.002363693089649953
2044.0,0.002372281010148445
2043.0,0.0024032686637386704
2042.0,0.002424241390451523
2041.0,0.00243146530272411
2040.0,0.0024507392851752484
2039.0,0.0024823181256941754
2038.0,0.0024904303350416356
2037.0,0.0024564313203673774
2036.0,0.0023998597183884636
2035.0,0.002337817055652982
2034.0,0.0022672977410352676
2033.0,0.0021984335525229606
2032.0,0.002156285478485315
2031.0,0.0021384472958284268
2030.0,0.002119220263814317
2029.0,0.002101367169886194
2028.0,0.002117999703587264
2027.0,0.0021741190672206205
2026.0,0.002234670074471105
2025.0,0.002275423959053802
2024.0,0.002302330645955276
2023.0,0.0023158084924969446
2022.0,0.002303694806625365
2021.0,0.0022785724936983634
2020.0,0.002274929597469897
2019.0,0.0022972463560110338
2018.0,0.002313152851910802
2017.0,0.002307852791393543
2016.0,0.0023035815664208805
2015.0,0.002314202040219191
2014.0,0.0023274847688869267
2013.0,0.002341087969653042
2012.0,0.0023718288237019928
2011.0,0.0024181859194251083
2010.0,0.0024511322691329876
2009.0,0.0024517769576483236
2008.0,0.0024272684889302346
2007.0,0.0023859903772230585
2006.0,0.002336629193862622
2005.0,0.0023100190663081738
2004.0,0.002337701044552161
2003.0,0.0024072079143282066
2002.0,0.0024753074499264064
2001.0,0.00252563807580768
2000.0,0.0025741298380430877
1999.0,0.00262441718179602
1998.0,0.0026606473924438703
1997.0,0.0026871537740915646
1996.0,0.0027316747471812343
1995.0,0.0028018417973768245
1994.0,0.002875193011160514
1993.0,0.002936519951072907
1992.0,0.0029903829806726947
1991.0,0.0030304738653553647
1990.0,0.003039270646058272
1989.0,0.003028705434820046
1988.0,0.0030396646229409606
1987.0,0.0030901916096670377
1986.0,0.0031584740524830935
1985.0,0.0032247908180958644
1984.0,0.0032942069592206535
1983.0,0.0033714506888478683
1982.0,0.003448595190607512
1981.0,0.003523188160179658
1980.0,0.0035844319453831033
1979.0,0.0035846348048223812
1978.0,0.003479710866668153
1977.0,0.003312091237607122
1976.0,0.003184614033464118
1975.0,0.003136124649982141
1974.0,0.003119797567061445
1973.0,0.0031049552071593023
1972.0,0.0031186420053616
1971.0,0.003176510727178449
1970.0,0.0032471991637599822
1969.0,0.0033048901997577945
1968.0,0.0033581519711030593
1967.0,0.003406367996592131
1966.0,0.0034256131123017266
1965.0,0.003421957954662647
1964.0,0.0034377337268738112
1963.0,0.0034838642196939893
1962.0,0.00351895327539791
1961.0,0.0035141742801119897
1960.0,0.0034958248438203433
1959.0,0.003500857643255912
1958.0,0.003534139725153068
1957.0,0.00358910381849761
1956.0,0.0036654507110410886
1955.0,0.0037470138242304447
1954.0,0.0038030463449319095
1953.0,0.0038272293520871647
1952.0,0.0038443508387046637
1951.0,0.003863174825863204
1950.0,0.0038620022836796603
1949.0,0.0038349921719334724
1948.0,0.0038106085299637335
1947.0,0.0038063003166100614
1946.0,0.0038016287196618653
1945.0,0.0037735011906614227
1944.0,0.0037246132432982395
1943.0,0.003661596703804519
1942.0,0.0035796644053568663
1941.0,0.003484801437034967
1940.0,0.003396498782615987
1939.0,0.003319310403420091
1938.0,0.003242410936692894
1937.0,0.0031667302904231113
1936.0,0.00310501437982168
1935.0,0.0030525481161701564
1934.0,0.002989810278748014
1933.0,0.002916896624634814
1932.0,0.002857712185804689
1931.0,0.0028187616414686403
1930.0,0.0027797411563271037
1929.0,0.0027342842798386458
1928.0,0.0026995146065427475
1927.0,0.0026840900251457584
1926.0,0.002669459313281815
1925.0,0.002644254520178549
1924.0,0.0026241703486957883
1923.0,0.002619914416870441
1922.0,0.0026126445327318694
1921.0,0.0025836309942899372
1920.0,0.0025399789875153347
1919.0,0.0024972585222803336
1918.0,0.002457472852246946
1917.0,0.002420625013996017
1916.0,0.0023924453252048166
1915.0,0.002369639023507738
1914.0,0.002343530383654913
1913.0,0.002318032883867937
1912.0,0.0023059546493532424
1911.0,0.0023016174855982684
1910.0,0.002281606441110607
1909.0,0.0022424013881163526
1908.0,0.0022063515335093856
1907.0,0.00218813794798031
1906.0,0.002174345977664732
1905.0,0.002153395962960284
1904.0,0.0021345597124935896
1903.0,0.002123016764470997
1902.0,0.002107357904036312
1901.0,0.0020849288304300335
1900.0,0.0020708167889243122
1899.0,0.0020734008776914056
1898.0,0.0020776926525319485
1897.0,0.002068901443051725
1896.0,0.002053376576179429
1895.0,0.0020420515523547375
1894.0,0.0020324939898268223
1893.0,0.002021710541574605
1892.0,0.0020155435260972737
1891.0,0.002013624862884647
1890.0,0.0020027310457592555
1889.0,0.001978047994552342
1888.0,0.0019526407108403539
1887.0,0.0019324715521459857
1886.0,0.001909181919602135
1885.0,0.0018816418713540658
1884.0,0.0018627063828972326
1883.0,0.0018568039367366906
1882.0,0.001853509122893378
1881.0,0.0018493314445709454
1880.0,0.0018518642345584692
1879.0,0.0018614669179681232
1878.0,0.0018670999125945725
1877.0,0.0018644209432328624
1876.0,0.0018653999308429854
1875.0,0.0018798173296983717
1874.0,0.0019027186749676075
1873.0,0.0019281875674963776
1872.0,0.001958092514315265
1871.0,0.0019895840406990374
1870.0,0.0020086001370031624
1869.0,0.0020079958783463816
1868.0,0.0019993958912435015
1867.0,0.001986471698923954
1866.0,0.0019607089262633375
1865.0,0.0019322139859270751
1864.0,0.0019259142358428348
1863.0,0.0019455541444222514
1862.0,0.0019678845549593424
1861.0,0.0019784225893060147
1860.0,0.001988321471789598
1859.0,0.002007114301581247
1858.0,0.0020250582185921307
1857.0,0.0020356065772393216
1856.0,0.0020501457888855708
1855.0,0.002077213209035228
1854.0,0.0021079519472398623
1853.0,0.0021415788627829556
1852.0,0.0021870960742279002
1851.0,0.002247005669857272
1850.0,0.0023132737809828607
1849.0,0.002379822976832434
1848.0,0.002442426246358163
1847.0,0.0024841979184671414
1846.0,0.002488828039745329
1845.0,0.0024765216560809315
1844.0,0.0024971826210869875
1843.0,0.0025588461784579143
1842.0,0.0026147526982983516
1841.0,0.0026424428219841635
1840.0,0.002667684238096413
1839.0,0.002714477714731786
1838.0,0.002764869950622798
1837.0,0.0027965983464168227
1836.0,0.002827366599639333
1835.0,0.002882657171802283
1834.0,0.002952818162158167
1833.0,0.0030161137673589654
1832.0,0.0030708882847157812
1831.0,0.003130422690119934
1830.0,0.0031907675440263975
1829.0,0.0032346388708053633
1828.0,0.00326068610539765
1827.0,0.003273451260468547
1826.0,0.0032706742569726475
1825.0,0.003255746113915924
1824.0,0.003245766707559295
1823.0,0.0032461915953511554
1822.0,0.0032420739391668153
1821.0,0.003227107412925441
1820.0,0.003211656202173625
1819.0,0.0031997508519992462
1818.0,0.0031764892678567726
1817.0,0.0031427978582368233
1816.0,0.0031308662210338704
1815.0,0.0031557814440846964
1814.0,0.0031932156755862754
1813.0,0.003214028071988019
1812.0,0.0032220933984737944
1811.0,0.003233266520755059
1810.0,0.003236775150403138
1809.0,0.003221256773688857
1808.0,0.0032073184583864787
1807.0,0.003217330406109007
1806.0,0.003244247918604744
1805.0,0.00327454545622687
1804.0,0.0033159711872323173
1803.0,0.003369835099730307
1802.0,0.003412708997066963
1801.0,0.0034238597723200113
1800.0,0.0034265597733430134
1799.0,0.0034529216898482548
1798.0,0.003494683912996253
1797.0,0.0035304606176506537
1796.0,0.003562598189574164
1795.0,0.003596760391069255
1794.0,0.0036213746719349314
1793.0,0.0036262222783101546
1792.0,0.0036361649922186457
1791.0,0.003671171011827729
1790.0,0.0037001256840535927
1789.0,0.003701837513012597
1788.0,0.003704699267242399
1787.0,0.003738044598687279
1786.0,0.003789680046128824
1785.0,0.0038369783712199753
1784.0,0.003893887312188985
1783.0,0.003969199731755538
1782.0,0.004038645355385583
1781.0,0.004077484937334529
1780.0,0.004108394950134074
1779.0,0.0041655281191474375
1778.0,0.004238469261819837
1777.0,0.004306998962857215
1776.0,0.00437591688454554
1775.0,0.004453047715935882
1774.0,0.004526801883302666
1773.0,0.004594289637294941
1772.0,0.004691427894470934
1771.0,0.004827185905638262
1770.0,0.004931371284202463
1769.0,0.004975236141878694
1768.0,0.0050380668573926195
1767.0,0.005181545419303893
1766.0,0.0053518945241209336
1765.0,0.005480404548960004
1764.0,0.005600885833889241
1763.0,0.005797158481184762
1762.0,0.006071533704392724
1761.0,0.00633757108583291
1760.0,0.0065793520766254
1759.0,0.006851658969982265
1758.0,0.007181709125066042
1757.0,0.007571441073099053
1756.0,0.008024130250285205
1755.0,0.008523779413261245
1754.0,0.00903545074397441
1753.0,0.00959428521292862
1752.0,0.010352980245337203
1751.0,0.011441127746732201
1750.0,0.012759818530479125
1749.0,0.014156209876830791
1748.0,0.01567077419981735
1747.0,0.017390339366547075
1746.0,0.01932560627887511
1745.0,0.021525231289334815
1744.0,0.024086937504513406
1743.0,0.026963470511324975
1742.0,0.030028076857189886
1741.0,0.03344675956453843
1740.0,0.037536893378783937
1739.0,0.041927574652713843
1738.0,0.045674816657256145
1737.0,0.04857795266277309
1736.0,0.05156592817891626
1735.0,0.05621628443654092
1734.0,0.06275028253762865
1733.0,0.06867953643124257
1732.0,0.07287539794550973
1731.0,0.07659866998589314
1730.0,0.08074021204772848
1729.0,0.08515155426530599
1728.0,0.0893900825467687
1727.0,0.09342417827859881
1726.0,0.09749671991427322
1725.0,0.10176343269644739
1724.0,0.1062298963092273
1723.0,0.11066223780638615
1722.0,0.11455535557056049
1721.0,0.11759687634666999
1720.0,0.12022574895388974
1719.0,0.12359953328671155
1718.0,0.1282750854315077
1717.0,0.1326059182541771
1716.0,0.13498711637221436
1715.0,0.1360292685842609
1714.0,0.13625020870498478
1713.0,0.13523612618023986
1712.0,0.1328664199189451
1711.0,0.12953026716577143
1710.0,0.12544989636845374
1709.0,0.12052216673465471
1708.0,0.11469501971075416
1707.0,0.1079920455367737
1706.0,0.10053834342788766
1705.0,0.09321174002526089
1704.0,0.08717356100246461
1703.0,0.08241480896237274
1702.0,0.07782986101743412
1701.0,0.07212946813554137
1700.0,0.06592683701015364
1699.0,0.06139590058532193
1698.0,0.058459309503644245
1697.0,0.05567877171700767
1696.0,0.05249519108065797
1695.0,0.049583318351489124
1694.0,0.04754053119555918
1693.0,0.0460775665603124
1692.0,0.04476264582771865
1691.0,0.04342620016534522
1690.0,0.042131597202221725
1689.0,0.04102836253279513
1688.0,0.04013326019198585
1687.0,0.03933447677700657
1686.0,0.03852866907286895
1685.0,0.037661226490471364
1684.0,0.03677869428657288
1683.0,0.03601972580895528
1682.0,0.03537091149976235
1681.0,0.03473345879102328
1680.0,0.03407511847853116
1679.0,0.03341006920397473
1678.0,0.03275409342978298
1677.0,0.03209413504233399
1676.0,0.0314132505746892
1675.0,0.030751391428942218
1674.0,0.03019944927807506
1673.0,0.029748487607230256
1672.0,0.029299414552422295
1671.0,0.02877935259950761
1670.0,0.02820280704138067
1669.0,0.027660261620648746
1668.0,0.027196900153462295
1667.0,0.026781562655902272
1666.0,0.02638151526137348
1665.0,0.025976428897959612
1664.0,0.025552881901302206
1663.0,0.025112663882981143
1662.0,0.02469896840943199
1661.0,0.024340434099198203
1660.0,0.024013001697970666
1659.0,0.02370691866311589
1658.0,0.023445164684410623
1657.0,0.023217370501403885
1656.0,0.02295769248140902
1655.0,0.022615096159134304
1654.0,0.022224788759876594
1653.0,0.02194415973315712
1652.0,0.021830080778563993
1651.0,0.021755817981381296
1650.0,0.021627231611154315
1649.0,0.021431592495883067
1648.0,0.02117532858431452
1647.0,0.020876899364112838
1646.0,0.02060273145051337
1645.0,0.02039162727759739
1644.0,0.02020453814797981
1643.0,0.019999326526777796
1642.0,0.019790234639341053
1641.0,0.019615815099822777
1640.0,0.019469286642159366
1639.0,0.01930581367434204
1638.0,0.019090014017360667
1637.0,0.018820308553592867
1636.0,0.01850613979752899
1635.0,0.018197384292486067
1634.0,0.017941792306030407
1633.0,0.017715945332422163
1632.0,0.01747867021786771
1631.0,0.017221783116244768
1630.0,0.016960453678203046
1629.0,0.0167046013700277
1628.0,0.016448925309045563
1627.0,0.016188571582803932
1626.0,0.015932167175150377
1625.0,0.015678556013571432
1624.0,0.015415631491137984
1623.0,0.015163241837824692
1622.0,0.014980991165160978
1621.0,0.014881080846085259
1620.0,0.014814979493487
1619.0,0.014767530650856574
1618.0,0.014806474981787734
1617.0,0.014995068360052582
1616.0,0.015219872172113725
1615.0,0.015295305240942116
1614.0,0.015186705527228821
1613.0,0.014952782013884273
1612.0,0.01463850191637205
1611.0,0.01425640740618924
1610.0,0.013818708019999168
1609.0,0.013353764303625873
1608.0,0.012887121636008737
1607.0,0.012433914708264198
1606.0,0.012012459642516092
1605.0,0.011628771407064515
1604.0,0.01126283493902453
1603.0,0.010900519601874947
1602.0,0.01055408057779765
1601.0,0.01023703355128995
1600.0,0.009945182850940287
1599.0,0.009678939790497724
1598.0,0.009454741479612151
1597.0,0.00927656395717026
1596.0,0.009125166937094887
1595.0,0.008989702891179072
1594.0,0.008885092974739888
1593.0,0.008820934724933494
1592.0,0.00878270365682087
1591.0,0.008759974121722245
1590.0,0.008767167020016136
1589.0,0.008822964087259312
1588.0,0.00893629616685487
1587.0,0.009132680505905618
1586.0,0.009464887412568063
1585.0,0.009984228397579896
1584.0,0.01069730082458949
1583.0,0.011571524471563684
1582.0,0.01254098470449395
1581.0,0.013485300431606045
1580.0,0.01424932114986946
1579.0,0.014700399120686273
1578.0,0.014748268788700638
1577.0,0.014332396452011828
1576.0,0.013553225276425714
1575.0,0.012734769196735093
1574.0,0.012078407551750388
1573.0,0.011535020921694887
1572.0,0.011018566794226779
1571.0,0.010488013157260959
1570.0,0.009954040606017203
1569.0,0.00950192872334513
1568.0,0.009182068521598979
1567.0,0.008950767409973486
1566.0,0.008757297255579442
1565.0,0.008596787774417417
1564.0,0.00847522713701715
1563.0,0.008377084704944117
1562.0,0.008282551605371743
1561.0,0.008199294378538507
1560.0,0.008133083524024294
1559.0,0.008058633752108722
1558.0,0.008009358089547608
1557.0,0.007966460949797605
1556.0,0.007886788804926256
1555.0,0.007791655136600293
1554.0,0.007735081511267748
1553.0,0.007721804165572662
1552.0,0.0077011818493382955
1551.0,0.0076524198322530605
1550.0,0.00759421930950493
1549.0,0.007547640751652065
1548.0,0.00751266182252508
1547.0,0.0074920319902136885
1546.0,0.007501560228409339
1545.0,0.007535949427028963
1544.0,0.007552548216881574
1543.0,0.007529919682241501
1542.0,0.007487475029930548
1541.0,0.00743014607283587
1540.0,0.0073392308931672905
1539.0,0.007263884814747183
1538.0,0.007260065861325049
1537.0,0.007287821689191006
1536.0,0.007298898514620575
1535.0,0.007308129700613199
1534.0,0.007364886641345974
1533.0,0.007456412914914636
1532.0,0.0075150520066984035
1531.0,0.007534842416928695
1530.0,0.0075540310997593875
1529.0,0.0075838158258241545
1528.0,0.007603500114183851
1527.0,0.007600258276105347
1526.0,0.007595427797283581
1525.0,0.007595540502420001
1524.0,0.007567245872681507
1523.0,0.0074929728281460314
1522.0,0.007409019792775775
1521.0,0.007365277289695993
1520.0,0.0073549608084834545
1519.0,0.0073434182107138864
1518.0,0.007328482160124963
1517.0,0.007326370574215112
1516.0,0.007342082111709456
1515.0,0.00738119257006065
1514.0,0.007488101099698703
1513.0,0.007717482907834755
1512.0,0.008110850198896541
1511.0,0.008642624726420856
1510.0,0.009298178767358526
1509.0,0.01015190365467123
1508.0,0.011533297680374206
1507.0,0.013551498315217767
1506.0,0.015148543444508757
1505.0,0.015518552790320116
1504.0,0.015008483293170803
1503.0,0.013995448041064704
1502.0,0.012696247016983356
1501.0,0.011310165167880276
1500.0,0.009995149179892221
1499.0,0.008836112853235302
1498.0,0.007851630957162273
1497.0,0.007078031681957973
1496.0,0.006543512487788207
1495.0,0.00620694018560073
1494.0,0.0060106226956047094
1493.0,0.005927447479247457
1492.0,0.0059266710426343185
1491.0,0.005953382915920634
1490.0,0.00597739616150227
1489.0,0.006015555829470051
1488.0,0.006061223518254062
1487.0,0.006098775580199289
1486.0,0.00615659299799636
1485.0,0.006269799570456527
1484.0,0.00642129689684518
1483.0,0.006580388899524583
1482.0,0.006758396135725344
1481.0,0.006974147705218498
1480.0,0.007197401004923342
1479.0,0.007392793999223178
1478.0,0.0075882591800656846
1477.0,0.00782733561481682
1476.0,0.008082918102579434
1475.0,0.008282915162242294
1474.0,0.008445141314540746
1473.0,0.008672758937643243
1472.0,0.008968166253313625
1471.0,0.009237333256757425
1470.0,0.009481664556200453
1469.0,0.009762190975183051
1468.0,0.010101969939063012
1467.0,0.010510674557115076
1466.0,0.011051686539827856
1465.0,0.011785594361119523
1464.0,0.012600720434991107
1463.0,0.013329106135788197
1462.0,0.0139684805778727
1461.0,0.014593684033592187
1460.0,0.01523263409622854
1459.0,0.01589501949649824
1458.0,0.016691554907137376
1457.0,0.017630391589110506
1456.0,0.018355282596997133
1455.0,0.01868574969988668
1454.0,0.018802926394704978
1453.0,0.018845335834818462
1452.0,0.01882814815565598
1451.0,0.018738549857757237
1450.0,0.01861061762109373
1449.0,0.018483912605474093
1448.0,0.01835227051150297
1447.0,0.01820401158368673
1446.0,0.018071015091627493
1445.0,0.017973856510611792
1444.0,0.017881658311781724
1443.0,0.01776883655012752
1442.0,0.01764347905819689
1441.0,0.01750486588909023
1440.0,0.01730844301913778
1439.0,0.017000102861133445
1438.0,0.016534700402740285
1437.0,0.015879575082088995
1436.0,0.015105787011235008
1435.0,0.01436028669435948
1434.0,0.013677319135405649
1433.0,0.012999788665711873
1432.0,0.012301149004682882
1431.0,0.011607972177183713
1430.0,0.01097088754454069
1429.0,0.01043778654380666
1428.0,0.010046823606282408
1427.0,0.009795338958728448
1426.0,0.009655372360712379
1425.0,0.0096204975822484
1424.0,0.009696307140786935
1423.0,0.00985230000872052
1422.0,0.010062554709745753
1421.0,0.010407750398996284
1420.0,0.011093698171292644
1419.0,0.01226240588497313
1418.0,0.0137848414649599
1417.0,0.01552426714098211
1416.0,0.01758628322164193
1415.0,0.02013849540657129
1414.0,0.0232755899063059
1413.0,0.02697467145255233
1412.0,0.030945998356436757
1411.0,0.0345564577463468
1410.0,0.03714269699886099
1409.0,0.03837705704520871
1408.0,0.03820537672707246
1407.0,0.036710711759479715
1406.0,0.03419372810447233
1405.0,0.03119566394772718
1404.0,0.028314936715013204
1403.0,0.025924518240405547
1402.0,0.024043823453550127
1401.0,0.022481645709934675
1400.0,0.021043956132572872
1399.0,0.01970250917977542
1398.0,0.018566306349114305
1397.0,0.0176440760315625
1396.0,0.016799997491841787
1395.0,0.01594388016710485
1394.0,0.015141162558328938
1393.0,0.014478550331969039
1392.0,0.013936312609674994
1391.0,0.013458620190135866
1390.0,0.01302647304581244
1389.0,0.012643512871845867
1388.0,0.012316396704312196
1387.0,0.012064690775671627
1386.0,0.01191348900769257
1385.0,0.01186516161212239
1384.0,0.01191048062188107
1383.0,0.01205522650394041
1382.0,0.012309806116029942
1381.0,0.012672800470223919
1380.0,0.013134253976156886
1379.0,0.013675550601724634
1378.0,0.014265535162914622
1377.0,0.01488187835636233
1376.0,0.015531627033873667
1375.0,0.016217949062907994
1374.0,0.016878684600422515
1373.0,0.017400596530096037
1372.0,0.017712076851633406
1371.0,0.01779601287173728
1370.0,0.01763122514647911
1369.0,0.017178066165446416
1368.0,0.016427746191492863
1367.0,0.015449436135044004
1366.0,0.014344643189282122
1365.0,0.013164851288958042
1364.0,0.011911205085172571
1363.0,0.010637523578137596
1362.0,0.009507910433819398
1361.0,0.008654595002269276
1360.0,0.00805861747099367
1359.0,0.007636734232851723
1358.0,0.007338872226358654
1357.0,0.007146186071210979
1356.0,0.007041423955731582
1355.0,0.007008061292311274
1354.0,0.00704558929794563
1353.0,0.007160881341597055
1352.0,0.007354652082833021
1351.0,0.0076250019153212036
1350.0,0.007978343228698195
1349.0,0.008421964229301696
1348.0,0.008949823102684598
1347.0,0.009550175009429713
1346.0,0.010216160553668618
1345.0,0.010931286674188006
1344.0,0.01165071872454982
1343.0,0.012316879397278019
1342.0,0.012883554959017256
1341.0,0.013299516414871967
1340.0,0.013476897373142144
1339.0,0.013329793251982077
1338.0,0.012863292330334824
1337.0,0.012173085467171968
1336.0,0.01137131136556103
1335.0,0.010556176515327018
1334.0,0.00981343651725097
1333.0,0.009204607958567975
1332.0,0.00875808917686597
1331.0,0.008479380448215725
1330.0,0.00836286606474801
1329.0,0.008393215933708278
1328.0,0.008547812030327947
1327.0,0.00880476832502111
1326.0,0.009148695886081887
1325.0,0.009566444783702692
1324.0,0.010039214870374798
1323.0,0.010545797466551961
1322.0,0.01107506270795561
1321.0,0.011627301772499125
1320.0,0.012198604565978089
1319.0,0.012772963868612727
1318.0,0.013337240067464642
1317.0,0.01389516635142871
1316.0,0.014460198822505523
1315.0,0.01504725497280095
1314.0,0.015675213481271457
1313.0,0.01635861597145215
1312.0,0.01709012158156066
1311.0,0.017849523806082884
1310.0,0.01863333095725209
1309.0,0.019451581116291364
1308.0,0.020292726232810056
1307.0,0.02112032625725918
1306.0,0.021919156863145856
1305.0,0.022720952543103287
1304.0,0.02357591610499275
1303.0,0.024529789249696673
1302.0,0.02563554340968603
1301.0,0.026947250666666745
1300.0,0.028477146699806832
1299.0,0.030184124608872
1298.0,0.032020804488592
1297.0,0.03396047490332571
1296.0,0.03596291785932168
1295.0,0.03796240818787844
1294.0,0.03992198996185871
1293.0,0.04185340699638575
1292.0,0.04375515997841105
1291.0,0.045584254008545114
1290.0,0.047316974689329785
1289.0,0.04897528045682847
1288.0,0.05055781360674984
1287.0,0.05201192540244683
1286.0,0.05331155404080147
1285.0,0.05449066309740569
1284.0,0.05556568211896556
1283.0,0.056501501262906116
1282.0,0.0572859064342134
1281.0,0.057961748218723734
1280.0,0.05855520242809005
1279.0,0.05905258507547902
1278.0,0.05948008648506273
1277.0,0.059927966651076456
1276.0,0.06046914459196151
1275.0,0.06113207892834219
1274.0,0.06197599406699708
1273.0,0.06310581290240258
1272.0,0.06457340433714776
1271.0,0.06633399054840615
1270.0,0.06833429032756484
1269.0,0.07056412480816365
1268.0,0.07297968927927935
1267.0,0.07546981423921466
1266.0,0.0779540883510686
1265.0,0.08042362516224592
1264.0,0.082833546365027
1263.0,0.08506377091758453
1262.0,0.0870418198050454
1261.0,0.08878440016291042
1260.0,0.09026585042668941
1259.0,0.09139207718171857
1258.0,0.09216988126690279
1257.0,0.09275345645687882
1256.0,0.09327174602572645
1255.0,0.0937556380640408
1254.0,0.09426616732361687
1253.0,0.09493400907902533
1252.0,0.0958160820499393
1251.0,0.09685181555287778
1250.0,0.09801215253023088
1249.0,0.0993527831326418
1248.0,0.10087127189129073
1247.0,0.1024618390851553
1246.0,0.10407120975007318
1245.0,0.10574697894799333
1244.0,0.10746603427799417
1243.0,0.10907515684750341
1242.0,0.11047121724984599
1241.0,0.11166824977082254
1240.0,0.1126151611556926
1239.0,0.11312983470588413
1238.0,0.11308723364499423
1237.0,0.11248958499268354
1236.0,0.11129277902828207
1235.0,0.10937261941285621
1234.0,0.10672842316920853
1233.0,0.10352712905873825
1232.0,0.099911121938535
1231.0,0.09594742177059357
1230.0,0.09176692551659421
1229.0,0.08756058862511383
1228.0,0.08342184328587275
1227.0,0.07933709940658316
1226.0,0.07532649512168177
1225.0,0.07146874343144735
1224.0,0.06779768635504761
1223.0,0.06428987086383027
1222.0,0.060952452979666186
1221.0,0.057830853503396826
1220.0,0.054934455569967566
1219.0,0.05223272307381894
1218.0,0.04972001325827461
1217.0,0.04741762330372776
1216.0,0.04531616550244823
1215.0,0.043374274584974386
1214.0,0.041571815828644276
1213.0,0.039915751458107544
1212.0,0.038397023962231575
1211.0,0.03698632066343896
1210.0,0.035670829964259895
1209.0,0.034455257661969094
1208.0,0.03332800440651524
1207.0,0.03226176337313781
1206.0,0.031246163150546236
1205.0,0.03028876352492524
1204.0,0.02938604091406114
1203.0,0.028521883943396366
1202.0,0.027691352043089836
1201.0,0.0268989954046214
1200.0,0.026136897543415066
1199.0,0.02538907344572469
1198.0,0.024654949736569336
1197.0,0.023946449256493623
1196.0,0.02326550093969851
1195.0,0.022605377148818866
1194.0,0.02197045392741484
1193.0,0.021375140318080594
1192.0,0.020826319209655126
1191.0,0.02032385803011056
1190.0,0.019875286468430862
1189.0,0.019495016667681678
1188.0,0.019192701727163797
1187.0,0.01897602077206021
1186.0,0.018861362162757186
1185.0,0.018867925550396587
1184.0,0.019001958605780207
1183.0,0.019256088116267868
1182.0,0.01962007877288809
1181.0,0.020079156268381106
1180.0,0.02060063788910031
1179.0,0.021136055875228706
1178.0,0.02164125782201669
1177.0,0.02208206500969091
1176.0,0.022418075069219515
1175.0,0.02259957145433302
1174.0,0.02258783042492692
1173.0,0.02236369173337443
1172.0,0.021917879274650227
1171.0,0.02125955474893887
1170.0,0.020438889662759613
1169.0,0.019538910506692018
1168.0,0.0186410454869512
1167.0,0.01780887674227754
1166.0,0.017091224319657827
1165.0,0.01651495195689071
1164.0,0.01607618288115866
1163.0,0.015753801270803763
1162.0,0.015532820102515003
1161.0,0.015409085465305943
1160.0,0.015379050440046067
1159.0,0.015439429897936612
1158.0,0.01559596465100806
1157.0,0.015861351778086855
1156.0,0.01624336864749266
1155.0,0.016743320332613918
1154.0,0.01736498013248236
1153.0,0.018113673142021593
1152.0,0.018983983912649237
1151.0,0.01996002485423657
1150.0,0.021032933123480133
1149.0,0.022206091690142826
1148.0,0.023477196571340606
1147.0,0.02482993381391704
1146.0,0.02625039238575713
1145.0,0.027732175624592945
1144.0,0.029253910525813748
1143.0,0.030773190776845274
1142.0,0.032257468480459524
1141.0,0.03369769768746659
1140.0,0.03507905901780596
1139.0,0.03637155028138549
1138.0,0.037566642238052686
1137.0,0.03868740710380391
1136.0,0.03974641882682326
1135.0,0.04073491912702945
1134.0,0.04166973232948695
1133.0,0.04260505256007299
1132.0,0.04358101276249999
1131.0,0.044607374656253924
1130.0,0.04571297691348528
1129.0,0.046958921025388824
1128.0,0.04838063355846394
1127.0,0.049964770200249344
1126.0,0.0517001269215102
1125.0,0.05359164131571808
1124.0,0.05559683172438697
1123.0,0.057610269640050324
1122.0,0.0595428220625277
1121.0,0.06134947053326871
1120.0,0.06295073063966272
1119.0,0.06421548118221902
1118.0,0.0650644457800018
1117.0,0.06550587197202146
1116.0,0.06554514216834212
1115.0,0.06517422090469767
1114.0,0.06449072275126393
1113.0,0.06372143554832378
1112.0,0.06309621073613654
1111.0,0.06278369562366935
1110.0,0.06293933368018269
1109.0,0.06369149054601385
1108.0,0.06504312117198116
1107.0,0.0668718094085106
1106.0,0.0690627462358573
1105.0,0.07156882758255946
1104.0,0.07431859361302696
1103.0,0.07717838995751093
1102.0,0.08006329973247704
1101.0,0.08297546188271838
1100.0,0.08586771695531116
1099.0,0.08859371099089303
1098.0,0.09106381661984712
1097.0,0.09330722078735827
1096.0,0.09530779633121372
1095.0,0.09694434461198229
1094.0,0.0981689845941636
1093.0,0.09906306890950888
1092.0,0.09964587662403061
1091.0,0.09982229579816124
1090.0,0.09958243105366697
1089.0,0.09905093281109927
1088.0,0.09828208225158395
1087.0,0.0972077642089145
1086.0,0.09582926004425506
1085.0,0.09424834444530165
1084.0,0.09246705445058966
1083.0,0.09036093002462361
1082.0,0.08788494758249608
1081.0,0.08511857209562276
1080.0,0.08209779292829521
1079.0,0.07879708670753743
1078.0,0.07528749650450882
1077.0,0.07173682869484857
1076.0,0.06824637052610831
1075.0,0.064829209530987
1074.0,0.061535162525840056
1073.0,0.058460639986251145
1072.0,0.05563936104031078
1071.0,0.05303476829286838
1070.0,0.05063686331538421
1069.0,0.04847481554182702
1068.0,0.046540117798809455
1067.0,0.04478080418944612
1066.0,0.04317285160787197
1065.0,0.0417313691981555
1064.0,0.04045457818602417
1063.0,0.039318046724809916
1062.0,0.0383240586110142
1061.0,0.03750260832361957
1060.0,0.03686198949708424
1059.0,0.036385962526454374
1058.0,0.036079033454922575
1057.0,0.03596662005834131
1056.0,0.036047383440930454
1055.0,0.03628934786393413
1054.0,0.03667850102257651
1053.0,0.037227668458503546
1052.0,0.037925042046985206
1051.0,0.038718179096121116
1050.0,0.039565435425688425
1049.0,0.04045029972483325
1048.0,0.04132940787529175
1047.0,0.042132703797212186
1046.0,0.0428294384744112
1045.0,0.043428871337608276
1044.0,0.043910693569982694
1043.0,0.04422082657970307
1042.0,0.04434293903840273
1041.0,0.04431151980102639
1040.0,0.044147643647992396
1039.0,0.043846316045020366
1038.0,0.04343368447268418
1037.0,0.04297099314786945
1036.0,0.04249183498807865
1035.0,0.041991447080943885
1034.0,0.04148069745830835
1033.0,0.04099200128909703
1032.0,0.04052619552497288
1031.0,0.040050808514210924
1030.0,0.0395605838836678
1029.0,0.039092989242045184
1028.0,0.03868820226303365
1027.0,0.03839658586745161
1026.0,0.038341914731477224
1025.0,0.038735772101551796
1024.0,0.03981785481319966
1023.0,0.04179980062761476
1022.0,0.04483071575895157
1021.0,0.048922500502248605
1020.0,0.05382570631312894
1019.0,0.0589568539159403
1018.0,0.06347106834580907
1017.0,0.06643122499895213
1016.0,0.06703698271113556
1015.0,0.06499326753810727
1014.0,0.06080779455430664
1013.0,0.0555647359400177
1012.0,0.05031645075561512
1011.0,0.04568925136653171
1010.0,0.04187782406800322
1009.0,0.038810153765235514
1008.0,0.036313712939393665
1007.0,0.03423801282464004
1006.0,0.03250557296437667
1005.0,0.03107766609541441
1004.0,0.029896390435735665
1003.0,0.02888240325535639
1002.0,0.027975851289430413
1001.0,0.027149895916293562
1000.0,0.02638829141464122
999.0,0.02567733096310397
998.0,0.02501842309461596
997.0,0.024421725045742127
996.0,0.023883713116979375
995.0,0.02338937311979282
994.0,0.02293474877182388
993.0,0.022527304572688738
992.0,0.022165484177490764
991.0,0.02183852122083564
990.0,0.021545908153529966
989.0,0.02129651391532336
988.0,0.021087844486546426
987.0,0.02090527983623911
986.0,0.02074266509646209
985.0,0.020605603002527558
984.0,0.020493573216204857
983.0,0.020396461971375505
982.0,0.020309878714444615
981.0,0.020236813668136008
980.0,0.020173012577675224
979.0,0.020107748071125132
978.0,0.02003994071519904
977.0,0.019975830633099788
976.0,0.01990953208801575
975.0,0.01982299069928454
974.0,0.019705463151772334
973.0,0.019555664946757957
972.0,0.01936533407440467
971.0,0.019120315711014975
970.0,0.018819704499045204
969.0,0.01847650073498941
968.0,0.018098979810011694
967.0,0.01768860435466816
966.0,0.01725544479513958
965.0,0.016817493456707102
964.0,0.016384289499097
963.0,0.015956949594595787
962.0,0.015543021205180418
961.0,0.01515534887821169
960.0,0.014796901074900583
959.0,0.014460983566014295
958.0,0.014145648292583319
957.0,0.013854967951767792
956.0,0.013587487240014583
955.0,0.013336315494344698
954.0,0.013100040517342253
953.0,0.012881957342731794
952.0,0.012679721485631606
951.0,0.01248726539297635
950.0,0.012305462745126668
949.0,0.012139477672043368
948.0,0.0119872274843618
947.0,0.011841635460082496
946.0,0.011702299870738307
945.0,0.011573695752180337
944.0,0.011453937453090979
943.0,0.011336859060452386
942.0,0.011223452770234848
941.0,0.011119729621774266
940.0,0.01102476606299874
939.0,0.010932217876792893
938.0,0.010841926970771309
937.0,0.0107578697122872
936.0,0.010675750376851107
935.0,0.010585359426238531
934.0,0.010485382671410954
933.0,0.010383963812268141
932.0,0.010284370370207947
931.0,0.010181764422511138
930.0,0.01007449811616005
929.0,0.009966993073421622
928.0,0.009860397375527472
927.0,0.009751349408218613
926.0,0.00964148443832639
925.0,0.00953813487022147
924.0,0.0094443026901112
923.0,0.009357286715550276
922.0,0.009278090933866969
921.0,0.009213278846382398
920.0,0.009167238660252998
919.0,0.00914164412923264
918.0,0.009142653016787117
917.0,0.009179242977412657
916.0,0.009253863118377446
915.0,0.009364110858221083
914.0,0.009514921519541353
913.0,0.00971962711067306
912.0,0.009986575804360135
911.0,0.010313622307633673
910.0,0.010698212930182369
909.0,0.01114264950868939
908.0,0.01164441429234005
907.0,0.012190260651681495
906.0,0.01276469193449951
905.0,0.013354393438735429
904.0,0.013938819974831297
903.0,0.014488146467125235
902.0,0.01497891448257439
901.0,0.015402246976884075
900.0,0.01575167301505709
899.0,0.01601708180172867
898.0,0.016197704434148315
897.0,0.016306942971273202
896.0,0.016358247185030123
895.0,0.016360156538163126
894.0,0.016329203107829118
893.0,0.01629172707390622
892.0,0.01626803406632449
891.0,0.01626841066379222
890.0,0.01630707116019482
889.0,0.016405216754654277
888.0,0.016577304475723288
887.0,0.016828511034769622
886.0,0.017168745818045703
885.0,0.017615068320102647
884.0,0.018177940152071748
883.0,0.01886149204425574
882.0,0.01968141514678297
881.0,0.020662534288745097
880.0,0.02180723412983134
879.0,0.02308058839486707
878.0,0.02443279009335948
877.0,0.025811302065585517
876.0,0.027133910749710347
875.0,0.028274457570800667
874.0,0.029096305005501755
873.0,0.029481642738104608
872.0,0.02933403172396775
871.0,0.028615039546266922
870.0,0.027405353576367267
869.0,0.025886142101579992
868.0,0.024244398135217084
867.0,0.022619325371986285
866.0,0.02111279158186187
865.0,0.01979308596891406
864.0,0.018680646726621005
863.0,0.017760280155357664
862.0,0.017014849123364928
861.0,0.01643351871062963
860.0,0.01599430019283087
859.0,0.015663612606703292
858.0,0.015416957751431815
857.0,0.015242482677710948
856.0,0.015122845324096412
855.0,0.015032499976878621
854.0,0.014956619983255485
853.0,0.0148949477280742
852.0,0.014843685510378245
851.0,0.014792006117831272
850.0,0.014739794630603105
849.0,0.014699328132220978
848.0,0.014674247881850077
847.0,0.01465483387589895
846.0,0.01463790978785965
845.0,0.014631781547518104
844.0,0.014635997284797125
843.0,0.014635071838133572
842.0,0.01461816666417658
841.0,0.01458660043628503
840.0,0.014535708874239179
839.0,0.014448313376106896
838.0,0.014314330275912921
837.0,0.014140839141277613
836.0,0.01393721382212882
835.0,0.013707162222327107
834.0,0.013460359629456034
833.0,0.013214024347544977
832.0,0.012976009772206126
831.0,0.012741072167353078
830.0,0.012509171399143412
829.0,0.012292585443227286
828.0,0.012099336332241386
827.0,0.011924896011272102
826.0,0.011766391288760836
825.0,0.011629097928060491
824.0,0.01151336905921391
823.0,0.011412769146080168
822.0,0.011328863649208803
821.0,0.011268896262116909
820.0,0.011228076690273807
819.0,0.011193020245375267
818.0,0.011162360779076817
817.0,0.011147228810706875
816.0,0.011151115656177255
815.0,0.01116402888712795
814.0,0.011177188766981108
813.0,0.0111887039758949
812.0,0.011193444351688474
811.0,0.01118309377630473
810.0,0.011159331040398703
809.0,0.011132559482628868
808.0,0.011104779954147496
807.0,0.011066928911688645
806.0,0.011013867060737901
805.0,0.010947094251002137
804.0,0.010861874160183142
803.0,0.010748637792678782
802.0,0.010614285657778385
801.0,0.010497252580148178
800.0,0.010467485498754082
799.0,0.010618856502567213
798.0,0.011038230623393815
797.0,0.011740991860105628
796.0,0.012619748636484313
795.0,0.013468998742881825
794.0,0.014080386071537776
793.0,0.014327640337471574
792.0,0.014184892103668884
791.0,0.013709009737527426
790.0,0.013015542733377287
789.0,0.012231361283513806
788.0,0.011442066846106994
787.0,0.01068614990462199
786.0,0.009987388345473327
785.0,0.009367849778284679
784.0,0.008832683908876794
783.0,0.008368075010631216
782.0,0.007960457211842324
781.0,0.0076035390972685486
780.0,0.0072871664054426875
779.0,0.006996986529025936
778.0,0.006727443814092892
777.0,0.006480591314938684
776.0,0.006251732249035477
775.0,0.006030696775317574
774.0,0.005816446673205522
773.0,0.005614497812756818
772.0,0.005420059113101155
771.0,0.005220101199335449
770.0,0.0050128200476837696
769.0,0.004809121948905513
768.0,0.004614179168048092
767.0,0.00442365889110736
766.0,0.004238556756863488
765.0,0.00406652141380554
764.0,0.003906891937812374
763.0,0.0037508356229651266
762.0,0.0035981106215352276
761.0,0.0034577678334759623
760.0,0.0033303356077848123
759.0,0.003205497148904163
758.0,0.0030799720939042596
757.0,0.002961894219943818
756.0,0.002854974210420377
755.0,0.0027545005001682714
754.0,0.0026623253318321105
753.0,0.0025903355244762446
752.0,0.002546539679137978
751.0,0.002533636295442795
750.0,0.0025636896457836567
749.0,0.00265866334068902
748.0,0.0028355055178405017
747.0,0.003108692248966498
746.0,0.0035110167781897544
745.0,0.0040955726330748135
744.0,0.004916176575294515
743.0,0.006025480295814487
742.0,0.007492228675265408
741.0,0.00938860265311217
740.0,0.011740619122978222
739.0,0.014504762818958218
738.0,0.01760002794270884
737.0,0.020938673066854582
736.0,0.024420263834909594
735.0,0.027945268033577067
734.0,0.0314767321314582
733.0,0.03506430654537921
732.0,0.03878431896388583
731.0,0.042694632828542266
730.0,0.046864092151077966
729.0,0.0513718278724966
728.0,0.05620564108356128
727.0,0.06116649434483637
726.0,0.06586130269090357
725.0,0.06971798782896281
724.0,0.07203359937180993
723.0,0.07218442629594693
722.0,0.0699314303821977
721.0,0.06558333221769938
720.0,0.05992686436737338
719.0,0.05392680623040883
718.0,0.04832648693588271
717.0,0.04347350982291059
716.0,0.03944260906325892
715.0,0.036204213016220885
714.0,0.0336849509910247
713.0,0.031766050031619565
712.0,0.030293068263474193
711.0,0.029108842928334593
710.0,0.028089599888355368
709.0,0.027162743324396853
708.0,0.026296367842545187
707.0,0.025477302242042546
706.0,0.02469769812967474
705.0,0.02394708113405165
704.0,0.023203894672712777
703.0,0.02243663194345158
702.0,0.021618920193403283
701.0,0.0207430972096981
700.0,0.019822967893193835
699.0,0.01889359336111184
698.0,0.018006367122111844
697.0,0.017208300778695944
696.0,0.01651778496720784
695.0,0.015924612000118892
694.0,0.01541272632740022
693.0,0.014973624139568119
692.0,0.014598082031189976
691.0,0.014270520720989902
690.0,0.013980707341001243
689.0,0.013732243572377761
688.0,0.013531924273809122
687.0,0.013379789100805537
686.0,0.013276113873599008
685.0,0.013223857656640237
684.0,0.013215050591615225
683.0,0.013226658340641868
682.0,0.013233974063508715
681.0,0.013215730423813587
680.0,0.013145257816478597
679.0,0.01299446178526958
678.0,0.012756762843837303
677.0,0.012457578426322176
676.0,0.012136169557569989
675.0,0.011822696615372545
674.0,0.011533781226297155
673.0,0.011278410715758077
672.0,0.011055127200280224
671.0,0.010851506138420456
670.0,0.0106534262831195
669.0,0.010458858871733215
668.0,0.010286236683129231
667.0,0.010136962031893782
666.0,0.009988558325375922
665.0,0.009838012212252735
664.0,0.009690653875483833
663.0,0.00954600508863753
662.0,0.009408116241652434
661.0,0.009289158683321584
660.0,0.009197054060218052
659.0,0.009124330695977113
658.0,0.009058689128430601
657.0,0.008995881817332017
656.0,0.008932288545574221
655.0,0.008853824446894266
654.0,0.008747025291872807
653.0,0.008615272795497756
652.0,0.00847179066885864
651.0,0.008325656791634186
650.0,0.008183240479701839
649.0,0.008052014944050086
648.0,0.00793395818615142
647.0,0.007822944402607812
646.0,0.007714939172382373
645.0,0.007612738967941407
644.0,0.007515805369224488
643.0,0.007415033175316816
642.0,0.007304135759630799
641.0,0.007187291940039987
640.0,0.007069718931771553
639.0,0.006953638091190107
638.0,0.006856083642336416
637.0,0.0068256537032651745
636.0,0.00692967258761837
635.0,0.007205938216552046
634.0,0.007604230047517927
633.0,0.007978076857694812
632.0,0.008143339318824284
631.0,0.007983416683420508
630.0,0.007555490351669176
629.0,0.007054049624828638
628.0,0.006640500370314878
627.0,0.006347229929964084
626.0,0.006121203324431366
625.0,0.005910245940239624
624.0,0.005696057456872948
623.0,0.0054774441683970755
622.0,0.005262690923821282
621.0,0.005071034308412161
620.0,0.004919492486803298
619.0,0.0048079526275811735
618.0,0.004723956105178223
617.0,0.004658996456030583
616.0,0.0046085383403249875
615.0,0.0045618940537729726
614.0,0.004511778084665538
613.0,0.004470598786640814
612.0,0.004461059052465395
611.0,0.004490598036742104
610.0,0.004544454223061474
609.0,0.004602861722355378
608.0,0.004651105086544547
607.0,0.0046781141146699425
606.0,0.004684120585254324
605.0,0.004680116607652536
604.0,0.00466700481863193
603.0,0.0046318902594131885
602.0,0.004575952566518222
601.0,0.00452486160357168
600.0,0.004496999747945051
599.0,0.004477671473423752
598.0,0.004438511612197188
597.0,0.00437026783958713
596.0,0.0042821156533245745
595.0,0.00418509316257794
594.0,0.004089631598680903
593.0,0.004004430740314448
592.0,0.0039240863859688335
591.0,0.0038262140487205117
590.0,0.0036932581153510027
589.0,0.0035290578233093863
588.0,0.003350596280269484
587.0,0.003181408490249584
586.0,0.0030477158290616226
585.0,0.0029585115278235995
584.0,0.002892238819894038
583.0,0.0028130153159547956
582.0,0.0027001676271185427
581.0,0.002556948298866787
580.0,0.0023951122401255475
579.0,0.0022311831518873754
578.0,0.002091283599692552
577.0,0.001999186615755327
576.0,0.0019590429877780757
575.0,0.0019484127096056798
574.0,0.0019346472484713956
573.0,0.0019072047758371246
572.0,0.0018803650797463121
571.0,0.001867110360865086
570.0,0.001863091923433667
569.0,0.0018582349776489569
568.0,0.0018529054097798162
567.0,0.0018521236855427708
566.0,0.0018565686999345299
565.0,0.0018673898449367704
564.0,0.0018869550317398617
563.0,0.0019093070413613335
562.0,0.0019220980745688326
561.0,0.0019217595142782332
560.0,0.0019147577832563135
559.0,0.001908703434377072
558.0,0.0019163698064662647
557.0,0.001952904791236264
556.0,0.0020126748404530274
555.0,0.002057044277947938
554.0,0.002047977137259691
553.0,0.0019923771113266233
552.0,0.0019255800227728978
551.0,0.001870505898889237
550.0,0.0018289036021265689
