cm-1,A
4000.0,0.001115576547603192
3999.0,0.0011297445125416786
3998.0,0.0011496019427274153
3997.0,0.0011503700377221556
3996.0,0.0011210064647445952
3995.0,0.0010831824056320907
3994.0,0.0010714570681475324
3993.0,0.0010882765132863284
3992.0,0.001099953583933731
3991.0,0.0010823207417833373
3990.0,0.0010531154803631237
3989.0,0.0010501587220407924
3988.0,0.0010819993317503782
3987.0,0.001122351510928394
3986.0,0.0011497136510809011
3985.0,0.0011679387384354468
3984.0,0.0011878537090211872
3983.0,0.0012050399679963452
3982.0,0.0012092414412235575
3981.0,0.0012080852842541864
3980.0,0.00122315334689003
3979.0,0.001260527186108978
3978.0,0.0013006592390998372
3977.0,0.0013253652587855288
3976.0,0.0013428431380131294
3975.0,0.0013760787770233669
3974.0,0.001425086156329641
3973.0,0.0014523659778816669
3972.0,0.0014180503589513779
3971.0,0.0013220031534452534
3970.0,0.0012095300281877077
3969.0,0.0011371033065285963
3968.0,0.00112798111535876
3967.0,0.0011628465311499274
3966.0,0.001203080415532437
3965.0,0.0012220268623444695
3964.0,0.001221372737435525
3963.0,0.0012211449665502647
3962.0,0.001238205820535989
3961.0,0.0012689720791669674
3960.0,0.0012993873690156591
3959.0,0.0013292255815800886
3958.0,0.0013724131224454976
3957.0,0.001430380770844614
3956.0,0.0014735220169872386
3955.0,0.0014633761006842827
3954.0,0.0013958064799987598
3953.0,0.001312569726252438
3952.0,0.001261275169606447
3951.0,0.0012539257245950952
3950.0,0.0012652185490449911
3949.0,0.0012662254557735545
3948.0,0.0012570082468712019
3947.0,0.0012544838082071338
3946.0,0.0012641836874581142
3945.0,0.0012774197689615603
3944.0,0.001291001123706054
3943.0,0.001314783871073923
3942.0,0.0013483012890210394
3941.0,0.001373033819559162
3940.0,0.0013783581592968054
3939.0,0.0013777636158317846
3938.0,0.001395021772674655
3937.0,0.0014377155896507527
3936.0,0.0014859644069736052
3935.0,0.0015037090810474316
3934.0,0.0014643626809113857
3933.0,0.001373066102297255
3932.0,0.0012669462596719009
3931.0,0.001195049985110129
3930.0,0.0011967133722519648
3929.0,0.0012867761817750897
3928.0,0.001445191103246664
3927.0,0.001611880703659925
3926.0,0.0017064222939644066
3925.0,0.0016782567833077645
3924.0,0.0015569276792691024
3923.0,0.001439283658603057
3922.0,0.001407298993273967
3921.0,0.00147846053873576
3920.0,0.0016120780331445308
3919.0,0.0017385521401216486
3918.0,0.001793526612042684
3917.0,0.0017457325911591588
3916.0,0.0016274136130421347
3915.0,0.0015179410326122758
3914.0,0.001483548480344191
3913.0,0.0015339587632418952
3912.0,0.0016209063310651728
3911.0,0.001675667637431771
3910.0,0.0016598819504801401
3909.0,0.0015895134830610997
3908.0,0.0015120635299608713
3907.0,0.001462108722981705
3906.0,0.0014356387607743996
3905.0,0.0013882315770508656
3904.0,0.0012727924909276397
3903.0,0.0011056121656631617
3902.0,0.0009718490270562404
3901.0,0.0009351868685297448
3900.0,0.0009778109714405235
3899.0,0.0010491672381458894
3898.0,0.001135049144485153
3897.0,0.0012532014514684336
3896.0,0.001402232693212711
3895.0,0.0015385037445245333
3894.0,0.0016098504246165046
3893.0,0.0016061917575404434
3892.0,0.0015684149871648609
3891.0,0.001525758252793107
3890.0,0.0014705190987979394
3889.0,0.0014056967098644967
3888.0,0.0013351457307385845
3887.0,0.0012512864221253216
3886.0,0.001177942422945377
3885.0,0.0011455115207378557
3884.0,0.0011426921790929079
3883.0,0.0011595472382124154
3882.0,0.0011899357842924544
3881.0,0.0011980756201376815
3880.0,0.0011517909068808332
3879.0,0.0010802682055001782
3878.0,0.0010605654070802778
3877.0,0.0011322760284675536
3876.0,0.001256157371397372
3875.0,0.0013609422883185396
3874.0,0.001400069298658809
3873.0,0.0013697464014494013
3872.0,0.0013105708023366637
3871.0,0.001286544659699477
3870.0,0.0013239699069402403
3869.0,0.0013668676769772
3868.0,0.0013564292693283271
3867.0,0.0013200873182360774
3866.0,0.001323701878019926
3865.0,0.0014176375871072415
3864.0,0.0015923068214965174
3863.0,0.0017390035803236227
3862.0,0.0017735669292129382
3861.0,0.00173591548280608
3860.0,0.001696004900652831
3859.0,0.0016652570930724498
3858.0,0.0016041143149997461
3857.0,0.001455505545744704
3856.0,0.001201774493109842
3855.0,0.0009455282181996321
3854.0,0.0009210137956198053
3853.0,0.0010921879599988752
3852.0,0.0010896496092668885
3851.0,0.0009588431856900823
3850.0,0.0009692647673580383
3849.0,0.00112450594680499
3848.0,0.0012981161255430848
3847.0,0.0014228675081804929
3846.0,0.0015130332295453814
3845.0,0.0016213037640328944
3844.0,0.001764945068512833
3843.0,0.0018775043580581763
3842.0,0.0018841260384018987
3841.0,0.0017789236116690435
3840.0,0.001622204639050072
3839.0,0.0014815872243175389
3838.0,0.001376797077945355
3837.0,0.0013043028821792023
3836.0,0.0012845618079236412
3835.0,0.0013438458638759896
3834.0,0.0014701351146369753
3833.0,0.0016109234789955466
3832.0,0.0017072681111437987
3831.0,0.0017250146891325839
3830.0,0.0016696964452938149
3829.0,0.0015840016283657759
3828.0,0.0015280845978547153
3827.0,0.0015408872562052848
3826.0,0.0016067767411454643
3825.0,0.0016565357679963087
3824.0,0.0016223805781615946
3823.0,0.0014870389535667737
3822.0,0.0013128035971908302
3821.0,0.001200755330912272
3820.0,0.001152570733327113
3819.0,0.0011408358132518415
3818.0,0.0012001553743066643
3817.0,0.0013130579721547034
3816.0,0.0014172037146697432
3815.0,0.0014846963126301455
3814.0,0.0015336469656578268
3813.0,0.0016090256416533503
3812.0,0.0017157941692493
3811.0,0.0017987672233851643
3810.0,0.0018146807834657965
3809.0,0.0017918744294990801
3808.0,0.0018076797062503243
3807.0,0.0018646360866381067
3806.0,0.001844993295689339
3805.0,0.0016881425964912445
3804.0,0.0014659378928606219
3803.0,0.001283096855462974
3802.0,0.0012363044385401206
3801.0,0.0013017015472732516
3800.0,0.0013265867483028826
3799.0,0.0012883881008002602
3798.0,0.0012977699420531914
3797.0,0.0014094638924630701
3796.0,0.001581904721546329
3795.0,0.0017271445146969594
3794.0,0.001797969138408624
3793.0,0.0018289123374707122
3792.0,0.0018804611851996602
3791.0,0.0019794255558501445
3790.0,0.0021016787859416443
3789.0,0.0021969741706046493
3788.0,0.002231940810370911
3787.0,0.002217328731146594
3786.0,0.002192672555258758
3785.0,0.0021888220870821262
3784.0,0.002200897902059889
3783.0,0.002202089003244384
3782.0,0.002177215547205469
3781.0,0.002132105379819201
3780.0,0.0020897830850813096
3779.0,0.002068532694644216
3778.0,0.002062931437510996
3777.0,0.002070626966825747
3776.0,0.0020992816343528642
3775.0,0.002137780817706489
3774.0,0.0021586105607836617
3773.0,0.0021379128064546535
3772.0,0.0020769091784017014
3771.0,0.002006501878824369
3770.0,0.0019522692705100817
3769.0,0.0018932388231066195
3768.0,0.0018094163592329779
3767.0,0.0017414113343138093
3766.0,0.0017532847326000777
3765.0,0.001860216974018683
3764.0,0.0020003035140298553
3763.0,0.0020927577173343714
3762.0,0.0021076671616194623
3761.0,0.0020752817625932767
3760.0,0.0020602298120877124
3759.0,0.0020945900697903596
3758.0,0.0021476215727030323
3757.0,0.0021852893372912045
3756.0,0.002195956744444144
3755.0,0.0021442805968425686
3754.0,0.0019912353927465003
3753.0,0.0017608593413615007
3752.0,0.0015668783799750773
3751.0,0.0014742137078997287
3750.0,0.0013540690228148883
3749.0,0.0011412970283444825
3748.0,0.0009625611401208123
3747.0,0.0008904149117438557
3746.0,0.0008983956767600445
3745.0,0.000988357513818588
3744.0,0.0011203855860325808
3743.0,0.0011794978600718096
3742.0,0.0011930469450605764
3741.0,0.0012737488625473
3740.0,0.0014161895696802708
3739.0,0.001533307149691931
3738.0,0.0015517334574234034
3737.0,0.0014609972438470254
3736.0,0.001335944619654382
3735.0,0.0012638872252866296
3734.0,0.0012380888750238
3733.0,0.0012123332556750787
3732.0,0.0011937419377421625
3731.0,0.0012122405978457927
3730.0,0.001270952422448876
3729.0,0.001340271897079675
3728.0,0.0013884393219733707
3727.0,0.001422395852496222
3726.0,0.0014898884430229707
3725.0,0.0016284351233994201
3724.0,0.0018194757824409992
3723.0,0.0019865397594937663
3722.0,0.002041318817713655
3721.0,0.001972934247801275
3720.0,0.0018823731917375804
3719.0,0.0018809987375714371
3718.0,0.001975765191992598
3717.0,0.002077421088319387
3716.0,0.002103059124322176
3715.0,0.002047782287605251
3714.0,0.001992769710982001
3713.0,0.0020448165480501023
3712.0,0.0022099842167983674
3711.0,0.0023073721238723085
3710.0,0.002210324988239345
3709.0,0.002075945900179726
3708.0,0.002102734898993955
3707.0,0.0023072154854009057
3706.0,0.0025678094415684735
3705.0,0.0027604756399480807
3704.0,0.0028681673151354737
3703.0,0.003012711745912085
3702.0,0.0033431602942526435
3701.0,0.003833134300903084
3700.0,0.004305814416962433
3699.0,0.004658839252879814
3698.0,0.004906715227051987
3697.0,0.005080969148569439
3696.0,0.005181364312614459
3695.0,0.005187458334414311
3694.0,0.0050938263585235104
3693.0,0.004918729051572939
3692.0,0.004684512462482042
3691.0,0.004408824088764773
3690.0,0.004109388769660954
3689.0,0.0038088696354029433
3688.0,0.003554797059669601
3687.0,0.0034153122070006495
3686.0,0.0034091408763373887
3685.0,0.00347722918947899
3684.0,0.0035457969343262773
3683.0,0.0035802380049837768
3682.0,0.003574853737294913
3681.0,0.0035298352488149585
3680.0,0.0034431689735508033
3679.0,0.0033190315133675846
3678.0,0.0031784693280559988
3677.0,0.0030659121116611765
3676.0,0.0030008014019981153
3675.0,0.0028750180374948293
3674.0,0.002619434875182695
3673.0,0.002376957703906833
3672.0,0.0022590124066976377
3671.0,0.002263086392026917
3670.0,0.002413927773089816
3669.0,0.0026670527423346604
3668.0,0.0029059914725941298
3667.0,0.003139871604536321
3666.0,0.0034069884343251233
3665.0,0.0036695953845716734
3664.0,0.0038894760199045123
3663.0,0.004067575313385209
3662.0,0.0042087473299166935
3661.0,0.0042900396466225505
3660.0,0.004287273925697611
3659.0,0.004223389946230585
3658.0,0.004172194342627536
3657.0,0.004189750922171705
3656.0,0.004225907950697186
3655.0,0.004181317327104474
3654.0,0.004053527928535446
3653.0,0.0039042059389832557
3652.0,0.003769805329401116
3651.0,0.0037022439795816268
3650.0,0.003774126557927732
3649.0,0.0038787285769007925
3648.0,0.0038050103843383547
3647.0,0.003622754637824641
3646.0,0.0035346744215054788
3645.0,0.003588977892640291
3644.0,0.003735586275750988
3643.0,0.003939671637220517
3642.0,0.004196334876103502
3641.0,0.00447750534913987
3640.0,0.004719617049908295
3639.0,0.004879268066952479
3638.0,0.004972251211476424
3637.0,0.005045734361495691
3636.0,0.005138106269005691
3635.0,0.005256196872370753
3634.0,0.005367863125173346
3633.0,0.00540305116253564
3632.0,0.005293397964291525
3631.0,0.005038919967919699
3630.0,0.004779275539447904
3629.0,0.004735296108585869
3628.0,0.004863186293843299
3627.0,0.004960822135022214
3626.0,0.005068963888765481
3625.0,0.0052667545894232795
3624.0,0.005508382323601273
3623.0,0.00573216959033636
3622.0,0.0059246471591129085
3621.0,0.0061150877047788915
3620.0,0.006301967199009998
3619.0,0.006393354929528522
3618.0,0.0063182674541783345
3617.0,0.006159374164579696
3616.0,0.00603147929859194
3615.0,0.005941418558784202
3614.0,0.005831387650868422
3613.0,0.005669476050549899
3612.0,0.005476267113097941
3611.0,0.0053141537760285785
3610.0,0.005273073625093664
3609.0,0.00542336504042327
3608.0,0.005720835878590021
3607.0,0.00599180432813297
3606.0,0.006119426554936559
3605.0,0.00615857976655528
3604.0,0.006214910617215493
3603.0,0.006325418474359084
3602.0,0.006437188001428814
3601.0,0.006456098264529931
3600.0,0.0063435295538349975
3599.0,0.00615739835085439
3598.0,0.005991870052798004
3597.0,0.005910915761704244
3596.0,0.005942227076878914
3595.0,0.006076951697443338
3594.0,0.006246404178204663
3593.0,0.006345544061022192
3592.0,0.00632404272293814
3591.0,0.006222569754623894
3590.0,0.006133116449923991
3589.0,0.006156736349924707
3588.0,0.006319329237537009
3587.0,0.0064901958276113916
3586.0,0.006544111915525437
3585.0,0.0065343875573946174
3584.0,0.006548587292408701
3583.0,0.006584077838073488
3582.0,0.006617506221413558
3581.0,0.006675933642281664
3580.0,0.00680999646560493
3579.0,0.007013369417015258
3578.0,0.007200150711117461
3577.0,0.00727762165746659
3576.0,0.0072339228341684395
3575.0,0.00714661688532205
3574.0,0.007102453894542421
3573.0,0.0071108160920362855
3572.0,0.007112508918367504
3571.0,0.0070595526579524635
3570.0,0.0069666346740530505
3569.0,0.006903818035194645
3568.0,0.006943574660072879
3567.0,0.007071399364245055
3566.0,0.007191426831035243
3565.0,0.007272453975616209
3564.0,0.007365146209390086
3563.0,0.007502042579662116
3562.0,0.00768570309248362
3561.0,0.007904112749144716
3560.0,0.008107466757301453
3559.0,0.008221516450735931
3558.0,0.008220946871893642
3557.0,0.008161207116955473
3556.0,0.008120350812431237
3555.0,0.008132508418917465
3554.0,0.00818255430638291
3553.0,0.008242499471446297
3552.0,0.008293103724657795
3551.0,0.00832602433878414
3550.0,0.008347936410307682
3549.0,0.008384091515993869
3548.0,0.008469051738310189
3547.0,0.008617208407393167
3546.0,0.00878280585552846
3545.0,0.008874762241261519
3544.0,0.00884679019089494
3543.0,0.008746533222947868
3542.0,0.008667567426691336
3541.0,0.008679864442960436
3540.0,0.008795575281792093
3539.0,0.008975462446407824
3538.0,0.009158294851163767
3537.0,0.009291547474530207
3536.0,0.009353115979179752
3535.0,0.009357799393505834
3534.0,0.009348449467119303
3533.0,0.009377200838194379
3532.0,0.009480568518885379
3531.0,0.009653133933230843
3530.0,0.009833486488221702
3529.0,0.009931676383681242
3528.0,0.009903004968681713
3527.0,0.009796973680842721
3526.0,0.009715787974837197
3525.0,0.00973098650105537
3524.0,0.009845670153556795
3523.0,0.01001301251657441
3522.0,0.010169020581285599
3521.0,0.010259519736457508
3520.0,0.010268196854058028
3519.0,0.010233021629018594
3518.0,0.010219891096405061
3517.0,0.01025676439852918
3516.0,0.010303640591575937
3515.0,0.010310172569064056
3514.0,0.010285099454312765
3513.0,0.010283639506991507
3512.0,0.010343882527898387
3511.0,0.010461622258370567
3510.0,0.010612614330593215
3509.0,0.010762114769379357
3508.0,0.010858747165206486
3507.0,0.010863020895685617
3506.0,0.010791128183420953
3505.0,0.010715627349976761
3504.0,0.010713597875526799
3503.0,0.01079890785722842
3502.0,0.010913383108447142
3501.0,0.010993416985550543
3500.0,0.011019407590345948
3499.0,0.011015343418433726
3498.0,0.011036462473376507
3497.0,0.01113579181995435
3496.0,0.011313702903754767
3495.0,0.0115070197014825
3494.0,0.011639468853959072
3493.0,0.011674599098998978
3492.0,0.011622698764437084
3491.0,0.011528970748967911
3490.0,0.011462904183402485
3489.0,0.011480633108974146
3488.0,0.011576541415332195
3487.0,0.011695494604275011
3486.0,0.011802738790955945
3485.0,0.011912303220056313
3484.0,0.012038757852992412
3483.0,0.012158133021099415
3482.0,0.01223760491996552
3481.0,0.012275709772453442
3480.0,0.01228702699200354
3479.0,0.012278624149233721
3478.0,0.012271084506504598
3477.0,0.012308193048937687
3476.0,0.012405577795166958
3475.0,0.012506890828352116
3474.0,0.012540500386342263
3473.0,0.012512261128504292
3472.0,0.012492377234373553
3471.0,0.012524206151192586
3470.0,0.012596445304180092
3469.0,0.012695156757406163
3468.0,0.012827564999268692
3467.0,0.012981161744800514
3466.0,0.013110128217929895
3465.0,0.013191258349777104
3464.0,0.013253945190342085
3463.0,0.013326691766691469
3462.0,0.013385636559420634
3461.0,0.013390784124060445
3460.0,0.013353646263782281
3459.0,0.013332039862523872
3458.0,0.013367932788926559
3457.0,0.013459213718379992
3456.0,0.01358535321583566
3455.0,0.01373251976445411
3454.0,0.013887545331633788
3453.0,0.01402567197277203
3452.0,0.014117444818157396
3451.0,0.014148100918871708
3450.0,0.014131670363825226
3449.0,0.014107476677222782
3448.0,0.014116221956591589
3447.0,0.014167354262983028
3446.0,0.014235570059842672
3445.0,0.0142974561674457
3444.0,0.014352849900796223
3443.0,0.014404945799351958
3442.0,0.014440589550535801
3441.0,0.014442843610520863
3440.0,0.01441941427391517
3439.0,0.014407597970472044
3438.0,0.014445531727936424
3437.0,0.01453740215671626
3436.0,0.014644799731922023
3435.0,0.01471750290631782
3434.0,0.014737070392825784
3433.0,0.014726838692830976
3432.0,0.014721605016693638
3431.0,0.01473891188356739
3430.0,0.01478428776076069
3429.0,0.014864011103569101
3428.0,0.014968764441084689
3427.0,0.01505426425642389
3426.0,0.015070997260121177
3425.0,0.01502170968047798
3424.0,0.014970091655843329
3423.0,0.014984708694283276
3422.0,0.015081606655101394
3421.0,0.015218356630304977
3420.0,0.015329105684047453
3419.0,0.015367006226717779
3418.0,0.01533469863469757
3417.0,0.015284846685980014
3416.0,0.015275184010075618
3415.0,0.015311617714022587
3414.0,0.01535118229478796
3413.0,0.015369221222868185
3412.0,0.015396579726009777
3411.0,0.015468800641992887
3410.0,0.015562543505580381
3409.0,0.015614809929849236
3408.0,0.015596089769994242
3407.0,0.015536403747004952
3406.0,0.01548775863940598
3405.0,0.015489182273782348
3404.0,0.015557537545057579
3403.0,0.01567550128523165
3402.0,0.015786239965975935
3401.0,0.015834538481325596
3400.0,0.015825951801244482
3399.0,0.01582317408437164
3398.0,0.015873857671168598
3397.0,0.01595934929616377
3396.0,0.016025700424827167
3395.0,0.01604756587445326
3394.0,0.016045171789384863
3393.0,0.01605322908913762
3392.0,0.016092246671842267
3391.0,0.016161621112393092
3390.0,0.016241722355829963
3389.0,0.01630029864885344
3388.0,0.016308329141787294
3387.0,0.016259853420425033
3386.0,0.01618154224520767
3385.0,0.016123551486502408
3384.0,0.016133537096824562
3383.0,0.01622744202267877
3382.0,0.016378743169917935
3381.0,0.01653478651812645
3380.0,0.016643823430294555
3379.0,0.016674037753836895
3378.0,0.01662491841662123
3377.0,0.016534932742298294
3376.0,0.016467599803221444
3375.0,0.01646464918878733
3374.0,0.01650600765711671
3373.0,0.016531228725509474
3372.0,0.016508335901436955
3371.0,0.01646900540733625
3370.0,0.016468490663696315
3369.0,0.016523495199354265
3368.0,0.016602005281660927
3367.0,0.016663802296359363
3366.0,0.01669164927749348
3365.0,0.016685480254301433
3364.0,0.016647540688356242
3363.0,0.016586000001798155
3362.0,0.016525043552097895
3361.0,0.01649490662105468
3360.0,0.01650354422646108
3359.0,0.016525660875157312
3358.0,0.016531603905967435
3357.0,0.016524358695738747
3356.0,0.01653397820591608
3355.0,0.01657127624372036
3354.0,0.016604624701273506
3353.0,0.0165975076092342
3352.0,0.016556795089385117
3351.0,0.016526230269909622
3350.0,0.0165370839075119
3349.0,0.01658304342745943
3348.0,0.01664003879229151
3347.0,0.01668743156820264
3346.0,0.01670901642724234
3345.0,0.01669926891663933
3344.0,0.0166774597891008
3343.0,0.016673973519065376
3342.0,0.01669063061532358
3341.0,0.01669249363234805
3340.0,0.016652680712406616
3339.0,0.01658995881776268
3338.0,0.01654511971613222
3337.0,0.01653042419226376
3336.0,0.016520386384683925
3335.0,0.016486931048413415
3334.0,0.01642669501175397
3333.0,0.016357495075460065
3332.0,0.016303633997335785
3331.0,0.016282365670972153
3330.0,0.01629120643377223
3329.0,0.01630745521050696
3328.0,0.01630753845274926
3327.0,0.016285665981601808
3326.0,0.016249150022621745
3325.0,0.0162026415748753
3324.0,0.016147166563184656
3323.0,0.016091170129787044
3322.0,0.016053549412340388
3321.0,0.016056632139163023
3320.0,0.016117109193128507
3319.0,0.016231337640354008
3318.0,0.016360015531477572
3317.0,0.01644049724001741
3316.0,0.016434031312339288
3315.0,0.016361584358824694
3314.0,0.016283478026217817
3313.0,0.01624389746632799
3312.0,0.016239791287339416
3311.0,0.016238710523814818
3310.0,0.01621629960742906
3309.0,0.016177517580892666
3308.0,0.01615049969603462
3307.0,0.016159197181351594
3306.0,0.01619746345140865
3305.0,0.016233335816094936
3304.0,0.01624217050736525
3303.0,0.016229716614389152
3302.0,0.01621691207187904
3301.0,0.016209433073047567
3300.0,0.01619268600844744
3299.0,0.016153730025535922
3298.0,0.01610033719030572
3297.0,0.016060445379423662
3296.0,0.0160641490482863
3295.0,0.01611579888507272
3294.0,0.016177041094934844
3293.0,0.016188624749771466
3292.0,0.016123505618499387
3291.0,0.0160137240630413
3290.0,0.01591545020094481
3289.0,0.01585901195013028
3288.0,0.015844392040525408
3287.0,0.015866624152031456
3286.0,0.015918830898155312
3285.0,0.01597467185162857
3284.0,0.015994146569476467
3283.0,0.015957084774266193
3282.0,0.015881541284619206
3281.0,0.015806037386977397
3280.0,0.015759721842083522
3279.0,0.015745063804647137
3278.0,0.015738451217509226
3277.0,0.01571277392411739
3276.0,0.01567076706927259
3275.0,0.01564709423220109
3274.0,0.01566119657985035
3273.0,0.015679016154863057
3272.0,0.015645953263732127
3271.0,0.015552158759704896
3270.0,0.015440386529884529
3269.0,0.015352576592989567
3268.0,0.015294916901474519
3267.0,0.015257550659235914
3266.0,0.01524047037661046
3265.0,0.015245749821764205
3264.0,0.01526387050342403
3263.0,0.015284655078982134
3262.0,0.0153089907487448
3261.0,0.015333157047177973
3260.0,0.015330015101239651
3259.0,0.015264777340759275
3258.0,0.015133764943404363
3257.0,0.014981202725361253
3256.0,0.014872526250867206
3255.0,0.01484487998746056
3254.0,0.014876198808906498
3253.0,0.014904862685981169
3252.0,0.014886849980858506
3251.0,0.014831322892214956
3250.0,0.01477674648403815
3249.0,0.014740616545463266
3248.0,0.014703541597894672
3247.0,0.014639518927074536
3246.0,0.014550563563708027
3245.0,0.014470936353523565
3244.0,0.0144421657369921
3243.0,0.014477407199996236
3242.0,0.014540929870250636
3241.0,0.01456883327082804
3240.0,0.014524691863568948
3239.0,0.014431987627513233
3238.0,0.014337664281429522
3237.0,0.014253544283428583
3236.0,0.014158224253439735
3235.0,0.014049289816096554
3234.0,0.013958058747809761
3233.0,0.013907459171146861
3232.0,0.013888826818467398
3231.0,0.013891614279182517
3230.0,0.01392204423815973
3229.0,0.013971894055546837
3228.0,0.014001198278780883
3227.0,0.013982944353449777
3226.0,0.013942146250873904
3225.0,0.013915804355245472
3224.0,0.013889628186150405
3223.0,0.013815460867415197
3222.0,0.013690965730896006
3221.0,0.013583080328126534
3220.0,0.013554179822487418
3219.0,0.013586764217191464
3218.0,0.013603133759843861
3217.0,0.013548022584419572
3216.0,0.013434137736634853
3215.0,0.013317662227477416
3214.0,0.013247366789716145
3213.0,0.013235520334801411
3212.0,0.013263255475191667
3211.0,0.013301693015641911
3210.0,0.01332695957534348
3209.0,0.013324329679716172
3208.0,0.013287890277770411
3207.0,0.013220393996855206
3206.0,0.013134293366607432
3205.0,0.01305176307229746
3204.0,0.012996194503810642
3203.0,0.012970852017169257
3202.0,0.012941896326352457
3201.0,0.012856463712815798
3200.0,0.012695134219477173
3199.0,0.01250662050505524
3198.0,0.012374532575837812
3197.0,0.012340713832226144
3196.0,0.012371024295478261
3195.0,0.012400832861770872
3194.0,0.012395751450678352
3193.0,0.012358514200666866
3192.0,0.01229779371377051
3191.0,0.012215341282981244
3190.0,0.012122632510820297
3189.0,0.012048363261975977
3188.0,0.012015286618516361
3187.0,0.012014413901790158
3186.0,0.012011226494637756
3185.0,0.011976958358134778
3184.0,0.011909228494792218
3183.0,0.01182453738252232
3182.0,0.011741171308221488
3181.0,0.011675312331761565
3180.0,0.011641867424377306
3179.0,0.011641010510148491
3178.0,0.011644462181571828
3177.0,0.011614941194805465
3176.0,0.011547754446542857
3175.0,0.011476809118480164
3174.0,0.011429494337789971
3173.0,0.011391166982056188
3172.0,0.011329066874997394
3171.0,0.011240570408817123
3170.0,0.011157665204417591
3169.0,0.011106288812112569
3168.0,0.011080245516328384
3167.0,0.01105675222774335
3166.0,0.011020567119677149
3165.0,0.010968547333324155
3164.0,0.010904586380186067
3163.0,0.010835763817078639
3162.0,0.010766691770485814
3161.0,0.010698722174529681
3160.0,0.010640567190850773
3159.0,0.010610587432616243
3158.0,0.010614209416690633
3157.0,0.010626872396649431
3156.0,0.010619727459964989
3155.0,0.010597211815568457
3154.0,0.01058320769062076
3153.0,0.010572548629964673
3152.0,0.010528254415313186
3151.0,0.010434185836550413
3150.0,0.01032164074510827
3149.0,0.01022881211417743
3148.0,0.010158131915546969
3147.0,0.010091891168246308
3146.0,0.010028595235625729
3145.0,0.009980124018549464
3144.0,0.009944747894448205
3143.0,0.009904994049715966
3142.0,0.009848025801183054
3141.0,0.009776582586776073
3140.0,0.009706844470090827
3139.0,0.009661977170085571
3138.0,0.009653342242715838
3137.0,0.009656277009379547
3136.0,0.009620578863446078
3135.0,0.009523112619352606
3134.0,0.00940065756104692
3133.0,0.009315357483266753
3132.0,0.00929567241637238
3131.0,0.009325161376663187
3130.0,0.00937436155096833
3129.0,0.009418356845290571
3128.0,0.009432242184703546
3127.0,0.009399775079887032
3126.0,0.009330492190455633
3125.0,0.009249413190111126
3124.0,0.009169755778179151
3123.0,0.009091524462990089
3122.0,0.009023751725341093
3121.0,0.008985427297213461
3120.0,0.008978026555919135
3119.0,0.00897701273056063
3118.0,0.008962020748876509
3117.0,0.008942471221081777
3116.0,0.008940742323088571
3115.0,0.008956073757825991
3114.0,0.008957371406823948
3113.0,0.008914606229083837
3112.0,0.008831539335533078
3111.0,0.008743833183846304
3110.0,0.008687831859728207
3109.0,0.008674828358094003
3108.0,0.008693686892258927
3107.0,0.008727302585262206
3106.0,0.008755898721406996
3105.0,0.008752815961994042
3104.0,0.008701054704936923
3103.0,0.008619132215916809
3102.0,0.008550528924205374
3101.0,0.00851749848426913
3100.0,0.008500435119046728
3099.0,0.008476141617547743
3098.0,0.008456459356864692
3097.0,0.00846626472792176
3096.0,0.008499178690396125
3095.0,0.008520618128045394
3094.0,0.00851170427588418
3093.0,0.00848776517622672
3092.0,0.008470416031981615
3091.0,0.008462182938359255
3090.0,0.008453911868072206
3089.0,0.008440042069523276
3088.0,0.008418260738073644
3087.0,0.008384082728495194
3086.0,0.008335293154836892
3085.0,0.008278595261401999
3084.0,0.00822690148807081
3083.0,0.008190489964807491
3082.0,0.008169334196838228
3081.0,0.008152230924750986
3080.0,0.0081275563580514
3079.0,0.008100020416753862
3078.0,0.008090541101680131
3077.0,0.00811145536108528
3076.0,0.008146197611723024
3075.0,0.008160743802485933
3074.0,0.008134356744389969
3073.0,0.008074316652665716
3072.0,0.008005239648385743
3071.0,0.007951395992235955
3070.0,0.007923887325452033
3069.0,0.007913806047416646
3068.0,0.007897508559942035
3067.0,0.007857779441599353
3066.0,0.0078018321818811975
3065.0,0.007753881831589902
3064.0,0.007731655699897378
3063.0,0.007736573816132198
3062.0,0.0077622812384348615
3061.0,0.007799704341738484
3060.0,0.007833609362412874
3059.0,0.007845881990230601
3058.0,0.007828788500115258
3057.0,0.007790169032519429
3056.0,0.007741095230268837
3055.0,0.007684191680363852
3054.0,0.0076198428409833
3053.0,0.007561348449511026
3052.0,0.007533272064650034
3051.0,0.00754542320758439
3050.0,0.007572203494369231
3049.0,0.007568700414839846
3048.0,0.0075170859602089555
3047.0,0.007449008384543642
3046.0,0.007409064318581262
3045.0,0.007405882755089362
3044.0,0.007412321258865753
3043.0,0.0074102991042016165
3042.0,0.007413064523069815
3041.0,0.007435081661530087
3040.0,0.007461206523459255
3039.0,0.007460398154672433
3038.0,0.007421268893843452
3037.0,0.007360610202556867
3036.0,0.007303183649369202
3035.0,0.007264179264521305
3034.0,0.007243972209011183
3033.0,0.007229388022879981
3032.0,0.007205124489126259
3031.0,0.007172978377603303
3030.0,0.007154249509101629
3029.0,0.007162223193749382
3028.0,0.007180317594935972
3027.0,0.007179699790580623
3026.0,0.00715346908762202
3025.0,0.0071241803872483835
3024.0,0.007118418750510887
3023.0,0.007141889794883184
3022.0,0.007176244287075603
3021.0,0.007190242920566961
3020.0,0.007161429153073577
3019.0,0.007098587443746121
3018.0,0.0070400254321542725
3017.0,0.007017839864900663
3016.0,0.007023293684067093
3015.0,0.007020413183232713
3014.0,0.006990075636060439
3013.0,0.0069483900566684915
3012.0,0.006922010426665678
3011.0,0.006919345088688238
3010.0,0.006931704648740175
3009.0,0.006950230414790785
3008.0,0.006974378306377857
3007.0,0.007007461983059663
3006.0,0.007049074706183607
3005.0,0.007090328794168325
3004.0,0.007116814797265872
3003.0,0.007120167781783426
3002.0,0.007105370653434412
3001.0,0.007084298059747808
3000.0,0.007065150616494126
2999.0,0.007053304643168591
2998.0,0.00705777765992365
2997.0,0.0070864410166989415
2996.0,0.0071323264852143145
2995.0,0.007173263935292218
2994.0,0.007191469529578087
2993.0,0.007193506347649276
2992.0,0.007207671366269241
2991.0,0.007260216495487189
2990.0,0.007354463949634238
2989.0,0.0074701496206376426
2988.0,0.00758135322649821
2987.0,0.007672727493190852
2986.0,0.007740156070533109
2985.0,0.007785877375606109
2984.0,0.007821771767312809
2983.0,0.007872897297063372
2982.0,0.007963126718842022
2981.0,0.00809301319469348
2980.0,0.008241980681747673
2979.0,0.008395483988915976
2978.0,0.008561547110064523
2977.0,0.008756393595927846
2976.0,0.008985002919059727
2975.0,0.009242799467756958
2974.0,0.00952794547425057
2973.0,0.009843348543246868
2972.0,0.010191228537518675
2971.0,0.010570629535302738
2970.0,0.010976006722734985
2969.0,0.011396369906452972
2968.0,0.011823873598638613
2967.0,0.012265603429249861
2966.0,0.01273651390567163
2965.0,0.01323772668601654
2964.0,0.013750832909088134
2963.0,0.014256681483037981
2962.0,0.014744772656827103
2961.0,0.015200693481007704
2960.0,0.015602307087418797
2959.0,0.015941403590105135
2958.0,0.016236008538163028
2957.0,0.016506027266950614
2956.0,0.016746680489277254
2955.0,0.016940984833530192
2954.0,0.017091852811710263
2953.0,0.017226288565565642
2952.0,0.01737391106893661
2951.0,0.017557617003611116
2950.0,0.017804205748454108
2949.0,0.01814884670076282
2948.0,0.01862639082615184
2947.0,0.01926478522347593
2946.0,0.020083834453193238
2945.0,0.021092278699629666
2944.0,0.0222888696107679
2943.0,0.02367555578671775
2942.0,0.02526636798980797
2941.0,0.027074149212677253
2940.0,0.029092863029323707
2939.0,0.03130597580819682
2938.0,0.03370949024329343
2937.0,0.03631518848507391
2936.0,0.03913587480572201
2935.0,0.04217699996088965
2934.0,0.04544299852043551
2933.0,0.04894253246296852
2932.0,0.05268866708909155
2931.0,0.056706504991722896
2930.0,0.06104033431557554
2929.0,0.06574203981315117
2928.0,0.07084307907541698
2927.0,0.07634649779941749
2926.0,0.0822609610994272
2925.0,0.08864589339017209
2924.0,0.09560591437899348
2923.0,0.10321835534616841
2922.0,0.11147396951021803
2921.0,0.12028265085969253
2920.0,0.12948817765709475
2919.0,0.13878495821558615
2918.0,0.14754885108114343
2917.0,0.1548195245194606
2916.0,0.15954300655385545
2915.0,0.1609430977727738
2914.0,0.15880895665396477
2913.0,0.1535677646732546
2912.0,0.146114834083392
2911.0,0.1374760696640948
2910.0,0.12854847538237058
2909.0,0.11998035254174139
2908.0,0.11217291540985509
2907.0,0.10530477957646758
2906.0,0.09937181851100003
2905.0,0.09426622750143342
2904.0,0.08984876428918148
2903.0,0.08600378109237654
2902.0,0.08263685139478162
2901.0,0.07965826767558046
2900.0,0.07697580338444174
2899.0,0.07449382486619589
2898.0,0.07213340838469076
2897.0,0.06985377362548206
2896.0,0.06764490309123405
2895.0,0.06549110222390918
2894.0,0.06335181893180378
2893.0,0.06118559004236429
2892.0,0.05898811551967977
2891.0,0.05679185284976636
2890.0,0.05462719660990588
2889.0,0.052495445623584464
2888.0,0.050379425300745254
2887.0,0.04827417613147506
2886.0,0.046199630104832114
2885.0,0.04418814603636042
2884.0,0.04226474165482546
2883.0,0.04043943871247971
2882.0,0.038712207467974755
2881.0,0.03707926856090952
2880.0,0.03553850821156511
2879.0,0.03409844138248489
2878.0,0.03278423841495494
2877.0,0.031630067526243574
2876.0,0.030659322497940567
2875.0,0.02987176158305674
2874.0,0.029248167917527254
2873.0,0.028761230495619933
2872.0,0.028386289445008157
2871.0,0.028110763551433333
2870.0,0.02794302932175539
2869.0,0.027911916208602904
2868.0,0.028056417161184982
2867.0,0.02841456086748105
2866.0,0.029024753890030064
2865.0,0.029933510623610576
2864.0,0.031197275647167434
2863.0,0.03287510833663984
2862.0,0.03501813211017529
2861.0,0.037674409214762034
2860.0,0.04090573325496873
2859.0,0.04480276459907918
2858.0,0.04948139241569015
2857.0,0.055072782352407715
2856.0,0.06172818395787405
2855.0,0.06962837724275645
2854.0,0.07896948376513685
2853.0,0.08991257909585665
2852.0,0.10242013893452817
2851.0,0.11594884316236018
2850.0,0.12908379425120203
2849.0,0.13950673152150142
2848.0,0.1447473495721924
2847.0,0.143402870324442
2846.0,0.1359044764127504
2845.0,0.12414748822145169
2844.0,0.11044695759183103
2843.0,0.09664639450658863
2842.0,0.08385777702270203
2841.0,0.07260484762980977
2840.0,0.06302944938480794
2839.0,0.055066835264378396
2838.0,0.04853607451568145
2837.0,0.043211033166275774
2836.0,0.03886236836718026
2835.0,0.035279924635187726
2834.0,0.03229657276722177
2833.0,0.029796601430034514
2832.0,0.02769464494299662
2831.0,0.025917777085485583
2830.0,0.024405979168578066
2829.0,0.023116172105689937
2828.0,0.022014025391923122
2827.0,0.021056401252390965
2826.0,0.020198798730622098
2825.0,0.019415594670873206
2824.0,0.018706834133294808
2823.0,0.01807651997349973
2822.0,0.017510181476007084
2821.0,0.016981103505925257
2820.0,0.016477135115370956
2819.0,0.01601417628233278
2818.0,0.015614557730315955
2817.0,0.015272272571011308
2816.0,0.014949519118889358
2815.0,0.014612610037859596
2814.0,0.014262958910330352
2813.0,0.013930248874016676
2812.0,0.013640322481179877
2811.0,0.013393795991368064
2810.0,0.013173149955022164
2809.0,0.012960938441913799
2808.0,0.01275122780864206
2807.0,0.01255036219969989
2806.0,0.012365837884640211
2805.0,0.012192419975598515
2804.0,0.012012875948937013
2803.0,0.011814871048181016
2802.0,0.011602008309422407
2801.0,0.011385570488577131
2800.0,0.01117343115486329
2799.0,0.010974829680863982
2798.0,0.010806787140113412
2797.0,0.010680307137861592
2796.0,0.010582434769964755
2795.0,0.010483682877835299
2794.0,0.010365450445440549
2793.0,0.010232336530994117
2792.0,0.010098894590623003
2791.0,0.009974863081559104
2790.0,0.009861589738788944
2789.0,0.009751994540062758
2788.0,0.009632693907631624
2787.0,0.009495871992143594
2786.0,0.00935153639312652
2785.0,0.009221246034688031
2784.0,0.009118111940170252
2783.0,0.009037597866861242
2782.0,0.008966905186928152
2781.0,0.008894466845527511
2780.0,0.00881083112459137
2779.0,0.008712722794843402
2778.0,0.008609303826844888
2777.0,0.008515048251962764
2776.0,0.008433662172832927
2775.0,0.008356165119059275
2774.0,0.008277940197768834
2773.0,0.00820874650894957
2772.0,0.008158732787897893
2771.0,0.0081219805748313
2770.0,0.00808241356580825
2769.0,0.008032259905656314
2768.0,0.007976241897665666
2767.0,0.007918254295581085
2766.0,0.00785379797143769
2765.0,0.007780584536656069
2764.0,0.007711730841711142
2763.0,0.007668915604315266
2762.0,0.007657737352754752
2761.0,0.007657665932744043
2760.0,0.007644254324584088
2759.0,0.0076158110966840584
2758.0,0.007586858370165804
2757.0,0.007557583763129689
2756.0,0.007507455284040454
2755.0,0.007427936951551839
2754.0,0.007345497179922457
2753.0,0.0072950755071261655
2752.0,0.0072796352928340986
2751.0,0.007271792330454175
2750.0,0.007251154846020513
2749.0,0.00722412456454157
2748.0,0.0072048605909928055
2747.0,0.007193391569830586
2746.0,0.00717983526368857
2745.0,0.007159882926486545
2744.0,0.007139638323529294
2743.0,0.007129630132745833
2742.0,0.007136757038175215
2741.0,0.007157226597755232
2740.0,0.00717535413777327
2739.0,0.007174086936585973
2738.0,0.007148794340582331
2737.0,0.007109594610934395
2736.0,0.007071816295243543
2735.0,0.007045616323924487
2734.0,0.007030429198385072
2733.0,0.007013903388535485
2732.0,0.00698166350721109
2731.0,0.006936334581549913
2730.0,0.00690213283893595
2729.0,0.006900001381349748
2728.0,0.00692024347692532
2727.0,0.006931427102874558
2726.0,0.0069152361670695335
2725.0,0.0068801988062725285
2724.0,0.006841405192417589
2723.0,0.006801667013841958
2722.0,0.006760018782545289
2721.0,0.0067250191281878376
2720.0,0.0067070593492993755
2719.0,0.0067028801526961505
2718.0,0.006696659341935564
2717.0,0.006676108318369442
2716.0,0.006642877266389562
2715.0,0.00660868577692398
2714.0,0.006584073294315608
2713.0,0.006568415695101087
2712.0,0.006548085515216552
2711.0,0.006507034132067642
2710.0,0.006444187889243393
2709.0,0.006380359364116425
2708.0,0.006344068407781931
2707.0,0.0063467518893433215
2706.0,0.006372096712317832
2705.0,0.00639164081528295
2704.0,0.006391512371462341
2703.0,0.006381220637237392
2702.0,0.0063744819146779805
2701.0,0.006368507993551915
2700.0,0.006351242245841054
2699.0,0.006324247426223681
2698.0,0.006303514400767591
2697.0,0.0062946512955305445
2696.0,0.0062848696633909015
2695.0,0.006268028472124103
2694.0,0.0062619537436968175
2693.0,0.006283926846120204
2692.0,0.006317764947922905
2691.0,0.006326040696383763
2690.0,0.006294025708424099
2689.0,0.0062462401282247495
2688.0,0.006217064516010533
2687.0,0.006217557185053945
2686.0,0.006236110948236311
2685.0,0.00625945810721078
2684.0,0.006285104251972107
2683.0,0.006316699714910468
2682.0,0.0063526859640919905
2681.0,0.006379906583213931
2680.0,0.006381384797974275
2679.0,0.006353586385456811
2678.0,0.00631310782854609
2677.0,0.006281014727623763
2676.0,0.006263025432472188
2675.0,0.006250689137376184
2674.0,0.006237779168369379
2673.0,0.006228331559371074
2672.0,0.00623023306921604
2671.0,0.006247969257545491
2670.0,0.0062791907245958265
2669.0,0.00631209812926006
2668.0,0.00633074934658636
2667.0,0.006330933604000421
2666.0,0.006326761781420547
2665.0,0.006331660302550438
2664.0,0.006337699777691046
2663.0,0.006326328924076403
2662.0,0.006297382493527015
2661.0,0.006272932774447244
2660.0,0.0062694766254773986
2659.0,0.006278922384158219
2658.0,0.006280865986850131
2657.0,0.006262960454211078
2656.0,0.006224305796332556
2655.0,0.0061687423703601805
2654.0,0.006102106706773212
2653.0,0.0060308847647267605
2652.0,0.005958419732437102
2651.0,0.005885886162918519
2650.0,0.00581750462581278
2649.0,0.005758907653518535
2648.0,0.005710588198076851
2647.0,0.005670765593640135
2646.0,0.005644814015269534
2645.0,0.005642071577218257
2644.0,0.005660460537059517
2643.0,0.005682644232743288
2642.0,0.005691206277567367
2641.0,0.0056811337536593585
2640.0,0.0056570945845722835
2639.0,0.005626967172664344
2638.0,0.005599127866363541
2637.0,0.005576384392259032
2636.0,0.005548608098905697
2635.0,0.0054998165958633155
2634.0,0.005426861379444995
2633.0,0.005345399345463891
2632.0,0.005275771759162345
2631.0,0.0052281682295074305
2630.0,0.005200722069674528
2629.0,0.005183190704536404
2628.0,0.0051631729593673474
2627.0,0.005137907326231123
2626.0,0.005118717566179134
2625.0,0.00511279097238207
2624.0,0.005102965618218265
2623.0,0.005061644856537409
2622.0,0.004987062211513643
2621.0,0.00491048047288683
2620.0,0.0048616016496912575
2619.0,0.004840105740810674
2618.0,0.004827011584634502
2617.0,0.0048097377881121135
2616.0,0.004788179253577442
2615.0,0.004767641195515182
2614.0,0.004754360147796751
2613.0,0.004748721130075492
2612.0,0.0047378114575505606
2611.0,0.004705525212287239
2610.0,0.004654705728954728
2609.0,0.004604915367928212
2608.0,0.0045612159527533905
2607.0,0.004504139711385829
2606.0,0.004426710748307392
2605.0,0.004365211492300931
2604.0,0.004366314743648629
2603.0,0.004424221196932575
2602.0,0.004471786675435287
2601.0,0.004445294291243497
2600.0,0.004349023678449015
2599.0,0.004248077516759541
2598.0,0.004205462852522318
2597.0,0.004233065379714634
2596.0,0.0042967373719961606
2595.0,0.004355298239902923
2594.0,0.004385896202927328
2593.0,0.004380973415277511
2592.0,0.004338374929863961
2591.0,0.004260643556784437
2590.0,0.004158237476394103
2589.0,0.004050122138148564
2588.0,0.003964468501418082
2587.0,0.003932014375743899
2586.0,0.003960160902967994
2585.0,0.004009629605469163
2584.0,0.004018294358174307
2583.0,0.003965284655587184
2582.0,0.0038966926759545608
2581.0,0.003869291153630455
2580.0,0.003884214840346488
2579.0,0.003899120964621342
2578.0,0.0038913604599695823
2577.0,0.0038781044591510204
2576.0,0.0038771417533656188
2575.0,0.00388147904998095
2574.0,0.003879948285781534
2573.0,0.003875047623914759
2572.0,0.0038669552723163666
2571.0,0.0038406546464028694
2570.0,0.003784779688008318
2569.0,0.0037119434842486166
2568.0,0.0036494900870593415
2567.0,0.0036169632205052017
2566.0,0.0036155063793241625
2565.0,0.003627602834143543
2564.0,0.0036238312984898536
2563.0,0.0035847094616419366
2562.0,0.003523966473675675
2561.0,0.003480458540360936
2560.0,0.0034817323921082152
2559.0,0.0035224822597556636
2558.0,0.003576678169794946
2557.0,0.0036172945991243596
2556.0,0.003626074529580114
2555.0,0.003602257762084264
2554.0,0.0035664110036494343
2553.0,0.003542466096380241
2552.0,0.0035328203119406433
2551.0,0.0035231685825300044
2550.0,0.0035104755951641444
2549.0,0.003507839373532773
2548.0,0.003518745571011241
2547.0,0.0035256877790252354
2546.0,0.0035107340452761376
2545.0,0.003472436423498212
2544.0,0.0034195282962980944
2543.0,0.0033651751978918433
2542.0,0.0033302024771993937
2541.0,0.0033306127136372874
2540.0,0.003354123238082798
2539.0,0.0033689325992560977
2538.0,0.003363598040453061
2537.0,0.003358059967007442
2536.0,0.003366400618409252
2535.0,0.003372077238495352
2534.0,0.0033563566798467913
2533.0,0.003330405543944111
2532.0,0.003317945544145255
2531.0,0.0033207714532889083
2530.0,0.0033233042950598863
2529.0,0.003321991231517305
2528.0,0.003329348987561833
2527.0,0.0033530406347966994
2526.0,0.0033869278243638667
2525.0,0.003417417432388022
2524.0,0.0034239156791759564
2523.0,0.0033821311468079096
2522.0,0.0032893285104900923
2521.0,0.0031858970598791095
2520.0,0.00313019086823897
2519.0,0.0031449230956554167
2518.0,0.0032030662661789713
2517.0,0.00327013660193122
2516.0,0.003340387386874139
2515.0,0.0034185101960437754
2514.0,0.003483655577582393
2513.0,0.003499182448835279
2512.0,0.0034599651314857352
2511.0,0.003406946887154036
2510.0,0.003381025878273403
2509.0,0.0033760428338617263
2508.0,0.0033546375144803166
2507.0,0.003301709251514469
2506.0,0.003238131140280315
2505.0,0.0031809175173617456
2504.0,0.0031180746686980355
2503.0,0.0030387537029799433
2502.0,0.0029679313833960884
2501.0,0.0029461956187538055
2500.0,0.0029816269384800587
2499.0,0.0030431126334610767
2498.0,0.0030994113963378036
2497.0,0.0031446538143534986
2496.0,0.0031821014079971496
2495.0,0.003199794090842781
2494.0,0.0031737168543834885
2493.0,0.003094557782490204
2492.0,0.0029917443521986975
2491.0,0.0029278838339262953
2490.0,0.0029517919231063588
2489.0,0.0030422153960033066
2488.0,0.0031114272525649958
2487.0,0.003088940162588652
2486.0,0.0029985121823637734
2485.0,0.002931288207760897
2484.0,0.002943904418795888
2483.0,0.003005454722716963
2482.0,0.003046150683524533
2481.0,0.003031277216857347
2480.0,0.0029763742543713534
2479.0,0.0029131309780481623
2478.0,0.002862717365674651
2477.0,0.0028350218874480973
2476.0,0.002835045110895649
2475.0,0.0028649814357230617
2474.0,0.002921317170577102
2473.0,0.002987397668762868
2472.0,0.003033861684272589
2471.0,0.003040673042068575
2470.0,0.0030215537683465346
2469.0,0.0030124766840007745
2468.0,0.0030283318901574516
2467.0,0.003043275272439216
2466.0,0.003025455588859996
2465.0,0.0029827867330260265
2464.0,0.002959292140360579
2463.0,0.0029850450103456536
2462.0,0.0030403556925716023
2461.0,0.0030756747331398713
2460.0,0.0030637791465184536
2459.0,0.0030251144243493193
2458.0,0.00299878548395412
2457.0,0.0029962578377100845
2456.0,0.0029945348508151302
2455.0,0.0029717854740413338
2454.0,0.002931432811334237
2453.0,0.002885641137647538
2452.0,0.0028361606981674257
2451.0,0.002787078628959393
2450.0,0.002757351395429891
2449.0,0.002755545292830854
2448.0,0.0027544445766694917
2447.0,0.002720947486977374
2446.0,0.002666502796130546
2445.0,0.002636481279501956
2444.0,0.0026476843595251358
2443.0,0.0026685700074642795
2442.0,0.0026706445108082427
2441.0,0.002667718595197591
2440.0,0.002685631628134754
2439.0,0.0027189650922370312
2438.0,0.002744193815669708
2437.0,0.0027608639852158665
2436.0,0.00279184367508428
2435.0,0.002845037673436684
2434.0,0.002895754574859305
2433.0,0.0029113551610909076
2432.0,0.0028832883089219548
2431.0,0.0028324660165077015
2430.0,0.0027885564667736286
2429.0,0.0027645513070478113
2428.0,0.002750684149756048
2427.0,0.002736653743465827
2426.0,0.002734924116534946
2425.0,0.0027657605366773487
2424.0,0.0028163625283113155
2423.0,0.0028380892571847477
2422.0,0.002802809730802288
2421.0,0.002747820042556376
2420.0,0.0027399051191620617
2419.0,0.0027965654038392324
2418.0,0.0028645580663858652
2417.0,0.0028805811038252823
2416.0,0.002836870375065556
2415.0,0.002779618253534234
2414.0,0.0027554721299515345
2413.0,0.0027696268134939786
2412.0,0.0027860756361187287
2411.0,0.002756401674710947
2410.0,0.002655774764968168
2409.0,0.002510080648721039
2408.0,0.0023919965457277897
2407.0,0.0023738890052803063
2406.0,0.00246931791542435
2405.0,0.002619910575617234
2404.0,0.00274447532747466
2403.0,0.002801040672162216
2402.0,0.0028021685986872216
2401.0,0.002781279093580387
2400.0,0.002758275462486787
2399.0,0.0027369684272862895
2398.0,0.002718731958572106
2397.0,0.0027056174119199613
2396.0,0.00269497852529582
2395.0,0.002682261722598846
2394.0,0.002670085192353018
2393.0,0.0026678272781898668
2392.0,0.0026806793035287855
2391.0,0.0027032186215504633
2390.0,0.0027248883357939725
2389.0,0.0027383818538561444
2388.0,0.002740060688872941
2387.0,0.002724603100088388
2386.0,0.0026848641250929203
2385.0,0.0026214941497112202
2384.0,0.002552283163449943
2383.0,0.002506086562205579
2382.0,0.0025006682319686177
2381.0,0.0025242861312007913
2380.0,0.0025424217803795414
2379.0,0.0025258172338654995
2378.0,0.0024723757661396163
2377.0,0.0024054431002845417
2376.0,0.0023551200525016914
2375.0,0.0023398936960147346
2374.0,0.0023532469269468784
2373.0,0.0023665955158359707
2372.0,0.002356964592372286
2371.0,0.0023327995793485353
2370.0,0.0023259487547180268
2369.0,0.0023648065021922514
2368.0,0.0024652459809484106
2367.0,0.002622343494311532
2366.0,0.002774785174577562
2365.0,0.0028073540502911174
2364.0,0.002663180811225411
2363.0,0.0024440670812252226
2362.0,0.0023138805849549134
2361.0,0.0022988977106005817
2360.0,0.002313853394688967
2359.0,0.0023463607345188564
2358.0,0.00242932087297031
2357.0,0.002519831494401776
2356.0,0.0025449974763799123
2355.0,0.0025587247898426384
2354.0,0.002692089405678536
2353.0,0.002934546267430268
2352.0,0.0031314057739034386
2351.0,0.00314314734833871
2350.0,0.0029829737077035927
2349.0,0.002774495947778498
2348.0,0.0026261591154192773
2347.0,0.00260036935382537
2346.0,0.0026726739790447975
2345.0,0.002745515618566746
2344.0,0.0026913278088217477
2343.0,0.002518560749668687
2342.0,0.0024156089158453727
2341.0,0.002472895534336553
2340.0,0.00260968685833609
2339.0,0.002715932091958282
2338.0,0.002792291927274857
2337.0,0.002856132239968884
2336.0,0.0028579446540791752
2335.0,0.0027781932204705016
2334.0,0.002713945817256986
2333.0,0.0027671879902609526
2332.0,0.0029052009095969426
2331.0,0.0030112182653959877
2330.0,0.0030577198222230223
2329.0,0.003126515478561314
2328.0,0.0032364552730549077
2327.0,0.0033647679285354866
2326.0,0.003479016728238753
2325.0,0.003594580147902709
2324.0,0.0036863154009718355
2323.0,0.0036980284497201187
2322.0,0.0036163542337935553
2321.0,0.0034666047634118683
2320.0,0.0032873248184140027
2319.0,0.0030953558626809915
2318.0,0.0029325948703931492
2317.0,0.002839028903685083
2316.0,0.002811155156513269
2315.0,0.0028097102583918296
2314.0,0.0028025208633143408
2313.0,0.0027976299467850642
2312.0,0.002802823415188289
2311.0,0.0028252145285547156
2310.0,0.002860478285347261
2309.0,0.002914193861046305
2308.0,0.002975029066210439
2307.0,0.0030322667738953593
2306.0,0.003064754740331347
2305.0,0.00305005748953485
2304.0,0.0029687031947228204
2303.0,0.0028477519573847985
2302.0,0.00275678399239861
2301.0,0.0027530213070869887
2300.0,0.0028242287972386646
2299.0,0.0029247541814744083
2298.0,0.003026131659217526
2297.0,0.003118498331058618
2296.0,0.0031620166028421717
2295.0,0.0031158564227955917
2294.0,0.002990874112590109
2293.0,0.0028604708706840417
2292.0,0.002785159177756903
2291.0,0.002767757823530915
2290.0,0.00277136069673653
2289.0,0.002760919223858158
2288.0,0.0027184110781381383
2287.0,0.0026544853852059663
2286.0,0.0026116287160742
2285.0,0.002629355983073187
2284.0,0.002696920515468181
2283.0,0.0027618154949972844
2282.0,0.0027874332219188984
2281.0,0.0027766605232849443
2280.0,0.002743937340754532
2279.0,0.002699735784927244
2278.0,0.0026732198130651435
2277.0,0.002702637522530236
2276.0,0.0027794760635160166
2275.0,0.0028294602662096826
2274.0,0.002784840681909764
2273.0,0.00266078503809626
2272.0,0.002541336035654875
2271.0,0.002497357437784692
2270.0,0.002532688809788801
2269.0,0.0025944369916685267
2268.0,0.0026242173835974896
2267.0,0.0026034291845892575
2266.0,0.0025580598381946093
2265.0,0.00251978455502386
2264.0,0.0024932619736677437
2263.0,0.002469336709384422
2262.0,0.0024492032639585617
2261.0,0.002434465645070829
2260.0,0.0024081080353836803
2259.0,0.0023578504501508045
2258.0,0.002312383780187336
2257.0,0.00232209538183367
2256.0,0.0024033811173659403
2255.0,0.002518465016321202
2254.0,0.0026019343899006835
2253.0,0.002589800695231615
2252.0,0.0024524828463861584
2251.0,0.0022391299093579217
2250.0,0.002064122013632083
2249.0,0.002006101951164447
2248.0,0.0020268111045322968
2247.0,0.0020396648773054016
2246.0,0.002033790489189948
2245.0,0.002069148372603446
2244.0,0.002161464705599289
2243.0,0.002252040298387571
2242.0,0.0023047325885601423
2241.0,0.0023579704077911754
2240.0,0.00244995009755279
2239.0,0.0025497670977272418
2238.0,0.002598947940462339
2237.0,0.002574759349228198
2236.0,0.002480629659645979
2235.0,0.002319910917138322
2234.0,0.002127561659328082
2233.0,0.0019965430275689514
2232.0,0.0020113674200737154
2231.0,0.0021558051788920715
2230.0,0.0023163267018736933
2229.0,0.0023782708190184824
2228.0,0.0023158609974065626
2227.0,0.002194889476486336
2226.0,0.002101454352902409
2225.0,0.0020623616934403676
2224.0,0.0020356689525787455
2223.0,0.0019855198404878475
2222.0,0.0019481047956400347
2221.0,0.001993545803207186
2220.0,0.0021315191095666974
2219.0,0.002297061050954314
2218.0,0.0024283487714448822
2217.0,0.0025128008570953213
2216.0,0.0025542304397312486
2215.0,0.002539873453346053
2214.0,0.0024688329804227033
2213.0,0.0023797521979462615
2212.0,0.0023141667931842495
2211.0,0.0022595780977228475
2210.0,0.0021530333544724244
2209.0,0.0019459354978542454
2208.0,0.0016650904829426097
2207.0,0.0014179621654055753
2206.0,0.001328413929773352
2205.0,0.0014360795692320094
2204.0,0.0016498076300644421
2203.0,0.001826748162248561
2202.0,0.0019098506695337464
2201.0,0.0019664012207520655
2200.0,0.0020819125972477035
2199.0,0.002231300766628765
2198.0,0.0022883848528241304
2197.0,0.002174892151933189
2196.0,0.0019808947778373713
2195.0,0.0018876476680176409
2194.0,0.001961400398392474
2193.0,0.0020791892121210555
2192.0,0.0020919762017491666
2191.0,0.0020129097014855075
2190.0,0.001961500287558617
2189.0,0.0019666250633733695
2188.0,0.0019522256150707237
2187.0,0.001916452551416448
2186.0,0.0019694194428997083
2185.0,0.0021283908901252335
2184.0,0.0022093839371877862
2183.0,0.0020435176896969323
2182.0,0.0017200335399207276
2181.0,0.0014898554842764917
2180.0,0.001483795556551968
2179.0,0.0016362596941808909
2178.0,0.0018187967254164814
2177.0,0.001937113292388879
2176.0,0.001948931568705951
2175.0,0.0018900862975450364
2174.0,0.0018528117743711612
2173.0,0.0018645241952158016
2172.0,0.0018396556190534712
2171.0,0.0017240041822194048
2170.0,0.0016124321970600768
2169.0,0.0016180235210802019
2168.0,0.0016817237277062733
2167.0,0.0016600184775936357
2166.0,0.001574554232412008
2165.0,0.0016087396090261532
2164.0,0.0018283693256244244
2163.0,0.002060306196192677
2162.0,0.0020976152634305315
2161.0,0.001916745863908199
2160.0,0.0016715855768172027
2159.0,0.0015495717330067846
2158.0,0.0016509667677628381
2157.0,0.0019142898805603712
2156.0,0.0021349203880033966
2155.0,0.0021258960161093373
2154.0,0.0018823211904791578
2153.0,0.001557304313144337
2152.0,0.0013001347276848526
2151.0,0.001162686746694541
2150.0,0.0011445699780363223
2149.0,0.0012310614037979695
2148.0,0.0013637251381448327
2147.0,0.0014596698817096387
2146.0,0.001489381834926983
2145.0,0.0015023769975404514
2144.0,0.0015538465609548089
2143.0,0.0016317899855511093
2142.0,0.0016710359246600302
2141.0,0.001631975621881644
2140.0,0.0015661897316476402
2139.0,0.0015859530860304015
2138.0,0.001736420911510556
2137.0,0.001904601683379734
2136.0,0.0019132290588836217
2135.0,0.0017222583766594098
2134.0,0.0014690619667344891
2133.0,0.0013034955362921177
2132.0,0.0012566966386708279
2131.0,0.0012991474886839185
2130.0,0.0014286862131739036
2129.0,0.001637592719700964
2128.0,0.0018547341945056917
2127.0,0.0019984976881083543
2126.0,0.0020521582822396675
2125.0,0.0020438708572971045
2124.0,0.0019915688117547845
2123.0,0.0019257710730101784
2122.0,0.0019190007708242435
2121.0,0.0020139172955791133
2120.0,0.0021377817976949488
2119.0,0.00217119020184835
2118.0,0.0020924475979893983
2117.0,0.00199411060800115
2116.0,0.001956342700901022
2115.0,0.001974419420175764
2114.0,0.002010686536681551
2113.0,0.0020525176583601084
2112.0,0.0020951990937205026
2111.0,0.0021248110476854544
2110.0,0.00213850088773118
2109.0,0.0021447135121962107
2108.0,0.002132681865195253
2107.0,0.0020840950604174642
2106.0,0.0020216738019905624
2105.0,0.001998692149720473
2104.0,0.002027238223601658
2103.0,0.002063215818612117
2102.0,0.0020756414907950687
2101.0,0.002083771881438494
2100.0,0.002106146006519832
2099.0,0.002115448688497722
2098.0,0.0020698430285964443
2097.0,0.0019628767403070298
2096.0,0.0018262142362023902
2095.0,0.0017078028860408583
2094.0,0.0016585875494895827
2093.0,0.001706819852648708
2092.0,0.001826520792617685
2091.0,0.0019516497142618595
2090.0,0.002027786824118402
2089.0,0.0020419236273174534
2088.0,0.0020085340918810485
2087.0,0.001955970914022175
2086.0,0.001926719242394554
2085.0,0.001954511364378881
2084.0,0.002025658476503528
2083.0,0.002086008898804374
2082.0,0.0021016597353279974
2081.0,0.0020977538101551955
2080.0,0.002130543214772014
2079.0,0.002229864084126023
2078.0,0.0023656937951875394
2077.0,0.0024598035977981105
2076.0,0.0024354911270577364
2075.0,0.0022793282847647423
2074.0,0.0020587747138943483
2073.0,0.0018782565619705838
2072.0,0.0018168839959588935
2071.0,0.0018872090095317482
2070.0,0.002027886677362597
2069.0,0.002128858324537353
2068.0,0.0021093594698862197
2067.0,0.0019971240365547678
2066.0,0.001898057493548667
2065.0,0.0018777437704673296
2064.0,0.001908294031423413
2063.0,0.0019466982541091744
2062.0,0.0019961379005950463
2061.0,0.002049096628434804
2060.0,0.002053209301782165
2059.0,0.0019926982632087063
2058.0,0.001941246604362794
2057.0,0.0019690927209555877
2056.0,0.0020522206265488475
2055.0,0.002135670663444013
2054.0,0.002221399507962343
2053.0,0.0023078591344543944
2052.0,0.0023028148852395
2051.0,0.0021117165089857416
2050.0,0.0017992493265896387
2049.0,0.00156588667625982
2048.0,0.001527170221437457
2047.0,0.0016206203079898163
2046.0,0.0017463926064378772
2045.0,0.0018615549106612186
2044.0,0.0019415069802916777
2043.0,0.0019632950349554707
2042.0,0.001933568895825583
2041.0,0.001852396423318659
2040.0,0.0016788279392241745
2039.0,0.0014358693746358315
2038.0,0.0013043009475016984
2037.0,0.0014634296614638416
2036.0,0.0018248156503271314
2035.0,0.002078751383975304
2034.0,0.0020322953709271535
2033.0,0.0017756977374256471
2032.0,0.001518095036824223
2031.0,0.0013900193899526732
2030.0,0.001432286539640623
2029.0,0.001614742518598666
2028.0,0.0018170825229858452
2027.0,0.001918650167151785
2026.0,0.0019245770467835126
2025.0,0.0019091301819333024
2024.0,0.0018605606463783586
2023.0,0.0017130930576547358
2022.0,0.001522145863076203
2021.0,0.0014490148783220867
2020.0,0.001537764331297068
2019.0,0.0016470409948650207
2018.0,0.0016543220959389473
2017.0,0.001617725415359803
2016.0,0.0016660399971169244
2015.0,0.001813664621662925
2014.0,0.00196973753546069
2013.0,0.002048913819534513
2012.0,0.0020277270647436614
2011.0,0.0019445760027051568
2010.0,0.0018699428769275873
2009.0,0.0018477512179600768
2008.0,0.0018497942747920143
2007.0,0.0018105103727320878
2006.0,0.0016938995818635825
2005.0,0.0015008752181378563
2004.0,0.0012562028291975703
2003.0,0.0010236377760865177
2002.0,0.0008906300260902298
2001.0,0.0008856491710960084
2000.0,0.0009424096587881126
1999.0,0.0010018056582015431
1998.0,0.0010900713949395758
1997.0,0.001237016953578797
1996.0,0.0013854971871430108
1995.0,0.0014645004877689887
1994.0,0.0014884322022203733
1993.0,0.0015030288710768858
1992.0,0.0014850664212222643
1991.0,0.00140407194177116
1990.0,0.001334753235931639
1989.0,0.0013742625321541393
1988.0,0.0014989561774767953
1987.0,0.0016032719006538337
1986.0,0.0016430057883432712
1985.0,0.0016448666571931578
1984.0,0.0016139515946429408
1983.0,0.001551266765280773
1982.0,0.0015373123129802995
1981.0,0.0016638108946387857
1980.0,0.001872274037569317
1979.0,0.0019927800350528274
1978.0,0.0019700289552141825
1977.0,0.0019241994380290233
1976.0,0.0019405966416213638
1975.0,0.0019434948439205403
1974.0,0.0018232151839428022
1973.0,0.0015704139060276055
1972.0,0.0012710721332538058
1971.0,0.001050807051783015
1970.0,0.0010278642800840632
1969.0,0.0012335116540162071
1968.0,0.0015507738147541618
1967.0,0.0018019273805542607
1966.0,0.0019114996238369314
1965.0,0.0019122147319464633
1964.0,0.0018312620792070543
1963.0,0.0016812875241715504
1962.0,0.0015185334120626226
1961.0,0.00140132312427697
1960.0,0.0013154480229065591
1959.0,0.0012338987534209168
1958.0,0.0012052305744829866
1957.0,0.0012805008445476362
1956.0,0.0013981051218890405
1955.0,0.0014489941646578341
1954.0,0.0014259639430340052
1953.0,0.0014029760705862814
1952.0,0.0013910268240860393
1951.0,0.0013274441377893454
1950.0,0.0012030742880971778
1949.0,0.0010931473795632942
1948.0,0.001054774267848574
1947.0,0.0010778633435112827
1946.0,0.0011405116628001673
1945.0,0.001232293337368643
1944.0,0.0013115543980403786
1943.0,0.001314925122564278
1942.0,0.0012431192297487413
1941.0,0.0011716170466394289
1940.0,0.001148441325568561
1939.0,0.0011685999748132195
1938.0,0.0012360638316311053
1937.0,0.001357097873686611
1936.0,0.0014818941190798153
1935.0,0.0015308906544667994
1934.0,0.0014856217657617582
1933.0,0.0014038429448781447
1932.0,0.001341385965042441
1931.0,0.0013063147989134517
1930.0,0.0012981051346326578
1929.0,0.001326864679159985
1928.0,0.0013835777178773758
1927.0,0.0014379572350809876
1926.0,0.0014692139122707876
1925.0,0.001475449476424713
1924.0,0.001454292781777799
1923.0,0.0014180216825538878
1922.0,0.0014090321931481253
1921.0,0.0014509633752393793
1920.0,0.0015059665705825565
1919.0,0.0015242445422564551
1918.0,0.0015129000702508398
1917.0,0.0015138325893968357
1916.0,0.0015270500649056226
1915.0,0.001523312949814229
1914.0,0.0015049013780651418
1913.0,0.0014979471321031675
1912.0,0.0014927059667126403
1911.0,0.001446901825534244
1910.0,0.0013599044787371822
1909.0,0.001290788922985365
1908.0,0.0012863074563566432
1907.0,0.0013396764787889349
1906.0,0.0014275698516207451
1905.0,0.0015329086275593878
1904.0,0.0016204335538298948
1903.0,0.0016532318076444173
1902.0,0.0016386329290440736
1901.0,0.0016206018196657942
1900.0,0.0016256286504470639
1899.0,0.0016440454753878378
1898.0,0.0016576750048633614
1897.0,0.0016549445380792168
1896.0,0.0016194955557395012
1895.0,0.001548426796968328
1894.0,0.001480614558665978
1893.0,0.0014606967391947387
1892.0,0.0014829964482032784
1891.0,0.0015087400292800508
1890.0,0.0015182041416454367
1889.0,0.0015133140183360622
1888.0,0.0014877424403453513
1887.0,0.0014346823792513366
1886.0,0.0013769661603121926
1885.0,0.0013590836166401386
1884.0,0.0013919451347277347
1883.0,0.001435745680148527
1882.0,0.0014535566080317033
1881.0,0.0014431047497461933
1880.0,0.0014138945367725409
1879.0,0.0013679553434125977
1878.0,0.0013126026572875568
1877.0,0.0012723617475305137
1876.0,0.0012692572128126455
1875.0,0.0013026878114033233
1874.0,0.0013529279565601385
1873.0,0.001385919871272755
1872.0,0.001363962944025407
1871.0,0.001276508954990514
1870.0,0.0011715842633762518
1869.0,0.0011332761821611149
1868.0,0.0011816262783208864
1867.0,0.0012605611309355002
1866.0,0.0013320787903496772
1865.0,0.0013817414218497358
1864.0,0.0013909060812873145
1863.0,0.0013552563006071921
1862.0,0.0013112044803679905
1861.0,0.0013097218578102022
1860.0,0.0013555663669716123
1859.0,0.0014031398042874442
1858.0,0.0014167019358281708
1857.0,0.001400709481839821
1856.0,0.001376722384804884
1855.0,0.0013601974403235106
1854.0,0.001361098548099514
1853.0,0.0013774041385044345
1852.0,0.0013844984834598837
1851.0,0.0013597289433071968
1850.0,0.001308810627527851
1849.0,0.0012689156484008172
1848.0,0.0012709834864642886
1847.0,0.0013063993866034252
1846.0,0.001332650451057619
1845.0,0.0013029796656300447
1844.0,0.0012162893457920156
1843.0,0.0011474530534225356
1842.0,0.0011637968022380867
1841.0,0.0012361842690082163
1840.0,0.0012884353821898409
1839.0,0.0012810618686598448
1838.0,0.0012380440569787557
1837.0,0.0012097680624962427
1836.0,0.0012085745066447704
1835.0,0.0012147356591361844
1834.0,0.001222951397575889
1833.0,0.0012423547089874343
1832.0,0.0012697224581723868
1831.0,0.0012905281570875868
1830.0,0.0012928732737426617
1829.0,0.001274714509139522
1828.0,0.0012453006607455858
1827.0,0.0012136737996183138
1826.0,0.0011973300169658943
1825.0,0.001223032841118496
1824.0,0.0012717585503735115
1823.0,0.0012995120698856976
1822.0,0.0013037397997046748
1821.0,0.0013065194930590406
1820.0,0.001311558048188475
1819.0,0.0013027900828050712
1818.0,0.0012843535091224757
1817.0,0.0012854863009269923
1816.0,0.0013116313585225681
1815.0,0.0013395769684808618
1814.0,0.001357467533767454
1813.0,0.0013727106013148378
1812.0,0.0013871113228724388
1811.0,0.0013857127558656091
1810.0,0.0013707748004841563
1809.0,0.0013623495748414467
1808.0,0.001359832744515654
1807.0,0.0013535515961941515
1806.0,0.0013570436037362564
1805.0,0.0013895321252808891
1804.0,0.0014371484308935605
1803.0,0.0014642468538561579
1802.0,0.0014618249043484304
1801.0,0.0014579508654995184
1800.0,0.0014762116248626168
1799.0,0.001503580277491823
1798.0,0.0015234858857951067
1797.0,0.0015319470324626685
1796.0,0.0015265545876826797
1795.0,0.001508133878630729
1794.0,0.0014920473124055375
1793.0,0.0015008752864804496
1792.0,0.0015256297615281276
1791.0,0.0015306078061514171
1790.0,0.0015275166698639343
1789.0,0.001539811852282961
1788.0,0.001560197133432971
1787.0,0.0015780850537479413
1786.0,0.0015961854332633158
1785.0,0.0016149650667054978
1784.0,0.0016166682529427248
1783.0,0.0015878170043730905
1782.0,0.0015386447816942701
1781.0,0.0014903762625790057
1780.0,0.0014615826097351924
1779.0,0.0014535399459311943
1778.0,0.0014678817202657991
1777.0,0.001501730600668676
1776.0,0.0015378680060524953
1775.0,0.0015514716982984221
1774.0,0.0015283956206342897
1773.0,0.001487804957082276
1772.0,0.0014627018981538497
1771.0,0.0014700798525698069
1770.0,0.001520525891278881
1769.0,0.0015932719699706878
1768.0,0.001642584760741066
1767.0,0.0016420552727193743
1766.0,0.0016111445054654695
1765.0,0.0015850122531488255
1764.0,0.0015749627802173587
1763.0,0.0015748367511349629
1762.0,0.0015772670185231915
1761.0,0.001577415724615657
1760.0,0.0015805882578551712
1759.0,0.0015852821469875314
1758.0,0.0015939854540083951
1757.0,0.0016118368547506055
1756.0,0.0016310123850754896
1755.0,0.0016449707585937377
1754.0,0.0016617329086001725
1753.0,0.001693103181943803
1752.0,0.001742646125841494
1751.0,0.0017827124569864054
1750.0,0.0017842042577691647
1749.0,0.0017790261402061839
1748.0,0.0018008994804613629
1747.0,0.0018428377581545126
1746.0,0.001889060048770614
1745.0,0.0019292218052934951
1744.0,0.0019475230469874222
1743.0,0.0019292813733671611
1742.0,0.001898114245200872
1741.0,0.0018996985443890503
1740.0,0.0019459766265407605
1739.0,0.002004368121053102
1738.0,0.0020593960295075472
1737.0,0.0021221507880943525
1736.0,0.0021788880832486327
1735.0,0.002206946306701408
1734.0,0.002200025597418714
1733.0,0.002183286254702775
1732.0,0.002213692013081126
1731.0,0.002267587499284861
1730.0,0.00229844610963284
1729.0,0.0023099375507584226
1728.0,0.00232317941090214
1727.0,0.002348663715182831
1726.0,0.0023889558260041695
1725.0,0.002447867078236139
1724.0,0.002509995769128122
1723.0,0.002542955122730451
1722.0,0.0025582566573290923
1721.0,0.0025995797156957174
1720.0,0.0026780343602002352
1719.0,0.0027592787151446904
1718.0,0.0027916433934193456
1717.0,0.002748918700527906
1716.0,0.0026822001204074857
1715.0,0.002657760113069594
1714.0,0.0026892035912491528
1713.0,0.0027621233863880604
1712.0,0.002836255395847756
1711.0,0.00287859412341153
1710.0,0.002902604694419282
1709.0,0.0029496018672096613
1708.0,0.00303715301809287
1707.0,0.003142144162057079
1706.0,0.003239290510477117
1705.0,0.0033272472094407366
1704.0,0.003405630229474179
1703.0,0.0034683191388909535
1702.0,0.0035168827894315434
1701.0,0.0036302835303326335
1700.0,0.0038290686395629934
1699.0,0.003942786609702549
1698.0,0.003949518441956953
1697.0,0.0039646199419505965
1696.0,0.00407153203187311
1695.0,0.004241671814602857
1694.0,0.004418318716943424
1693.0,0.004580199030951591
1692.0,0.004711820000970577
1691.0,0.004822696874396673
1690.0,0.004946355394754629
1689.0,0.005098082134753433
1688.0,0.005244670437161842
1687.0,0.005346472380636099
1686.0,0.005407298477249035
1685.0,0.005542112445497614
1684.0,0.005786290974115294
1683.0,0.005970431632424358
1682.0,0.006121139396857967
1681.0,0.0062722770380700885
1680.0,0.006400852733463916
1679.0,0.006507636065986911
1678.0,0.006609895195621971
1677.0,0.006745919640051936
1676.0,0.006945308902663726
1675.0,0.00716152708247288
1674.0,0.007302609617823884
1673.0,0.007377917412641339
1672.0,0.007451707419882818
1671.0,0.007569539048200607
1670.0,0.007760270783182491
1669.0,0.007972213283644659
1668.0,0.008125483316826977
1667.0,0.008211179077720105
1666.0,0.008263459779778699
1665.0,0.008332843288275504
1664.0,0.00845972615630389
1663.0,0.008629796195752428
1662.0,0.00877786535888268
1661.0,0.008880697020193574
1660.0,0.008965577012969812
1659.0,0.00903212335694419
1658.0,0.009075528510233851
1657.0,0.00910301906915928
1656.0,0.009126796871688481
1655.0,0.009137434324184476
1654.0,0.009205500509671756
1653.0,0.009351957065347635
1652.0,0.009397244673780194
1651.0,0.009407936301708452
1650.0,0.00940513484496119
1649.0,0.00939312714338299
1648.0,0.009420468372753064
1647.0,0.009479645998051537
1646.0,0.009482971761034565
1645.0,0.009455817673533758
1644.0,0.009441975524874637
1643.0,0.009413105945620339
1642.0,0.009364107475241893
1641.0,0.009307906392538168
1640.0,0.00925390242576155
1639.0,0.009193876523524776
1638.0,0.009117191061350578
1637.0,0.009052818198342924
1636.0,0.009034795136989229
1635.0,0.009014964378665927
1634.0,0.008969350597300089
1633.0,0.008914110575233251
1632.0,0.008830262127846229
1631.0,0.008719931360425261
1630.0,0.008606515362329027
1629.0,0.00851272765946686
1628.0,0.008436721525776843
1627.0,0.008355455472764377
1626.0,0.00826132044156518
1625.0,0.008161708687598475
1624.0,0.008061134360872812
1623.0,0.007947007926902583
1622.0,0.007815902460351038
1621.0,0.007688036441256291
1620.0,0.007563049777263362
1619.0,0.007418537648250205
1618.0,0.007255238079390491
1617.0,0.007111399573348444
1616.0,0.007015758481527069
1615.0,0.0069689978731058335
1614.0,0.0069466277087784425
1613.0,0.006905141017876188
1612.0,0.006821081024611712
1611.0,0.006705111457632111
1610.0,0.006585955853577364
1609.0,0.0064839668121091515
1608.0,0.006399246125939806
1607.0,0.006325458654895878
1606.0,0.006262038374620185
1605.0,0.006207012974440382
1604.0,0.0061568855753473956
1603.0,0.006106623704870894
1602.0,0.006053260280799111
1601.0,0.005996132698999633
1600.0,0.005934146156308645
1599.0,0.0058705021704317855
1598.0,0.00581180597011695
1597.0,0.005756578610041818
1596.0,0.005692789769122662
1595.0,0.005620112610847909
1594.0,0.005562924795363113
1593.0,0.005538484298594047
1592.0,0.005529733656815219
1591.0,0.005507653192237303
1590.0,0.0054649052851435094
1589.0,0.0054139743399213075
1588.0,0.0053660876499167474
1587.0,0.005326912900978458
1586.0,0.005304323796410083
1585.0,0.005297798900789842
1584.0,0.005293358508091558
1583.0,0.005281571749014571
1582.0,0.005265110283438381
1581.0,0.005252500112322998
1580.0,0.005240919899975304
1579.0,0.00521734207117205
1578.0,0.005174297910564207
1577.0,0.005136310233491179
1576.0,0.005122573850692883
1575.0,0.005127537681850666
1574.0,0.0051605825874757255
1573.0,0.005200886696259257
1572.0,0.005218862397956231
1571.0,0.005226515388644366
1570.0,0.005263258518920627
1569.0,0.005316286574594614
1568.0,0.005342284081115467
1567.0,0.005338455215093169
1566.0,0.005326280983020684
1565.0,0.005330641587001416
1564.0,0.005358621466280033
1563.0,0.005381290310348851
1562.0,0.0053895720533896135
1561.0,0.005378626793809173
1560.0,0.005430063489794103
1559.0,0.005586220935480491
1558.0,0.005654425081781527
1557.0,0.005725804864624911
1556.0,0.0058124243841687585
1555.0,0.0058453468823770165
1554.0,0.005864143265688197
1553.0,0.005899257174962657
1552.0,0.0059458202825621595
1551.0,0.0059856799220188595
1550.0,0.0060248359961781045
1549.0,0.006071739211059983
1548.0,0.006105122209564147
1547.0,0.006105181394561836
1546.0,0.006083610712817711
1545.0,0.0060848358832676
1544.0,0.006110400910123038
1543.0,0.0061076367925258
1542.0,0.0060664779206911126
1541.0,0.0060836685855521905
1540.0,0.006151528992343579
1539.0,0.006139173026867544
1538.0,0.006118727738860241
1537.0,0.006129792656946164
1536.0,0.006123592288775188
1535.0,0.006094900732006853
1534.0,0.006097252117933345
1533.0,0.006167062230869573
1532.0,0.00623570662417707
1531.0,0.006246153922598901
1530.0,0.006213928155369053
1529.0,0.006185135779218726
1528.0,0.006179749754368724
1527.0,0.0061738513975023186
1526.0,0.006157107487215107
1525.0,0.006150316878991154
1524.0,0.00615345186253069
1523.0,0.006146356478653471
1522.0,0.0061647500221149315
1521.0,0.006231692554111169
1520.0,0.006279228616329914
1519.0,0.006276359313897537
1518.0,0.006262736470319967
1517.0,0.006297533422861608
1516.0,0.0063514535690421
1515.0,0.006353847346574097
1514.0,0.006319992356308994
1513.0,0.006291517771525593
1512.0,0.006274928977472937
1511.0,0.006234024916027493
1510.0,0.006168776128378028
1509.0,0.006128036072161346
1508.0,0.006185869594836179
1507.0,0.006262161199535227
1506.0,0.006241141294534949
1505.0,0.006267993468811199
1504.0,0.006314863808068897
1503.0,0.006297960740676151
1502.0,0.006266417011724068
1501.0,0.006278115579667166
1500.0,0.00633115232010828
1499.0,0.006347152891533977
1498.0,0.00630451146379773
1497.0,0.006303686997184088
1496.0,0.006369580800802412
1495.0,0.006405072900492664
1494.0,0.0064104837022008285
1493.0,0.006457718681894818
1492.0,0.0065574175782215655
1491.0,0.006656825635588899
1490.0,0.006741680618129162
1489.0,0.006867672089092797
1488.0,0.007012463491297052
1487.0,0.007103665928671647
1486.0,0.007173219009237846
1485.0,0.007280700694451402
1484.0,0.007410687167259325
1483.0,0.007531625784055005
1482.0,0.007692614748566395
1481.0,0.007975923624147823
1480.0,0.008357635372297167
1479.0,0.00881767961411906
1478.0,0.009599809419456746
1477.0,0.011165373373407998
1476.0,0.013811925360245052
1475.0,0.01738823249055916
1474.0,0.02157986718116771
1473.0,0.025393733932813082
1472.0,0.02709239906207187
1471.0,0.026849345406365882
1470.0,0.026352319285821164
1469.0,0.02629097948526924
1468.0,0.026599097484995105
1467.0,0.027253461491625334
1466.0,0.028595520583198135
1465.0,0.030817083401856134
1464.0,0.03292092786819224
1463.0,0.03357910880702189
1462.0,0.032612554733482714
1461.0,0.030523062262982417
1460.0,0.027797344337646163
1459.0,0.024873024063579278
1458.0,0.022106955819826943
1457.0,0.019859110760293227
1456.0,0.018422259620633378
1455.0,0.017608749005243274
1454.0,0.01698194302078592
1453.0,0.016301747438190257
1452.0,0.015565756768657655
1451.0,0.014916370422625065
1450.0,0.01442224566604327
1449.0,0.014010209506908476
1448.0,0.013617974031714171
1447.0,0.013292397820596604
1446.0,0.013066310578248962
1445.0,0.012886251432104
1444.0,0.012713632519026498
1443.0,0.012555553322599161
1442.0,0.01241242888606375
1441.0,0.012259585363198152
1440.0,0.012093596555847859
1439.0,0.011937307892995134
1438.0,0.01179240439643735
1437.0,0.011616281243786941
1436.0,0.01139491170954885
1435.0,0.011187963965131543
1434.0,0.011007102989107828
1433.0,0.010803651084391231
1432.0,0.010560772388127962
1431.0,0.010306387488915669
1430.0,0.010059465093000465
1429.0,0.009811243434594663
1428.0,0.00957103600907137
1427.0,0.00936663582092394
1426.0,0.009194606759679194
1425.0,0.00902870370296303
1424.0,0.00887656601678137
1423.0,0.008769234793051132
1422.0,0.008701737805034908
1421.0,0.00863316677485169
1420.0,0.0085488243223611
1419.0,0.008463675925414674
1418.0,0.008369786513437774
1417.0,0.008254856082240953
1416.0,0.008128740934963949
1415.0,0.008006658561132505
1414.0,0.007891326203793592
1413.0,0.007773933447468049
1412.0,0.0076561290632026595
1411.0,0.007549368993461656
1410.0,0.007446206405301614
1409.0,0.007327265119723814
1408.0,0.007191716692001285
1407.0,0.007056856308719354
1406.0,0.006925037671231676
1405.0,0.006778647385233212
1404.0,0.006628155369292921
1403.0,0.006507124799018745
1402.0,0.006416333045611792
1401.0,0.006330476621247487
1400.0,0.006245791697477904
1399.0,0.006176376953766679
1398.0,0.006110830694571372
1397.0,0.0060225916634264
1396.0,0.005918499826144558
1395.0,0.005835222999981175
1394.0,0.0057764420710260216
1393.0,0.005709797571973525
1392.0,0.005626631266803088
1391.0,0.005545363364242838
1390.0,0.005479241445834532
1389.0,0.005426703657736618
1388.0,0.005389825293512139
1387.0,0.005375904955421739
1386.0,0.005377314263111145
1385.0,0.0053876579744261775
1384.0,0.005429595531634699
1383.0,0.005536850929476995
1382.0,0.00571547331334493
1381.0,0.005937509389195744
1380.0,0.006166533417154854
1379.0,0.006360878631608178
1378.0,0.0064652595214191
1377.0,0.0064453892238179895
1376.0,0.006319345680484079
1375.0,0.0061441937759716195
1374.0,0.005983035308248921
1373.0,0.005877240617247996
1372.0,0.005832977799805605
1371.0,0.005826815120516677
1370.0,0.005822020816151416
1369.0,0.005786751992063377
1368.0,0.005718803967397537
1367.0,0.005637640996536767
1366.0,0.00554665336743743
1365.0,0.005428905148745049
1364.0,0.005278616946749337
1363.0,0.005116695029951004
1362.0,0.0049701214449384915
1361.0,0.004850748819321595
1360.0,0.004762187139454682
1359.0,0.004704921176808092
1358.0,0.004668182474336475
1357.0,0.004634905844494095
1356.0,0.004602257451830771
1355.0,0.004580877702183307
1354.0,0.0045680864549955515
1353.0,0.004545828043986672
1352.0,0.004506068372596303
1351.0,0.004455807375982455
1350.0,0.004394916438721133
1349.0,0.004314064673709332
1348.0,0.004222265930410136
1347.0,0.0041446228691130625
1346.0,0.0040906561451185125
1345.0,0.004046949961298936
1344.0,0.00400368344777278
1343.0,0.003964166576462741
1342.0,0.003925214410424658
1341.0,0.0038700296536307733
1340.0,0.0037915845602034216
1339.0,0.0037084346722661664
1338.0,0.0036391193871173127
1337.0,0.0035790877729684305
1336.0,0.003519551913996946
1335.0,0.0034627160317531455
1334.0,0.0034103109823142358
1333.0,0.003359738550874663
1332.0,0.00331659716625064
1331.0,0.0032925973090424466
1330.0,0.0032841533923792894
1329.0,0.0032723722472648995
1328.0,0.0032507532896963506
1327.0,0.0032341598753531558
1326.0,0.0032343195632743276
1325.0,0.0032444280540807943
1324.0,0.003254555052528806
1323.0,0.0032636253830774222
1322.0,0.003272039881953015
1321.0,0.0032773226444052454
1320.0,0.0032826876551179576
1319.0,0.0032969098954969567
1318.0,0.0033208284546903328
1317.0,0.003346354319044743
1316.0,0.0033696954806212475
1315.0,0.0033920496336083353
1314.0,0.0034100180533157085
1313.0,0.003419851632163252
1312.0,0.003428722872272261
1311.0,0.0034464393393715464
1310.0,0.003468613941852546
1309.0,0.0034839685723708803
1308.0,0.0034927535429643795
1307.0,0.0035023024114736413
1306.0,0.003508393013997191
1305.0,0.003500787538194941
1304.0,0.0034863821355731175
1303.0,0.003484060621861007
1302.0,0.003495261881405356
1301.0,0.0034987643865599227
1300.0,0.0034795498530784674
1299.0,0.0034450675321328374
1298.0,0.003408682994043874
1297.0,0.0033738165846508364
1296.0,0.003340809971723967
1295.0,0.0033142821505848285
1294.0,0.0032952640349352023
1293.0,0.003277732831079831
1292.0,0.003258076921686499
1291.0,0.0032382722455264346
1290.0,0.0032175676857789173
1289.0,0.0031922989657469847
1288.0,0.003166776464757815
1287.0,0.003152683266506283
1286.0,0.003154044178943518
1285.0,0.0031634541772074896
1284.0,0.0031744341245677054
1283.0,0.003186290674038488
1282.0,0.003196986692375411
1281.0,0.0032025183735742537
1280.0,0.0032048657396888834
1279.0,0.0032106531882236267
1278.0,0.0032212155360026367
1277.0,0.0032335490016032085
1276.0,0.003249579860168407
1275.0,0.003274106745080314
1274.0,0.003304717638109282
1273.0,0.0033347830691005846
1272.0,0.0033652107587727135
1271.0,0.0034021693084231785
1270.0,0.0034445445057937575
1269.0,0.0034857265194289623
1268.0,0.003526308151840865
1267.0,0.0035722350057890585
1266.0,0.003621644364031046
1265.0,0.0036653483517025236
1264.0,0.0036994554527939915
1263.0,0.0037278838974810317
1262.0,0.0037551218215979643
1261.0,0.0037864603285871776
1260.0,0.0038320416405372704
1259.0,0.003898521973288248
1258.0,0.003978746924869309
1257.0,0.0040603952249445244
1256.0,0.004139641584705391
1255.0,0.004216286410221854
1254.0,0.004282876152315996
1253.0,0.004332572250128664
1252.0,0.004374012390228585
1251.0,0.004424737191031047
1250.0,0.004491399095535975
1249.0,0.00456801666686836
1248.0,0.004650696035410294
1247.0,0.004740511668789367
1246.0,0.004833083273192906
1245.0,0.00491816239903437
1244.0,0.004990173550913208
1243.0,0.005050980403657852
1242.0,0.0051042530970336585
1241.0,0.005154750173399839
1240.0,0.005208999566610757
1239.0,0.005267332226683083
1238.0,0.005319215658012492
1237.0,0.005356905409618112
1236.0,0.0053901510072268365
1235.0,0.005436441890768381
1234.0,0.005498400427009317
1233.0,0.005560759811101431
1232.0,0.00560902471247045
1231.0,0.00564269984478624
1230.0,0.005671698586277571
1229.0,0.005707072712523329
1228.0,0.005753377954972265
1227.0,0.00580382171022204
1226.0,0.0058452028816341536
1225.0,0.005872597100126671
1224.0,0.005894360077098839
1223.0,0.005918135116408235
1222.0,0.005940459932209116
1221.0,0.005957477642102603
1220.0,0.005976424356851586
1219.0,0.006004978379069435
1218.0,0.006035962608909127
1217.0,0.0060556518681884955
1216.0,0.006062739608447405
1215.0,0.006067020222870513
1214.0,0.00607361635809062
1213.0,0.006081087176661141
1212.0,0.006092522892036175
1211.0,0.0061155537801699
1210.0,0.006151255710510912
1209.0,0.006193438218794924
1208.0,0.006238393785989
1207.0,0.006286157700619532
1206.0,0.006333574442842393
1205.0,0.006374778101630603
1204.0,0.00640738860694203
1203.0,0.006431863788244754
1202.0,0.006448573241402409
1201.0,0.006462424883432023
1200.0,0.006484926196625263
1199.0,0.00652193818706262
1198.0,0.006563181831564532
1197.0,0.006594098512950539
1196.0,0.006614719903576932
1195.0,0.006636835603590331
1194.0,0.006665491596613754
1193.0,0.006694417248412373
1192.0,0.006719385046522896
1191.0,0.006745817927765765
1190.0,0.006781267776259398
1189.0,0.0068270103059960355
1188.0,0.006877923742841364
1187.0,0.006926153386890437
1186.0,0.006967562116553487
1185.0,0.007009156176247356
1184.0,0.007064927252453853
1183.0,0.007137385516029623
1182.0,0.007208083751059998
1181.0,0.007255993346744162
1180.0,0.007282754001237185
1179.0,0.007310746760948859
1178.0,0.007357578444559755
1177.0,0.00742190123956947
1176.0,0.007493519236575383
1175.0,0.007566974778807998
1174.0,0.0076420396990226815
1173.0,0.007716747933877933
1172.0,0.007783885084463687
1171.0,0.007834535344771461
1170.0,0.007866953274194606
1169.0,0.007891936924382196
1168.0,0.007924812050778213
1167.0,0.007970092888804419
1166.0,0.008018888084704447
1165.0,0.008063862938605719
1164.0,0.008110307399036096
1163.0,0.008167488570840285
1162.0,0.008233868377894858
1161.0,0.008296646333322402
1160.0,0.00834399938230842
1159.0,0.008375223009355967
1158.0,0.008402114177703115
1157.0,0.008440830604836257
1156.0,0.008496756978813896
1155.0,0.008556191881106522
1154.0,0.008598964109236414
1153.0,0.008620992737279879
1152.0,0.008637945608094647
1151.0,0.008666353871909827
1150.0,0.008710520624360552
1149.0,0.008769060459708572
1148.0,0.008841125125749394
1147.0,0.008919302940935105
1146.0,0.008988075980192928
1145.0,0.009039494203748158
1144.0,0.009083407854570319
1143.0,0.00913421868557094
1142.0,0.009193559885592499
1141.0,0.009253494783897058
1140.0,0.009310830350466696
1139.0,0.009369785119869266
1138.0,0.009434740465282615
1137.0,0.009507901295850168
1136.0,0.009590876638428428
1135.0,0.009681931445449593
1134.0,0.009774375404171974
1133.0,0.009863151959734962
1132.0,0.009950350534832987
1131.0,0.010040936733870843
1130.0,0.01013727142232847
1129.0,0.01024099991389325
1128.0,0.010355154285115223
1127.0,0.01047946755813785
1126.0,0.01060767957488146
1125.0,0.010734760466570278
1124.0,0.010864579895766974
1123.0,0.011007378945156158
1122.0,0.011171557727797333
1121.0,0.011358713088855036
1120.0,0.01156351165402837
1119.0,0.011777957879591013
1118.0,0.011998954386682975
1117.0,0.012229224158471164
1116.0,0.012465223395774317
1115.0,0.012688591696577548
1114.0,0.012880411147057062
1113.0,0.013043702717584458
1112.0,0.013201948891055006
1111.0,0.013374337854297709
1110.0,0.013558011755648927
1109.0,0.01373317075639503
1108.0,0.0138790718589063
1107.0,0.013987942672753238
1106.0,0.014071497973553702
1105.0,0.014151563309044435
1104.0,0.014240260579322279
1103.0,0.014333344237681588
1102.0,0.014423039481838432
1101.0,0.014507508260182576
1100.0,0.014582998454964257
1099.0,0.014640346866257512
1098.0,0.014679372729145396
1097.0,0.014716514925533261
1096.0,0.014768214976081235
1095.0,0.014833602157170386
1094.0,0.014901698470260814
1093.0,0.014966727991829857
1092.0,0.015027985707410346
1091.0,0.015083945659246617
1090.0,0.01513622172824038
1089.0,0.015191345483039128
1088.0,0.015250558399565177
1087.0,0.015305808296779203
1086.0,0.015351879235989713
1085.0,0.015392141560049557
1084.0,0.015426460638877072
1083.0,0.015447143146699135
1082.0,0.015454524506219793
1081.0,0.015460765011442276
1080.0,0.015467704507689237
1079.0,0.015456106269291857
1078.0,0.015410075250537288
1077.0,0.015339749407849747
1076.0,0.01526761507004987
1075.0,0.01520441909400556
1074.0,0.015149011431505335
1073.0,0.015100001535244947
1072.0,0.01505628631001647
1071.0,0.015014987893450286
1070.0,0.01497786740570211
1069.0,0.014950265417083643
1068.0,0.014927163388049516
1067.0,0.01489336512827722
1066.0,0.014845823314770076
1065.0,0.014801121876406611
1064.0,0.01476975411511424
1063.0,0.014736849888799669
1062.0,0.01468197587054743
1061.0,0.014607850125384056
1060.0,0.014535485341488342
1059.0,0.0144774967204284
1058.0,0.014428097462609406
1057.0,0.01437561681072217
1056.0,0.014316047721820019
1055.0,0.014257105524745045
1054.0,0.014214221278575374
1053.0,0.01419735455544826
1052.0,0.014198326135756653
1051.0,0.014199710673304305
1050.0,0.014198887668114498
1049.0,0.014208428234301313
1048.0,0.014229646098179644
1047.0,0.014247328444386687
1046.0,0.014256329774916643
1045.0,0.01427089676760299
1044.0,0.014298952911753891
1043.0,0.01432664061717438
1042.0,0.014341270402880933
1041.0,0.014355871226111115
1040.0,0.014395718713592267
1039.0,0.014469016937797556
1038.0,0.014563538298509385
1037.0,0.014663830773554792
1036.0,0.014757966847065335
1035.0,0.014833875344884083
1034.0,0.014884247284320199
1033.0,0.014912650972410357
1032.0,0.01492425847067523
1031.0,0.014913556458613194
1030.0,0.014869351183765579
1029.0,0.014787112191025999
1028.0,0.014668661713551811
1027.0,0.014515248740549335
1026.0,0.014328354267299725
1025.0,0.014113807194523209
1024.0,0.01388124441098297
1023.0,0.013642804934501502
1022.0,0.013412069668387365
1021.0,0.013198651906716565
1020.0,0.013004801175741577
1019.0,0.01283286653449095
1018.0,0.01269258129801033
1017.0,0.01259221971580141
1016.0,0.012525307078132857
1015.0,0.012477677005919278
1014.0,0.012447962536232229
1013.0,0.01244895050147148
1012.0,0.0124856505651713
1011.0,0.012543565781440964
1010.0,0.012603328214806378
1009.0,0.012655137357490024
1008.0,0.01269145436477867
1007.0,0.012696399272343915
1006.0,0.012652826239844234
1005.0,0.012553735338789201
1004.0,0.012400017178085046
1003.0,0.012195522312664148
1002.0,0.011951587651610755
1001.0,0.011687841385282768
1000.0,0.011420972640441035
999.0,0.011157480769132826
998.0,0.010899255472624764
997.0,0.01064785743932982
996.0,0.010400702758854826
995.0,0.010152985957279634
994.0,0.00990887017321077
993.0,0.009682233429267353
992.0,0.00947951897046139
991.0,0.009289460650281908
990.0,0.009098772353114399
989.0,0.008911972280631389
988.0,0.008743767325931656
987.0,0.008593712553008908
986.0,0.008440981713640763
985.0,0.00826793980872477
984.0,0.00808049020685481
983.0,0.007900437490901824
982.0,0.007742536613903445
981.0,0.007602861485322847
980.0,0.007466521062900229
979.0,0.007322706284124141
978.0,0.007173669226625471
977.0,0.0070310930418129285
976.0,0.006901672227236401
975.0,0.0067757541045090595
974.0,0.006635080871927058
973.0,0.00647465496322101
972.0,0.00631164746217306
971.0,0.0061676775056250625
970.0,0.006046382697823066
969.0,0.005934926696049109
968.0,0.005823970165874019
967.0,0.005716071904025418
966.0,0.005613851407081056
965.0,0.005510027324754601
964.0,0.005394543260419963
963.0,0.005265927636621046
962.0,0.00513146904450012
961.0,0.005001076701934424
960.0,0.004885245843506194
959.0,0.00479370625990673
958.0,0.004728473104486248
957.0,0.004679167000646613
956.0,0.004630075553735884
955.0,0.004572499838305644
954.0,0.004509263612977451
953.0,0.004448682730915065
952.0,0.004395962751419926
951.0,0.004350033652537451
950.0,0.004307655971456308
949.0,0.004270244596573625
948.0,0.0042447203864341004
947.0,0.0042355196183130675
946.0,0.0042375840144959
945.0,0.004240211786117557
944.0,0.004235926149080967
943.0,0.004222280852866319
942.0,0.004198331538059855
941.0,0.004165580330350596
940.0,0.004131965355671752
939.0,0.004109025860690063
938.0,0.004102606054499511
937.0,0.004107905125408252
936.0,0.004112555206333862
935.0,0.004102247623258231
934.0,0.004067786728693568
933.0,0.004013322630244006
932.0,0.003956042313991657
931.0,0.003911942722768288
930.0,0.003882710999142412
929.0,0.0038612387343450114
928.0,0.0038462490029720717
927.0,0.0038424961128351656
926.0,0.003848651501690066
925.0,0.0038565213634257443
924.0,0.003863708875429646
923.0,0.0038767453659237696
922.0,0.0038992962154721107
921.0,0.0039267686634608945
920.0,0.003955331016736197
919.0,0.003986511093527665
918.0,0.00401945836361791
917.0,0.004048801692502855
916.0,0.004074481588878236
915.0,0.004103154153959582
914.0,0.004132857707564034
913.0,0.004145427340593909
912.0,0.00412302418843717
911.0,0.004065969614154265
910.0,0.003986747030927043
909.0,0.003893582487495847
908.0,0.0037901902257007885
907.0,0.003684882852135217
906.0,0.0035854590004547153
905.0,0.0034867823689374803
904.0,0.0033755781465044394
903.0,0.003247834743320222
902.0,0.003113241003971403
901.0,0.0029851078719873754
900.0,0.002875272650459648
899.0,0.0027936957594448834
898.0,0.0027381819393609997
897.0,0.002686729286175497
896.0,0.0026155333727728323
895.0,0.0025264340910569373
894.0,0.002444346394191399
893.0,0.002385896852693474
892.0,0.002344125144527859
891.0,0.002306987960933364
890.0,0.0022757695698068176
889.0,0.0022570707986968638
888.0,0.002247911944898472
887.0,0.0022398154278251044
886.0,0.0022318352588876437
885.0,0.002229904013362649
884.0,0.0022367277748733573
883.0,0.0022514757482166746
882.0,0.002278665493957421
881.0,0.002328728001476402
880.0,0.002406146285405828
879.0,0.0025005854353380317
878.0,0.0025936812780514695
877.0,0.002675297045237459
876.0,0.0027513466932370077
875.0,0.0028329381808555806
874.0,0.002915184395254054
873.0,0.0029676324175476982
872.0,0.0029505856826709956
871.0,0.0028449193042417043
870.0,0.0026666441738316983
869.0,0.0024544701900630376
868.0,0.0022508717606475985
867.0,0.002094325323942419
866.0,0.0020103730751431176
865.0,0.0019938773112742007
864.0,0.0020046807838921396
863.0,0.001993590660905562
862.0,0.0019381324047737375
861.0,0.0018516661170436058
860.0,0.0017602017847724114
859.0,0.001678063385724255
858.0,0.0016055903783065671
857.0,0.0015398625749712064
856.0,0.0014795918440355417
855.0,0.001421191994852796
854.0,0.0013570081531332524
853.0,0.0012825175939827557
852.0,0.0012053302256559897
851.0,0.001142825768670721
850.0,0.001106494670234953
849.0,0.001089608617202223
848.0,0.0010757422047651668
847.0,0.0010601246362995607
846.0,0.0010558366697753395
845.0,0.0010744711351495457
844.0,0.001106275505045557
843.0,0.0011275622146133544
842.0,0.0011268534227364237
841.0,0.0011156352995839924
840.0,0.0011116447294938943
839.0,0.0011203144093533965
838.0,0.0011372569357258715
837.0,0.0011600345178085173
836.0,0.0011874928576844721
835.0,0.0012120790879271114
834.0,0.0012257183358016597
833.0,0.0012350741402898345
832.0,0.0012593304044006695
831.0,0.001305350626019542
830.0,0.0013510813839962164
829.0,0.0013634511153349568
828.0,0.0013334635619123248
827.0,0.0012878382178634854
826.0,0.0012636904221286797
825.0,0.0012751433930706978
824.0,0.0013077284377958024
823.0,0.0013401615662923666
822.0,0.0013643715538187232
821.0,0.0013851955368433212
820.0,0.0014088876647146507
819.0,0.0014369701289649829
818.0,0.001467264266136966
817.0,0.001496344736376813
816.0,0.0015220865915886563
815.0,0.0015470423763768535
814.0,0.001578364760132095
813.0,0.0016200862016091284
812.0,0.0016649173900242448
811.0,0.0016980552315273255
810.0,0.0017112434551205319
809.0,0.0017105939793172834
808.0,0.00171043394200759
807.0,0.0017231901430257894
806.0,0.0017548390122117362
805.0,0.0018031089726180888
804.0,0.0018561499893782968
803.0,0.0018977251131257868
802.0,0.0019189145953925606
801.0,0.0019239528045332408
800.0,0.00192438617622413
799.0,0.0019315042742567758
798.0,0.001952168754463422
797.0,0.0019829493353776
796.0,0.002007638851354866
795.0,0.0020107327658719096
794.0,0.0019976753739070216
793.0,0.001991045888313861
792.0,0.0020002603612871636
791.0,0.0020073422315518927
790.0,0.0019927547916013177
789.0,0.0019651903003015253
788.0,0.0019528175805106577
787.0,0.0019696453193174266
786.0,0.002001840428689317
785.0,0.002025257706937329
784.0,0.002025807590817749
783.0,0.002003519058868394
782.0,0.0019679981699269678
781.0,0.0019326176455563438
780.0,0.0019065798724005704
779.0,0.0018892149165428305
778.0,0.0018725652065287555
777.0,0.0018485744426181118
776.0,0.0018137711160308755
775.0,0.0017726887328070474
774.0,0.0017395883476809875
773.0,0.00172906412594632
772.0,0.0017393241843825106
771.0,0.0017511852521137844
770.0,0.0017507322982222278
769.0,0.001747378331997472
768.0,0.0017599946405769049
767.0,0.001789247076776127
766.0,0.001814481164203261
765.0,0.0018178994256855662
764.0,0.001803781881367034
763.0,0.0017936252632447403
762.0,0.0018082955703859543
761.0,0.0018539026760377667
760.0,0.0019196079149801214
759.0,0.0019885847049818904
758.0,0.0020519087824807537
757.0,0.0021085041309280373
756.0,0.0021522715885095517
755.0,0.0021699520762415853
754.0,0.002158366932089431
753.0,0.0021341895654832044
752.0,0.002116859577485859
751.0,0.0021084255191222935
750.0,0.002098332193787883
749.0,0.002082090570836234
748.0,0.002068030106723735
747.0,0.002070451082247046
746.0,0.0021006787966591717
745.0,0.0021571580911006177
744.0,0.0022193252782785307
743.0,0.002262181190114938
742.0,0.0022857188666623417
741.0,0.0023214551962167512
740.0,0.0024022905244864053
739.0,0.0025333612201291385
738.0,0.00269663239563255
737.0,0.0028786812629720254
736.0,0.00311041291953555
735.0,0.003517877081406603
734.0,0.004326183212931708
733.0,0.005721475020482493
732.0,0.007603837897351567
731.0,0.009461522766579283
730.0,0.010608900393916751
729.0,0.01069700547722724
728.0,0.009992288772289314
727.0,0.009112823590345171
726.0,0.00856089102817651
725.0,0.008533329249854352
724.0,0.00906910827143207
723.0,0.010246806042960889
722.0,0.012146255732372279
721.0,0.01454487589807155
720.0,0.016666089537101497
719.0,0.017520839072983307
718.0,0.016727630540229937
717.0,0.014758072855964064
716.0,0.012386797650938242
715.0,0.01018087589898584
714.0,0.008383225962880906
713.0,0.0070208653990021
712.0,0.006037331896865509
711.0,0.005348179196468197
710.0,0.004852341751526991
709.0,0.004463337848645697
708.0,0.00414010711493667
707.0,0.003872462671625044
706.0,0.003648709449212976
705.0,0.0034544954656105086
704.0,0.0032890298057492787
703.0,0.003158337336051909
702.0,0.003058345757915637
701.0,0.0029818696708693755
700.0,0.0029316574280350786
699.0,0.002906948664875302
698.0,0.0028845144374379603
697.0,0.0028341733597453435
696.0,0.00275345038934997
695.0,0.002669600227689658
694.0,0.002606501553786304
693.0,0.002562989556504962
692.0,0.002522245007901611
691.0,0.0024696052597285977
690.0,0.0023998104789464385
689.0,0.002319465677987659
688.0,0.0022471299861225816
687.0,0.0022014446727282103
686.0,0.002183556416760192
685.0,0.002172382685887717
684.0,0.0021379698098016233
683.0,0.00206484568379689
682.0,0.0019725176466315157
681.0,0.001910070420975761
680.0,0.0019131736516531175
679.0,0.0019625721226761653
678.0,0.0019997049855910234
677.0,0.0019919489159847693
676.0,0.001963394078399459
675.0,0.00196007883344982
674.0,0.0019916782719111396
673.0,0.0020215020757572023
672.0,0.0020068937609766437
671.0,0.0019415304605254376
670.0,0.0018501091720404886
669.0,0.0017919314292700484
668.0,0.0018289702353091863
667.0,0.0019099832271335312
666.0,0.001954512352995848
665.0,0.0019570930728676373
664.0,0.0019296147225808333
663.0,0.0018680316072727972
662.0,0.0017672721113042144
661.0,0.001649964388040175
660.0,0.0015548177061705248
659.0,0.0015000770329295634
658.0,0.0014792339418812344
657.0,0.0014890618040455505
656.0,0.001536912387202838
655.0,0.0016118950231851503
654.0,0.0016735434228756802
653.0,0.0016933206382915515
652.0,0.0016904974100588575
651.0,0.0017019044809858629
650.0,0.0017271600776485596
649.0,0.0017248997768629735
648.0,0.0016634732300435367
647.0,0.0015582324160009417
646.0,0.0014564781120291036
645.0,0.0013954313655789828
644.0,0.0013769486878792998
643.0,0.0013730981140554583
642.0,0.0013558733039185202
641.0,0.0013274456547198435
640.0,0.0013126482603247206
639.0,0.0013189271049130983
638.0,0.0013195207580255714
637.0,0.0012863547048198292
636.0,0.0012245594857824204
635.0,0.0011626483257411021
634.0,0.0011194408518219404
633.0,0.0010950144291991927
632.0,0.001087952383888562
631.0,0.0011008625850978636
630.0,0.0011309857053001214
629.0,0.0011720149063444733
628.0,0.001221371401019384
627.0,0.0012707302594573968
626.0,0.0012952515093353498
625.0,0.0012739369180608529
624.0,0.0012202071569634128
623.0,0.001177904355414934
622.0,0.0011856821847658974
621.0,0.00124931037460129
620.0,0.0013425356164474735
619.0,0.0014214979466162202
618.0,0.001447543572614677
617.0,0.0014156334588440438
616.0,0.0013581441003626543
615.0,0.00131332503688022
614.0,0.0012983982399860528
613.0,0.001314888829540747
612.0,0.0013606012127222698
611.0,0.0014225998027455281
610.0,0.001470863665978709
609.0,0.001478330446188626
608.0,0.0014435930486937486
607.0,0.0013846985560147188
606.0,0.0013171884017733441
605.0,0.0012498964862479329
604.0,0.0012025491070140632
603.0,0.0012079946415388294
602.0,0.0012807176456894678
601.0,0.0013896574786563948
600.0,0.0014748949134019314
599.0,0.00149878230724999
598.0,0.0014807505969522197
597.0,0.001467152514470313
596.0,0.0014679752859548673
595.0,0.0014412636686059604
594.0,0.0013481853041568837
593.0,0.001211386751242079
592.0,0.0011015120025206163
591.0,0.001064956864858706
590.0,0.0010796760017661566
589.0,0.0010943890101640982
588.0,0.001087392017195734
587.0,0.0010757447511905317
586.0,0.0010863762837052138
585.0,0.0011222991301480401
584.0,0.0011515454525243846
583.0,0.0011320661630982772
582.0,0.0010630801585230758
581.0,0.0010071197554896022
580.0,0.0010290276107567439
579.0,0.0011097602138316863
578.0,0.0011544475980494028
577.0,0.0010986256749699434
576.0,0.0009858426563467866
575.0,0.00092560542216533
574.0,0.0009746392947002202
573.0,0.0010939362243243995
572.0,0.0012219258824548006
571.0,0.0013382419957665235
570.0,0.0014601707546058069
569.0,0.0015950384120179736
568.0,0.00170242909518881
567.0,0.0017304498327049469
566.0,0.001689785617263878
565.0,0.0016385321177624177
564.0,0.0015911907272235255
563.0,0.0015055064994312691
562.0,0.0013689331191925093
561.0,0.0012335158949728208
560.0,0.0011403849625271929
559.0,0.0010675343625262228
558.0,0.0009881202559267263
557.0,0.0009317892606517404
556.0,0.0009413474180535661
555.0,0.0010036628847684848
554.0,0.0010666540524040622
553.0,0.0011152461100699812
552.0,0.0011670129902462377
551.0,0.001209932335010688
550.0,0.0012111655478305623
