cm-1,A
4000.0,0.0035121442524671254
3999.0,0.0035174672373902392
3998.0,0.0035239915483890405
3997.0,0.0035300159724748394
3996.0,0.003535166819465062
3995.0,0.003539361440802225
3994.0,0.003542007536486087
3993.0,0.003542215777422462
3992.0,0.003539782022127797
3991.0,0.003535653178718315
3990.0,0.0035316556591360668
3989.0,0.003529771189018753
3988.0,0.0035307748403881336
3987.0,0.003533863099015126
3986.0,0.003537346269211728
3985.0,0.0035395610176253605
3984.0,0.003539702567599309
3983.0,0.003538285557975907
3982.0,0.003537545591091788
3981.0,0.003540055470016789
3980.0,0.0035466886952296075
3979.0,0.0035562160576364348
3978.0,0.0035662980560475987
3977.0,0.00357511176617683
3976.0,0.00358156284240311
3975.0,0.003584818836398225
3974.0,0.0035841403548456264
3973.0,0.0035794624945570995
3972.0,0.003571705322840793
3971.0,0.003561900345297858
3970.0,0.00355105474804486
3969.0,0.0035409869880750552
3968.0,0.003534507365238664
3967.0,0.003533905232631057
3966.0,0.0035391693529631084
3965.0,0.003547649591398757
3964.0,0.0035556193363035027
3963.0,0.003560553072747167
3962.0,0.0035613608993571846
3961.0,0.00355777266721606
3960.0,0.0035503085590708854
3959.0,0.003540457999238051
3958.0,0.0035315817029152744
3957.0,0.0035276833765069482
3956.0,0.0035302799665024595
3955.0,0.0035364433854724042
3954.0,0.0035408027974937507
3953.0,0.0035402571280762933
3952.0,0.0035361994251912375
3951.0,0.0035317432900629454
3950.0,0.0035284139441411067
3949.0,0.003524885809046349
3948.0,0.003519946614357142
3947.0,0.0035150949862786237
3946.0,0.0035117967308958683
3945.0,0.0035112228987523326
3944.0,0.0035140596590859195
3943.0,0.00352110099104819
3942.0,0.0035342410055910914
3941.0,0.003551094218143219
3940.0,0.0035646510504419157
3939.0,0.003569844919953034
3938.0,0.003569292405552399
3937.0,0.0035710393854951885
3936.0,0.003579498263011398
3935.0,0.003590766328769864
3934.0,0.0035950893455440804
3933.0,0.0035862113445640775
3932.0,0.0035664225476608686
3931.0,0.0035456007810808115
3930.0,0.0035337020524739537
3929.0,0.003532088106762008
3928.0,0.0035357701740071955
3927.0,0.0035382892915388608
3926.0,0.0035363683352601667
3925.0,0.003531839222236664
3924.0,0.0035317775534869367
3923.0,0.0035436849724756877
3922.0,0.0035665552722569088
3921.0,0.003592307581257034
3920.0,0.003612476555812958
3919.0,0.0036215213072371567
3918.0,0.0036181321079882117
3917.0,0.003603891445895487
3916.0,0.0035845320382606113
3915.0,0.003567953537976073
3914.0,0.003557514587430143
3913.0,0.0035517232671726778
3912.0,0.0035480797570026134
3911.0,0.003545558780860157
3910.0,0.0035449059943653237
3909.0,0.0035457599129238996
3908.0,0.003547232922130629
3907.0,0.0035502504043578307
3906.0,0.003558303028312379
3905.0,0.0035729204750799045
3904.0,0.0035902298014063245
3903.0,0.00360110991301971
3902.0,0.003596429579915548
3901.0,0.0035747289089416608
3900.0,0.003544755894380053
3899.0,0.0035234580357703825
3898.0,0.0035235262821493455
3897.0,0.00354157068202753
3896.0,0.0035649711663649046
3895.0,0.0035820358658968836
3894.0,0.003586366931496909
3893.0,0.003578696885544263
3892.0,0.003566660155121139
3891.0,0.0035621522475505502
3890.0,0.003570995433226678
3889.0,0.003587200575816526
3888.0,0.0036011207826926236
3887.0,0.0036053664694365977
3886.0,0.0035995536704517004
3885.0,0.00359209304170883
3884.0,0.003587850112204022
3883.0,0.003577597769828849
3882.0,0.003548465114312266
3881.0,0.0035052799973032712
3880.0,0.0034758358860698235
3879.0,0.003479674605488578
3878.0,0.003504407683732366
3877.0,0.0035253760600447524
3876.0,0.0035290490360475046
3875.0,0.003519174810486088
3874.0,0.0035129022265327475
3873.0,0.0035245827120432907
3872.0,0.003549352730131924
3871.0,0.0035660659054738038
3870.0,0.0035629532348970747
3869.0,0.003554106833202725
3868.0,0.0035558533621379935
3867.0,0.003563128927373863
3866.0,0.003558447550351916
3865.0,0.0035318053178053036
3864.0,0.0034968314454307103
3863.0,0.003478535600285439
3862.0,0.0034854632507830404
3861.0,0.0035057006197018797
3860.0,0.0035232976275641568
3859.0,0.003531310727552496
3858.0,0.00353348429133204
3857.0,0.0035377331380688
3856.0,0.003549714484988976
3855.0,0.003564574512521638
3854.0,0.003574349136951584
3853.0,0.0035772774013134515
3852.0,0.003576864310167069
3851.0,0.0035727623045335643
3850.0,0.0035640217463792367
3849.0,0.00355264190621818
3848.0,0.0035407143066319494
3847.0,0.003529921644764256
3846.0,0.003520725898845503
3845.0,0.0035121913419153532
3844.0,0.0035057632400145597
3843.0,0.003503798647895396
3842.0,0.003508207493984548
3841.0,0.0035168793921532705
3840.0,0.0035224117114938938
3839.0,0.003519594270621077
3838.0,0.0035143563242178736
3837.0,0.0035146680029981845
3836.0,0.003519195235995265
3835.0,0.0035205803385211292
3834.0,0.003516359931040239
3833.0,0.003509704511251705
3832.0,0.0035051457001832025
3831.0,0.0035058882763407996
3830.0,0.003511247120465133
3829.0,0.0035174066678865246
3828.0,0.003520526970369842
3827.0,0.0035205872935837297
3826.0,0.0035224231716219747
3825.0,0.0035316589915729626
3824.0,0.0035470508938004863
3823.0,0.0035558923105025765
3822.0,0.0035449014987482645
3821.0,0.003519582471618191
3820.0,0.003505679769702865
3819.0,0.003515438481339476
3818.0,0.0035373226567558553
3817.0,0.003550197450709067
3816.0,0.0035410419651955615
3815.0,0.003520580790687699
3814.0,0.0035089824250756343
3813.0,0.0035133440636344604
3812.0,0.003528039498871382
3811.0,0.0035445851555940093
3810.0,0.003557485454526322
3809.0,0.003563262677097335
3808.0,0.0035571848069051266
3807.0,0.003542165512854599
3806.0,0.0035328983373736963
3805.0,0.0035405010997924544
3804.0,0.0035617685842900468
3803.0,0.0035787394558666266
3802.0,0.0035737003204019038
3801.0,0.0035563221352531487
3800.0,0.0035494031348425933
3799.0,0.00355260695266528
3798.0,0.0035498027710070207
3797.0,0.003532899346444715
3796.0,0.0035119172406490543
3795.0,0.003502651787992678
3794.0,0.0035080770431044923
3793.0,0.003518748310905228
3792.0,0.0035257990785507003
3791.0,0.003527980460290807
3790.0,0.0035290367517428105
3789.0,0.0035307138421804014
3788.0,0.003529602098460519
3787.0,0.003522340069755864
3786.0,0.003510839244640329
3785.0,0.0035012223424180193
3784.0,0.0034985587317160737
3783.0,0.0035037562897410387
3782.0,0.0035130305021680176
3781.0,0.00352122174066491
3780.0,0.0035251405365958445
3779.0,0.0035276499795188557
3778.0,0.0035345448295922453
3777.0,0.003545316950714139
3776.0,0.0035541176309504202
3775.0,0.0035572107333327937
3774.0,0.0035575844399665874
3773.0,0.0035603915117051526
3772.0,0.0035653209866264163
3771.0,0.0035662914171967043
3770.0,0.003563123274267898
3769.0,0.0035638273556436208
3768.0,0.0035701110200242045
3767.0,0.0035748358061106315
3766.0,0.0035739627981218897
3765.0,0.003573407818216745
3764.0,0.0035817833176236312
3763.0,0.003598651729432219
3762.0,0.0036143717047822524
3761.0,0.0036185649932645707
3760.0,0.003608872986516053
3759.0,0.0035953827614045577
3758.0,0.0035910520698685033
3757.0,0.0036001667961825263
3756.0,0.0036184546919734014
3755.0,0.003642440743371016
3754.0,0.00367098175657479
3753.0,0.0037027654523291605
3752.0,0.0037310020216116445
3751.0,0.003745748520603865
3750.0,0.0037479093950022746
3749.0,0.0037445654474282533
3748.0,0.0037418910599395323
3747.0,0.003744282291075534
3746.0,0.003748841848110764
3745.0,0.0037479708308824798
3744.0,0.0037473848576717985
3743.0,0.003753133467397656
3742.0,0.003762089343389209
3741.0,0.0037721114810361995
3740.0,0.003781273121513885
3739.0,0.003787286446831555
3738.0,0.003786761011615983
3737.0,0.0037750521675840847
3736.0,0.00375324757493678
3735.0,0.0037383856732674248
3734.0,0.00375188333053768
3733.0,0.0037888554634559193
3732.0,0.003823982497670725
3731.0,0.003843528033492474
3730.0,0.0038542370617941496
3729.0,0.0038670601431646835
3728.0,0.0038841137290562986
3727.0,0.003899296500199767
3726.0,0.003910477419869813
3725.0,0.003923068690018896
3724.0,0.003940415178971138
3723.0,0.003961530855966736
3722.0,0.003988474476568136
3721.0,0.004026109466534103
3720.0,0.004075214423662189
3719.0,0.004131936191855036
3718.0,0.004192581256099929
3717.0,0.004256371858874014
3716.0,0.00432553528313124
3715.0,0.004402311807034001
3714.0,0.004484812871262902
3713.0,0.004568177463389433
3712.0,0.0046518328762253
3711.0,0.004745566259038144
3710.0,0.004865551617520012
3709.0,0.005017614185224739
3708.0,0.005192995145617254
3707.0,0.005381749578241385
3706.0,0.005583458754412509
3705.0,0.0058073232905392885
3704.0,0.0060664767184236985
3703.0,0.0063692027784359555
3702.0,0.006704555848565566
3701.0,0.007038355686794343
3700.0,0.007334798671313264
3699.0,0.007577459013385496
3698.0,0.007761753758299886
3697.0,0.007882593478830599
3696.0,0.007937654455397975
3695.0,0.007936520090341142
3694.0,0.00789569735238033
3693.0,0.007826210666662491
3692.0,0.007731114512241278
3691.0,0.0076104149283315325
3690.0,0.0074681724276936465
3689.0,0.007322086794602828
3688.0,0.007195114381779706
3687.0,0.007094867790844761
3686.0,0.00701768637167976
3685.0,0.006959561912291719
3684.0,0.006917408856479875
3683.0,0.006888979565125136
3682.0,0.006873881522463153
3681.0,0.0068715286383433365
3680.0,0.006880077088006295
3679.0,0.006902263359046678
3678.0,0.006947947348440665
3677.0,0.007024024336360554
3676.0,0.007119106580072889
3675.0,0.0072170683113470906
3674.0,0.007319302023185741
3673.0,0.007431638339940091
3672.0,0.007555513578811774
3671.0,0.00768214703206814
3670.0,0.007799214002738924
3669.0,0.007908696785642794
3668.0,0.008019808377318511
3667.0,0.008129716650673089
3666.0,0.008235898468146333
3665.0,0.008340877314879081
3664.0,0.008449528355570403
3663.0,0.008565891728143218
3662.0,0.00869208322156609
3661.0,0.008827209576773765
3660.0,0.008969345610833167
3659.0,0.009120359853836007
3658.0,0.009285484572925605
3657.0,0.00946203652080108
3656.0,0.009630785691373359
3655.0,0.009775041853821569
3654.0,0.009902495737337487
3653.0,0.010035590890615618
3652.0,0.010191567017736552
3651.0,0.01036774229481126
3650.0,0.01053728935266944
3649.0,0.010670157525298958
3648.0,0.010774831757960896
3647.0,0.01087882616672467
3646.0,0.010995891818451306
3645.0,0.011125299614963296
3644.0,0.011261842615994474
3643.0,0.01139986010481988
3642.0,0.011536302947190819
3641.0,0.011674792720096241
3640.0,0.011821547645533073
3639.0,0.011979425286529578
3638.0,0.012146208779236035
3637.0,0.012317514888168636
3636.0,0.012490264621626085
3635.0,0.012663547527598134
3634.0,0.012838613285591834
3633.0,0.013018932558372248
3632.0,0.013211204151355748
3631.0,0.013427280283207332
3630.0,0.013679126802924721
3629.0,0.013955469498768977
3628.0,0.014222833232808353
3627.0,0.01447227114243587
3626.0,0.014721723942179011
3625.0,0.014989271513100567
3624.0,0.01527697826550264
3623.0,0.015575924539481523
3622.0,0.015877624352184486
3621.0,0.016167459888543678
3620.0,0.016411149401765763
3619.0,0.016572639437792573
3618.0,0.016659069634265743
3617.0,0.016713303431894512
3616.0,0.01677100152550873
3615.0,0.01684631734925261
3614.0,0.016938797633311915
3613.0,0.017045496766898805
3612.0,0.017165719192205407
3611.0,0.017299512872901004
3610.0,0.01744633765461369
3609.0,0.01760257313238792
3608.0,0.01776266198067405
3607.0,0.017926025356438256
3606.0,0.018097865314371124
3605.0,0.018278006041886688
3604.0,0.0184583076370747
3603.0,0.01863296833926935
3602.0,0.01880636956596381
3601.0,0.018986432580809794
3600.0,0.019172685092496096
3599.0,0.019355927898104495
3598.0,0.01952821112933254
3597.0,0.019689006170996445
3596.0,0.019843612113599328
3595.0,0.020000802453172466
3594.0,0.020169577749772752
3593.0,0.020350957684626116
3592.0,0.020535826794954918
3591.0,0.02071714791624915
3590.0,0.020901440557278828
3589.0,0.02110116531758189
3588.0,0.021312048385385102
3587.0,0.021514341160159777
3586.0,0.021704234071096017
3585.0,0.02189308877918783
3584.0,0.022088240263242957
3583.0,0.022291524943988606
3582.0,0.022503446686394583
3581.0,0.022720573613084504
3580.0,0.022935528586441635
3579.0,0.023143103052369943
3578.0,0.02334580471549156
3577.0,0.02354890362654436
3576.0,0.023753372357147678
3575.0,0.02395859386174393
3574.0,0.024167290375702803
3573.0,0.02438143059402472
3572.0,0.024595239047047163
3571.0,0.024801060795128907
3570.0,0.025001331195852905
3569.0,0.02520938177961697
3568.0,0.025432362327838333
3567.0,0.025660559276769756
3566.0,0.025886724269284456
3565.0,0.026114666700867303
3564.0,0.026343059783279065
3563.0,0.026567038643489624
3562.0,0.026787639572545763
3561.0,0.02700985090756645
3560.0,0.027233350940787555
3559.0,0.027453712497679472
3558.0,0.027669472541973
3557.0,0.027881923120520992
3556.0,0.028091784342584362
3555.0,0.028302729646676947
3554.0,0.028523805103509832
3553.0,0.028760475622642622
3552.0,0.02900458470052822
3551.0,0.029242682981557553
3550.0,0.0294721173020775
3549.0,0.02970158781318611
3548.0,0.029937821438919043
3547.0,0.030176963805209192
3546.0,0.03041041823041958
3545.0,0.03063420968709673
3544.0,0.030850233483996653
3543.0,0.031062256575795776
3542.0,0.03127486657527208
3541.0,0.03149169446242526
3540.0,0.031712655119404784
3539.0,0.03193705317585555
3538.0,0.032167011612714076
3537.0,0.03240256961389848
3536.0,0.03263697446531749
3535.0,0.03286385111364023
3534.0,0.033086780376447064
3533.0,0.033315158535696866
3532.0,0.03355350587093397
3531.0,0.03379890584425828
3530.0,0.0340476963546652
3529.0,0.03429785364637652
3528.0,0.0345458468702373
3527.0,0.03478837420506734
3526.0,0.03502621285673165
3525.0,0.03525977142429651
3524.0,0.03548318944358505
3523.0,0.03569139313862352
3522.0,0.0358907287068649
3521.0,0.036093834475331245
3520.0,0.03630642820707819
3519.0,0.036526343167058134
3518.0,0.03675162081182874
3517.0,0.03698261904153493
3516.0,0.037217140858651174
3515.0,0.03745007096011824
3514.0,0.03767798240319209
3513.0,0.037899927151043955
3512.0,0.03811519251785532
3511.0,0.03832558060115509
3510.0,0.03853808898188682
3509.0,0.038758653207364074
3508.0,0.03898471987867807
3507.0,0.03921070231774278
3506.0,0.03943812348490627
3505.0,0.03967319225943975
3504.0,0.03991485108055386
3503.0,0.040152761235214454
3502.0,0.040379902571254955
3501.0,0.04059895560341026
3500.0,0.040815095985554856
3499.0,0.0410318743444601
3498.0,0.04125286933211483
3497.0,0.041479656965225625
3496.0,0.041708545787479255
3495.0,0.04193358165788694
3494.0,0.04215265687839328
3493.0,0.0423678401553129
3492.0,0.04258198561476197
3491.0,0.04279883032495441
3490.0,0.04302371058838721
3489.0,0.043258108582141644
3488.0,0.04349566401171212
3487.0,0.04372856144782812
3486.0,0.043955207940127625
3485.0,0.04417806006653305
3484.0,0.0443986149629463
3483.0,0.04461889204742313
3482.0,0.044843306803256634
3481.0,0.04507267406149442
3480.0,0.04530030554899093
3479.0,0.04552028757354532
3478.0,0.04573523255113449
3477.0,0.04595078589465845
3476.0,0.04616761342285197
3475.0,0.04638461371838145
3474.0,0.04660481014585347
3473.0,0.046830472612550675
3472.0,0.04705676256042198
3471.0,0.047278043609667135
3470.0,0.04749729345999651
3469.0,0.04772105328774912
3468.0,0.04794773415354898
3467.0,0.04816948398808314
3466.0,0.048383838712305186
3465.0,0.048594993291255134
3464.0,0.048804999999562726
3463.0,0.04901138609673566
3462.0,0.04921279764920145
3461.0,0.0494108321154138
3460.0,0.04960702756405366
3459.0,0.049803497468671944
3458.0,0.050004323359463865
3457.0,0.05021044004239265
3456.0,0.050415597369055286
3455.0,0.05061348301123133
3454.0,0.0508070280705509
3453.0,0.051004415513021886
3452.0,0.05120847742469573
3451.0,0.05141555645378663
3450.0,0.05162294715090388
3449.0,0.05183050403958808
3448.0,0.05203563926583433
3447.0,0.052233893693774874
3446.0,0.05242448538522716
3445.0,0.052609568465810524
3444.0,0.05278998114322235
3443.0,0.05296765797606817
3442.0,0.053148611379676546
3441.0,0.05333751045073574
3440.0,0.053531376166991634
3439.0,0.05372334342340589
3438.0,0.05391005721785306
3437.0,0.054091113022373266
3436.0,0.05426485261182046
3435.0,0.05443072713561691
3434.0,0.05459346286391429
3433.0,0.054758454399792864
3432.0,0.05492491292152582
3431.0,0.05508817285666937
3430.0,0.05524716822783096
3429.0,0.05540473778021556
3428.0,0.05556220405636545
3427.0,0.055718549278643115
3426.0,0.05587333713869828
3425.0,0.05602665796282171
3424.0,0.056178272585556605
3423.0,0.0563302235187389
3422.0,0.05648674060830315
3421.0,0.056647116750675984
3420.0,0.05680247136610502
3419.0,0.05694496544423327
3418.0,0.05707723166250112
3417.0,0.05720829360309988
3416.0,0.05734377051809023
3415.0,0.05748406063092607
3414.0,0.0576280887624516
3413.0,0.05777340083803011
3412.0,0.05791521729495466
3411.0,0.0580506294057475
3410.0,0.05818182044404185
3409.0,0.05831148845223661
3408.0,0.058438420952864806
3407.0,0.05856183385019679
3406.0,0.058685877258664775
3405.0,0.05881459011310252
3404.0,0.05894546014959099
3403.0,0.05907293870796697
3402.0,0.05919568004854751
3401.0,0.05931517710687022
3400.0,0.05943030670601181
3399.0,0.05953871621191624
3398.0,0.05964179109364849
3397.0,0.059743433144260547
3396.0,0.059845692269133374
3395.0,0.05994916635955198
3394.0,0.06005487437246198
3393.0,0.0601619350726186
3392.0,0.06026645850942839
3391.0,0.06036665622732954
3390.0,0.06046567935193061
3389.0,0.060566260538011944
3388.0,0.06066622832655988
3387.0,0.06076234324874844
3386.0,0.06085475027252181
3385.0,0.06094437325714365
3384.0,0.0610303351693768
3383.0,0.06111387940186666
3382.0,0.06120018609400925
3381.0,0.06129185623897819
3380.0,0.06138497007235312
3379.0,0.06147510027688352
3378.0,0.06156251690531077
3377.0,0.061647422556751166
3376.0,0.0617259858779841
3375.0,0.06179675922401731
3374.0,0.061865484948112864
3373.0,0.06193727908011509
3372.0,0.06200880083623153
3371.0,0.062074518703942164
3370.0,0.06213656539590018
3369.0,0.0622014515379713
3368.0,0.06226941054521733
3367.0,0.06233405910155161
3366.0,0.06239159274258865
3365.0,0.062444613185442796
3364.0,0.06249759003377059
3363.0,0.06255283792518229
3362.0,0.06260981915023735
3361.0,0.06266547985503697
3360.0,0.06271699453623489
3359.0,0.06276603130257262
3358.0,0.06281712836564651
3357.0,0.06287018949923576
3356.0,0.06291928700877161
3355.0,0.06296133947176165
3354.0,0.06300035671012563
3353.0,0.0630401393814671
3352.0,0.06307898638917456
3351.0,0.06311568358530412
3350.0,0.06315448716232003
3349.0,0.0631982247007508
3348.0,0.06324127599159887
3347.0,0.06327615002621687
3346.0,0.06330382857278055
3345.0,0.06333161892193573
3344.0,0.06336369835233607
3343.0,0.06339865284689229
3342.0,0.06343338174365143
3341.0,0.06346460983812809
3340.0,0.06348939992460197
3339.0,0.0635087948780291
3338.0,0.06352882961106124
3337.0,0.06355419684518082
3336.0,0.06358323415971812
3335.0,0.0636119258105062
3334.0,0.06363901073241446
3333.0,0.06366385287333463
3332.0,0.06368409225570584
3331.0,0.06369982780539614
3330.0,0.06371618710333267
3329.0,0.06373755220517022
3328.0,0.06376245031255741
3327.0,0.06378729243736514
3326.0,0.0638112981278795
3325.0,0.06383441598559048
3324.0,0.06385529948127054
3323.0,0.06387537681755558
3322.0,0.06390014673781923
3321.0,0.06393170067512803
3320.0,0.06396455818224844
3319.0,0.06399385948461606
3318.0,0.06402305543146707
3317.0,0.06405788743124581
3316.0,0.06409705133402194
3315.0,0.06413461467977853
3314.0,0.06416808369510461
3313.0,0.06419836850353187
3312.0,0.06422489040806477
3311.0,0.06424673623889436
3310.0,0.06426676949536723
3309.0,0.06428917468385263
3308.0,0.06431454316301534
3307.0,0.06434194887405795
3306.0,0.06437366865967899
3305.0,0.0644127290960386
3304.0,0.06445709128131226
3303.0,0.06450067496894067
3302.0,0.06453911462561027
3301.0,0.06457101308999438
3300.0,0.06459538340112342
3299.0,0.0646119021629117
3298.0,0.06462278031309837
3297.0,0.06463113072863245
3296.0,0.06463846484453913
3295.0,0.06464547216647298
3294.0,0.0646528874284801
3293.0,0.06465923088284231
3292.0,0.06466015091178673
3291.0,0.06465256121442069
3290.0,0.06463713771143918
3289.0,0.06461486305106262
3288.0,0.06458454239650385
3287.0,0.06454634463225475
3286.0,0.06450425952486072
3285.0,0.06446130050126504
3284.0,0.06441447969681444
3283.0,0.06435781619708288
3282.0,0.06428887772771964
3281.0,0.06421026021299807
3280.0,0.06412628276107357
3279.0,0.0640399721304865
3278.0,0.06395122166089304
3277.0,0.06385653821714429
3276.0,0.06375284391007742
3275.0,0.06364170027668214
3274.0,0.06352627355748941
3273.0,0.06340451111215974
3272.0,0.06327117494496559
3271.0,0.06312778215668963
3270.0,0.06298392150458428
3269.0,0.0628453711903111
3268.0,0.06270636962258037
3267.0,0.06255774010493607
3266.0,0.06239830106586251
3265.0,0.06223381526609209
3264.0,0.0620683331898689
3263.0,0.06190134682061585
3262.0,0.06173110428889518
3261.0,0.06155670961024018
3260.0,0.06137812005960945
3259.0,0.061196962513316674
3258.0,0.06101588431704675
3257.0,0.06083553398070553
3256.0,0.06065458959955882
3255.0,0.060474025815525814
3254.0,0.06029767243592412
3253.0,0.060126180456313225
3252.0,0.05995399312067184
3251.0,0.05977488529557475
3250.0,0.059588229397016926
3249.0,0.05939826449958195
3248.0,0.059210073497418934
3247.0,0.059027423206226635
3246.0,0.05885081263377585
3245.0,0.058675984620780365
3244.0,0.05849809109319196
3243.0,0.058318634726168106
3242.0,0.0581441213933034
3241.0,0.05797687217333415
3240.0,0.05781196378747015
3239.0,0.057644808026517176
3238.0,0.05747637859734484
3237.0,0.05730862149519995
3236.0,0.057140423099060075
3235.0,0.05697194737459213
3234.0,0.056807786666468636
3233.0,0.056651034805257426
3232.0,0.05649799183234637
3231.0,0.05634259021700636
3230.0,0.056182754771551345
3229.0,0.05601894548257098
3228.0,0.055850564938923986
3227.0,0.05567846897110654
3226.0,0.05550786757231604
3225.0,0.055344049684870215
3224.0,0.05518688034353381
3223.0,0.05503223319608904
3222.0,0.05487642061803168
3221.0,0.054717008755332704
3220.0,0.054552792965799145
3219.0,0.054386183980748744
3218.0,0.05422211075950338
3217.0,0.054061379742732736
3216.0,0.05389834631623421
3215.0,0.05372853126236719
3214.0,0.053555258007205356
3213.0,0.05338461743243488
3212.0,0.05321663752643206
3211.0,0.05304596013045949
3210.0,0.052869349740192174
3209.0,0.05268852538149091
3208.0,0.05250687461381555
3207.0,0.05232702728057998
3206.0,0.052150747002235424
3205.0,0.051977907485970774
3204.0,0.05180561235506578
3203.0,0.051630466395749496
3202.0,0.05145142422988744
3201.0,0.05126971414146336
3200.0,0.05108730362380713
3199.0,0.050906168274861004
3198.0,0.05072671003656995
3197.0,0.05054611416370979
3196.0,0.050360726460924876
3195.0,0.05017066821222086
3194.0,0.04997908489533276
3193.0,0.04978644554316456
3192.0,0.049589511519334516
3191.0,0.049387103474507414
3190.0,0.049183000126602
3189.0,0.048981015151363286
3188.0,0.04878092545149745
3187.0,0.048581571331874324
3186.0,0.04838402384366379
3185.0,0.04818877274811407
3184.0,0.04799286708553868
3183.0,0.04779317660815635
3182.0,0.04758990169912177
3181.0,0.04738458062207439
3180.0,0.04717761404634797
3179.0,0.04696993510087259
3178.0,0.04676376066511716
3177.0,0.04655889708098079
3176.0,0.04635104819672277
3175.0,0.04613655046737521
3174.0,0.0459166205339341
3173.0,0.045695124689572396
3172.0,0.04547507016795383
3171.0,0.04525917550827118
3170.0,0.04505026149726464
3169.0,0.044847877160833514
3168.0,0.04464755571893934
3167.0,0.04444645957621128
3166.0,0.04424670279241395
3165.0,0.044050224472484786
3164.0,0.04385346302239956
3163.0,0.0436507901670079
3162.0,0.04344129417607477
3161.0,0.04322891128500568
3160.0,0.043017275141734146
3159.0,0.04280727063978585
3158.0,0.0425983006490645
3157.0,0.0423895132340632
3156.0,0.0421810721132913
3155.0,0.04197559669186062
3154.0,0.04177607838221297
3153.0,0.04158123356147486
3152.0,0.04138609322021861
3151.0,0.04118904183402025
3150.0,0.040995057779392385
3149.0,0.04080900942124552
3148.0,0.04062857473193029
3147.0,0.04044707403673214
3146.0,0.04026074834559463
3145.0,0.040070304655467036
3144.0,0.039878025254688775
3143.0,0.03968674917140491
3142.0,0.03949970023008211
3141.0,0.0393179547490301
3140.0,0.03913909978657551
3139.0,0.03896046420631952
3138.0,0.03878217935492365
3137.0,0.038605138273152685
3136.0,0.03842895702642703
3135.0,0.0382545777326587
3134.0,0.038085810299422776
3133.0,0.03792490955136
3132.0,0.03776876803422817
3131.0,0.037612681666456066
3130.0,0.037455943789026815
3129.0,0.03730053276091868
3128.0,0.03714656511314479
3127.0,0.036992403215737504
3126.0,0.036837251865456486
3125.0,0.03668068436142073
3124.0,0.03652168901551995
3123.0,0.03636160686098803
3122.0,0.036206455501786604
3121.0,0.0360623335353306
3120.0,0.03592912936178777
3119.0,0.03580152677447304
3118.0,0.035674996470839014
3117.0,0.035548493709581755
3116.0,0.035422989810036686
3115.0,0.035300316603654784
3114.0,0.03518248622702419
3113.0,0.03506919872017954
3112.0,0.0349569834610931
3111.0,0.03484307696078067
3110.0,0.034728740424299895
3109.0,0.03461661936680237
3108.0,0.034506349808542315
3107.0,0.03439563030490114
3106.0,0.03428486381967268
3105.0,0.03417760669483176
3104.0,0.03407655613894576
3103.0,0.03398102772562559
3102.0,0.03388779268724007
3101.0,0.033793460258058204
3100.0,0.03369725015793386
3099.0,0.03360305422318663
3098.0,0.03351692019944201
3097.0,0.03344058839278429
3096.0,0.033368533163724276
3095.0,0.033292905563954756
3094.0,0.03321055693633609
3093.0,0.033123457425730016
3092.0,0.03303449747421145
3091.0,0.03294549725405048
3090.0,0.032857386005177874
3089.0,0.03276969855634302
3088.0,0.032680788369643395
3087.0,0.03259033972496777
3086.0,0.03250048929398853
3085.0,0.03241240878906902
3084.0,0.03232350909105107
3083.0,0.03223008385792339
3082.0,0.03213171292012739
3081.0,0.032031414372784645
3080.0,0.03193274805844899
3079.0,0.031838760837145236
3078.0,0.03175165429394483
3077.0,0.03167084725769229
3076.0,0.031592089096461065
3075.0,0.031510432036407264
3074.0,0.03142369573765154
3073.0,0.03133177983666801
3072.0,0.03123440747587075
3071.0,0.03113111444584058
3070.0,0.031022540919938807
3069.0,0.030910326741336043
3068.0,0.03079662532421537
3067.0,0.03068425797278819
3066.0,0.03057512018772704
3065.0,0.030467353816634582
3064.0,0.030356451349281395
3063.0,0.030241071023781207
3062.0,0.030125207761671713
3061.0,0.030012875749660592
3060.0,0.029902594357423366
3059.0,0.029788810932476796
3058.0,0.029667333906342238
3057.0,0.02953773715737926
3056.0,0.029402987200718246
3055.0,0.029268257801783888
3054.0,0.02913795255272862
3053.0,0.029011564237921027
3052.0,0.028884509195649145
3051.0,0.028754233636609564
3050.0,0.02862327581827748
3049.0,0.028494941797832428
3048.0,0.02836888641801484
3047.0,0.028243690049970797
3046.0,0.028120078650301666
3045.0,0.027998642967950987
3044.0,0.02787686292572462
3043.0,0.027752761395825814
3042.0,0.02762937955213683
3041.0,0.02751206573480086
3040.0,0.027401949607389457
3039.0,0.027294907230808334
3038.0,0.02718608004090152
3037.0,0.027072915192953063
3036.0,0.026955725976503028
3035.0,0.02683794604565602
3034.0,0.026724544391773703
3033.0,0.026617230238379863
3032.0,0.026512563874880754
3031.0,0.02640643834756196
3030.0,0.026298889086986625
3029.0,0.026191387529080973
3028.0,0.026082418751746182
3027.0,0.025969379344549157
3026.0,0.02585345227225136
3025.0,0.025739056037707046
3024.0,0.025628761876025353
3023.0,0.02552170987194865
3022.0,0.025416379950440642
3021.0,0.02531260457376739
3020.0,0.025211228062745797
3019.0,0.02511401236278706
3018.0,0.025023140942960737
3017.0,0.024938807979625777
3016.0,0.024858020229402766
3015.0,0.024777313614624857
3014.0,0.024695537300346022
3013.0,0.02461320577745292
3012.0,0.024531261951056423
3011.0,0.024452356658491586
3010.0,0.024380671388647555
3009.0,0.024317943934797453
3008.0,0.02426097504708943
3007.0,0.024205133290104378
3006.0,0.024148633103666148
3005.0,0.024092308794039053
3004.0,0.024037309050344145
3003.0,0.02398496139839858
3002.0,0.023936680220248037
3001.0,0.02389206942910169
3000.0,0.02384952804032059
2999.0,0.023810537942470917
2998.0,0.023780522606646613
2997.0,0.023763312633249538
2996.0,0.02375752151668071
2995.0,0.023761184593355262
2994.0,0.02377654307213772
2993.0,0.02380682889865347
2992.0,0.02385053809371195
2991.0,0.023903267663870922
2990.0,0.023963554150707885
2989.0,0.024033785959588702
2988.0,0.024116481856358302
2987.0,0.02421278715215017
2986.0,0.024323081795752027
2985.0,0.024445951494029016
2984.0,0.02457792594097585
2983.0,0.02471710822080614
2982.0,0.024866576639954372
2981.0,0.02503189502584695
2980.0,0.025216872077603644
2979.0,0.025423432115225034
2978.0,0.025653844490303068
2977.0,0.02591062375893903
2976.0,0.026195670542897793
2975.0,0.026510897886220332
2974.0,0.026857762144901636
2973.0,0.027234886896082174
2972.0,0.027638649695868347
2971.0,0.028067982189506496
2970.0,0.02852508440685957
2969.0,0.02900959722688919
2968.0,0.02951471116744786
2967.0,0.030031380393976504
2966.0,0.030551853708288938
2965.0,0.031066230196768782
2964.0,0.03156035399222622
2963.0,0.03202212664706317
2962.0,0.03244697698988749
2961.0,0.03283360057658233
2960.0,0.03317745101459706
2959.0,0.03347284030147919
2958.0,0.03371940354046901
2957.0,0.03392173334513314
2956.0,0.034084348610535574
2955.0,0.03421140158424693
2954.0,0.03431179488851269
2953.0,0.03440181792330543
2952.0,0.03450463984827894
2951.0,0.03465009199951312
2950.0,0.03487324100933237
2949.0,0.03520940434656715
2948.0,0.03568812918068838
2947.0,0.036333111196155406
2946.0,0.037163776775744714
2945.0,0.0381930318573948
2944.0,0.03942490882368717
2943.0,0.040857098048963744
2942.0,0.042486809715774995
2941.0,0.04431299545712052
2940.0,0.046335141968127574
2939.0,0.048553034725613564
2938.0,0.05096755986463587
2937.0,0.05357996685324279
2936.0,0.05639142781643983
2935.0,0.059404098376637196
2934.0,0.06262149184460478
2933.0,0.06605036716470804
2932.0,0.06970485568666421
2931.0,0.07360643145349277
2930.0,0.0777760873307917
2929.0,0.08222920067712663
2928.0,0.08698318446271011
2927.0,0.09206691599331401
2926.0,0.09751509307728036
2925.0,0.1033550516012536
2924.0,0.10959964489463891
2923.0,0.11623256514053726
2922.0,0.1231773362390906
2921.0,0.13025591636901035
2920.0,0.137148421467079
2919.0,0.14334384155096022
2918.0,0.14813132815603197
2917.0,0.15073163248806246
2916.0,0.15058163551675688
2915.0,0.14760895801517304
2914.0,0.1422739310184937
2913.0,0.1353973214147642
2912.0,0.12786670723058435
2911.0,0.12039684779947507
2910.0,0.11343695387191047
2909.0,0.10719146993519454
2908.0,0.1017097409627752
2907.0,0.0969565887615873
2906.0,0.09285627216025631
2905.0,0.08931285163401982
2904.0,0.086228809084424
2903.0,0.08351372197523452
2902.0,0.08108829066283282
2901.0,0.07888617237383043
2900.0,0.07685520435588629
2899.0,0.07495212499324677
2898.0,0.0731363600896334
2897.0,0.0713712937044542
2896.0,0.06963025617843409
2895.0,0.06789636668468403
2894.0,0.06615807078726403
2893.0,0.06440687176087422
2892.0,0.06264047334722038
2891.0,0.06086435984056294
2890.0,0.05908787117354417
2889.0,0.057321442314560545
2888.0,0.05557665310607658
2887.0,0.053866434874085635
2886.0,0.05220386901549258
2885.0,0.050600954330588956
2884.0,0.049068096316998704
2883.0,0.047612821026216716
2882.0,0.04623810188899435
2881.0,0.04494450803702039
2880.0,0.04373579655323429
2879.0,0.042622406221827794
2878.0,0.04161857400120374
2877.0,0.0407364473176979
2876.0,0.03998269131835849
2875.0,0.03935757111619351
2874.0,0.0388530768627879
2873.0,0.038450798172580104
2872.0,0.038128057517818496
2871.0,0.03787059746302363
2870.0,0.037685105332146245
2869.0,0.037602664661330186
2868.0,0.037673582714578276
2867.0,0.03795776911496393
2866.0,0.03851465322090984
2865.0,0.03939595540824216
2864.0,0.0406466552237947
2863.0,0.042311699155431814
2862.0,0.04443990976013348
2861.0,0.04708347713943934
2860.0,0.05029754864556916
2859.0,0.05414349808708967
2858.0,0.058690684784215845
2857.0,0.06401852796834953
2856.0,0.07021761389017367
2855.0,0.07738298755800165
2854.0,0.08556057636726123
2853.0,0.09464086622622067
2852.0,0.10415584260919811
2851.0,0.11310385112332086
2850.0,0.11994520059287966
2849.0,0.12308714522664625
2848.0,0.12165485611095983
2847.0,0.11602018609332779
2846.0,0.10751581900168955
2845.0,0.09774997918665433
2844.0,0.08798989977703964
2843.0,0.0789854990367585
2842.0,0.0710530349620094
2841.0,0.06425645945859895
2840.0,0.05852351434640959
2839.0,0.05372868066048727
2838.0,0.04971874426514538
2837.0,0.046348863735683504
2836.0,0.04349332792479279
2835.0,0.04105689083881319
2834.0,0.03896847850343764
2833.0,0.0371684410987092
2832.0,0.035600785306810365
2831.0,0.03421679544776035
2830.0,0.0329817614875689
2829.0,0.031871835101304306
2828.0,0.030866314956118947
2827.0,0.029947274600593377
2826.0,0.029103445699293518
2825.0,0.02832802148270154
2824.0,0.027612644769900666
2823.0,0.026947099820899673
2822.0,0.026324720995298204
2821.0,0.025742734507251976
2820.0,0.025198251871455083
2819.0,0.024686990463150406
2818.0,0.024205881288702602
2817.0,0.02375298047255999
2816.0,0.023325410264747763
2815.0,0.022920183404663872
2814.0,0.022536331237358768
2813.0,0.022173028356873535
2812.0,0.02182713500129667
2811.0,0.021495255639807972
2810.0,0.021176633156666118
2809.0,0.020870533565526705
2808.0,0.020573289552711163
2807.0,0.020281911246470847
2806.0,0.019998865280488432
2805.0,0.019728417733653286
2804.0,0.01946968193790517
2803.0,0.019217612757826057
2802.0,0.018969879901594325
2801.0,0.018728551567229614
2800.0,0.018495675342261392
2799.0,0.01827121936187997
2798.0,0.01805493826562285
2797.0,0.017846243119391654
2796.0,0.01764262032967615
2795.0,0.017441850137141047
2794.0,0.017245116695374537
2793.0,0.017054682453181126
2792.0,0.016869296615682927
2791.0,0.016685282144934147
2790.0,0.016501151460220638
2789.0,0.016318226030997876
2788.0,0.016138023273858534
2787.0,0.01596216877916271
2786.0,0.01579337591452063
2785.0,0.015632730597174828
2784.0,0.015477408448936972
2783.0,0.0153244514385955
2782.0,0.015175093320102123
2781.0,0.015031921170033526
2780.0,0.014893928962208872
2779.0,0.014758373022171298
2778.0,0.014625661898691182
2777.0,0.01449814960628577
2776.0,0.014375814808230924
2775.0,0.014257290224637904
2774.0,0.014143343325291465
2773.0,0.014034739943557023
2772.0,0.0139282570900185
2771.0,0.01381976024514023
2770.0,0.013710482216261173
2769.0,0.013605569992054185
2768.0,0.01350710815686817
2767.0,0.01341282292105996
2766.0,0.013320879060315005
2765.0,0.01323155420566773
2764.0,0.013144823533958381
2763.0,0.013060287802980955
2762.0,0.012978909085065942
2761.0,0.012901188600172848
2760.0,0.012824559441932082
2759.0,0.012746342650899533
2758.0,0.01266803875439317
2757.0,0.01259307087456547
2756.0,0.012521699006582392
2755.0,0.012451902702625738
2754.0,0.012383694725183888
2753.0,0.012318310056802301
2752.0,0.012254660299141958
2751.0,0.012191075907102278
2750.0,0.012129409309334954
2749.0,0.012073056364036217
2748.0,0.012021895708027938
2747.0,0.011973383152431174
2746.0,0.01192736091097062
2745.0,0.011885056380502204
2744.0,0.01184444220549723
2743.0,0.011801491696930577
2742.0,0.011755509155107893
2741.0,0.011709081536211906
2740.0,0.011663160627273355
2739.0,0.011616322460434945
2738.0,0.011568222247629932
2737.0,0.011519721132401333
2736.0,0.011470027685792502
2735.0,0.0114176344992339
2734.0,0.011363755387313539
2733.0,0.01131130097798774
2732.0,0.011260786986682526
2731.0,0.011210397515724235
2730.0,0.011159003154219381
2729.0,0.011106080561332707
2728.0,0.011050331091325916
2727.0,0.010992056374600356
2726.0,0.010935176435129614
2725.0,0.010882795653864814
2724.0,0.01083233432653476
2723.0,0.01077915515662856
2722.0,0.01072347069369675
2721.0,0.010669123954255278
2720.0,0.010616660705290154
2719.0,0.010562696149143859
2718.0,0.010505493341333886
2717.0,0.010446966761948742
2716.0,0.01038942703171141
2715.0,0.010334208103503181
2714.0,0.010282901329008557
2713.0,0.01023625705886878
2712.0,0.010192188362255578
2711.0,0.010148058604130613
2710.0,0.010104124784269749
2709.0,0.010061646746118327
2708.0,0.010019263356639054
2707.0,0.009974955737638107
2706.0,0.009929923215514266
2705.0,0.009886768859427818
2704.0,0.009845239976907174
2703.0,0.009803720995130995
2702.0,0.009763311446009804
2701.0,0.009726176067453579
2700.0,0.009691212339517868
2699.0,0.009655618696466105
2698.0,0.009619731956798097
2697.0,0.009586413833232558
2696.0,0.009556780202184574
2695.0,0.009530325399783273
2694.0,0.009507819376464933
2693.0,0.009489764136734998
2692.0,0.009473238679516681
2691.0,0.009454399352531742
2690.0,0.009433331799437089
2689.0,0.009412856576645316
2688.0,0.009393858631410982
2687.0,0.009375280704846571
2686.0,0.009357137949953158
2685.0,0.009339651260612982
2684.0,0.009321071362026059
2683.0,0.009300327836654543
2682.0,0.00928015267323176
2681.0,0.009263655184988749
2680.0,0.009249340641021142
2679.0,0.009233706767549298
2678.0,0.009216741177178816
2677.0,0.009200458119284455
2676.0,0.009183818026132077
2675.0,0.009164102806231787
2674.0,0.009142336279926687
2673.0,0.009122606570711823
2672.0,0.00910659233926287
2671.0,0.009092693586214406
2670.0,0.009079568095882175
2669.0,0.009066631010069383
2668.0,0.009052090984630867
2667.0,0.009034716464284566
2666.0,0.009016747305070372
2665.0,0.009001568937759725
2664.0,0.008989325217896731
2663.0,0.008977915942786617
2662.0,0.008966538977136172
2661.0,0.00895489625430738
2660.0,0.008940998639152287
2659.0,0.008923796433225507
2658.0,0.008906323241954204
2657.0,0.008892270057022374
2656.0,0.008880872539507529
2655.0,0.008868791069350495
2654.0,0.008854691907558089
2653.0,0.008838354865491165
2652.0,0.008818233192718229
2651.0,0.008794847481273377
2650.0,0.008773763648180702
2649.0,0.008759646037845258
2648.0,0.008749145381378696
2647.0,0.00873530927087619
2646.0,0.008716975502696516
2645.0,0.008698462310537171
2644.0,0.008681974403835184
2643.0,0.008666346999975096
2642.0,0.008651946142161504
2641.0,0.00864047360486576
2640.0,0.008630800605086813
2639.0,0.008620463949857018
2638.0,0.00861039554653645
2637.0,0.008602783591769064
2636.0,0.008595374127384826
2635.0,0.00858308971053238
2634.0,0.00856417673911536
2633.0,0.008539812940552562
2632.0,0.008509765835220387
2631.0,0.008474007230264159
2630.0,0.008436514104874355
2629.0,0.008401484964038912
2628.0,0.008367209510999207
2627.0,0.008329531686279703
2626.0,0.008289456024662696
2625.0,0.008251490856342601
2624.0,0.008216557650402342
2623.0,0.008182786648776539
2622.0,0.008151004300910796
2621.0,0.00812267106156533
2620.0,0.008094432568837365
2619.0,0.008061861616640482
2618.0,0.00802680868794366
2617.0,0.007994127512514711
2616.0,0.007963019465221911
2615.0,0.007928977906679104
2614.0,0.007892848335634738
2613.0,0.007860149870756436
2612.0,0.00783217071060574
2611.0,0.007804782539848797
2610.0,0.007775507782143032
2609.0,0.007745393595710892
2608.0,0.007715051904178106
2607.0,0.007684984551177904
2606.0,0.007658224314678986
2605.0,0.007636335375748433
2604.0,0.007614541246459407
2603.0,0.007587158983580608
2602.0,0.007555666058517842
2601.0,0.00752519186125261
2600.0,0.007496054040546674
2599.0,0.0074656758396802365
2598.0,0.007435694434938904
2597.0,0.007409451044714632
2596.0,0.007385083947676939
2595.0,0.007358696581812317
2594.0,0.007331491303587557
2593.0,0.007306146343992383
2592.0,0.007279529425116395
2591.0,0.007247395379069446
2590.0,0.007213196870645696
2589.0,0.007183642552983536
2588.0,0.007158118048893108
2587.0,0.007131032872201997
2586.0,0.007101508421415214
2585.0,0.0070723676098703
2584.0,0.007042954118005801
2583.0,0.007012144091729931
2582.0,0.006984959601553392
2581.0,0.006966232599844362
2580.0,0.006950666817843217
2579.0,0.006929230806679039
2578.0,0.006902542594237769
2577.0,0.006878001861749681
2576.0,0.006856436921283043
2575.0,0.006832345610113745
2574.0,0.006805486396724248
2573.0,0.006781387350000488
2572.0,0.006761345870639363
2571.0,0.006741770676423361
2570.0,0.006722201379780516
2569.0,0.006704541839735145
2568.0,0.006686057530896062
2567.0,0.0066627449350647955
2566.0,0.006638152905221533
2565.0,0.006619303426164836
2564.0,0.006605419516883946
2563.0,0.006589978585036389
2562.0,0.006571841880387062
2561.0,0.006554783944681789
2560.0,0.0065382680764308546
2559.0,0.0065185481206213045
2558.0,0.006497160673565938
2557.0,0.006478541482669208
2556.0,0.006461075873605523
2555.0,0.006440061142085514
2554.0,0.0064175591174694445
2553.0,0.006399381179954948
2552.0,0.006384337537542778
2551.0,0.006366599346401642
2550.0,0.006346679104898603
2549.0,0.006330053537248272
2548.0,0.006316670476365404
2547.0,0.0063017670848891545
2546.0,0.0062854374862746165
2545.0,0.006271462745628657
2544.0,0.006258250038192157
2543.0,0.006240676624633428
2542.0,0.006219521200493367
2541.0,0.006200107827096257
2540.0,0.006183510086238122
2539.0,0.006168057608804634
2538.0,0.006156536429166674
2537.0,0.006152104307860972
2536.0,0.006149905028004634
2535.0,0.006142739635078107
2534.0,0.006132621657894058
2533.0,0.006127057655839224
2532.0,0.006126579117414583
2531.0,0.006125715127670036
2530.0,0.006123038748529391
2529.0,0.006120001985949319
2528.0,0.0061131296143167565
2527.0,0.006098030639182287
2526.0,0.006078596769835057
2525.0,0.006061912036514206
2524.0,0.006046918583274991
2523.0,0.006028337534386905
2522.0,0.006008124634452504
2521.0,0.0059921237237172765
2520.0,0.005979008110234751
2519.0,0.0059639747539132655
2518.0,0.0059499892013327345
2517.0,0.005943386595005769
2516.0,0.005941038487324358
2515.0,0.005934078468677907
2514.0,0.005921857519679071
2513.0,0.005910005710347347
2512.0,0.005897238718413379
2511.0,0.005876908239331714
2510.0,0.005850235168495442
2509.0,0.00582585350273871
2508.0,0.005806788235504247
2507.0,0.005788844751791285
2506.0,0.0057706224350611785
2505.0,0.005754119362593503
2504.0,0.005737019016668257
2503.0,0.005715809569987787
2502.0,0.005695202685796188
2501.0,0.005683237574437077
2500.0,0.005678301783581363
2499.0,0.005671702970413178
2498.0,0.005661121061586324
2497.0,0.005650603388352673
2496.0,0.005639397640291055
2495.0,0.0056229554929286205
2494.0,0.0056037907042070815
2493.0,0.005589531237081266
2492.0,0.005580605709469239
2491.0,0.005570694993157626
2490.0,0.005558300009200205
2489.0,0.005546895091270696
2488.0,0.005534988682708276
2487.0,0.0055175126818991565
2486.0,0.005496418908720462
2485.0,0.005479036252389467
2484.0,0.005466502531426183
2483.0,0.005453922630651862
2482.0,0.005440654962702995
2481.0,0.005430231353416084
2480.0,0.005421654175565009
2479.0,0.005411154960132116
2478.0,0.005400923599238709
2477.0,0.0053956469732017115
2476.0,0.0053921831019762
2475.0,0.005383332084083909
2474.0,0.005369874252406088
2473.0,0.005357910309429126
2472.0,0.005346433691535515
2471.0,0.0053292723274345356
2470.0,0.005307826128717818
2469.0,0.005290032719689433
2468.0,0.00527744338906308
2467.0,0.005264623741461926
2466.0,0.005250759971553969
2465.0,0.005240900190136889
2464.0,0.0052361604605461855
2463.0,0.0052330808264377865
2462.0,0.005231793354920964
2461.0,0.005234447466152623
2460.0,0.005236753317842964
2459.0,0.005231843208312383
2458.0,0.005221641811529463
2457.0,0.005213987819345012
2456.0,0.005209510852566924
2455.0,0.005201784902584156
2454.0,0.005189549839502315
2453.0,0.0051783132387367755
2452.0,0.0051704588333494296
2451.0,0.005163667639043023
2450.0,0.005158008243206868
2449.0,0.005154617461926871
2448.0,0.005149032979155047
2447.0,0.005136471974946788
2446.0,0.005122232845148601
2445.0,0.005116067422412894
2444.0,0.005117553751919772
2443.0,0.0051176689045642244
2442.0,0.005113211632319493
2441.0,0.005108417574738615
2440.0,0.0051035179452043325
2439.0,0.005093587198009014
2438.0,0.005079170279636115
2437.0,0.005067430481960042
2436.0,0.005061753544465836
2435.0,0.005058883354108606
2434.0,0.005056009013641992
2433.0,0.005052410078514202
2432.0,0.005045689935767135
2431.0,0.0050353017230350475
2430.0,0.005027997869199226
2429.0,0.005030569991113264
2428.0,0.005038849819154737
2427.0,0.005042619015755184
2426.0,0.005038937560093338
2425.0,0.00503178825008421
2424.0,0.005022056316070846
2423.0,0.0050082644958663386
2422.0,0.0049946164415104926
2421.0,0.004987367992251093
2420.0,0.004984507753982638
2419.0,0.004978677623948419
2418.0,0.004968643637573206
2417.0,0.004959045393621816
2416.0,0.0049513858997828515
2415.0,0.004944120733694862
2414.0,0.004938818710570117
2413.0,0.004937314151449547
2412.0,0.004935868890565622
2411.0,0.004930949814443486
2410.0,0.004926826101866602
2409.0,0.004927830284774346
2408.0,0.004927294479627476
2407.0,0.004915243890859019
2406.0,0.004893711200867072
2405.0,0.004873432690002153
2404.0,0.004858707056602179
2403.0,0.004846375548812264
2402.0,0.004836213188970125
2401.0,0.004830899747789646
2400.0,0.004827785215496877
2399.0,0.004821308176375281
2398.0,0.004812183369642656
2397.0,0.004805115540833166
2396.0,0.004799907988744731
2395.0,0.004793920031377146
2394.0,0.004789762599110747
2393.0,0.0047905121616920445
2392.0,0.004790985414147713
2391.0,0.004783978855927406
2390.0,0.004771682377298907
2389.0,0.004760683251403416
2388.0,0.004748972091706938
2387.0,0.00472926346502948
2386.0,0.004703163991481462
2385.0,0.00468109941424134
2384.0,0.004669610592469568
2383.0,0.00466935459210387
2382.0,0.004684725456658219
2381.0,0.004723340874688714
2380.0,0.00478264336982615
2379.0,0.0048458946200537634
2378.0,0.0048951794923780155
2377.0,0.004920435449251042
2376.0,0.004915901771018275
2375.0,0.004882959044757239
2374.0,0.004839277036837487
2373.0,0.004808509734537028
2372.0,0.004795849979625352
2371.0,0.004789713220329268
2370.0,0.0047895143119657665
2369.0,0.004806151330023906
2368.0,0.004832132283095525
2367.0,0.004844925969586655
2366.0,0.00484739133861486
2365.0,0.004866487306432711
2364.0,0.004899521166014192
2363.0,0.004909048407400304
2362.0,0.0048876920649099645
2361.0,0.004867941575544146
2360.0,0.0048600797288128475
2359.0,0.004848466656370797
2358.0,0.004842710190027172
2357.0,0.004871498569374568
2356.0,0.004919439220938661
2355.0,0.0049401368222223305
2354.0,0.004932569218335808
2353.0,0.004927285013956389
2352.0,0.004934308187845919
2351.0,0.004937808548229504
2350.0,0.0049359254553057565
2349.0,0.004946658215073595
2348.0,0.004973268390435723
2347.0,0.004996771688984131
2346.0,0.004987880474961136
2345.0,0.004951227621837163
2344.0,0.004916168542476179
2343.0,0.004892751187956485
2342.0,0.004900302419973103
2341.0,0.004951703863760128
2340.0,0.005022458587014523
2339.0,0.005071466105813301
2338.0,0.005097441832411912
2337.0,0.0051246509114136465
2336.0,0.005150621660316031
2335.0,0.005155358758212752
2334.0,0.0051438943993495885
2333.0,0.005133667306007261
2332.0,0.005113496529695603
2331.0,0.005059845746833015
2330.0,0.004979833723418631
2329.0,0.004918647329109152
2328.0,0.004898101428663117
2327.0,0.004923105253293787
2326.0,0.0049867704087171606
2325.0,0.005073523077018203
2324.0,0.005141157562219015
2323.0,0.0051499364550377695
2322.0,0.005108696997343974
2321.0,0.005053023364702171
2320.0,0.005001293588225666
2319.0,0.004950458195305493
2318.0,0.004909994876447932
2317.0,0.004898882596848201
2316.0,0.00491283683710593
2315.0,0.0049291961603330475
2314.0,0.004929343338815474
2313.0,0.004915276614604907
2312.0,0.004888866032996168
2311.0,0.004857265708957337
2310.0,0.0048329787423314315
2309.0,0.004829710291116339
2308.0,0.004840096892239895
2307.0,0.004851317401373501
2306.0,0.004859782301772661
2305.0,0.0048693716888143085
2304.0,0.0048721990251986225
2303.0,0.004859229778702795
2302.0,0.004836543102919607
2301.0,0.004821191530573588
2300.0,0.004816042762354672
2299.0,0.004812988925971574
2298.0,0.00480883693083194
2297.0,0.004810562246882434
2296.0,0.0048181411431094745
2295.0,0.004828397377489479
2294.0,0.00484379608198386
2293.0,0.004870001711059264
2292.0,0.004900522201528668
2291.0,0.004925505394460348
2290.0,0.004947654314702359
2289.0,0.004976561585647563
2288.0,0.005009361491552375
2287.0,0.005034099903328114
2286.0,0.005048460731221929
2285.0,0.005057254063370707
2284.0,0.005056881986695791
2283.0,0.005039890521643674
2282.0,0.005013080828980173
2281.0,0.004991243789784104
2280.0,0.004975982196899131
2279.0,0.004959145851271983
2278.0,0.004944873100501819
2277.0,0.004945700664968062
2276.0,0.0049590608566565785
2275.0,0.004969140845119449
2274.0,0.004970402777718149
2273.0,0.004968475756089607
2272.0,0.004961484702738593
2271.0,0.004944381618803896
2270.0,0.0049267855344795755
2269.0,0.004922183751381222
2268.0,0.004922566117759927
2267.0,0.004910047005266106
2266.0,0.004888107497550959
2265.0,0.004875301148465402
2264.0,0.004872087016855613
2263.0,0.004863932880516868
2262.0,0.0048528245307619036
2261.0,0.004854970670263775
2260.0,0.004869072373004137
2259.0,0.004876269367755376
2258.0,0.0048722097164291015
2257.0,0.004869137005023588
2256.0,0.0048676944517533375
2255.0,0.00485595636560218
2254.0,0.004837179438107846
2253.0,0.0048292945037628375
2252.0,0.004835497573685681
2251.0,0.004842755416219372
2250.0,0.004847659479199018
2249.0,0.004856932138708267
2248.0,0.004864823794853204
2247.0,0.00485923344624668
2246.0,0.004846995308480614
2245.0,0.004844448898432903
2244.0,0.0048461431313008545
2243.0,0.004833469731334591
2242.0,0.004810803928912987
2241.0,0.004800015196920858
2240.0,0.004801955796764737
2239.0,0.004797444384910309
2238.0,0.004785046297218963
2237.0,0.004784101902480354
2236.0,0.004799808612432383
2235.0,0.004817848958363317
2234.0,0.004833187527239481
2233.0,0.004851180616547193
2232.0,0.00486241902856211
2231.0,0.004851054395523607
2230.0,0.004827491983209647
2229.0,0.0048175116292324014
2228.0,0.004820444461940358
2227.0,0.004812993255344438
2226.0,0.004792762453317318
2225.0,0.0047808693718815
2224.0,0.0047815421799116695
2223.0,0.004776740603208225
2222.0,0.004761752661115113
2221.0,0.0047510657750876985
2220.0,0.004749430250311453
2219.0,0.004752205629870381
2218.0,0.004770227763142979
2217.0,0.004814874928792844
2216.0,0.0048611241785668806
2215.0,0.004867764323448474
2214.0,0.004833427789223331
2213.0,0.004795600180892774
2212.0,0.0047750965833735625
2211.0,0.004760384739260413
2210.0,0.004743859820762707
2209.0,0.004730883737434523
2208.0,0.004715376592949126
2207.0,0.004688643487277729
2206.0,0.004670303495011444
2205.0,0.004687889999902823
2204.0,0.004727371793197974
2203.0,0.004748961802726238
2202.0,0.004749121883015947
2201.0,0.0047594393350789315
2200.0,0.004787421434446581
2199.0,0.004807430022672704
2198.0,0.004810904329168518
2197.0,0.004816510222568375
2196.0,0.004826580715677485
2195.0,0.004821183101692145
2194.0,0.004800798135710874
2193.0,0.004789110635076663
2192.0,0.004788821214737055
2191.0,0.00477955346123586
2190.0,0.004763279331831689
2189.0,0.004766481389970702
2188.0,0.00479353713299833
2187.0,0.004821650355688146
2186.0,0.00484302369917413
2185.0,0.004866385953863891
2184.0,0.004878113216158829
2183.0,0.004852785652838971
2182.0,0.004804570538335824
2181.0,0.004777652015120408
2180.0,0.004782380410506113
2179.0,0.004789626026019572
2178.0,0.004785089573891947
2177.0,0.0047779764337263905
2176.0,0.004761380003623368
2175.0,0.004718608637766994
2174.0,0.0046685032029105695
2173.0,0.00465195300539308
2172.0,0.004673349950058116
2171.0,0.004704719675164874
2170.0,0.004740677645003758
2169.0,0.004797579159309028
2168.0,0.004864329105376131
2167.0,0.004907510048373278
2166.0,0.004924834081698504
2165.0,0.004943182347631549
2164.0,0.004966990588706761
2163.0,0.004979208526771424
2162.0,0.004980025448679137
2161.0,0.004961966344004805
2160.0,0.0048632584482147115
2159.0,0.004634882396223094
2158.0,0.004352036554495074
2157.0,0.0041579515115661705
2156.0,0.0041026814594038435
2155.0,0.004132768981624508
2154.0,0.004200297468309705
2153.0,0.004287848638270376
2152.0,0.004363585332994512
2151.0,0.004397155868495156
2150.0,0.004409826793607458
2149.0,0.0044438567667889695
2148.0,0.004489253419016649
2147.0,0.00450081371824884
2146.0,0.004475232398714393
2145.0,0.0044502000643030695
2144.0,0.004437060003849075
2143.0,0.00441520219638136
2142.0,0.004385930211415438
2141.0,0.004372564914742283
2140.0,0.004371362022423686
2139.0,0.004355530069243918
2138.0,0.004324231477975941
2137.0,0.0042987494281705564
2136.0,0.004276099340341647
2135.0,0.00423614701643285
2134.0,0.004189317662197562
2133.0,0.004167920692002186
2132.0,0.0041754926471332
2131.0,0.0041892716945836714
2130.0,0.004204800126364611
2129.0,0.004234187313758116
2128.0,0.00426860852372633
2127.0,0.00428421016221312
2126.0,0.0042819335981914945
2125.0,0.004284518812502476
2124.0,0.0042979222810388806
2123.0,0.004310544635335374
2122.0,0.0043252391145080895
2121.0,0.004354736391562392
2120.0,0.004389100105538718
2119.0,0.0044050831492548565
2118.0,0.004405605945648528
2117.0,0.0044145637037697446
2116.0,0.004433939326902762
2115.0,0.004441912256884166
2114.0,0.004433458461976286
2113.0,0.004427555207002699
2112.0,0.004432985536385833
2111.0,0.004440558961736262
2110.0,0.004449712247592869
2109.0,0.004468302238640247
2108.0,0.00448578210041138
2107.0,0.004481265265986731
2106.0,0.004459514985730551
2105.0,0.004445360396306152
2104.0,0.004443621658137088
2103.0,0.004438206209886622
2102.0,0.004429192560441344
2101.0,0.004432657981266288
2100.0,0.004444405113644995
2099.0,0.004440686974759183
2098.0,0.004416209403369717
2097.0,0.0043885798578558975
2096.0,0.004364924446831307
2095.0,0.00433989867325546
2094.0,0.0043235850766766126
2093.0,0.004332901434183644
2092.0,0.004357613858822728
2091.0,0.004371181811259146
2090.0,0.004371617003327187
2089.0,0.004377121279253103
2088.0,0.004387114989921736
2087.0,0.004385578542360511
2086.0,0.0043781356466825305
2085.0,0.004385910253952653
2084.0,0.004405296710817566
2083.0,0.004412991729132459
2082.0,0.004408959635120336
2081.0,0.004413709319438398
2080.0,0.004424913044095131
2079.0,0.004419699605701835
2078.0,0.004400491992124109
2077.0,0.004395112170920354
2076.0,0.004408560346619526
2075.0,0.004418423315222189
2074.0,0.00441998876675443
2073.0,0.004430075110006774
2072.0,0.004446301399023841
2071.0,0.004445549232889022
2070.0,0.004427026699068783
2069.0,0.004413753007534097
2068.0,0.004409365063099785
2067.0,0.004396108427646215
2066.0,0.004375248144280974
2065.0,0.004365002744887165
2064.0,0.0043604943661464885
2063.0,0.00434390279551607
2062.0,0.004329504357321636
2061.0,0.004345820413696389
2060.0,0.004379835275001271
2059.0,0.00439194746522135
2058.0,0.004381217456790227
2057.0,0.0043784002942419496
2056.0,0.004381309917005478
2055.0,0.00436108000502043
2054.0,0.004333239117535903
2053.0,0.004350711248572097
2052.0,0.004417251127849003
2051.0,0.00447223750730151
2050.0,0.004474586246449669
2049.0,0.004446251163426873
2048.0,0.004417561546226145
2047.0,0.004388495649717963
2046.0,0.004367197505635849
2045.0,0.004380559583152514
2044.0,0.004421048619417381
2043.0,0.00444552860754786
2042.0,0.0044436686269253
2041.0,0.0044480881076665
2040.0,0.004466026375420801
2039.0,0.004467446050273292
2038.0,0.0044507268445979345
2037.0,0.0044467587806495245
2036.0,0.004450718503805937
2035.0,0.004423397890704881
2034.0,0.004371138761878253
2033.0,0.004346514441688904
2032.0,0.004357363713749525
2031.0,0.004359807008297007
2030.0,0.0043474197953704205
2029.0,0.004359686118998978
2028.0,0.004396869986754936
2027.0,0.00441250464716352
2026.0,0.0044016206611083835
2025.0,0.0044063687507737235
2024.0,0.004430629473817099
2023.0,0.004431831255191161
2022.0,0.004405538839201772
2021.0,0.0043937176502122696
2020.0,0.0044010699018987584
2019.0,0.0043854580254268265
2018.0,0.004341403514579342
2017.0,0.004313394249557651
2016.0,0.004312107839355695
2015.0,0.004299636464082916
2014.0,0.004267555467244325
2013.0,0.004248447930146305
2012.0,0.0042487348756824125
2011.0,0.0042430065222451826
2010.0,0.004233702868563163
2009.0,0.00424065514078016
2008.0,0.004236227609944472
2007.0,0.004173255590050379
2006.0,0.004076165506717258
2005.0,0.004017203533494499
2004.0,0.004010620236252916
2003.0,0.00401047303428094
2002.0,0.004001391921657205
2001.0,0.004009067033606256
2000.0,0.0040273544001340755
1999.0,0.00402406454565312
1998.0,0.004009114038248081
1997.0,0.004024174221480624
1996.0,0.004066958915636664
1995.0,0.004098030597463855
1994.0,0.004113173868087242
1993.0,0.004139577632467496
1992.0,0.004166168881045035
1991.0,0.0041560954614385465
1990.0,0.004125396824209231
1989.0,0.004120202648997693
1988.0,0.004129484575048489
1987.0,0.00410562324181118
1986.0,0.00406095655260309
1985.0,0.004055752309033487
1984.0,0.004094747249560024
1983.0,0.004126005996914612
1982.0,0.0041402799010391185
1981.0,0.004177072679783767
1980.0,0.00422277433782693
1979.0,0.004208265631483483
1978.0,0.004122857072655939
1977.0,0.004039270469507611
1976.0,0.003994715746763087
1975.0,0.00395469355280965
1974.0,0.003911389291969444
1973.0,0.0039012284692790684
1972.0,0.003914989245950532
1971.0,0.003899804447327156
1970.0,0.0038579500830772818
1969.0,0.00384522160318125
1968.0,0.0038650521872798894
1967.0,0.003859063363535647
1966.0,0.0038180206930785478
1965.0,0.0037966789191173486
1964.0,0.0038077724385946815
1963.0,0.003806789570119675
1962.0,0.0037832020163876723
1961.0,0.003774834214199644
1960.0,0.0037856576005180554
1959.0,0.003777001703020453
1958.0,0.003748747875149938
1957.0,0.003743517595765874
1956.0,0.003764843554302009
1955.0,0.003772062150630482
1954.0,0.003758966242639757
1953.0,0.003759290592313932
1952.0,0.0037746001485138682
1951.0,0.0037678510226553156
1950.0,0.003739612459752931
1949.0,0.003731076369101672
1948.0,0.0037444244446409244
1947.0,0.0037382092506764654
1946.0,0.003709560603819271
1945.0,0.0037046696291175825
1944.0,0.0037334373222485586
1943.0,0.0037453495289593575
1942.0,0.0037171590463164423
1941.0,0.0036904259042756056
1940.0,0.0036913225359633504
1939.0,0.0036971939721945203
1938.0,0.0036937122993516286
1937.0,0.0036957148718370883
1936.0,0.003703517825366568
1935.0,0.003694970994079817
1934.0,0.003672461592438296
1933.0,0.003664610423953114
1932.0,0.003672649978431019
1931.0,0.003662907818981018
1930.0,0.00363194593482207
1929.0,0.0036137024671333774
1928.0,0.003616406498015231
1927.0,0.00361724542184806
1926.0,0.003614300248569767
1925.0,0.0036402160348227132
1924.0,0.0036901495959365035
1923.0,0.003707993685384895
1922.0,0.0036724637369599266
1921.0,0.0036320153385730174
1920.0,0.0036237314449145508
1919.0,0.0036268427773393287
1918.0,0.003611827307842088
1917.0,0.003593527380166733
1916.0,0.0035924746000851266
1915.0,0.0035991864149024226
1914.0,0.003603988484339231
1913.0,0.0036174391435624125
1912.0,0.0036438896432274366
1911.0,0.0036660337720153466
1910.0,0.0036766337940653464
1909.0,0.0036876547969821333
1908.0,0.003698543135062667
1907.0,0.0036957204656090474
1906.0,0.003681181525448098
1905.0,0.003681492582489029
1904.0,0.0036997905581702783
1903.0,0.0037100871467083663
1902.0,0.003705667619730325
1901.0,0.0037064442340319784
1900.0,0.003716283586295327
1899.0,0.0037190569788295436
1898.0,0.003714080953058203
1897.0,0.0037235506107292067
1896.0,0.0037446300105795655
1895.0,0.0037417416477331846
1894.0,0.0037060664118526427
1893.0,0.00367386273419765
1892.0,0.003669400599539832
1891.0,0.0036756019495884982
1890.0,0.0036683516435655067
1889.0,0.0036512166616653576
1888.0,0.003637938108257522
1887.0,0.0036293032038899895
1886.0,0.0036259316152681366
1885.0,0.0036321059672066607
1884.0,0.003636990800715327
1883.0,0.0036227376255246295
1882.0,0.003600178991280863
1881.0,0.0035972327739865946
1880.0,0.0036126200804229313
1879.0,0.0036198041597444554
1878.0,0.0036101632191205208
1877.0,0.003603236670546507
1876.0,0.003608348058440132
1875.0,0.0036070997211349806
1874.0,0.003588672082905736
1873.0,0.003567443646357498
1872.0,0.003554606627917363
1871.0,0.003546622491201264
1870.0,0.0035449619553174294
1869.0,0.0035563698061114417
1868.0,0.0035664865756495434
1867.0,0.0035571589646485797
1866.0,0.003542922682492745
1865.0,0.0035488015305195947
1864.0,0.0035704942674848897
1863.0,0.0035839904036346843
1862.0,0.003584966210959598
1861.0,0.0035902158754520766
1860.0,0.0035992141482894115
1859.0,0.003591984522337384
1858.0,0.0035684508157952707
1857.0,0.0035523969969763454
1856.0,0.00355216100015363
1855.0,0.003551452168635296
1854.0,0.003544752277533458
1853.0,0.003545077304294987
1852.0,0.003549343063661379
1851.0,0.003550524734629081
1850.0,0.0035516484155509844
1849.0,0.0035583775579949607
1848.0,0.0035553735243385514
1847.0,0.0035269535388669417
1846.0,0.0034939844171475282
1845.0,0.0034917745065483384
1844.0,0.0035100102153363235
1843.0,0.003508106305897366
1842.0,0.003494761269960721
1841.0,0.0035050554974989487
1840.0,0.0035383933778352374
1839.0,0.0035649675239740643
1838.0,0.003570137337252268
1837.0,0.0035740245766653638
1836.0,0.003582471633548144
1835.0,0.00357265841325759
1834.0,0.003537881668949019
1833.0,0.0035028600759153127
1832.0,0.003489162201378771
1831.0,0.003493883317652499
1830.0,0.0034918098298619316
1829.0,0.0034799284442418002
1828.0,0.003480679099259655
1827.0,0.0035041308004592694
1826.0,0.003542921153297152
1825.0,0.003581310567408
1824.0,0.0036014014683038616
1823.0,0.0036002169815843913
1822.0,0.003595788863444108
1821.0,0.0036014048568178652
1820.0,0.003608365183739215
1819.0,0.0036001362506787693
1818.0,0.003578332606345036
1817.0,0.0035646725130259304
1816.0,0.0035626688259988906
1815.0,0.003559962183037271
1814.0,0.003561602707157253
1813.0,0.0035795499720716883
1812.0,0.0036064689917384677
1811.0,0.003613055265151017
1810.0,0.003599211196422296
1809.0,0.00359967722809424
1808.0,0.0036206143900863533
1807.0,0.0036326765680275773
1806.0,0.0036259438083244386
1805.0,0.0036249176982752034
1804.0,0.003643861453272087
1803.0,0.003664558815387662
1802.0,0.0036715738071866834
1801.0,0.0036665059901538157
1800.0,0.0036640617081036666
1799.0,0.0036699457895290905
1798.0,0.0036885617408413804
1797.0,0.003713794405575021
1796.0,0.0037196246063173313
1795.0,0.0036902800421871125
1794.0,0.003656038915363836
1793.0,0.003660596014909517
1792.0,0.00369694304979033
1791.0,0.003714466512703768
1790.0,0.003713225517381967
1789.0,0.0037272955109974634
1788.0,0.0037619016223106533
1787.0,0.0037956574733125853
1786.0,0.003816846081570475
1785.0,0.0038304692685623993
1784.0,0.003833576608597523
1783.0,0.003823848473266297
1782.0,0.00382764152812664
1781.0,0.0038545228200694724
1780.0,0.003883789416983998
1779.0,0.00388550139179178
1778.0,0.0038700211595378868
1777.0,0.0038588655931304826
1776.0,0.003841259446058184
1775.0,0.0038038609249925375
1774.0,0.003769195878098836
1773.0,0.003773285101590351
1772.0,0.0038027384811536308
1771.0,0.0038243644958296753
1770.0,0.003865703471469699
1769.0,0.0039616713802151735
1768.0,0.004072654775296868
1767.0,0.004124538031362162
1766.0,0.004117805375093081
1765.0,0.004116753547477103
1764.0,0.004161603263228352
1763.0,0.004232160559359394
1762.0,0.004295074269173952
1761.0,0.004350021087342986
1760.0,0.004420411700361925
1759.0,0.0045057032318190126
1758.0,0.004613597998038263
1757.0,0.004744872506177585
1756.0,0.004865679005124767
1755.0,0.004954036614508441
1754.0,0.0050457722926236575
1753.0,0.005196813458460008
1752.0,0.0054109796931657034
1751.0,0.005622665331463923
1750.0,0.005787080337035497
1749.0,0.005955944789392131
1748.0,0.006148694022766717
1747.0,0.006323297361250985
1746.0,0.006474551580411141
1745.0,0.0066322368815215265
1744.0,0.0067872682698433325
1743.0,0.006880078404357307
1742.0,0.006914467959216158
1741.0,0.006983064589181996
1740.0,0.007124720682243674
1739.0,0.0072422866662139275
1738.0,0.007275396846359584
1737.0,0.007293657179217872
1736.0,0.007384497999541671
1735.0,0.007551422289664071
1734.0,0.007705003045996323
1733.0,0.007805483447584808
1732.0,0.007907878236794168
1731.0,0.008017635627922978
1730.0,0.008119293384917382
1729.0,0.008219554460109807
1728.0,0.008318268817630049
1727.0,0.008405453503655604
1726.0,0.00849030517371813
1725.0,0.008598551382806347
1724.0,0.008727528894891413
1723.0,0.008809487629888431
1722.0,0.008810883634809577
1721.0,0.008789797373367967
1720.0,0.008826512040407585
1719.0,0.00894531329150965
1718.0,0.009106031533701157
1717.0,0.009278487087110328
1716.0,0.009459564930897004
1715.0,0.009622881109548953
1714.0,0.009768183417631849
1713.0,0.00993982979290151
1712.0,0.010145512789988605
1711.0,0.010342509673897255
1710.0,0.010506747381076518
1709.0,0.01065942268980047
1708.0,0.010835160275131048
1707.0,0.011059992742557171
1706.0,0.01133402053368166
1705.0,0.011615968209135926
1704.0,0.011833320391385167
1703.0,0.011978286655453982
1702.0,0.012168304121346934
1701.0,0.01261260380457406
1700.0,0.013289313891731696
1699.0,0.013849253502376825
1698.0,0.01428912654663469
1697.0,0.01486697733281933
1696.0,0.01563517726759838
1695.0,0.016327495668866654
1694.0,0.01681488070260536
1693.0,0.017245416403996752
1692.0,0.0177478514661136
1691.0,0.018327133149507905
1690.0,0.01893017251079783
1689.0,0.019490975791250253
1688.0,0.019947974125113482
1687.0,0.020306986317744427
1686.0,0.020696126564738803
1685.0,0.021387021300210477
1684.0,0.022356529338273066
1683.0,0.02312058816277605
1682.0,0.023673910445056453
1681.0,0.024253632536030013
1680.0,0.024867439611235994
1679.0,0.025384541360333034
1678.0,0.025785236398782184
1677.0,0.026227640474815524
1676.0,0.026861676144023714
1675.0,0.027590912417826356
1674.0,0.028194492495719946
1673.0,0.028670706000568716
1672.0,0.02916403017624723
1671.0,0.02975812434000095
1670.0,0.030463379045339523
1669.0,0.031217497642890175
1668.0,0.031911046354670035
1667.0,0.032470596507716304
1666.0,0.03292468090253331
1665.0,0.03339211437919113
1664.0,0.03398844336091905
1663.0,0.034687869389720544
1662.0,0.035349294109819004
1661.0,0.03591787351146034
1660.0,0.03643748845808381
1659.0,0.03689982200340793
1658.0,0.037249750839551045
1657.0,0.03747417591164744
1656.0,0.037628644430244336
1655.0,0.03779750446198126
1654.0,0.03806386631033317
1653.0,0.03838965666347224
1652.0,0.03862069507410813
1651.0,0.0387296007109239
1650.0,0.03875193053574852
1649.0,0.03877979719188443
1648.0,0.038862549304497084
1647.0,0.038916520508481385
1646.0,0.038861911973107476
1645.0,0.038815641595669116
1644.0,0.03883332502606128
1643.0,0.03884864392388725
1642.0,0.03881833153616861
1641.0,0.03874004621683298
1640.0,0.03862409138790784
1639.0,0.0384699362290768
1638.0,0.03827466666237273
1637.0,0.03804841510304551
1636.0,0.03777740547841536
1635.0,0.03747823030491096
1634.0,0.03723199007739789
1633.0,0.03705994471121073
1632.0,0.03689700231411536
1631.0,0.03666824267500546
1630.0,0.03633353441535192
1629.0,0.0359037510547291
1628.0,0.035419295520044386
1627.0,0.034919534989019195
1626.0,0.034428107734475334
1625.0,0.03393165792406851
1624.0,0.033387344110531667
1623.0,0.032774712422238575
1622.0,0.03217262828524533
1621.0,0.03165825082979306
1620.0,0.03121044249370529
1619.0,0.03075836214291093
1618.0,0.03021757228275676
1617.0,0.029546313418761204
1616.0,0.028850166087592624
1615.0,0.028284784739813412
1614.0,0.02785291209920639
1613.0,0.027468812206194144
1612.0,0.0270602108655907
1611.0,0.026606293441728074
1610.0,0.026136296264113606
1609.0,0.025678242906992842
1608.0,0.0252366757872602
1607.0,0.02481743964344619
1606.0,0.02443840787298308
1605.0,0.02409050226820562
1604.0,0.023749421891272996
1603.0,0.023407428119410868
1602.0,0.02307444457130462
1601.0,0.022758886389523125
1600.0,0.022462002183781287
1599.0,0.022189580498255142
1598.0,0.021943637059373057
1597.0,0.0217085480257783
1596.0,0.02146628644575403
1595.0,0.021220111140499872
1594.0,0.020989273774090596
1593.0,0.020779075332307727
1592.0,0.020580569818189405
1591.0,0.020392772550636575
1590.0,0.02022249281306779
1589.0,0.020065003864659696
1588.0,0.019911420681316398
1587.0,0.019768124146843657
1586.0,0.01964870957759774
1585.0,0.019549094492386825
1584.0,0.019449790496647898
1583.0,0.01935862436672811
1582.0,0.019286632728903762
1581.0,0.01921709351343436
1580.0,0.019129399161820465
1579.0,0.019046225518908225
1578.0,0.01900658233352726
1577.0,0.019011391459410925
1576.0,0.01901106176220504
1575.0,0.018994993696217963
1574.0,0.019001083090434592
1573.0,0.019024591129360106
1572.0,0.01904958687804398
1571.0,0.019090051648753582
1570.0,0.019175700150502017
1569.0,0.01928823082986353
1568.0,0.01939361465583783
1567.0,0.019511524219739212
1566.0,0.019662182825613245
1565.0,0.01982509940906271
1564.0,0.019937337186655107
1563.0,0.019974062466424247
1562.0,0.019958721421267714
1561.0,0.01994768718485841
1560.0,0.02008094048018318
1559.0,0.020435110457835182
1558.0,0.020729670866075054
1557.0,0.020994321596914528
1556.0,0.021307337392735486
1555.0,0.021636637262828967
1554.0,0.021934934756933876
1553.0,0.02216618366206159
1552.0,0.022354100361543033
1551.0,0.02253446067425907
1550.0,0.02268752342813466
1549.0,0.02277284675575817
1548.0,0.022790656740935878
1547.0,0.022785240611845232
1546.0,0.02278075073359199
1545.0,0.02275103801188757
1544.0,0.02264132109228309
1543.0,0.02245113391984389
1542.0,0.022248452613884424
1541.0,0.02208800717512527
1540.0,0.02191152597772328
1539.0,0.021727858176854204
1538.0,0.02162947373556965
1537.0,0.02157722764415964
1536.0,0.021508117256880926
1535.0,0.021390295433367377
1534.0,0.021206722323383068
1533.0,0.020976189085454615
1532.0,0.020772890425004072
1531.0,0.02061882386811707
1530.0,0.02047711926262207
1529.0,0.02032388596040424
1528.0,0.020146495276436176
1527.0,0.019926626772612865
1526.0,0.019669070529282937
1525.0,0.01941197624248859
1524.0,0.01919078736829429
1523.0,0.01900733506328861
1522.0,0.018832408568364552
1521.0,0.018644435679231658
1520.0,0.018468434749971334
1519.0,0.018329343860231443
1518.0,0.018217978307059412
1517.0,0.01808600551754231
1516.0,0.01788268482115024
1515.0,0.017630713547212854
1514.0,0.01738512438629324
1513.0,0.017154447854675375
1512.0,0.016914109112621974
1511.0,0.016641865302152885
1510.0,0.016361653433418447
1509.0,0.016108700499686466
1508.0,0.015831821397255048
1507.0,0.015357456414104905
1506.0,0.014835998028269202
1505.0,0.014609216052369249
1504.0,0.014570225716270112
1503.0,0.014532346792999567
1502.0,0.014438628516643518
1501.0,0.014299720507913338
1500.0,0.014136033747361665
1499.0,0.013962914698066438
1498.0,0.013805245670524066
1497.0,0.013696860385618202
1496.0,0.013618648837017503
1495.0,0.013515884694124897
1494.0,0.013405803138831645
1493.0,0.013338896974959602
1492.0,0.013314257399787437
1491.0,0.013273757727894043
1490.0,0.013194059784263872
1489.0,0.013131121111385482
1488.0,0.0131084294265536
1487.0,0.013088232879386534
1486.0,0.01308522640347866
1485.0,0.013143655466247513
1484.0,0.013248995903155121
1483.0,0.013378168036048452
1482.0,0.01355464530583904
1481.0,0.013819510019867092
1480.0,0.01416084273225426
1479.0,0.014613323546151868
1478.0,0.01540405539471508
1477.0,0.016884711483961572
1476.0,0.019228613588280596
1475.0,0.02231074075121103
1474.0,0.025859467673497824
1473.0,0.029096626799869636
1472.0,0.03082397388281237
1471.0,0.03113306761207279
1470.0,0.03114844678660751
1469.0,0.03141808828115983
1468.0,0.03191380877939744
1467.0,0.03258738346895881
1466.0,0.03360441111548094
1465.0,0.03494394595373121
1464.0,0.03592612620550013
1463.0,0.03587156302112492
1462.0,0.034806923023425175
1461.0,0.033121700594705726
1460.0,0.03121486185957409
1459.0,0.02944068908391809
1458.0,0.028030916574851426
1457.0,0.02699161528118124
1456.0,0.026205716579316512
1455.0,0.025579704409853937
1454.0,0.02499757958423099
1453.0,0.02436616475094136
1452.0,0.0236946018458907
1451.0,0.023074961935986144
1450.0,0.0225682370971236
1449.0,0.02215394866414291
1448.0,0.021801244008957475
1447.0,0.021515330547721614
1446.0,0.021301959851123917
1445.0,0.02112432051767625
1444.0,0.020959387959413617
1443.0,0.020805336326447085
1442.0,0.020649985274941
1441.0,0.02047237690255394
1440.0,0.020275361586163967
1439.0,0.02008570050290097
1438.0,0.019908216946219186
1437.0,0.01971829858977147
1436.0,0.019512067467208787
1435.0,0.01933694246675567
1434.0,0.01919503798927548
1433.0,0.019043302237435483
1432.0,0.01885707628063319
1431.0,0.018651244439386427
1430.0,0.01844851252078321
1429.0,0.01826050392875688
1428.0,0.018100546914692168
1427.0,0.017981218287567432
1426.0,0.01790191837399494
1425.0,0.017832324061095466
1424.0,0.017744145284370617
1423.0,0.017641154495893138
1422.0,0.017545803035511204
1421.0,0.017472545237659304
1420.0,0.017427289412473075
1419.0,0.01740038346909624
1418.0,0.01736021700431868
1417.0,0.017300438618448842
1416.0,0.017232633551600977
1415.0,0.017160527084401085
1414.0,0.017079826896581274
1413.0,0.01698438104129049
1412.0,0.016872950321666552
1411.0,0.016746607851046237
1410.0,0.01660182278788071
1409.0,0.01643869495869949
1408.0,0.01626768237498724
1407.0,0.016096581220247236
1406.0,0.015919723064163286
1405.0,0.015715030942352385
1404.0,0.015486247151237587
1403.0,0.015269561522606778
1402.0,0.015079858489026654
1401.0,0.014898538936061016
1400.0,0.014704926156789679
1399.0,0.014502119807671725
1398.0,0.014307438735687277
1397.0,0.014125716090020002
1396.0,0.013945445346697654
1395.0,0.013758602689467162
1394.0,0.013574450935730923
1393.0,0.013408366146308462
1392.0,0.013271026309212054
1391.0,0.013162091539382541
1390.0,0.013072003960618628
1389.0,0.012989979425746746
1388.0,0.012914588091482016
1387.0,0.01284873892987568
1386.0,0.012795417361250644
1385.0,0.012766167014336936
1384.0,0.012786062065815647
1383.0,0.012875169438658386
1382.0,0.01302520581580349
1381.0,0.01320850779542368
1380.0,0.013390374112898139
1379.0,0.013522237617645675
1378.0,0.013548951856370383
1377.0,0.013452278074257123
1376.0,0.013266709596449107
1375.0,0.013047667603799093
1374.0,0.012841299934936701
1373.0,0.01267917417254551
1372.0,0.012579128907838808
1371.0,0.012532446768886318
1370.0,0.012503922611277474
1369.0,0.012445018628346915
1368.0,0.012332225414997452
1367.0,0.012182112543463906
1366.0,0.012019676190640663
1365.0,0.011854401645634997
1364.0,0.011687508469478481
1363.0,0.011518770833329375
1362.0,0.011347987393706654
1361.0,0.011185482573081062
1360.0,0.011051054465271208
1359.0,0.010955705126700986
1358.0,0.010892372136520737
1357.0,0.010846577339592637
1356.0,0.010813918224815368
1355.0,0.010796118214399629
1354.0,0.010783245850827145
1353.0,0.010758926820079923
1352.0,0.010721168470233647
1351.0,0.010676527574806664
1350.0,0.010625377308782888
1349.0,0.010559209795454577
1348.0,0.010482618664322279
1347.0,0.010410371685122606
1346.0,0.010346186429645122
1345.0,0.010281062422658907
1344.0,0.01021536075738392
1343.0,0.010163159412786508
1342.0,0.01013170654067775
1341.0,0.010107604699897861
1340.0,0.010066226946157214
1339.0,0.009991588957035783
1338.0,0.009885772086115055
1337.0,0.00976412303413272
1336.0,0.009648075418835953
1335.0,0.00955469780781617
1334.0,0.009486131200706169
1333.0,0.009434056660882383
1332.0,0.009394359476452674
1331.0,0.00936841495726447
1330.0,0.009352925022017428
1329.0,0.009341147386584552
1328.0,0.009335148005009035
1327.0,0.009342630800657625
1326.0,0.009363170109139675
1325.0,0.009386843520875248
1324.0,0.009410194326947363
1323.0,0.009439100838826419
1322.0,0.009476517326642713
1321.0,0.009518997430054807
1320.0,0.009564810743107081
1319.0,0.009613366465225068
1318.0,0.009657857098885426
1317.0,0.009692163211913348
1316.0,0.009722260758641965
1315.0,0.009758218919216098
1314.0,0.009797095650194328
1313.0,0.009826149210456662
1312.0,0.009842279687228806
1311.0,0.009855011012675635
1310.0,0.00987020153268064
1309.0,0.009884089889288659
1308.0,0.009893785463304584
1307.0,0.00990061442506263
1306.0,0.00990388795420153
1305.0,0.009900060932671298
1304.0,0.009891656731414006
1303.0,0.009885264625594215
1302.0,0.009880920119526387
1301.0,0.009872544338006854
1300.0,0.009859488317101367
1299.0,0.009847533899086248
1298.0,0.009838022482410745
1297.0,0.009826101291197258
1296.0,0.009810252513332517
1295.0,0.009794935755400809
1294.0,0.009782595716674225
1293.0,0.0097723935002851
1292.0,0.009767257679146988
1291.0,0.00977285715682261
1290.0,0.009788478237556407
1289.0,0.00980702361536644
1288.0,0.00982484228287441
1287.0,0.009844320533453535
1286.0,0.009867164837545477
1285.0,0.009893268573908856
1284.0,0.009925853407302303
1283.0,0.009969295255204257
1282.0,0.010021616023726154
1281.0,0.010076301422278104
1280.0,0.010130879659465832
1279.0,0.010187957902561998
1278.0,0.010248975744614069
1277.0,0.01031423665369257
1276.0,0.010386760652800343
1275.0,0.01046945457697634
1274.0,0.010559594675063124
1273.0,0.010652439560861558
1272.0,0.010748213808951863
1271.0,0.010849388597045212
1270.0,0.010953969840050667
1269.0,0.011058577981109024
1268.0,0.011165457615247251
1267.0,0.011279349765802752
1266.0,0.011399403115209582
1265.0,0.011521323770032985
1264.0,0.011645196677342725
1263.0,0.011774319130138836
1262.0,0.01190820309629177
1261.0,0.012043061844596714
1260.0,0.0121773854299162
1259.0,0.012312369800922587
1258.0,0.01244840660855786
1257.0,0.012586434834481932
1256.0,0.012730090496116347
1255.0,0.012882269903563994
1254.0,0.013041640182224572
1253.0,0.013206050702037751
1252.0,0.013375953949611167
1251.0,0.013551218651968226
1250.0,0.01372817589008779
1249.0,0.013903581131353555
1248.0,0.014078134237482783
1247.0,0.014253188338306747
1246.0,0.014426889986769543
1245.0,0.014596255245991941
1244.0,0.014759738704945086
1243.0,0.014916055610820454
1242.0,0.01506405461663966
1241.0,0.015204933353501246
1240.0,0.015340746726227098
1239.0,0.015469910090537907
1238.0,0.015588131689846227
1237.0,0.01569450098212582
1236.0,0.01579261295369542
1235.0,0.015885150694439885
1234.0,0.015971325410410245
1233.0,0.016050066410818496
1232.0,0.016121845328056716
1231.0,0.016186757552016377
1230.0,0.016244237514308944
1229.0,0.016295015808062897
1228.0,0.016340268369611922
1227.0,0.016379071904213272
1226.0,0.01640980800288299
1225.0,0.016433559475200865
1224.0,0.016453129537289515
1223.0,0.01646941541474904
1222.0,0.016481549348491328
1221.0,0.016489369995033382
1220.0,0.016492693732731524
1219.0,0.016489697481460345
1218.0,0.016479446474083063
1217.0,0.01646486452436609
1216.0,0.01644967727672267
1215.0,0.016433658869690147
1214.0,0.016414543230118615
1213.0,0.016393523299791244
1212.0,0.016374945438621
1211.0,0.01636072085830014
1210.0,0.016348942442318725
1209.0,0.01633813950178872
1208.0,0.016329266308417727
1207.0,0.016323060387082665
1206.0,0.01631871717269193
1205.0,0.016316034242869974
1204.0,0.01631629064490987
1203.0,0.016320403203914303
1202.0,0.01632808089800283
1201.0,0.016338960627500756
1200.0,0.016352890595655922
1199.0,0.016369368500691758
1198.0,0.016388147469063283
1197.0,0.01641008382491274
1196.0,0.01643619273038478
1195.0,0.016466852175140042
1194.0,0.016503110819285512
1193.0,0.016546710056383196
1192.0,0.016597201700624866
1191.0,0.01665131563904563
1190.0,0.016707435743760938
1189.0,0.01676834700696154
1188.0,0.016837028918404103
1187.0,0.0169122954725686
1186.0,0.016991406619503515
1185.0,0.017074433176301633
1184.0,0.01716297829308315
1183.0,0.017257457601148097
1182.0,0.017358928153084527
1181.0,0.017470294254067358
1180.0,0.01759162670500472
1179.0,0.017717353191923548
1178.0,0.01784233581513278
1177.0,0.0179676760742944
1176.0,0.018096622692947904
1175.0,0.018228453775540856
1174.0,0.01836068591032824
1173.0,0.018493275368341843
1172.0,0.018626340202353688
1171.0,0.018757793805882182
1170.0,0.01888756801379749
1169.0,0.019019848988170864
1168.0,0.019156856968195215
1167.0,0.01929494087553953
1166.0,0.01943076675581636
1165.0,0.01956608400824204
1164.0,0.019702451408508084
1163.0,0.01983757562193738
1162.0,0.019971128597523376
1161.0,0.02010706473362331
1160.0,0.020245459707038553
1159.0,0.020379817879301244
1158.0,0.02050762808674023
1157.0,0.0206354583127546
1156.0,0.020767826736714772
1155.0,0.020899315095451322
1154.0,0.021023856241410996
1153.0,0.021143480107247106
1152.0,0.021261546202328407
1151.0,0.021375889418328502
1150.0,0.02148519053813207
1149.0,0.021593689153708913
1148.0,0.021703518926502723
1147.0,0.02181106040035007
1146.0,0.021916339820977297
1145.0,0.022026672028149966
1144.0,0.022145432391882887
1143.0,0.022267130840915972
1142.0,0.022389189002475548
1141.0,0.022518142027673806
1140.0,0.02265803401350677
1139.0,0.02280366973144868
1138.0,0.022951833090223056
1137.0,0.02310767776104633
1136.0,0.023273070831785158
1135.0,0.02344059711936433
1134.0,0.023606558713040193
1133.0,0.023777520619978385
1132.0,0.023956390878586923
1131.0,0.024134883438553262
1130.0,0.02430786490960241
1129.0,0.024482192710018967
1128.0,0.024663125824760587
1127.0,0.024845577077917323
1126.0,0.02502762878822001
1125.0,0.02521849016034982
1124.0,0.02542362103684008
1123.0,0.025636378959970684
1122.0,0.025853639804104888
1121.0,0.02608452234755513
1120.0,0.026333849228316067
1119.0,0.026592342021390502
1118.0,0.02685266539123363
1117.0,0.02711897075978654
1116.0,0.027390802362060113
1115.0,0.027655096132068527
1114.0,0.02790527812348991
1113.0,0.028150503149744932
1112.0,0.028394901360115223
1111.0,0.028627192698440863
1110.0,0.02884243700743183
1109.0,0.029053230615320023
1108.0,0.029267551016075886
1107.0,0.029476367907947422
1106.0,0.029675145688864056
1105.0,0.029875168721422117
1104.0,0.03008103672365433
1103.0,0.0302792747800813
1102.0,0.030462032617308114
1101.0,0.030640263343722475
1100.0,0.03082095158112006
1099.0,0.030994272996205108
1098.0,0.031155129912576705
1097.0,0.03131457278198577
1096.0,0.031477632273320656
1095.0,0.031633708561805474
1094.0,0.03177984334973809
1093.0,0.03192836422975977
1092.0,0.03208099234427638
1091.0,0.032221827454260075
1090.0,0.032346285845489764
1089.0,0.03246940733249816
1088.0,0.03259494426061099
1087.0,0.03270553329886952
1086.0,0.03279515372812035
1085.0,0.03288013884234083
1084.0,0.0329645254858466
1083.0,0.03302634412009559
1082.0,0.033053155503455715
1081.0,0.033060326177404474
1080.0,0.033059325429569825
1079.0,0.033038625744253015
1078.0,0.0329904443160946
1077.0,0.032926355784999195
1076.0,0.0328520677304511
1075.0,0.03275593376030509
1074.0,0.03263625598137754
1073.0,0.032511449843417174
1072.0,0.03239022998631487
1071.0,0.032259465163073105
1070.0,0.03211265573458226
1069.0,0.031962456242923334
1068.0,0.031814487542555975
1067.0,0.03165718749373537
1066.0,0.031488173263968404
1065.0,0.03132338378453798
1064.0,0.031169300973107827
1063.0,0.031011374944866853
1062.0,0.030839457135733536
1061.0,0.030660673658783853
1060.0,0.030478356222766075
1059.0,0.03028324543887504
1058.0,0.03007502758234562
1057.0,0.02986847120039513
1056.0,0.029668955420798608
1055.0,0.02946468429128799
1054.0,0.029251809593995523
1053.0,0.029045199976873888
1052.0,0.028853498721516525
1051.0,0.02866508614610356
1050.0,0.028471432078829795
1049.0,0.02828153809550308
1048.0,0.02810092637079989
1047.0,0.027920882453672122
1046.0,0.027737208429600972
1045.0,0.027556286103721073
1044.0,0.027377308562045368
1043.0,0.02718982148240589
1042.0,0.026993712426973397
1041.0,0.026803031400217236
1040.0,0.02662497440239215
1039.0,0.02645244558586786
1038.0,0.026281613932556167
1037.0,0.026119049579017443
1036.0,0.02596588641915501
1035.0,0.025811398490649895
1034.0,0.02564827280720984
1033.0,0.02547902759089498
1032.0,0.025301670734605652
1031.0,0.025103678695852522
1030.0,0.02487575130193026
1029.0,0.024618091167427022
1028.0,0.024329752258969328
1027.0,0.024006302583677037
1026.0,0.023651511894712814
1025.0,0.023277765712773943
1024.0,0.02289257477236165
1023.0,0.022497553018033516
1022.0,0.022101823237947123
1021.0,0.021722891536602586
1020.0,0.02137134784169597
1019.0,0.021046041441409646
1018.0,0.02074600506445261
1017.0,0.020476230671874696
1016.0,0.020239413957038384
1015.0,0.020032361685490815
1014.0,0.019853554159617065
1013.0,0.019705589104376257
1012.0,0.01958709598577564
1011.0,0.019489415661593002
1010.0,0.01940323370094208
1009.0,0.019321304910174055
1008.0,0.0192328743791129
1007.0,0.01912355346779548
1006.0,0.018983835140298534
1005.0,0.018811416909116963
1004.0,0.018604382584060893
1003.0,0.01836074356874159
1002.0,0.01808602442451614
1001.0,0.017792332124401882
1000.0,0.017487892189262305
999.0,0.017174728874629737
998.0,0.01685688844337548
997.0,0.016542539980742642
996.0,0.01623625938373066
995.0,0.015936267958594458
994.0,0.015641336935889576
993.0,0.015354735152046127
992.0,0.015079596921422172
991.0,0.014815582029074889
990.0,0.014562164966404355
989.0,0.014321006610208329
988.0,0.014093111504764711
987.0,0.01387674870320212
986.0,0.013669556684277544
985.0,0.01347019450929221
984.0,0.013277103860573142
983.0,0.013088216003359913
982.0,0.01290286674655547
981.0,0.012721933651240701
980.0,0.012545351368709635
979.0,0.012371372003580065
978.0,0.012198878853132474
977.0,0.012028669852185557
976.0,0.011861830786199661
975.0,0.011698233351817027
974.0,0.011537002770725844
973.0,0.011377233176222
972.0,0.01121794128687168
971.0,0.011058388780651646
970.0,0.010898807600643066
969.0,0.010740199670657062
968.0,0.010583448000499726
967.0,0.010429082980795954
966.0,0.010277462446275148
965.0,0.010128373469568616
964.0,0.009980744328125117
963.0,0.009833683668767967
962.0,0.009687988862078528
961.0,0.009546098259729357
960.0,0.00941031614349827
959.0,0.0092812741328857
958.0,0.009158219170510693
957.0,0.009040560041631455
956.0,0.008928593600248448
955.0,0.008822662272333527
954.0,0.00872258478485412
953.0,0.008628665797463462
952.0,0.008542253714132584
951.0,0.008463921559779394
950.0,0.008391939870353322
949.0,0.008324379411441474
948.0,0.008262133794128372
947.0,0.008207743042995456
946.0,0.0081615119036601
945.0,0.008120941637749955
944.0,0.00808380546911481
943.0,0.008049449403335256
942.0,0.008017059082513916
941.0,0.007985166418520415
940.0,0.007953393420237966
939.0,0.007922492310273003
938.0,0.007891828692713489
937.0,0.007858541459399024
936.0,0.007819968682680131
935.0,0.007775640515900569
934.0,0.007726568076890717
933.0,0.007673946039829963
932.0,0.007618894328834525
931.0,0.007562239564927041
930.0,0.0075045151738852255
929.0,0.0074475615838846595
928.0,0.007395748145016019
927.0,0.007353386944634629
926.0,0.007320708549586281
925.0,0.007294623541987353
924.0,0.007273721514644773
923.0,0.007260019783658195
922.0,0.007255335048426178
921.0,0.007258486628543594
920.0,0.007266869674964127
919.0,0.0072785076184777725
918.0,0.007291844372271386
917.0,0.007305674134686007
916.0,0.007319902502375634
915.0,0.007334067736076347
914.0,0.007343940162169863
913.0,0.007341274772103109
912.0,0.007318114691438537
911.0,0.0072705095765609705
910.0,0.007198241540926008
909.0,0.007103340545455087
908.0,0.006990370877063933
907.0,0.006866337997919903
906.0,0.006737755935691954
905.0,0.0066080592340568185
904.0,0.00647897601348576
903.0,0.006352950797285109
902.0,0.006232604890106647
901.0,0.006119319670721216
900.0,0.006013970475662694
899.0,0.005917462702281887
898.0,0.005828790228053431
897.0,0.005744895187514828
896.0,0.005664237112317463
895.0,0.005588803164923974
894.0,0.005521025387331431
893.0,0.005460774503798281
892.0,0.005406877867123976
891.0,0.00535893507540235
890.0,0.005315467710522581
889.0,0.00527277927501912
888.0,0.0052286081580824924
887.0,0.005185826500236839
886.0,0.005150496610165726
885.0,0.005127289965319111
884.0,0.005118223638853052
883.0,0.005124030019521119
882.0,0.005144520856545492
881.0,0.005178234080804846
880.0,0.005222395833334224
879.0,0.005271986440981046
878.0,0.005319491479324128
877.0,0.0053592405885556325
876.0,0.0053930228214996
875.0,0.005427316502234714
874.0,0.005461044254531269
873.0,0.0054773270912665435
872.0,0.00545155858743966
871.0,0.005370894517496061
870.0,0.00524744550586715
869.0,0.005112975840177071
868.0,0.005000035502937528
867.0,0.004924931683314466
866.0,0.004883476621849889
865.0,0.004860455748214289
864.0,0.004843176315898361
863.0,0.004827026340587936
862.0,0.0048115497268517125
861.0,0.0047952909959243645
860.0,0.004775370897039109
859.0,0.004749841702822761
858.0,0.00471914902940347
857.0,0.004685832240271349
856.0,0.00465252119216566
855.0,0.004619193267763876
854.0,0.004583422969610933
853.0,0.004545572245691494
852.0,0.004512707051295134
851.0,0.0044937375751362574
850.0,0.004490344649482253
849.0,0.00449648699001221
848.0,0.00450780959202207
847.0,0.004527297446063115
846.0,0.004559167971737296
845.0,0.00460056349041189
844.0,0.004642867006068127
843.0,0.004680101168066822
842.0,0.004713825438937261
841.0,0.004750488098408879
840.0,0.004795830297255929
839.0,0.004851521041375288
838.0,0.0049153253204304494
837.0,0.004983703042886218
836.0,0.0050543380592062755
835.0,0.005126389079097425
834.0,0.0051990249169432175
833.0,0.005270838980354263
832.0,0.00534097105977429
831.0,0.005409960786809404
830.0,0.005478604935146746
829.0,0.00554585758382156
828.0,0.005608720951833615
827.0,0.00566512324230543
826.0,0.00571640920018
825.0,0.005765687110372262
824.0,0.005814344483870608
823.0,0.005862435335830406
822.0,0.0059116883412474435
821.0,0.005964560473952905
820.0,0.006020345187990595
819.0,0.006075653417322947
818.0,0.006129137721254363
817.0,0.0061827693919418
816.0,0.0062377289389796645
815.0,0.0062919735302238555
814.0,0.0063434022462082375
813.0,0.006392896787240664
812.0,0.006442366760501382
811.0,0.006492257661140687
810.0,0.006543065536647963
809.0,0.006596862960049972
808.0,0.00665487628298179
807.0,0.006715410655008334
806.0,0.006776290180569569
805.0,0.006837244652978582
804.0,0.006897908153125394
803.0,0.006956119525083073
802.0,0.007010605610686588
801.0,0.007062749590936905
800.0,0.007112990559764254
799.0,0.007158215737594812
798.0,0.007195789146620259
797.0,0.007227572926945328
796.0,0.00725652967324761
795.0,0.0072816849894990175
794.0,0.007300222472095002
793.0,0.007312950943653494
792.0,0.007323938914637259
791.0,0.007335547643492563
790.0,0.0073468752017649165
789.0,0.007356903905820406
788.0,0.0073668962030256566
787.0,0.007379200764976619
786.0,0.007394612619637905
785.0,0.007411102843631173
784.0,0.007425468870885932
783.0,0.0074366427213202885
782.0,0.007446137246403955
781.0,0.007454005848773038
780.0,0.007456472648651281
779.0,0.0074502231996222135
778.0,0.007437006861523415
777.0,0.007420671250385107
776.0,0.007402061680906145
775.0,0.007381509517415365
774.0,0.007364189422464062
773.0,0.0073570439963019565
772.0,0.0073611580134982126
771.0,0.007372398030553957
770.0,0.007388389108751144
769.0,0.0074091846268127745
768.0,0.007432314192986454
767.0,0.007454165679408972
766.0,0.007476216033997535
765.0,0.007503121601583973
764.0,0.007534705635803867
763.0,0.007566528371045697
762.0,0.0075978875642257505
761.0,0.00763192106968244
760.0,0.007668292343793397
759.0,0.00770412852054294
758.0,0.007741981897881502
757.0,0.007787502706377
756.0,0.007838507757003897
755.0,0.007886059959789337
754.0,0.00792778855888513
753.0,0.007970172014959512
752.0,0.008016157764419756
751.0,0.008061159529952346
750.0,0.008103052855449919
749.0,0.008145086504628096
748.0,0.008186568194581157
747.0,0.008221779180212168
746.0,0.008250950590949211
745.0,0.008281220224700661
744.0,0.008314386006619184
743.0,0.008345891269142607
742.0,0.008378170358530352
741.0,0.008421750908104918
740.0,0.008481453971897077
739.0,0.008556927319109354
738.0,0.008659028408975646
737.0,0.008812905089313894
736.0,0.009056197530204022
735.0,0.009468630948329483
734.0,0.010196078091790333
733.0,0.011368366371187648
732.0,0.012914959955315754
731.0,0.014463287747748146
730.0,0.015508960419005069
729.0,0.01578177752255667
728.0,0.015452883254067764
727.0,0.014965293339602462
726.0,0.014704844385343436
725.0,0.014845189681661031
724.0,0.015428568867554022
723.0,0.016495992518811904
722.0,0.018064414239835427
721.0,0.01993179037383328
720.0,0.021546282408243425
719.0,0.022263501779523128
718.0,0.02184132774840376
717.0,0.020557842018529376
716.0,0.01889009453000097
715.0,0.017220777335942437
714.0,0.015758781169090706
713.0,0.014575848250399683
712.0,0.013661798115210348
711.0,0.012966319289559016
710.0,0.012432087003450599
709.0,0.012017803414549545
708.0,0.01169797175916738
707.0,0.011448478423961673
706.0,0.011244211154716147
705.0,0.011071445151364476
704.0,0.01092968637761833
703.0,0.01081680820038131
702.0,0.010722202801601605
701.0,0.010635815475420411
700.0,0.010553092479333132
699.0,0.010470040271881163
698.0,0.01038169097677293
697.0,0.010288259855483805
696.0,0.010195461723149078
695.0,0.010106136232601676
694.0,0.010019731964705866
693.0,0.009938811596814796
692.0,0.009867541878593887
691.0,0.009805186476708184
690.0,0.009747783017371234
689.0,0.00969678443363338
688.0,0.009656876567392763
687.0,0.009623977070832802
686.0,0.009587855257766821
685.0,0.009546344733774683
684.0,0.009505713083641171
683.0,0.009469044664941145
682.0,0.009433327690714446
681.0,0.009397324498531747
680.0,0.009363779927474667
679.0,0.009334027055770132
678.0,0.009306093756171679
677.0,0.009277701349224673
676.0,0.00925082207975731
675.0,0.009224477425491626
674.0,0.009197072260511021
673.0,0.009172954799876553
672.0,0.009162078988463603
671.0,0.00917242573681385
670.0,0.00921018071210599
669.0,0.009272293034994354
668.0,0.009304034368856427
667.0,0.00922012872077174
666.0,0.00908889423606225
665.0,0.008990089214612683
664.0,0.008925550462388812
663.0,0.008882049595138974
662.0,0.008850192435421735
661.0,0.008826223240497737
660.0,0.008808199088184912
659.0,0.008789449750786221
658.0,0.008763547047056815
657.0,0.00873275039787041
656.0,0.008706255641197688
655.0,0.00868435960039152
654.0,0.008660620861568645
653.0,0.008635396400156665
652.0,0.00861315669368284
651.0,0.008589031130798222
650.0,0.008554136621156477
649.0,0.00851189621457113
648.0,0.008472961179845723
647.0,0.008434387523841735
646.0,0.008381419942246712
645.0,0.00831289286721528
644.0,0.008246269824397951
643.0,0.00819478818589545
642.0,0.008151809085291277
641.0,0.008101359286855197
640.0,0.008036140816265039
639.0,0.007961971954701785
638.0,0.007892064579242833
637.0,0.00783824473778432
636.0,0.007802523362506862
635.0,0.0077756566199131145
634.0,0.0077490804334250755
633.0,0.007724726265466806
632.0,0.007703233400728747
631.0,0.00767062761460942
630.0,0.007612286472850283
629.0,0.007535129889702482
628.0,0.00745842032040946
627.0,0.007384954683251021
626.0,0.007295160091143055
625.0,0.0071748610095561174
624.0,0.007035660072630814
623.0,0.006901812762127368
622.0,0.006785883457935658
621.0,0.0066820239810607505
620.0,0.00658050272864304
619.0,0.006483092825566675
618.0,0.006404730704530903
617.0,0.006362660388695955
616.0,0.006365462090763923
615.0,0.006407779712297914
614.0,0.006472181197482668
613.0,0.006535757877246896
612.0,0.006573152275971772
611.0,0.0065681239678389465
610.0,0.006537532050920879
609.0,0.006525168347138838
608.0,0.006554412250975758
607.0,0.006600685906453114
606.0,0.006625368944618326
605.0,0.006628150499248198
604.0,0.006639258020338455
603.0,0.006674978458178011
602.0,0.006724716066568666
601.0,0.006768363217996598
600.0,0.006782836590314345
599.0,0.006745285470129366
598.0,0.006659596924001213
597.0,0.00656355502958752
596.0,0.00648667807417117
595.0,0.006418135553045188
594.0,0.0063290280747010305
593.0,0.006212023013898891
592.0,0.00607870214686515
591.0,0.005934820172186278
590.0,0.0057850400787083246
589.0,0.005648511440128512
588.0,0.005544948148846625
587.0,0.005467555985996726
586.0,0.005384426174963194
585.0,0.005276955900220141
584.0,0.005158870418146907
583.0,0.005046534352269892
582.0,0.004929713643866922
581.0,0.004786710184428833
580.0,0.00461422107543091
579.0,0.004430189878958182
578.0,0.004257533391457223
577.0,0.004118736511316419
576.0,0.004041945086831139
575.0,0.00403557606382497
574.0,0.004057185314220233
573.0,0.004059088490388137
572.0,0.004044449806279743
571.0,0.00404358223155017
570.0,0.004053531229996821
569.0,0.0040394470545297365
568.0,0.003993921016902508
567.0,0.003950216758690167
566.0,0.00394293386082431
565.0,0.003979668558696314
564.0,0.004045612113516263
563.0,0.004105272808805498
562.0,0.004115527805552794
561.0,0.004074228932142199
560.0,0.004032616513163303
559.0,0.004039464459488409
558.0,0.004082731129438095
557.0,0.004105817748117729
556.0,0.004067669541454842
555.0,0.003964222948061494
554.0,0.0038174747395054356
553.0,0.003658299401392326
552.0,0.003523196951617239
551.0,0.0034498323051801397
550.0,0.0034405056428872156
