cm-1,A
4000.0,-7.88181396096932e-06
3999.0,4.3745312562249936e-05
3998.0,5.398775585385967e-05
3997.0,2.4169810039259727e-05
3996.0,-2.6661148803095586e-05
3995.0,-7.881950194526264e-05
3994.0,-0.00011708004603641761
3993.0,-0.00012612962243256512
3992.0,-9.315293219609895e-05
3991.0,-2.1564133518935016e-05
3990.0,5.99325955846575e-05
3989.0,0.00011059274300127906
3988.0,0.00010702765580197088
3987.0,6.17607019636323e-05
3986.0,1.264064189887993e-05
3985.0,-7.932817210673255e-06
3984.0,4.528373931192171e-06
3983.0,3.1473762940097995e-05
3982.0,5.498050288394417e-05
3981.0,7.193881086057195e-05
3980.0,8.489928071209966e-05
3979.0,8.755592374503664e-05
3978.0,6.990737622907233e-05
3977.0,3.707629070859525e-05
3976.0,1.2700433235465335e-05
3975.0,1.5977387462930148e-05
3974.0,4.174591881824993e-05
3973.0,6.719632354412579e-05
3972.0,7.267146976589704e-05
3971.0,5.403511254970959e-05
3970.0,2.1798596843496457e-05
3969.0,-4.629419164535464e-06
3968.0,-7.612085731502783e-06
3967.0,1.8702488391838905e-05
3966.0,6.456147702683587e-05
3965.0,0.00011053553854056212
3964.0,0.0001403380742648619
3963.0,0.00015087276939079394
3962.0,0.00015382522635728774
3961.0,0.00016259415373735733
3960.0,0.00017588764931044873
3959.0,0.00018029555523124945
3958.0,0.0001701981296438693
3957.0,0.00016013503418843382
3956.0,0.00016657802616711417
3955.0,0.00018885625697106275
3954.0,0.00021193198221309151
3953.0,0.00022413616231400663
3952.0,0.00022722260555275032
3951.0,0.00022951779186619614
3950.0,0.00023568175705742083
3949.0,0.00024208666225877286
3948.0,0.0002486273205815183
3947.0,0.0002688964945966625
3946.0,0.00031195448470184607
3945.0,0.00035648713956623005
3944.0,0.0003725345785065212
3943.0,0.00036330863108112715
3942.0,0.00035383421602909644
3941.0,0.00034329656584161997
3940.0,0.0002968127249106667
3939.0,0.00018955558641384988
3938.0,5.3520545279297886e-05
3937.0,-2.6390033797177564e-05
3936.0,1.1316486733818978e-05
3935.0,0.0001476055996913004
3934.0,0.0003079152939874678
3933.0,0.00043047299451390384
3932.0,0.0004981455816588038
3931.0,0.0005108469654548668
3930.0,0.00047484677666947105
3929.0,0.00041830445883171
3928.0,0.00037523127935843153
3927.0,0.00033944746356389006
3926.0,0.00026984780274501817
3925.0,0.00016914805240808182
3924.0,9.873478256567769e-05
3923.0,9.733614035460116e-05
3922.0,0.00014511345216377397
3921.0,0.000214420314268075
3920.0,0.00030997461085315123
3919.0,0.00042527861138190286
3918.0,0.000499558727890646
3917.0,0.00048020732751256814
3916.0,0.0004026853104574339
3915.0,0.0003403811867076778
3914.0,0.00030918962171961814
3913.0,0.0002698585729400396
3912.0,0.00019572952971095518
3911.0,0.00010639072890930405
3910.0,3.792843134452391e-05
3909.0,2.6252384360262414e-05
3908.0,8.905898229222102e-05
3907.0,0.00020956457324417888
3906.0,0.00032588835540947863
3905.0,0.0003890372290998286
3904.0,0.00042654878175833397
3903.0,0.0004888479932199687
3902.0,0.0005578444301161042
3901.0,0.00055026667441799
3900.0,0.0004315733306828433
3899.0,0.0002804677730825385
3898.0,0.00019627672533138827
3897.0,0.00019206596167694549
3896.0,0.00022566227094309626
3895.0,0.0002702838978613691
3894.0,0.00031128920136106256
3893.0,0.000309165977879897
3892.0,0.0002265358489087041
3891.0,0.00012323788195426092
3890.0,0.00013004397427534425
3889.0,0.00030271258403507303
3888.0,0.00048555446879583984
3887.0,0.00043233245801573006
3886.0,0.0001628634699246622
3885.0,3.199752871224735e-06
3884.0,0.00015708629113438425
3883.0,0.00048382848416904985
3882.0,0.0006852485883181419
3881.0,0.0006230278344973427
3880.0,0.0004342355930784577
3879.0,0.0003210459972932782
3878.0,0.0003454439914261573
3877.0,0.0004148086494703612
3876.0,0.00038993250129833873
3875.0,0.00028729355299331877
3874.0,0.00032774101245564013
3873.0,0.0006461756866344842
3872.0,0.001023834404275171
3871.0,0.0010771107330993903
3870.0,0.0007799342266670553
3869.0,0.0005209146277665158
3868.0,0.0005636523576471415
3867.0,0.000754563316005547
3866.0,0.0007938712314770231
3865.0,0.0006494272207448956
3864.0,0.0005415048793946317
3863.0,0.0005514692859393379
3862.0,0.0005554640941696724
3861.0,0.0004771142785533417
3860.0,0.00034934221359691955
3859.0,0.0002488234616773626
3858.0,0.00023583976942259405
3857.0,0.00033653750599910463
3856.0,0.000478399723755925
3855.0,0.00047516388784984466
3854.0,0.00038100559040035037
3853.0,0.0004472204162875859
3852.0,0.0006198697156589604
3851.0,0.0007335652356292932
3850.0,0.0007061197754871604
3849.0,0.0005466660473408113
3848.0,0.0003636349815304726
3847.0,0.00025521769254873827
3846.0,0.00024172228474262118
3845.0,0.00028596337098793544
3844.0,0.00034839002438095176
3843.0,0.00043585205199559666
3842.0,0.0005754754442063416
3841.0,0.0007364218961968556
3840.0,0.000836419416436922
3839.0,0.0008577514225615339
3838.0,0.0008452135561907307
3837.0,0.0008374260445065396
3836.0,0.0008533516002893525
3835.0,0.0008787588208893846
3834.0,0.0008413159865379516
3833.0,0.0006665119720189261
3832.0,0.00039948917539756523
3831.0,0.00019943641148842395
3830.0,0.00018344175030794024
3829.0,0.00031434655009275657
3828.0,0.0004422700427125807
3827.0,0.0004783310098535531
3826.0,0.0005129141800588616
3825.0,0.0006903733466800356
3824.0,0.0009743618765152059
3823.0,0.0010875361622060447
3822.0,0.0008455775665441425
3821.0,0.0005556342838785502
3820.0,0.0006128180110778342
3819.0,0.0009811898008250022
3818.0,0.0012628896400020658
3817.0,0.0010844642153609247
3816.0,0.0005688936628470941
3815.0,0.00017936736235002948
3814.0,0.00010211718555326252
3813.0,0.00015179405511008643
3812.0,0.00014202184260916515
3811.0,9.733485535535916e-05
3810.0,0.00012614770306138608
3809.0,0.00017757668909458872
3808.0,9.023706782258648e-05
3807.0,-9.134318659720104e-05
3806.0,-0.00011104643783939631
3805.0,0.00015438462363491154
3804.0,0.0005135896069229096
3803.0,0.0006130761140381502
3802.0,0.0004119091775726261
3801.0,0.0002873363593145868
3800.0,0.00043200481871130637
3799.0,0.0006659995979379453
3798.0,0.0007273010478915272
3797.0,0.0005432005666946094
3796.0,0.0002937623383078075
3795.0,0.00015900259124833815
3794.0,0.0001268220223776314
3793.0,8.553686784594635e-05
3792.0,-2.8463940782669055e-06
3791.0,-8.400714475294106e-05
3790.0,-0.00010460767293722422
3789.0,-6.137708793297258e-05
3788.0,2.366794021831098e-05
3787.0,0.0001162845262436792
3786.0,0.00017087739801592127
3785.0,0.00016762706351388604
3784.0,0.0001547723290475306
3783.0,0.00019942941281402612
3782.0,0.0002923429985965077
3781.0,0.0003447481758078676
3780.0,0.00030669555898519803
3779.0,0.00023366799325828282
3778.0,0.00018757914195564017
3777.0,0.00015032347040401604
3776.0,6.032749609786222e-05
3775.0,-7.767999045347898e-05
3774.0,-0.00016225780610002946
3773.0,-0.00012068352306186499
3772.0,-3.20035670502072e-05
3771.0,-2.0581601668834097e-05
3770.0,-5.45059856819673e-05
3769.0,5.134543817437651e-06
3768.0,0.00018163295208935195
3767.0,0.00033250675012618143
3766.0,0.00032067683939009063
3765.0,0.0001894017370335302
3764.0,0.00010338865935367002
3763.0,0.00012976896789650616
3762.0,0.00017613991608915252
3761.0,0.0001593811712277209
3760.0,0.00014471012252084822
3759.0,0.00021028181000739155
3758.0,0.0002903847200549179
3757.0,0.0003240429001289966
3756.0,0.000363208652189681
3755.0,0.0004466551762600476
3754.0,0.0004987434056056461
3753.0,0.00043121825298496515
3752.0,0.0003223540842747408
3751.0,0.00032961442271933457
3750.0,0.00041522410274069665
3749.0,0.0005026035591006168
3748.0,0.0006738249389879698
3747.0,0.0009026443009536294
3746.0,0.0008782242573103626
3745.0,0.0004924025709810266
3744.0,0.0001949417654380785
3743.0,0.0002953017707685397
3742.0,0.0005851495870977282
3741.0,0.0007630844310270984
3740.0,0.0007688717810826126
3739.0,0.0007609071809539921
3738.0,0.0008310230762107488
3737.0,0.0009225586649244145
3736.0,0.0010420618695793091
3735.0,0.001249977042640649
3734.0,0.0014158791543679569
3733.0,0.0013225351029024397
3732.0,0.0009814419710454372
3731.0,0.0006311117669017658
3730.0,0.0004736323107812717
3729.0,0.0004967652419084877
3728.0,0.0005478980718034866
3727.0,0.0005600726512902466
3726.0,0.0006244434857229021
3725.0,0.0007877422179016474
3724.0,0.0009470382059781719
3723.0,0.0009897064382874817
3722.0,0.0009169713205248479
3721.0,0.0007951127426744599
3720.0,0.0006602532986238622
3719.0,0.0005050351457707098
3718.0,0.00033436308595667695
3717.0,0.00022358368164388616
3716.0,0.00025012996442753954
3715.0,0.00039023433664072326
3714.0,0.0005389852573537226
3713.0,0.0006441916969792505
3712.0,0.0007819122862921437
3711.0,0.0009748214263757002
3710.0,0.0011014068357300339
3709.0,0.001097149360168588
3708.0,0.00100645431566639
3707.0,0.000895254237840936
3706.0,0.0008116524314015598
3705.0,0.0007637400624500024
3704.0,0.0007254720411649616
3703.0,0.0006826521276937928
3702.0,0.0006696714591800106
3701.0,0.0007254652568788175
3700.0,0.000839661638899503
3699.0,0.0009545652559343615
3698.0,0.0009962648245307806
3697.0,0.0009657707188224316
3696.0,0.0009657037519752278
3695.0,0.0010707146650705442
3694.0,0.0012396274321489695
3693.0,0.0013904979973511046
3692.0,0.001497916435689156
3691.0,0.001583649789061987
3690.0,0.001640476036143459
3689.0,0.0015972558949080397
3688.0,0.0014369032519167182
3687.0,0.0012759443294050434
3686.0,0.0011960774849299194
3685.0,0.0011485434970520333
3684.0,0.0010752478531298772
3683.0,0.0010088636592663477
3682.0,0.0009946353763420398
3681.0,0.0010128095120576766
3680.0,0.0010693678383599066
3679.0,0.0012423171486416187
3678.0,0.0015072603425824692
3677.0,0.0015999427012003235
3676.0,0.0013992166743986654
3675.0,0.0011828543199435895
3674.0,0.001213671188436175
3673.0,0.001463933281161984
3672.0,0.0016631440015459536
3671.0,0.0016056709153268603
3670.0,0.0014629042151451605
3669.0,0.0014617030985170218
3668.0,0.0015581406349785996
3667.0,0.0016296600723222305
3666.0,0.0016216264165998693
3665.0,0.0015542990435617656
3664.0,0.0014905171607108676
3663.0,0.0014757565556838244
3662.0,0.0015114349917729544
3661.0,0.0015836872144793018
3660.0,0.0016823897910221665
3659.0,0.001776552397793888
3658.0,0.0018052359879628362
3657.0,0.0017567405894586994
3656.0,0.0017253806068582601
3655.0,0.0017909039478374812
3654.0,0.001929215904467393
3653.0,0.002023283721117696
3652.0,0.0019493404635896258
3651.0,0.0017719018476351923
3650.0,0.0018318711771502134
3649.0,0.0021987781465098322
3648.0,0.0024356996657633224
3647.0,0.002364932358974764
3646.0,0.0021956344433142795
3645.0,0.0020805004342761306
3644.0,0.0020088850374096155
3643.0,0.0019180697081676015
3642.0,0.001798459746754682
3641.0,0.001684441964411078
3640.0,0.0015797361939042676
3639.0,0.0014639185295478143
3638.0,0.0013664593219491449
3637.0,0.0013553510325073938
3636.0,0.0014392824759247016
3635.0,0.001541283410485727
3634.0,0.0016175599755739794
3633.0,0.001712461746984282
3632.0,0.0018620539227364114
3631.0,0.0019740106355635497
3630.0,0.0019587625397963866
3629.0,0.001986576487938519
3628.0,0.0021726127374736524
3627.0,0.0023592041790056646
3626.0,0.0023981214119442144
3625.0,0.0022557113884123167
3624.0,0.002022861424057427
3623.0,0.0018648308571985349
3622.0,0.0018723373506958517
3621.0,0.0019933636379501664
3620.0,0.0021125823594042277
3619.0,0.002158556222272805
3618.0,0.002141012226781009
3617.0,0.0021274265807136655
3616.0,0.0021516462220904945
3615.0,0.002175183453561608
3614.0,0.0021730077762170466
3613.0,0.0021863112879005435
3612.0,0.0022526560931700164
3611.0,0.0023360713006547636
3610.0,0.002359213258270882
3609.0,0.00230815508191013
3608.0,0.002263516557205183
3607.0,0.002280209744570671
3606.0,0.002318876900815897
3605.0,0.002323290550946003
3604.0,0.0022834063431513008
3603.0,0.0022311908271775227
3602.0,0.0022024736171833955
3601.0,0.002219373420940172
3600.0,0.0022919933894940568
3599.0,0.0024063608726993813
3598.0,0.0025288241403621323
3597.0,0.002629890831585651
3596.0,0.0026921563126970803
3595.0,0.002704663890602443
3594.0,0.002669205245807586
3593.0,0.0026033448742809615
3592.0,0.002546225197228442
3591.0,0.002533250276236316
3590.0,0.002554903527907302
3589.0,0.002575763145265979
3588.0,0.002602892739768726
3587.0,0.0026521722752599645
3586.0,0.002690068297082234
3585.0,0.0026965114140143024
3584.0,0.0026824133077134257
3583.0,0.0026611225779349726
3582.0,0.002639356733958963
3581.0,0.0026127482288087235
3580.0,0.0025795459346046237
3579.0,0.0025547867575740216
3578.0,0.0025605248742588127
3577.0,0.002597513514040423
3576.0,0.002639625341506029
3575.0,0.002660525771960874
3574.0,0.002659039374648421
3573.0,0.002656492690101461
3572.0,0.0026831349288461235
3571.0,0.0027753529466931657
3570.0,0.0029576075732531213
3569.0,0.0032197999264080603
3568.0,0.003523101787881882
3567.0,0.0037749729855917243
3566.0,0.0038507327809503425
3565.0,0.0037442162757192208
3564.0,0.003567369233628488
3563.0,0.003415602188668436
3562.0,0.0033304845194474806
3561.0,0.0033077359260989033
3560.0,0.003305285754809763
3559.0,0.00327478787784939
3558.0,0.0032044133194713
3557.0,0.003131960616755034
3556.0,0.0031104933317278914
3555.0,0.003157416502896297
3554.0,0.0032360568590610915
3553.0,0.003295405493818653
3552.0,0.0033217159522400293
3551.0,0.003339638615936524
3550.0,0.003368128667964868
3549.0,0.0033958537764367507
3548.0,0.003411970830345455
3547.0,0.0034413741643863714
3546.0,0.0035132005275030024
3545.0,0.0036049134655267477
3544.0,0.003664921156615387
3543.0,0.0036798915476995726
3542.0,0.003679696559528731
3541.0,0.0036945810427495267
3540.0,0.003727603299233386
3539.0,0.0037672127540136734
3538.0,0.0038133370860186713
3537.0,0.0038805409796177264
3536.0,0.003968628206656044
3535.0,0.00404772465243695
3534.0,0.004092978753848694
3533.0,0.004115377295401605
3532.0,0.00414995583860365
3531.0,0.0042161570087379426
3530.0,0.004299640334589452
3529.0,0.004377561190831921
3528.0,0.004452102351671814
3527.0,0.004540365741837584
3526.0,0.004639449714282934
3525.0,0.004725134668231036
3524.0,0.004782743200586491
3523.0,0.004822869306740468
3522.0,0.004865271211263445
3521.0,0.004922525630499868
3520.0,0.004994063853232305
3519.0,0.005065943527854966
3518.0,0.005118192042978413
3517.0,0.0051406357529233376
3516.0,0.0051482318039441
3515.0,0.00518068987156595
3514.0,0.005282353467500469
3513.0,0.0054707921637683204
3512.0,0.005716915447621557
3511.0,0.005953706939621023
3510.0,0.006112111392526416
3509.0,0.006165238661631059
3508.0,0.006145451981945835
3507.0,0.006107802366776712
3506.0,0.006077569645950128
3505.0,0.006041250387622467
3504.0,0.005981191695158133
3503.0,0.005900306233236863
3502.0,0.005811497170875981
3501.0,0.00572386320452635
3500.0,0.005643543324692857
3499.0,0.005577639337336569
3498.0,0.005536142423107203
3497.0,0.005531505373434683
3496.0,0.005569046712384526
3495.0,0.00563133077400191
3494.0,0.005679510643578531
3493.0,0.0056817939892954104
3492.0,0.005646137071357962
3491.0,0.00562005966651173
3490.0,0.005647074566192158
3489.0,0.005722755611766994
3488.0,0.005802767564448148
3487.0,0.005852921323167021
3486.0,0.005872379000058776
3485.0,0.00586158864416178
3484.0,0.005790648758327924
3483.0,0.005625643872956476
3482.0,0.005390396704912337
3481.0,0.0051784671391599275
3480.0,0.005081305054331886
3479.0,0.005109722490677166
3478.0,0.00519496880868027
3477.0,0.00525598475602581
3476.0,0.0052604756548591414
3475.0,0.00522642573813256
3474.0,0.005176065200744935
3473.0,0.005107863366685908
3472.0,0.005019252987708343
3471.0,0.004935764811274761
3470.0,0.004895232634713825
3469.0,0.004905947175881057
3468.0,0.004940114799592173
3467.0,0.004974612540000869
3466.0,0.005018858794290821
3465.0,0.005092424747556439
3464.0,0.0051911488762061975
3463.0,0.0052891845369170565
3462.0,0.0053625041273668225
3461.0,0.005395213567687631
3460.0,0.005373519390505347
3459.0,0.005296190254170028
3458.0,0.005193261420633043
3457.0,0.00511816756672046
3456.0,0.005108967001596999
3455.0,0.005158531298691234
3454.0,0.005225696881506436
3453.0,0.005273618757960903
3452.0,0.0052981815626067935
3451.0,0.005316505113305682
3450.0,0.005332688358992482
3449.0,0.005327992636806257
3448.0,0.005294230679284095
3447.0,0.005262122384760268
3446.0,0.005271124660883428
3445.0,0.005320768255754308
3444.0,0.00537511517894978
3443.0,0.005410161406765868
3442.0,0.005435037488882402
3441.0,0.005462010795521341
3440.0,0.005476558147071896
3439.0,0.005456020612717856
3438.0,0.0054049254710346415
3437.0,0.0053518964597548905
3436.0,0.005315657360578551
3435.0,0.005287842280385898
3434.0,0.0052505356809834335
3433.0,0.00520264847057382
3432.0,0.005169481641591439
3431.0,0.005185686246188493
3430.0,0.005263680031098237
3429.0,0.00537573471595223
3428.0,0.005471308019960803
3427.0,0.0055168824742437075
3426.0,0.00551892899044636
3425.0,0.00551144956726978
3424.0,0.005526779817158548
3423.0,0.005579045822188912
3422.0,0.005664013733393423
3421.0,0.005762825071759651
3420.0,0.005848992839679707
3419.0,0.005903507706215639
3418.0,0.00592620601602796
3417.0,0.005929851017851104
3416.0,0.005925952129428123
3415.0,0.005916923469267515
3414.0,0.005899226472415215
3413.0,0.005873598703645171
3412.0,0.005853413798437483
3411.0,0.005860316033295829
3410.0,0.005904580364014211
3409.0,0.005967769749844629
3408.0,0.00600942932099038
3407.0,0.005995354121266932
3406.0,0.005919707979225634
3405.0,0.00580434945228853
3404.0,0.00568741319042167
3403.0,0.005616818215140949
3402.0,0.005638648500233408
3401.0,0.0057651203858137615
3400.0,0.005946756911156302
3399.0,0.006091633003005879
3398.0,0.0061331367295021505
3397.0,0.006083786806432411
3396.0,0.006016717280629958
3395.0,0.005996625239980662
3394.0,0.006032058639164653
3393.0,0.006085619016363099
3392.0,0.0061185870881809
3391.0,0.0061260164467485875
3390.0,0.0061348542561863485
3389.0,0.0061743562862904625
3388.0,0.006248762499569247
3387.0,0.006334076154779525
3386.0,0.00639750566243715
3385.0,0.006419370460482316
3384.0,0.006399555676565076
3383.0,0.006350633243156715
3382.0,0.006290881977952323
3381.0,0.006240096896206035
3380.0,0.0062146659512934445
3379.0,0.00622216655298184
3378.0,0.006259290859418185
3377.0,0.006311692421828873
3376.0,0.006355701356220073
3375.0,0.006368054907579801
3374.0,0.006342002106142516
3373.0,0.006295356373869762
3372.0,0.006259297412107791
3371.0,0.00625741417148146
3370.0,0.006292181448988566
3369.0,0.006345691847930657
3368.0,0.00639275568327894
3367.0,0.006420251622332103
3366.0,0.006439067308254545
3365.0,0.006473892720909794
3364.0,0.0065367947805107605
3363.0,0.00661256509704977
3362.0,0.006674521474260828
3361.0,0.006714914930329947
3360.0,0.00675442863881808
3359.0,0.00681704024449219
3358.0,0.006897288710338113
3357.0,0.006958390277140592
3356.0,0.006966397169541394
3355.0,0.006925188802406288
3354.0,0.006874245416598588
3353.0,0.006851650155513565
3352.0,0.006861566090848342
3351.0,0.006875272975480377
3350.0,0.0068582429334654495
3349.0,0.0067970535726375025
3348.0,0.00670914914695523
3347.0,0.006632931504295258
3346.0,0.006603060113408617
3345.0,0.006626631222605076
3344.0,0.006681137076900469
3343.0,0.006737219092721418
3342.0,0.0067824651039929545
3341.0,0.0068215732495463255
3340.0,0.006859419761228069
3339.0,0.006892398168440884
3338.0,0.006915640941340121
3337.0,0.006930742790433235
3336.0,0.006942696988073083
3335.0,0.006952087895643597
3334.0,0.006952257594461941
3333.0,0.006934073167528329
3332.0,0.006895437925581529
3331.0,0.006848474066642718
3330.0,0.006815124154414768
3329.0,0.006812242836649704
3328.0,0.006840723009347885
3327.0,0.006888756368439476
3326.0,0.006941932245289393
3325.0,0.006989018431128251
3324.0,0.007024240839533338
3323.0,0.007049584623073049
3322.0,0.007071699336997415
3321.0,0.007091391589880454
3320.0,0.007099018621022203
3319.0,0.007084360943089023
3318.0,0.007047588283345183
3317.0,0.006998145879224418
3316.0,0.006950392947107222
3315.0,0.006924652873882647
3314.0,0.006939620993089866
3313.0,0.006989292773456236
3312.0,0.007035881978855327
3311.0,0.007044296748729376
3310.0,0.007022253979545083
3309.0,0.0070088739477405845
3308.0,0.007023054773516724
3307.0,0.0070435692044305
3306.0,0.00704623395168659
3305.0,0.007040763898429059
3304.0,0.007056438123564161
3303.0,0.007102001380338176
3302.0,0.00715346649576965
3301.0,0.007179804429278933
3300.0,0.007173316971140325
3299.0,0.007154508720215648
3298.0,0.007149524400114501
3297.0,0.007160713810490925
3296.0,0.007161835190176722
3295.0,0.007130075802846313
3294.0,0.007080479948217222
3293.0,0.00705514740242357
3292.0,0.007074859243003738
3291.0,0.007116409724207157
3290.0,0.007145657715714853
3289.0,0.007155260872998136
3288.0,0.007155553147503161
3287.0,0.007144191801813436
3286.0,0.00710897950251411
3285.0,0.007059009699091873
3284.0,0.0070302632795831415
3283.0,0.007050917155546054
3282.0,0.007111851751917343
3281.0,0.007177073458515948
3280.0,0.007214168672505392
3279.0,0.0072106577496822265
3278.0,0.0071716228898706935
3277.0,0.007111761881425168
3276.0,0.007047686070851936
3275.0,0.006991638892557314
3274.0,0.006952102267370272
3273.0,0.00694007083326645
3272.0,0.006967606752659136
3271.0,0.007032475776192882
3270.0,0.007105333126268978
3269.0,0.0071420299869078465
3268.0,0.007118083308975202
3267.0,0.007051375683377012
3266.0,0.006985143580215753
3265.0,0.0069459624196777075
3264.0,0.006924001790243623
3263.0,0.006899954292780524
3262.0,0.0068812997201446995
3261.0,0.006893194447510761
3260.0,0.006933323545317777
3259.0,0.006958974630266953
3258.0,0.006932889604900905
3257.0,0.006868661758610036
3256.0,0.006812665031112386
3255.0,0.006786264006768751
3254.0,0.006764716568421819
3253.0,0.006714312318039374
3252.0,0.006632301841895751
3251.0,0.0065435726649375
3250.0,0.006473435349568402
3249.0,0.006432031859215613
3248.0,0.006413319845679371
3247.0,0.006398796462533857
3246.0,0.006370892003087308
3245.0,0.006334812874891136
3244.0,0.006320593216156261
3243.0,0.006350071927931312
3242.0,0.006404341156762425
3241.0,0.006434802974353747
3240.0,0.0064066824627764946
3239.0,0.00632461792492876
3238.0,0.006217786594642033
3237.0,0.006115474714140584
3236.0,0.006043274879436197
3235.0,0.00602378867437315
3234.0,0.006058544086051096
3233.0,0.0061129317342321614
3232.0,0.006139800170665583
3231.0,0.00612522313125383
3230.0,0.006100794378913154
3229.0,0.006106045835947373
3228.0,0.006148732833678132
3227.0,0.006204768426986914
3226.0,0.0062424700143812895
3225.0,0.006239490201416358
3224.0,0.006191978939695938
3223.0,0.006124839282841146
3222.0,0.006086206988028945
3221.0,0.00610970878258893
3220.0,0.006174589400193799
3219.0,0.0062150045925117164
3218.0,0.006175965673682369
3217.0,0.006056809954051369
3216.0,0.005906333633109552
3215.0,0.005788477608654223
3214.0,0.005744663948692207
3213.0,0.00576804584557828
3212.0,0.005808972215886492
3211.0,0.005815088622048978
3210.0,0.0057727663115707695
3209.0,0.005709177494359036
3208.0,0.005658156339146233
3207.0,0.005633526245167132
3206.0,0.005631850440671478
3205.0,0.005641596699627499
3204.0,0.005641413887917455
3203.0,0.005606008380460796
3202.0,0.005531061880216101
3201.0,0.005448003882150588
3200.0,0.005400501284905296
3199.0,0.005404855084002086
3198.0,0.0054403499545390204
3197.0,0.005478516328914366
3196.0,0.005511743776358559
3195.0,0.005545616289148673
3194.0,0.005569667630058575
3193.0,0.005550940981142224
3192.0,0.005467267190602205
3191.0,0.0053446701473772035
3190.0,0.005249160832314387
3189.0,0.005231070964876372
3188.0,0.00527904369490112
3187.0,0.00533342571292483
3186.0,0.005341065608757221
3185.0,0.005292491820179754
3184.0,0.005214579057631241
3183.0,0.005143352977446085
3182.0,0.005104152647565739
3181.0,0.005101537554527777
3180.0,0.005117961410309067
3179.0,0.005128969638639778
3178.0,0.005128116417850097
3177.0,0.005132620874648287
3176.0,0.00515831089557828
3175.0,0.005194220498268831
3174.0,0.005209585653987485
3173.0,0.005184681686692658
3172.0,0.005130507604213919
3171.0,0.005078933364614686
3170.0,0.005056772878410235
3169.0,0.005067087198161207
3168.0,0.005089269778264588
3167.0,0.005094785047167453
3166.0,0.005066064386382848
3165.0,0.0050053662923699145
3164.0,0.004929380019981504
3163.0,0.004856156108341049
3162.0,0.004794867282016588
3161.0,0.004746568928645394
3160.0,0.004713543428291044
3159.0,0.00470309841975539
3158.0,0.004716781631829122
3157.0,0.004737779426507652
3156.0,0.004738537040741258
3155.0,0.004706572839985038
3154.0,0.00465883834023641
3153.0,0.004625377252706228
3152.0,0.004619515647357143
3151.0,0.0046258800146238115
3150.0,0.00461525299364601
3149.0,0.004569659372070428
3148.0,0.004496948610315316
3147.0,0.00442445741811397
3146.0,0.004376713327478314
3145.0,0.004357613001353697
3144.0,0.00435432311526111
3143.0,0.004354126172989964
3142.0,0.004351506322309974
3141.0,0.00434301845932366
3140.0,0.004327248273470264
3139.0,0.004311200431131511
3138.0,0.004303531807568979
3137.0,0.004296226150033641
3136.0,0.004267867120246321
3135.0,0.0042161244276084555
3134.0,0.004173633524009738
3133.0,0.0041727814314986905
3132.0,0.004201276964760195
3131.0,0.004214355893332268
3130.0,0.004189249280220048
3129.0,0.004148497275067455
3128.0,0.004129153639245442
3127.0,0.004143137997500122
3126.0,0.004170707600658432
3125.0,0.004182953087651563
3124.0,0.004166025769165722
3123.0,0.004130100692366221
3122.0,0.0041002025495478645
3121.0,0.004096270019544433
3120.0,0.004118219245754994
3119.0,0.0041469745722580095
3118.0,0.004155665495360438
3117.0,0.004122086709695897
3116.0,0.004044212857308801
3115.0,0.003952106763003759
3114.0,0.0038926713909082427
3113.0,0.0038880167674297562
3112.0,0.003913015387264315
3111.0,0.003924505405870028
3110.0,0.0039086594988258765
3109.0,0.0038894210486433737
3108.0,0.003894729725753325
3107.0,0.003927014600941659
3106.0,0.00396552028376284
3105.0,0.003986047881225949
3104.0,0.0039780646857847865
3103.0,0.0039510134734623255
3102.0,0.0039252750985828795
3101.0,0.003912685299284463
3100.0,0.003907437001527625
3099.0,0.003899904041584943
3098.0,0.003891481585789394
3097.0,0.003886854734739511
3096.0,0.0038798922670395582
3095.0,0.0038610732508681887
3094.0,0.0038352013350950497
3093.0,0.0038172488984792707
3092.0,0.0038125723515585437
3091.0,0.003815064535656462
3090.0,0.0038222376257208163
3089.0,0.0038352411707503545
3088.0,0.0038428197803507926
3087.0,0.003824660846467198
3086.0,0.003780630132957947
3085.0,0.003743677295999754
3084.0,0.0037515586277585755
3083.0,0.0038100036751603436
3082.0,0.003888861849698535
3081.0,0.003948380599450132
3080.0,0.00396598938800939
3079.0,0.00394846629154191
3078.0,0.003926898013495285
3077.0,0.003933005250674579
3076.0,0.003971120648795353
3075.0,0.004014961413698239
3074.0,0.004036083179933247
3073.0,0.004031597901976886
3072.0,0.004019441961019181
3071.0,0.004011334288379994
3070.0,0.004000020131518586
3069.0,0.003973750795446077
3068.0,0.003934668947930473
3067.0,0.003897842125838124
3066.0,0.0038752427994676493
3065.0,0.003866249921859132
3064.0,0.003863907420908125
3063.0,0.0038647683803323604
3062.0,0.003869307553263285
3061.0,0.003876398472555505
3060.0,0.003882447848547874
3059.0,0.0038847220164750446
3058.0,0.0038802516744630864
3057.0,0.003862060902471793
3056.0,0.003824599043252907
3055.0,0.0037765891389348813
3054.0,0.0037411591331672645
3053.0,0.0037371694001533786
3052.0,0.0037642783867200243
3051.0,0.003807468955675273
3050.0,0.003847620832933013
3049.0,0.0038630323800050645
3048.0,0.003832778217077136
3047.0,0.0037555086430169056
3046.0,0.003663003788532824
3045.0,0.0035997106053362263
3044.0,0.0035840217436169395
3043.0,0.0035973924833703104
3042.0,0.0036138500403433346
3041.0,0.0036305288505073348
3040.0,0.0036640747385453887
3039.0,0.0037250967572122996
3038.0,0.0038034770579989255
3037.0,0.0038764345895806575
3036.0,0.003927081961773095
3035.0,0.0039574213318474835
3034.0,0.003985430415553413
3033.0,0.004027340575421175
3032.0,0.004082309900835483
3031.0,0.0041369428900092315
3030.0,0.0041827105341144775
3029.0,0.004224272736314771
3028.0,0.004275495308003453
3027.0,0.004356622475409923
3026.0,0.004491766642578822
3025.0,0.004693317319279844
3024.0,0.004942246554630496
3023.0,0.005192116929909813
3022.0,0.005401567899879058
3021.0,0.0055662116255317745
3020.0,0.005721715651476718
3019.0,0.005919819217870828
3018.0,0.006197580186129413
3017.0,0.0065585162911144974
3016.0,0.006974932071191264
3015.0,0.007409326037263733
3014.0,0.007838731861132816
3013.0,0.00826409777612626
3012.0,0.008703487177848574
3011.0,0.009178913726443179
3010.0,0.009702598466929615
3009.0,0.010266158236820491
3008.0,0.010843872658257238
3007.0,0.011414588310638555
3006.0,0.011982828439604692
3005.0,0.012573325006381387
3004.0,0.013202131922183374
3003.0,0.013856737271117974
3002.0,0.014504965648328188
3001.0,0.01511682400518425
3000.0,0.01567369205611366
2999.0,0.016161782402949104
2998.0,0.01656403994938299
2997.0,0.016859359083901345
2996.0,0.017027078066699064
2995.0,0.017050737226499534
2994.0,0.016918144487937936
2993.0,0.016621111244839937
2992.0,0.016159525087645874
2991.0,0.01554729284793131
2990.0,0.01481214729772867
2989.0,0.013989791135620239
2988.0,0.013123281580253634
2987.0,0.012268210728752942
2986.0,0.011487066383927906
2985.0,0.01082522782081292
2984.0,0.010291127450030028
2983.0,0.00986275478304234
2982.0,0.009508186138353764
2981.0,0.009197766878495155
2980.0,0.008912082001253674
2979.0,0.008657470971604995
2978.0,0.008470293320886824
2977.0,0.008386028413938774
2976.0,0.008396569130515799
2975.0,0.008447354292179878
2974.0,0.008481568544887129
2973.0,0.008481454667047883
2972.0,0.008467566969498089
2971.0,0.008470941714865662
2970.0,0.008510989329950836
2969.0,0.008587596384161268
2968.0,0.008682289132788467
2967.0,0.00877120563076602
2966.0,0.00884664126460159
2965.0,0.008926527652345771
2964.0,0.00903950332112498
2963.0,0.009201315677893507
2962.0,0.009406089822565671
2961.0,0.009636425468891981
2960.0,0.009878354047954119
2959.0,0.010127869008964088
2958.0,0.010386749046086434
2957.0,0.010656334640615148
2956.0,0.010940238255478003
2955.0,0.011253138615267631
2954.0,0.01161843558054579
2953.0,0.012048924602463325
2952.0,0.012531439091615375
2951.0,0.013035140054482782
2950.0,0.013531853537728773
2949.0,0.014003007425987445
2948.0,0.014431143355556779
2947.0,0.014791250656737701
2946.0,0.015047025003892076
2945.0,0.015150817392168205
2944.0,0.015056077673657436
2943.0,0.014747124505673701
2942.0,0.014260225529787268
2941.0,0.013665075376965827
2940.0,0.013022414421039664
2939.0,0.012366811319421826
2938.0,0.01172711299208275
2937.0,0.011143819370503807
2936.0,0.010652880753521539
2935.0,0.01025924309633653
2934.0,0.009937778086874172
2933.0,0.009660247661078852
2932.0,0.00941777127284777
2931.0,0.009218228984681873
2930.0,0.00906445032508828
2929.0,0.008938053585225399
2928.0,0.008811165739763052
2927.0,0.00867685678114976
2926.0,0.008558871741252654
2925.0,0.008481073249677208
2924.0,0.008431704237765675
2923.0,0.00836912175872279
2922.0,0.008259917162281909
2921.0,0.008101316719296781
2920.0,0.007910807769641749
2919.0,0.007708744085273351
2918.0,0.007511615526898094
2917.0,0.007328122184943619
2916.0,0.00715578710672524
2915.0,0.006987630449957866
2914.0,0.0068243445648203255
2913.0,0.006675221752136622
2912.0,0.006549233861854652
2911.0,0.006451858770874759
2910.0,0.006387477857217555
2909.0,0.006354099416702352
2908.0,0.0063341850587215354
2907.0,0.006299430418271105
2906.0,0.006227805149745503
2905.0,0.006114456613207743
2904.0,0.005971506623579668
2903.0,0.005828643340883411
2902.0,0.005726632364815095
2901.0,0.005691798196889569
2900.0,0.0057105810242084
2899.0,0.005735331386324131
2898.0,0.005723286778031653
2897.0,0.005666025889317258
2896.0,0.005585103495691435
2895.0,0.005510163644275876
2894.0,0.005464428591946289
2893.0,0.005459400793650357
2892.0,0.0054920479434406285
2891.0,0.005547982972507489
2890.0,0.005612302202334736
2889.0,0.005678787095337728
2888.0,0.0057506297589839835
2887.0,0.005835307555378843
2886.0,0.0059371646429711555
2885.0,0.006049824740680247
2884.0,0.006154510903338221
2883.0,0.006228544465156864
2882.0,0.006256995308258064
2881.0,0.006237261291338867
2880.0,0.006177101366680835
2879.0,0.006089558557734391
2878.0,0.005982726399160403
2877.0,0.005850029528058006
2876.0,0.00567745477472472
2875.0,0.005467159274345386
2874.0,0.0052474714954102546
2873.0,0.005051056932102085
2872.0,0.004889136218471428
2871.0,0.004755660863324333
2870.0,0.004647561630545812
2869.0,0.0045646381092973014
2868.0,0.0044930381779546905
2867.0,0.004407806017740727
2866.0,0.004298059103531854
2865.0,0.004180751029224646
2864.0,0.004086712558879161
2863.0,0.004040107660101834
2862.0,0.0040498342080000135
2861.0,0.0041069718599203294
2860.0,0.004186523122199312
2859.0,0.0042618291243411216
2858.0,0.004323436981676938
2857.0,0.004380391980551971
2856.0,0.004442946899030751
2855.0,0.004508680530964957
2854.0,0.004563116595590576
2853.0,0.004587135157936531
2852.0,0.004566297385633496
2851.0,0.004501015123759342
2850.0,0.0044068118692013524
2849.0,0.004298320691729794
2848.0,0.0041753447829331065
2847.0,0.0040320264038062196
2846.0,0.0038760098992240916
2845.0,0.003729052715101198
2844.0,0.0036097863408085977
2843.0,0.0035228069096714994
2842.0,0.003462358408908033
2841.0,0.0034180244834522656
2840.0,0.003377835505742565
2839.0,0.0033339783874820244
2838.0,0.0032873784286830245
2837.0,0.003244298750375643
2836.0,0.0032107249107245477
2835.0,0.0031912814808431195
2834.0,0.0031858092798950684
2833.0,0.0031826450656581625
2832.0,0.003164966244439439
2831.0,0.00313138471684005
2830.0,0.0031002785727355523
2829.0,0.003084140767618042
2828.0,0.0030702441667338756
2827.0,0.0030396408978847723
2826.0,0.002996282756560808
2825.0,0.002962108032784791
2824.0,0.0029501421987563423
2823.0,0.0029571170259614834
2822.0,0.002975068635083674
2821.0,0.002992376027928804
2820.0,0.002988922437597301
2819.0,0.002950761954165026
2818.0,0.002889843065976243
2817.0,0.0028328763411312125
2816.0,0.0027907129295064335
2815.0,0.00275407756746557
2814.0,0.00271714973921123
2813.0,0.0026865494543556745
2812.0,0.0026649566998921655
2811.0,0.0026433673900148657
2810.0,0.0026152369265637545
2809.0,0.002586010790510243
2808.0,0.0025656093965783534
2807.0,0.002561061054424546
2806.0,0.00257429615467724
2805.0,0.002594254926705312
2804.0,0.0025946652392274897
2803.0,0.0025568647696929867
2802.0,0.0024950696663716934
2801.0,0.0024431987424786313
2800.0,0.0024172779027659573
2799.0,0.0024076518628758214
2798.0,0.002405029166860974
2797.0,0.0024107725151921826
2796.0,0.0024181512968816767
2795.0,0.0024083638549050883
2794.0,0.002376238711615683
2793.0,0.002340405145030229
2792.0,0.0023161443488533833
2791.0,0.002294320363249185
2790.0,0.002260741445162055
2789.0,0.002223588981576062
2788.0,0.002206906423660995
2787.0,0.0022230568792384114
2786.0,0.002260215362426975
2785.0,0.0022917083647898437
2784.0,0.002294024081593837
2783.0,0.002265204955324545
2782.0,0.0022300477017651345
2781.0,0.0022168111348021937
2780.0,0.0022243290566901874
2779.0,0.0022236279444054967
2778.0,0.002197132339385043
2777.0,0.002163466584964539
2776.0,0.0021549915572431516
2775.0,0.0021809917932209223
2774.0,0.002221234569953851
2773.0,0.0022476424367393376
2772.0,0.0022449610974599275
2771.0,0.00221839800016835
2770.0,0.0021891083086434046
2769.0,0.0021773535581440804
2768.0,0.0021848954120902587
2767.0,0.0021972963364930787
2766.0,0.0022039729844567347
2765.0,0.002208545005473007
2764.0,0.0022197489919818084
2763.0,0.0022420264473440718
2762.0,0.0022754713448516943
2761.0,0.0023135583963580634
2760.0,0.0023398237399230703
2759.0,0.0023397660233828686
2758.0,0.0023188278035091913
2757.0,0.0022957556793700416
2756.0,0.0022758227038750366
2755.0,0.0022463627322574045
2754.0,0.002203856900712856
2753.0,0.002168447882958706
2752.0,0.0021608202013026004
2751.0,0.002176915027046808
2750.0,0.002195892136053451
2749.0,0.002203401320959989
2748.0,0.0021979682360565313
2747.0,0.002184065177459673
2746.0,0.0021689560247945858
2745.0,0.0021600340379216544
2744.0,0.0021582046326310846
2743.0,0.002159957180302779
2742.0,0.0021690378063767527
2741.0,0.002194929281589306
2740.0,0.002234033397777528
2739.0,0.002264458990195134
2738.0,0.0022689155044353392
2737.0,0.002253603523342002
2736.0,0.0022364508125449012
2735.0,0.0022263938483204097
2734.0,0.0022230129046198143
2733.0,0.002226157344751394
2732.0,0.002233295117111244
2731.0,0.0022337103938973894
2730.0,0.0022174917013822897
2729.0,0.0021882166517687767
2728.0,0.0021595356153121937
2727.0,0.002142526360894183
2726.0,0.0021408307143070656
2725.0,0.0021512666280973994
2724.0,0.002162515770317421
2723.0,0.002160737793038681
2722.0,0.0021457456929291157
2721.0,0.002136730378966565
2720.0,0.0021527787234424515
2719.0,0.002190046224899846
2718.0,0.0022242369892993834
2717.0,0.002233299858252388
2716.0,0.0022139097270908845
2715.0,0.0021807931641948585
2714.0,0.0021553402730074738
2713.0,0.00215019252645867
2712.0,0.002159360010364048
2711.0,0.0021664631588668147
2710.0,0.0021648412472056342
2709.0,0.00216352052061745
2708.0,0.0021709350496825898
2707.0,0.002182554283983093
2706.0,0.0021920545631323733
2705.0,0.0022058188358993333
2704.0,0.002234437683600658
2703.0,0.0022718806530965807
2702.0,0.002293228720190385
2701.0,0.0022761946729120226
2700.0,0.0022220450465737897
2699.0,0.0021559511719198917
2698.0,0.002108412214360085
2697.0,0.0020936428803722644
2696.0,0.0021029868411439473
2695.0,0.0021194912700120486
2694.0,0.0021370569002323266
2693.0,0.0021611185609312603
2692.0,0.00219290609845634
2691.0,0.002221908575619556
2690.0,0.0022360229682233724
2689.0,0.002231907592906518
2688.0,0.0022134279676977154
2687.0,0.002188494258793619
2686.0,0.0021709222875561495
2685.0,0.002175338728273837
2684.0,0.002201511010473107
2683.0,0.00222865124431937
2682.0,0.0022336321266317864
2681.0,0.0022139094494624174
2680.0,0.0021882044008708313
2679.0,0.0021763920838500247
2678.0,0.002182789225663599
2677.0,0.002197264220804638
2676.0,0.002207610294420027
2675.0,0.002209719154610694
2674.0,0.002208206450869139
2673.0,0.0022104509947880498
2672.0,0.00222200359265015
2671.0,0.0022456503746959757
2670.0,0.0022787637545869624
2669.0,0.0023099066698985655
2668.0,0.002325535185873209
2667.0,0.0023254062227500262
2666.0,0.0023253418324751113
2665.0,0.0023383323129233156
2664.0,0.0023592490886595067
2663.0,0.0023760951402413575
2662.0,0.002389006813350736
2661.0,0.0024067526236276034
2660.0,0.002429863709381358
2659.0,0.0024506979752854188
2658.0,0.0024672045992798616
2657.0,0.002482825927192956
2656.0,0.002494552270289105
2655.0,0.0024956740441793575
2654.0,0.0024896015125910353
2653.0,0.002485382566619673
2652.0,0.0024793458967810552
2651.0,0.00245843873683428
2650.0,0.0024246147562458796
2649.0,0.0023981103755515436
2648.0,0.0023904592855566926
2647.0,0.0023906932246496393
2646.0,0.0023856999595622133
2645.0,0.0023785299917704417
2644.0,0.0023768902396601424
2643.0,0.002377870341896015
2642.0,0.0023755840097854455
2641.0,0.0023730950804567988
2640.0,0.0023753481983020417
2639.0,0.0023776090773031636
2638.0,0.002369570142926475
2637.0,0.00234558510571933
2636.0,0.0023072005029091945
2635.0,0.0022636910219697307
2634.0,0.002231546190311625
2633.0,0.0022207509117790135
2632.0,0.002218210429747495
2631.0,0.00219928515332991
2630.0,0.002160560523708898
2629.0,0.0021258316987123487
2628.0,0.002113580651084416
2627.0,0.0021151043232203234
2626.0,0.0021134505645486355
2625.0,0.002106654605487257
2624.0,0.0021002345464608886
2623.0,0.0020915028374382375
2622.0,0.00207522334554041
2621.0,0.0020543029572583807
2620.0,0.002033706652869591
2619.0,0.0020140338834645378
2618.0,0.0019993709586959762
2617.0,0.0019976429705212597
2616.0,0.0020026832001372704
2615.0,0.0019911803803149474
2614.0,0.001951596806484161
2613.0,0.0019038414732941789
2612.0,0.0018758673593026968
2611.0,0.0018716648116594244
2610.0,0.0018772987557643776
2609.0,0.0018880568900366329
2608.0,0.001912099958971218
2607.0,0.0019519495184084175
2606.0,0.001995994255878534
2605.0,0.0020257570514582387
2604.0,0.002023779673266725
2603.0,0.001982258099487998
2602.0,0.001915092360833566
2601.0,0.0018556334520742923
2600.0,0.001831439926756634
2599.0,0.0018433602273385126
2598.0,0.001873676739718656
2597.0,0.0019063346193590358
2596.0,0.0019324427434853804
2595.0,0.0019453989040383824
2594.0,0.0019410902245066055
2593.0,0.0019198150117934573
2592.0,0.0018844977227482876
2591.0,0.0018431865010782324
2590.0,0.0018130208366011272
2589.0,0.0018075647366047852
2588.0,0.001815270476666006
2587.0,0.0018054983214201232
2586.0,0.0017650071412056347
2585.0,0.0017167527320792234
2584.0,0.0016937478619990448
2583.0,0.0017047053953385483
2582.0,0.0017323619452971157
2581.0,0.0017528795595682825
2580.0,0.001748408810437071
2579.0,0.0017141127599274515
2578.0,0.0016659989051623562
2577.0,0.0016342633250442467
2576.0,0.0016376581680383564
2575.0,0.0016677324278743938
2574.0,0.0017024414306081159
2573.0,0.0017281841566844486
2572.0,0.0017457689228742527
2571.0,0.00176446059175943
2570.0,0.0017935468208055455
2569.0,0.0018298500801534464
2568.0,0.001851515921615426
2567.0,0.0018360266433874008
2566.0,0.0017865382377975979
2565.0,0.0017275425786675747
2564.0,0.00167362223973577
2563.0,0.001620126473355992
2562.0,0.0015689170454672849
2561.0,0.0015426597192419937
2560.0,0.0015612140370985829
2559.0,0.001616554765543854
2558.0,0.001680172001692055
2557.0,0.0017247350222227174
2556.0,0.0017344649052409918
2555.0,0.0017104854194537771
2554.0,0.0016756139888343658
2553.0,0.0016606942591440954
2552.0,0.0016751403890402626
2551.0,0.0016991930699084257
2550.0,0.001710586824717575
2549.0,0.0017074213749766164
2548.0,0.0016993856268494771
2547.0,0.001690125580340848
2546.0,0.0016775603972820218
2545.0,0.0016615416570274614
2544.0,0.0016422528074527061
2543.0,0.0016173794635420207
2542.0,0.0015867993032437026
2541.0,0.0015565826580782416
2540.0,0.001538388990197077
2539.0,0.0015488170489083891
2538.0,0.001600989527996656
2537.0,0.0016835884227665108
2536.0,0.0017551296969747967
2535.0,0.0017770008544627561
2534.0,0.0017497825574668358
2533.0,0.0017016124254770602
2532.0,0.0016476744142341878
2531.0,0.0015836429113857205
2530.0,0.0015148820172455097
2529.0,0.001463730520030892
2528.0,0.0014425894545990617
2527.0,0.0014423849590839968
2526.0,0.0014527780614870906
2525.0,0.0014728667548388349
2524.0,0.0014977106810609353
2523.0,0.0015154029707378485
2522.0,0.0015222928910407518
2521.0,0.0015223962820163292
2520.0,0.0015111815717776134
2519.0,0.0014827204819972597
2518.0,0.001453461221059803
2517.0,0.0014508203773818907
2516.0,0.0014726027375679411
2515.0,0.001486344773742502
2514.0,0.001478448159382592
2513.0,0.0014758340641301622
2512.0,0.0015036670981189667
2511.0,0.0015452319647005384
2510.0,0.0015611777845151026
2509.0,0.0015320571681055055
2508.0,0.0014699710215272306
2507.0,0.0014049647591217206
2506.0,0.0013703691263009048
2505.0,0.0013824374873445434
2504.0,0.001420348042807492
2503.0,0.0014406173094698477
2502.0,0.0014226230299803416
2501.0,0.001388096811970792
2500.0,0.001370171839554346
2499.0,0.001379538782264986
2498.0,0.0014064796963029341
2497.0,0.0014362422510895674
2496.0,0.0014533102742102064
2495.0,0.0014491179605771636
2494.0,0.001436494416145353
2493.0,0.0014410861512977624
2492.0,0.0014687330753019342
2491.0,0.0014952198147630685
2490.0,0.0014950975044289647
2489.0,0.0014660622757357135
2488.0,0.0014208425808155435
2487.0,0.0013729763961075028
2486.0,0.0013367864392217132
2485.0,0.0013230580634538808
2484.0,0.0013272246578861571
2483.0,0.0013376733496582747
2482.0,0.0013582973392953618
2481.0,0.0014014071067216067
2480.0,0.0014541107534194707
2479.0,0.001477939580400996
2478.0,0.0014543217996155393
2477.0,0.0014090936003689175
2476.0,0.0013784004268861177
2475.0,0.0013681095799658008
2474.0,0.0013604724734841895
2473.0,0.0013446087559047604
2472.0,0.0013259242177862947
2471.0,0.0013173800815296662
2470.0,0.0013327353415302557
2469.0,0.0013774679784518858
2468.0,0.001436722940127803
2467.0,0.0014814113145519723
2466.0,0.001493125839811477
2465.0,0.0014764939007351346
2464.0,0.0014479931093582393
2463.0,0.001424748263289624
2462.0,0.0014221147174825269
2461.0,0.0014440613720153777
2460.0,0.0014730534333856527
2459.0,0.0014848666079399185
2458.0,0.001474468640424166
2457.0,0.0014537158776939006
2456.0,0.0014290286802658252
2455.0,0.001402136434590829
2454.0,0.0013876257225941863
2453.0,0.0014022163779406345
2452.0,0.001436616682328363
2451.0,0.0014659437434592104
2450.0,0.0014886154368097676
2449.0,0.0015233834506728728
2448.0,0.0015635379633670366
2447.0,0.0015693754190525362
2446.0,0.001519931973564319
2445.0,0.0014436265721667232
2444.0,0.001384112308543687
2443.0,0.0013612667981812748
2442.0,0.00137632154282394
2441.0,0.0014230706272023858
2440.0,0.0014747915906942665
2439.0,0.0014888673946887362
2438.0,0.0014507426266555578
2437.0,0.001397739647836641
2436.0,0.001378994356246961
2435.0,0.0014043136027956133
2434.0,0.0014459625860222757
2433.0,0.0014748506806726378
2432.0,0.0014799229632420806
2431.0,0.0014663999815848834
2430.0,0.001450711251194442
2429.0,0.0014496031866017213
2428.0,0.0014664602300432407
2427.0,0.0014969133804461341
2426.0,0.0015455640598354544
2425.0,0.0016159200722802554
2424.0,0.00168191127255679
2423.0,0.0016978263409247849
2422.0,0.0016507668123668128
2421.0,0.0015827027969996846
2420.0,0.001546101310959406
2419.0,0.001552969894250738
2418.0,0.001577594748707591
2417.0,0.0015909222502011912
2416.0,0.0015804631827263322
2415.0,0.0015534915078478837
2414.0,0.0015342610458849654
2413.0,0.0015460425707518664
2412.0,0.0015869186293567647
2411.0,0.001634835828782336
2410.0,0.001678033376785387
2409.0,0.0017207451170098758
2408.0,0.0017554957867882285
2407.0,0.001757304982188619
2406.0,0.0017192914158180059
2405.0,0.0016706869937572425
2404.0,0.0016416167402866924
2403.0,0.001628360327463622
2402.0,0.001611925123954189
2401.0,0.0015952594611762434
2400.0,0.0016001142673251756
2399.0,0.0016334559750216648
2398.0,0.0016748932047118067
2397.0,0.00169727370788115
2396.0,0.0016909260432542922
2395.0,0.0016690331046539616
2394.0,0.0016540670095072426
2393.0,0.0016565181567655455
2392.0,0.0016643347757252847
2391.0,0.0016565197347429084
2390.0,0.0016254738905998752
2389.0,0.0015812531785949439
2388.0,0.0015399339784917597
2387.0,0.001517428952196127
2386.0,0.0015271969205513003
2385.0,0.0015667952959098072
2384.0,0.001608231483378081
2383.0,0.0016188355917426582
2382.0,0.0015945418152605887
2381.0,0.0015589207847674213
2380.0,0.0015300920514314895
2379.0,0.001510700258041928
2378.0,0.0015112146849603613
2377.0,0.0015503916356725926
2376.0,0.0016156391009553117
2375.0,0.0016516131005245016
2374.0,0.0016211913868899022
2373.0,0.001549565960703228
2372.0,0.0014891712189376643
2371.0,0.0014719322532220178
2370.0,0.0015199627279444787
2369.0,0.0016490587605516734
2368.0,0.0018269243230059767
2367.0,0.001975104190917927
2366.0,0.002038353701938251
2365.0,0.0019971873579689822
2364.0,0.0018412736312200927
2363.0,0.0016016837178493394
2362.0,0.0014218949000765592
2361.0,0.0014905384728647732
2360.0,0.0017997410406309987
2359.0,0.0021474238820889677
2358.0,0.002385441581256203
2357.0,0.002485284254355809
2356.0,0.0024688093976986893
2355.0,0.0023672445551311096
2354.0,0.0022824529979680735
2353.0,0.002274078589708726
2352.0,0.002262970466919142
2351.0,0.002186765119423631
2350.0,0.0020846449234518923
2349.0,0.00204617833374035
2348.0,0.002068869057650378
2347.0,0.002053455338501356
2346.0,0.0019773064088761
2345.0,0.0019143995038136846
2344.0,0.0019611786023467272
2343.0,0.0020556727509488284
2342.0,0.0021223751725624367
2341.0,0.0021894881852326338
2340.0,0.002296611243231522
2339.0,0.0024316797516766115
2338.0,0.002534436990083991
2337.0,0.002585648243374707
2336.0,0.0025705253044045816
2335.0,0.0024982898600222443
2334.0,0.002378357336937505
2333.0,0.0022670195472405284
2332.0,0.002171861863828651
2331.0,0.002129956986074571
2330.0,0.0021327546799384837
2329.0,0.0022192594175741826
2328.0,0.0023873063758274695
2327.0,0.002619281533158169
2326.0,0.0028825366444974626
2325.0,0.003099754267614119
2324.0,0.00318971058667505
2323.0,0.00309724326443673
2322.0,0.0028741427422806372
2321.0,0.0026454878885043827
2320.0,0.0024976793629643353
2319.0,0.002467174618168822
2318.0,0.002515347103651766
2317.0,0.0025915589960413274
2316.0,0.002599253551339656
2315.0,0.0025212326811952924
2314.0,0.0024018122236049056
2313.0,0.0023394546260753104
2312.0,0.00233318335811184
2311.0,0.0023406853536610452
2310.0,0.0023273540444246127
2309.0,0.002328655899305748
2308.0,0.0023523016728018513
2307.0,0.0023765824452809965
2306.0,0.0023622814441618904
2305.0,0.002303460168333261
2304.0,0.002199169146784892
2303.0,0.0020815975283334206
2302.0,0.0019973425323028967
2301.0,0.0019852955578369942
2300.0,0.002005217454034175
2299.0,0.002001217667861649
2298.0,0.0019684400439086602
2297.0,0.0019652365615983733
2296.0,0.0020089451188676916
2295.0,0.00205807703964191
2294.0,0.002073204707915953
2293.0,0.0020639359327261795
2292.0,0.0020500089530231954
2291.0,0.0020341050095669657
2290.0,0.002029873270786669
2289.0,0.0020592125840577166
2288.0,0.0021060627364937897
2287.0,0.002111411001371791
2286.0,0.002048313662581458
2285.0,0.0019502164981985422
2284.0,0.0018550316615246
2283.0,0.0017628744408026147
2282.0,0.0016810803641063839
2281.0,0.001649629006750344
2280.0,0.0016837901713611535
2279.0,0.0017332931938137254
2278.0,0.001740974058943752
2277.0,0.0017089857249517446
2276.0,0.0016673471490565824
2275.0,0.0016214332081828692
2274.0,0.0015634517732649302
2273.0,0.0015046220570594296
2272.0,0.0014546630023271972
2271.0,0.0014040822927933409
2270.0,0.0013591446564410355
2269.0,0.0013631375635206752
2268.0,0.0014484448899550362
2267.0,0.0015915712537543814
2266.0,0.0017351225548394734
2265.0,0.001830754375767376
2264.0,0.0018516855845527903
2263.0,0.0018019847826204896
2262.0,0.0017295524904039107
2261.0,0.0016876301234791836
2260.0,0.0016723565318669555
2259.0,0.0016277112361015526
2258.0,0.0015200034371101962
2257.0,0.0013673286129558745
2256.0,0.0012026693793686653
2255.0,0.0010632035099569094
2254.0,0.0010048876430207962
2253.0,0.0010568693256088012
2252.0,0.001154467828533981
2251.0,0.001199442960579121
2250.0,0.0011927160201274378
2249.0,0.001230421457091558
2248.0,0.0013506780372911815
2247.0,0.00146688381111369
2246.0,0.0014805580637855251
2245.0,0.0013874235770515231
2244.0,0.001247760977025871
2243.0,0.0011262517727271388
2242.0,0.0010885163433828038
2241.0,0.001173862734397544
2240.0,0.0013306451934818409
2239.0,0.0014472109025857108
2238.0,0.0014791536971197126
2237.0,0.0014835343449587461
2236.0,0.0015086013835355755
2235.0,0.001527165417961886
2234.0,0.0015060984372297303
2233.0,0.001458671254479874
2232.0,0.0013926270677998424
2231.0,0.0012856559985884003
2230.0,0.0011520814061197306
2229.0,0.0010586464096920861
2228.0,0.001034215060217506
2227.0,0.0010323797927778912
2226.0,0.001011434518216743
2225.0,0.0009806676099173182
2224.0,0.000951341036985376
2223.0,0.0009261976649587117
2222.0,0.000952002840573975
2221.0,0.0010829750607668752
2220.0,0.001266261474306527
2219.0,0.0013658618169026522
2218.0,0.0013309454688497234
2217.0,0.0012457314806914171
2216.0,0.001189571979203156
2215.0,0.0011546352479135185
2214.0,0.001127740583779507
2213.0,0.0011261449390842161
2212.0,0.0011075841018191777
2211.0,0.0009755453040429535
2210.0,0.0007388330016993322
2209.0,0.0005474623786982345
2208.0,0.0004964295496061461
2207.0,0.0005079561804981512
2206.0,0.0004949297501220527
2205.0,0.0005397164807452473
2204.0,0.0008080058418641784
2203.0,0.0013322174849148324
2202.0,0.0019379722193541065
2201.0,0.0023513468863374703
2200.0,0.002379787327296956
2199.0,0.002050941012657612
2198.0,0.0016001859301751759
2197.0,0.001275419878898254
2196.0,0.0011302557830922685
2195.0,0.001063766430067039
2194.0,0.0010254952417603368
2193.0,0.0010406311186206038
2192.0,0.0010558610980012741
2191.0,0.0009511753107665304
2190.0,0.0007446089681618889
2189.0,0.000617088964685141
2188.0,0.0006701068959374973
2187.0,0.0008081670391790262
2186.0,0.0009112544854444652
2185.0,0.0009614144297358503
2184.0,0.000951908539387421
2183.0,0.000854270371108341
2182.0,0.0007525077351739033
2181.0,0.0008206847407311714
2180.0,0.0010589729887339073
2179.0,0.0012167870276280598
2178.0,0.0010724336723951812
2177.0,0.0006723376906422112
2176.0,0.00023858602037162832
2175.0,-3.7752708751331855e-05
2174.0,-5.76939884007226e-05
2173.0,0.00015773442253038655
2172.0,0.000422540848557505
2171.0,0.0005302299071561927
2170.0,0.0005076052955459255
2169.0,0.0005805613456030569
2168.0,0.0008349215860937405
2167.0,0.0010933722095425233
2166.0,0.0012087530267329617
2165.0,0.0012747722163462584
2164.0,0.0014119204973581528
2163.0,0.0015235340844313647
2162.0,0.0014240958713496253
2161.0,0.0010757173676191197
2160.0,0.000577977065408658
2159.0,6.408073236105782e-05
2158.0,-0.00028407297038381027
2157.0,-0.00032448413311104263
2156.0,-0.00015572720285146182
2155.0,-3.331902994937963e-05
2154.0,-5.207218863865259e-05
2153.0,-6.97615512655928e-05
2152.0,3.0147214087914214e-05
2151.0,0.00017044699313770566
2150.0,0.0002289751851491606
2149.0,0.00019360516027257097
2148.0,0.00010715151371208598
2147.0,-4.6997940370519525e-06
2146.0,-8.799100705228869e-05
2145.0,-6.967270260135271e-05
2144.0,3.5210235964038493e-05
2143.0,0.00013764703479574877
2142.0,0.00021438092904048977
2141.0,0.0003130464904150707
2140.0,0.0004140739412242567
2139.0,0.00042948962177821493
2138.0,0.0003590540978305833
2137.0,0.00030684563228070336
2136.0,0.00031138198743668874
2135.0,0.0002987058745520871
2134.0,0.0002372344264789033
2133.0,0.00019609782720473944
2132.0,0.0002167715041352516
2131.0,0.00025926854825152897
2130.0,0.0003040196318103516
2129.0,0.0003847580925638908
2128.0,0.0004881698382901505
2127.0,0.0005371249568339864
2126.0,0.0005181620427602237
2125.0,0.0005240301116366877
2124.0,0.0006212274432943201
2123.0,0.0007659048653370632
2122.0,0.0008933227497022701
2121.0,0.0009976916740628173
2120.0,0.0010781326600461227
2119.0,0.001096713838876783
2118.0,0.001049968436000101
2117.0,0.0010108656364920842
2116.0,0.0010445354129911
2115.0,0.001138150741736064
2114.0,0.0012487211835618998
2113.0,0.0013521731780611968
2112.0,0.001413985735277663
2111.0,0.0013912438368253331
2110.0,0.0013048925264503336
2109.0,0.0012346247384286636
2108.0,0.0012052089864115765
2107.0,0.0011634291647189523
2106.0,0.0011072704789603992
2105.0,0.001136576584641566
2104.0,0.001308367584273997
2103.0,0.001524074867398427
2102.0,0.0016289543447412752
2101.0,0.0015667384474150098
2100.0,0.0013914581594309083
2099.0,0.0011892812905097568
2098.0,0.0010397060548458814
2097.0,0.0009889277293653896
2096.0,0.0010085158125574087
2095.0,0.001027650730643935
2094.0,0.0010236908474532554
2093.0,0.0010216975965205634
2092.0,0.0010113473465789662
2091.0,0.0009535670719534395
2090.0,0.000876513328485321
2089.0,0.0008679009106684497
2088.0,0.0009506166366687291
2087.0,0.0010611395597624332
2086.0,0.0011601782231375857
2085.0,0.0012548336576908988
2084.0,0.0012996419429003362
2083.0,0.001206227234815756
2082.0,0.0009985222799414526
2081.0,0.0008435063208002307
2080.0,0.000864493116271976
2079.0,0.0010193509772881595
2078.0,0.0012031766095126947
2077.0,0.001353719971536694
2076.0,0.0014161717119414608
2075.0,0.0013392178207821722
2074.0,0.0011783606414963919
2073.0,0.0010894439241847644
2072.0,0.0011372661952543132
2071.0,0.0012132061320861646
2070.0,0.0012026734492714374
2069.0,0.0011228314396265792
2068.0,0.0010433683258748007
2067.0,0.0009940977641518622
2066.0,0.0010101203527968594
2065.0,0.0011317078306418067
2064.0,0.0012877112896682954
2063.0,0.0013242525383069489
2062.0,0.0012147022438353762
2061.0,0.001100663137580339
2060.0,0.0010720254890551973
2059.0,0.0010493231324090369
2058.0,0.0009565174532625931
2057.0,0.0008578765962309162
2056.0,0.0008324387228141462
2055.0,0.0008559540433411912
2054.0,0.0009011528594387915
2053.0,0.00100972318165722
2052.0,0.0011600333826117016
2051.0,0.0011999226738476148
2050.0,0.001031152048508724
2049.0,0.0007605490561483242
2048.0,0.0005418008981751448
2047.0,0.0003877202240442348
2046.0,0.00026978014885674297
2045.0,0.00022661513154406812
2044.0,0.00024636758134966995
2043.0,0.0002231988018084755
2042.0,0.00014887211120730284
2041.0,0.00016373668675114526
2040.0,0.00030151493360456964
2039.0,0.00040220762426442717
2038.0,0.0003937573886457706
2037.0,0.0004104922561172622
2036.0,0.0005002012369209445
2035.0,0.0004708468518493398
2034.0,0.00022225510275016496
2033.0,-1.82466258634424e-05
2032.0,-1.7014264436525205e-05
2031.0,0.0001451436102410132
2030.0,0.0002751352310062055
2029.0,0.00033913483677428685
2028.0,0.0003498617727433703
2027.0,0.00021855824306272982
2026.0,-7.405936963664195e-05
2025.0,-0.0003391017816750802
2024.0,-0.0003983132582967801
2023.0,-0.0002789261094418737
2022.0,-6.242823432814549e-05
2021.0,0.0002460402786935265
2020.0,0.0005791923477141925
2019.0,0.0007502793920502798
2018.0,0.000669973156882046
2017.0,0.0004659632232504511
2016.0,0.0002722384242991265
2015.0,9.581587783669604e-05
2014.0,-7.616899392039417e-06
2013.0,0.00010724211557760842
2012.0,0.0004241110273227862
2011.0,0.0006992931029512549
2010.0,0.0007563348439927494
2009.0,0.0006551825468493812
2008.0,0.0004974110336120468
2007.0,0.00029310686599414435
2006.0,0.00010205676806356896
2005.0,4.119592230576892e-05
2004.0,6.503364359482331e-05
2003.0,-1.4512029025703119e-06
2002.0,-0.0001544062082965769
2001.0,-0.00019057795434721192
2000.0,-5.319925525371083e-05
1999.0,5.84478893235299e-05
1998.0,1.9676175675565775e-05
1997.0,-3.488384596616939e-05
1996.0,3.0361569494543174e-05
1995.0,0.00015251270797006587
1994.0,0.00025038438196213974
1993.0,0.0003735204181511574
1992.0,0.0005264058991668014
1991.0,0.0005686803265865418
1990.0,0.0004777836488982051
1989.0,0.0004533569289396234
1988.0,0.0006161978106733713
1987.0,0.0008339518294815231
1986.0,0.0009648244051936232
1985.0,0.0010629405021213036
1984.0,0.0012117740326414565
1983.0,0.0013570537553998527
1982.0,0.001435776318671259
1981.0,0.0014693957444719373
1980.0,0.0014049157352713062
1979.0,0.0010866163189678
1978.0,0.0005641050494646244
1977.0,0.00017141655053887726
1976.0,9.237303630619501e-05
1975.0,0.00015514845928113333
1974.0,0.00020349129364424692
1973.0,0.00031444443722027527
1972.0,0.0005210638554680664
1971.0,0.000662715898980649
1970.0,0.0006650616583399921
1969.0,0.0006798430575915611
1968.0,0.0007952535566879085
1967.0,0.0008638369750183172
1966.0,0.000802790181143529
1965.0,0.0007661085476670946
1964.0,0.0008337888611202151
1963.0,0.0008594119270651263
1962.0,0.0007513611321718849
1961.0,0.0006429854155145086
1960.0,0.0006459110012881797
1959.0,0.0006722878137221276
1958.0,0.0006449010864686591
1957.0,0.0006396251189966064
1956.0,0.0006989961555891122
1955.0,0.0007270136250147254
1954.0,0.0006781106600692744
1953.0,0.000644302800739885
1952.0,0.0006479840085425312
1951.0,0.0005706472970058256
1950.0,0.00038327400334344224
1949.0,0.000236001186544151
1948.0,0.00022346964417374062
1947.0,0.00026182653627600597
1946.0,0.0002943713198027651
1945.0,0.000411933558755376
1944.0,0.0006482165416105872
1943.0,0.00084329497190755
1942.0,0.0008724366178232206
1941.0,0.0008318638770732085
1940.0,0.0008107474307411976
1939.0,0.0007332057301325642
1938.0,0.0005535598711192402
1937.0,0.00039381018707814873
1936.0,0.0003665032616508554
1935.0,0.0004082125702921871
1934.0,0.0004141010903361761
1933.0,0.0003983209528534475
1932.0,0.00040381463465408575
1931.0,0.00040098642527764024
1930.0,0.0003797178006564345
1929.0,0.00040591074036207524
1928.0,0.0005037639133578275
1927.0,0.0005900203716521593
1926.0,0.0006124323513084743
1925.0,0.0006230686257704787
1924.0,0.0006623244145700781
1923.0,0.0006879516933523634
1922.0,0.0006868823242844365
1921.0,0.0007244923457589134
1920.0,0.000803039106404755
1919.0,0.0008231989869357346
1918.0,0.0007566517927126491
1917.0,0.000710381259994968
1916.0,0.0007277969699656197
1915.0,0.0007208943578163715
1914.0,0.0006490739679845313
1913.0,0.0005894561664388761
1912.0,0.0005881800703318152
1911.0,0.0005808039592375405
1910.0,0.0005372933552803012
1909.0,0.0005457572549406975
1908.0,0.0006486206059497992
1907.0,0.0007448160609334338
1906.0,0.000763918443073215
1905.0,0.0007596134497865506
1904.0,0.0007773797211637103
1903.0,0.0007754425282773228
1902.0,0.0007344483717221641
1901.0,0.0007158758321040033
1900.0,0.000742275813723081
1899.0,0.0007394418409269118
1898.0,0.0006756852183711097
1897.0,0.0006267631362199184
1896.0,0.0006340397100449791
1895.0,0.0006249134786228173
1894.0,0.0005601327195829948
1893.0,0.0005187166753864885
1892.0,0.0005519389357288495
1891.0,0.0006045142162205478
1890.0,0.0006427207503119342
1889.0,0.0007235292838891738
1888.0,0.0008489000833716916
1887.0,0.0009218334105518893
1886.0,0.0009059110552867399
1885.0,0.0008793777525832208
1884.0,0.0008923734359050713
1883.0,0.0008862973105252722
1882.0,0.0008230546732035811
1881.0,0.0007679722412989103
1880.0,0.0007698344231314624
1879.0,0.0007739830081306127
1878.0,0.0007380756825778655
1877.0,0.0007147093531593711
1876.0,0.0007332530201724138
1875.0,0.0007314283673034022
1874.0,0.0006827679300254721
1873.0,0.0006613635746521563
1872.0,0.0007113170900740131
1871.0,0.0007687197534413139
1870.0,0.0007905237761607481
1869.0,0.0008582748223064059
1868.0,0.0009978273943417205
1867.0,0.0010841319931348553
1866.0,0.0010818245105083245
1865.0,0.0010832779520827066
1864.0,0.001118865128480025
1863.0,0.0011163360343042013
1862.0,0.0010519419721276332
1861.0,0.0010171193808261793
1860.0,0.0010665354929839522
1859.0,0.0011228146118095537
1858.0,0.0011208725257523628
1857.0,0.0011129157566243542
1856.0,0.0011492153810296227
1855.0,0.001188147504424893
1854.0,0.0012066703506185905
1853.0,0.0012596741929770802
1852.0,0.0013689596159026799
1851.0,0.0014538713425662902
1850.0,0.0014635041943837357
1849.0,0.0014699003770997287
1848.0,0.0015377972433294157
1847.0,0.0016100390644790698
1846.0,0.0016230042457588815
1845.0,0.0016408005036795377
1844.0,0.0017243208335449085
1843.0,0.001777181430450144
1842.0,0.0017591511995252952
1841.0,0.0017685667719214734
1840.0,0.0018497158861493267
1839.0,0.001940276409335646
1838.0,0.0020088458084840236
1837.0,0.0021141494504944344
1836.0,0.0022712171161114966
1835.0,0.002392407449171279
1834.0,0.002438323980812592
1833.0,0.0024835455818073915
1832.0,0.0025812790333527643
1831.0,0.002671822731714537
1830.0,0.0027228534080389
1829.0,0.0028253500092298134
1828.0,0.0030007469587772185
1827.0,0.00313529368401041
1826.0,0.003176526592691631
1825.0,0.003233297180445434
1824.0,0.003377561754158923
1823.0,0.0035127095569158426
1822.0,0.0035794958923736405
1821.0,0.0036497465370403876
1820.0,0.0037672414167766186
1819.0,0.0038608964089549454
1818.0,0.0038972182339056206
1817.0,0.003961642798939305
1816.0,0.004090391355874955
1815.0,0.00419824000624829
1814.0,0.004249232770879914
1813.0,0.00434479879547371
1812.0,0.004548746694315432
1811.0,0.004756326227983173
1810.0,0.004882253611836926
1809.0,0.005005272217514775
1808.0,0.0051831083064516874
1807.0,0.005350335765568155
1806.0,0.005487331743628904
1805.0,0.005689296014020026
1804.0,0.005985275547223852
1803.0,0.006255744398640931
1802.0,0.006423611038427561
1801.0,0.006615397673123315
1800.0,0.006935588503449436
1799.0,0.007287717659273744
1798.0,0.007615374558735151
1797.0,0.008015454211990704
1796.0,0.008518249434375326
1795.0,0.009011108550140586
1794.0,0.009485528885172087
1793.0,0.010222388802274577
1792.0,0.011400716318737014
1791.0,0.01269760461381515
1790.0,0.013872451359813508
1789.0,0.015098974755510447
1788.0,0.01655096732150277
1787.0,0.018260023419567967
1786.0,0.02028863891638193
1785.0,0.02270458223703129
1784.0,0.02533919458777772
1783.0,0.027962247330896223
1782.0,0.03068538913222643
1781.0,0.033825426394942064
1780.0,0.037270978509104755
1779.0,0.04050165105188558
1778.0,0.04337607409199772
1777.0,0.04619135226894865
1776.0,0.04908888253795938
1775.0,0.05194172620474863
1774.0,0.05488475986425718
1773.0,0.05856734705585441
1772.0,0.06305918700259501
1771.0,0.06727800337211501
1770.0,0.07096605124560457
1769.0,0.07505138331590934
1768.0,0.08007653522077596
1767.0,0.08556728275206309
1766.0,0.09090221850740164
1765.0,0.09624588521153055
1764.0,0.1023056881267667
1763.0,0.10981995771009181
1762.0,0.11889783935512022
1761.0,0.12835541594655442
1760.0,0.136775569209283
1759.0,0.14412877879190683
1758.0,0.1515216459040844
1757.0,0.1596401843507113
1756.0,0.1674257647504208
1755.0,0.17343089979381623
1754.0,0.1778845489581022
1753.0,0.18186855395285986
1752.0,0.18572019194302042
1751.0,0.18872987844674502
1750.0,0.1904486740913574
1749.0,0.19125084991931007
1748.0,0.19105631785839122
1747.0,0.1894520760743701
1746.0,0.1864881065493061
1745.0,0.18207922069035506
1744.0,0.17577683714321482
1743.0,0.16773792767600323
1742.0,0.1584934977097393
1741.0,0.14737142248223184
1740.0,0.13355589514801428
1739.0,0.11932758362432896
1738.0,0.10813033242353678
1737.0,0.09996127180028906
1736.0,0.09192302678121712
1735.0,0.08046376991974359
1734.0,0.06627949661554063
1733.0,0.055363796953265584
1732.0,0.04901766056102293
1731.0,0.044508018583723365
1730.0,0.0404247121502585
1729.0,0.03669820296465677
1728.0,0.03358679491359048
1727.0,0.031161936517933635
1726.0,0.02925063766084669
1725.0,0.027556693312965876
1724.0,0.02590364757080977
1723.0,0.024442705868453794
1722.0,0.023375518182564347
1721.0,0.022585138240219096
1720.0,0.021745510004059703
1719.0,0.02062989781594477
1718.0,0.01932661095413009
1717.0,0.018069076080339763
1716.0,0.01691415730448577
1715.0,0.015921872926795328
1714.0,0.015148972283636306
1713.0,0.014480913616609387
1712.0,0.01378629986569582
1711.0,0.013082009631716334
1710.0,0.012452274598478872
1709.0,0.01189159506364452
1708.0,0.011314993235020337
1707.0,0.01068696420116673
1706.0,0.010088123218212853
1705.0,0.0096029018500861
1704.0,0.009221659198966115
1703.0,0.008922441727306486
1702.0,0.008645948978271215
1701.0,0.008271523210161048
1700.0,0.007828304519364214
1699.0,0.007527183840610669
1698.0,0.007448471275792113
1697.0,0.007400797598908786
1696.0,0.0071902665136464195
1695.0,0.006929098026686682
1694.0,0.006804709062898012
1693.0,0.006782240583383293
1692.0,0.006738730631738516
1691.0,0.006647015295753872
1690.0,0.006580427510982329
1689.0,0.00657176978510794
1688.0,0.0065769563325976145
1687.0,0.006568460418345036
1686.0,0.006545159471696278
1685.0,0.006504565585119368
1684.0,0.006454552608730017
1683.0,0.006404085635266919
1682.0,0.006409748843161377
1681.0,0.006438609069233787
1680.0,0.006415962834569817
1679.0,0.006357642844797269
1678.0,0.006314539320658806
1677.0,0.006280805780007093
1676.0,0.006232173829637264
1675.0,0.006222455629079437
1674.0,0.006278808937712076
1673.0,0.0063441038795728905
1672.0,0.006357093851835397
1671.0,0.006331554863144425
1670.0,0.006360121866794147
1669.0,0.00644221453958433
1668.0,0.00648059160155918
1667.0,0.006477157881596246
1666.0,0.006475570178695296
1665.0,0.006473591243114311
1664.0,0.006456076714890766
1663.0,0.006467160083827974
1662.0,0.006533294351401767
1661.0,0.006589290236495586
1660.0,0.006597561821906366
1659.0,0.006580165706980411
1658.0,0.006573449041871507
1657.0,0.0065779528324138095
1656.0,0.006570979895677424
1655.0,0.006480525207196455
1654.0,0.0063809276166243364
1653.0,0.006478809620983855
1652.0,0.006543300174076498
1651.0,0.006538431531423075
1650.0,0.006578590367836187
1649.0,0.006616558712675167
1648.0,0.0066029677236397084
1647.0,0.006566618774241457
1646.0,0.006522050160444319
1645.0,0.006440875323769855
1644.0,0.0063532016666997815
1643.0,0.006296123126816345
1642.0,0.006265376350548933
1641.0,0.006228513782731919
1640.0,0.006171603485825532
1639.0,0.006114795684097192
1638.0,0.0060789508914126005
1637.0,0.006048045320565742
1636.0,0.006014605108738425
1635.0,0.005975745691406175
1634.0,0.005939164846330799
1633.0,0.005912992445717432
1632.0,0.005872800786794842
1631.0,0.00581195804319743
1630.0,0.005748847656904002
1629.0,0.005688571405089916
1628.0,0.0056161014015109504
1627.0,0.005536093808818743
1626.0,0.005467057368823205
1625.0,0.005403530685517473
1624.0,0.00532718394846911
1623.0,0.005248899228784113
1622.0,0.0051813082010644445
1621.0,0.0051202773881067285
1620.0,0.005067478187435193
1619.0,0.005016460611231543
1618.0,0.00495105546035054
1617.0,0.0048539636430602875
1616.0,0.004723956702557235
1615.0,0.004604719809440179
1614.0,0.0045323583990067645
1613.0,0.004478049716471744
1612.0,0.004403898019598543
1611.0,0.004320294334174106
1610.0,0.004251103634320724
1609.0,0.0041873686576943845
1608.0,0.004111841986184392
1607.0,0.0040404341097628905
1606.0,0.003985705337479709
1605.0,0.003933400029911706
1604.0,0.0038767881665898295
1603.0,0.00382994901386125
1602.0,0.0037979978744819096
1601.0,0.003757293274553373
1600.0,0.003692127459744443
1599.0,0.003621680634918992
1598.0,0.003568681638893077
1597.0,0.0035276525122370775
1596.0,0.003480026246952787
1595.0,0.0034283774138841637
1594.0,0.00338669818939139
1593.0,0.0033508401625763767
1592.0,0.0033097877517518307
1591.0,0.0032716892248009933
1590.0,0.003251242690712643
1589.0,0.0032441750824217484
1588.0,0.0032375663658197216
1587.0,0.0032302435102369307
1586.0,0.003224628163368338
1585.0,0.0032059289093314854
1584.0,0.003170365702187283
1583.0,0.003133304419166037
1582.0,0.003103468777182281
1581.0,0.0030779348455186057
1580.0,0.0030672273020726382
1579.0,0.0030883351634440623
1578.0,0.0031307545388419324
1577.0,0.0031579623844711652
1576.0,0.0031379748397474616
1575.0,0.003090287327435025
1574.0,0.0030702936407139515
1573.0,0.003085937890838832
1572.0,0.0030978290144006238
1571.0,0.003085385881073842
1570.0,0.0030810613246099565
1569.0,0.0030894501353399143
1568.0,0.00308590756424032
1567.0,0.0030823337706042805
1566.0,0.003094520979392339
1565.0,0.0031071880678602386
1564.0,0.00312540926759725
1563.0,0.00315882561954428
1562.0,0.0032193829657990135
1561.0,0.003244229359395759
1560.0,0.0032215247553637003
1559.0,0.003332691024674507
1558.0,0.0034401102075554985
1557.0,0.0034186447234446915
1556.0,0.0034155009894321865
1555.0,0.0034475462515142575
1554.0,0.0034894673707076447
1553.0,0.0035368841807282073
1552.0,0.003593742293785452
1551.0,0.003660612125329736
1550.0,0.0037313487080646223
1549.0,0.003780356074043309
1548.0,0.003786333371285854
1547.0,0.0037643664306517962
1546.0,0.0037384431164407504
1545.0,0.003737743636847443
1544.0,0.0037654074642903337
1543.0,0.0037764159829880867
1542.0,0.0037536770815354064
1541.0,0.0037607197188893778
1540.0,0.0038082645849437016
1539.0,0.003789410463262209
1538.0,0.0037413320075093412
1537.0,0.003748661491181006
1536.0,0.0037907364223928276
1535.0,0.00382260938062977
1534.0,0.003831572608275457
1533.0,0.003829219086932115
1532.0,0.003799402516284494
1531.0,0.0037512695055552086
1530.0,0.0037142947228030517
1529.0,0.0036983635866127303
1528.0,0.003695669192945529
1527.0,0.0036923064597531923
1526.0,0.003686351275126727
1525.0,0.0036869419284261
1524.0,0.0036959864742426877
1523.0,0.0037012878209901623
1522.0,0.0037258067465270293
1521.0,0.0037806410448859244
1520.0,0.0038052812093638646
1519.0,0.0037943036855421107
1518.0,0.003782089607853002
1517.0,0.003785600277966793
1516.0,0.003787604645482616
1515.0,0.0037619339079794766
1514.0,0.003724057536580675
1513.0,0.0036898691814602038
1512.0,0.0036564473353178657
1511.0,0.003616937850540892
1510.0,0.003580947803808969
1509.0,0.003548235574006687
1508.0,0.0035362142459582904
1507.0,0.0035617336966174834
1506.0,0.003516106921378162
1505.0,0.003416817037745523
1504.0,0.0033701959596312064
1503.0,0.0033614208539972197
1502.0,0.0033580113663409707
1501.0,0.00335089742266416
1500.0,0.0033364310264342723
1499.0,0.0032986591133424906
1498.0,0.0032455320964527674
1497.0,0.003231438077129207
1496.0,0.003248629216966307
1495.0,0.0032410170940681306
1494.0,0.0032238218771796145
1493.0,0.003240496091008618
1492.0,0.0032869488438776176
1491.0,0.0033419289708143595
1490.0,0.003422290512514202
1489.0,0.0035293176724865193
1488.0,0.0035953986273353587
1487.0,0.003597200661360117
1486.0,0.0035972691812682384
1485.0,0.003639903458997607
1484.0,0.0037151494290081797
1483.0,0.0037913755196109164
1482.0,0.0038736950176442566
1481.0,0.003994338601283951
1480.0,0.004145841229797213
1479.0,0.004298955625549699
1478.0,0.00447248518687083
1477.0,0.004720204403480505
1476.0,0.0050365369075545665
1475.0,0.005376524974867957
1474.0,0.005829918686941757
1473.0,0.006619321909610617
1472.0,0.0076379446136149234
1471.0,0.008546407439377736
1470.0,0.009378237360164372
1469.0,0.010326719589933258
1468.0,0.011468358195635627
1467.0,0.012888559400126665
1466.0,0.014835453641074883
1465.0,0.017475434603323618
1464.0,0.020338399674348317
1463.0,0.022786935525015765
1462.0,0.02482743408765485
1461.0,0.026728335085431137
1460.0,0.028651811119292648
1459.0,0.030715898311926608
1458.0,0.03334406952881712
1457.0,0.03636792294837448
1456.0,0.03837855026723312
1455.0,0.03915226013659661
1454.0,0.03949890274897187
1453.0,0.03968147251557723
1452.0,0.03963606283885698
1451.0,0.03931249980448033
1450.0,0.038713172465423856
1449.0,0.03766563684276595
1448.0,0.035970274680318534
1447.0,0.03381582016220586
1446.0,0.03153297864120136
1445.0,0.029136283339510995
1444.0,0.026497881446368565
1443.0,0.0236725492664375
1442.0,0.020892766892630386
1441.0,0.01838819195180687
1440.0,0.01628005853207579
1439.0,0.014531224022928332
1438.0,0.0129152283829668
1437.0,0.01121522800120678
1436.0,0.00967548806895014
1435.0,0.00868141470928052
1434.0,0.008126499081994403
1433.0,0.007705727334213925
1432.0,0.007290304388687689
1431.0,0.006909018599319538
1430.0,0.006590131184701349
1429.0,0.006295743514446067
1428.0,0.006032766540451753
1427.0,0.005854906111486945
1426.0,0.005742882562753087
1425.0,0.005618777928645921
1424.0,0.005476486593810217
1423.0,0.005380052050376401
1422.0,0.005338229506149823
1421.0,0.005286273224840467
1420.0,0.005199959348834033
1419.0,0.005138348343910461
1418.0,0.0051076621821018854
1417.0,0.0050526007112112695
1416.0,0.0049932457899155465
1415.0,0.004971205757769029
1414.0,0.004972047620247063
1413.0,0.004966809971605105
1412.0,0.0049699458952908605
1411.0,0.005011545128410882
1410.0,0.005068200934912183
1409.0,0.005101592564002165
1408.0,0.005129204707763741
1407.0,0.005201967753867262
1406.0,0.00532466000954317
1405.0,0.005465927673879363
1404.0,0.005632593591626982
1403.0,0.005842731184744748
1402.0,0.006083671048210448
1401.0,0.006365283676752294
1400.0,0.006779868019951356
1399.0,0.007393645223633158
1398.0,0.00812663437952862
1397.0,0.008951067502977325
1396.0,0.010071583275682871
1395.0,0.011654012515536303
1394.0,0.0134828945967202
1393.0,0.01525035801722045
1392.0,0.016942374431520926
1391.0,0.018664810393034772
1390.0,0.020476892846218255
1389.0,0.022468808996402245
1388.0,0.024747417041786297
1387.0,0.027141527108048718
1386.0,0.029199775962271454
1385.0,0.03071079536322071
1384.0,0.03176525402423715
1383.0,0.032408337259475464
1382.0,0.03258317120783154
1381.0,0.032245306986303575
1380.0,0.03139624661563942
1379.0,0.030106213155832735
1378.0,0.028581782084401253
1377.0,0.0270950200062004
1376.0,0.02584232914325281
1375.0,0.02499401033997227
1374.0,0.024745809470749926
1373.0,0.025110770711830974
1372.0,0.02585893942491889
1371.0,0.026772321644772185
1370.0,0.02773643910017862
1369.0,0.028648668423683507
1368.0,0.029392388272655
1367.0,0.029913954584344454
1366.0,0.030265324236934718
1365.0,0.03053159851720104
1364.0,0.030763989190435277
1363.0,0.03096930544062476
1362.0,0.031125542197394468
1361.0,0.03121055160166776
1360.0,0.031214222852022473
1359.0,0.031124247310910402
1358.0,0.030918271596529996
1357.0,0.030567631084358886
1356.0,0.030045411010481048
1355.0,0.029348170514098056
1354.0,0.0285118796556417
1353.0,0.02758972813162963
1352.0,0.026613804559012036
1351.0,0.02560611236066922
1350.0,0.024601186659404625
1349.0,0.023633112998076224
1348.0,0.022711936867936173
1347.0,0.021832681165188158
1346.0,0.02100139147406576
1345.0,0.020235079150114646
1344.0,0.01954940610398012
1343.0,0.018953097386575583
1342.0,0.018438253483907478
1341.0,0.01796847742668304
1340.0,0.01749995092601933
1339.0,0.017033980007285676
1338.0,0.01661128124992901
1337.0,0.016243945159101797
1336.0,0.01590906801952416
1335.0,0.015597148985334895
1334.0,0.015318360367459302
1333.0,0.015071192921219372
1332.0,0.014840901602095662
1331.0,0.014633482777929203
1330.0,0.014475779980525898
1329.0,0.014373497444329832
1328.0,0.014300809474946278
1327.0,0.014241525980096433
1326.0,0.014206734957463104
1325.0,0.01420359678841938
1324.0,0.014216744439210227
1323.0,0.014230532585941088
1322.0,0.014246182863859244
1321.0,0.014265027875176303
1320.0,0.014276668437525262
1319.0,0.014276074008232012
1318.0,0.014273269788558387
1317.0,0.01427317166053092
1316.0,0.014267908259847667
1315.0,0.014258626608767172
1314.0,0.014263096163319559
1313.0,0.014292345829644653
1312.0,0.014336953818415741
1311.0,0.014385948531826329
1310.0,0.01443757776898853
1309.0,0.014484160194648151
1308.0,0.014509342213876512
1307.0,0.01451221916002934
1306.0,0.014512101303911461
1305.0,0.014518239025498713
1304.0,0.014513738037404432
1303.0,0.014477941016335347
1302.0,0.014407228468147796
1301.0,0.014304071496405987
1300.0,0.014163584730279278
1299.0,0.013980819337948348
1298.0,0.013755999746665349
1297.0,0.013484864970499996
1296.0,0.013162917774441278
1295.0,0.012808326346362843
1294.0,0.012463578634841842
1293.0,0.012169736180416613
1292.0,0.011956419640920276
1291.0,0.011857808614882157
1290.0,0.011916043445549402
1289.0,0.0121604927241463
1288.0,0.012595817813079084
1287.0,0.013213515589681576
1286.0,0.01400362473031318
1285.0,0.014950777139984002
1284.0,0.01602860614437667
1283.0,0.017208441551250574
1282.0,0.01847253058657727
1281.0,0.019807433371045485
1280.0,0.02118287843410073
1279.0,0.02255144196672382
1278.0,0.02387485517468058
1277.0,0.025135080739873517
1276.0,0.02631619011191653
1275.0,0.027398439746789134
1274.0,0.028375279793558424
1273.0,0.02925065099143151
1272.0,0.03001263830674946
1271.0,0.030635493689364524
1270.0,0.03111146332317785
1269.0,0.03145097713404427
1268.0,0.03165335067224464
1267.0,0.03171208839065948
1266.0,0.03164495915091676
1265.0,0.0314821959080016
1264.0,0.03122886010443001
1263.0,0.030872811304619212
1262.0,0.03042327460790644
1261.0,0.029910085161737078
1260.0,0.029354745979888845
1259.0,0.028771877054038802
1258.0,0.02818678112691589
1257.0,0.02762199579975161
1256.0,0.02707905481925103
1255.0,0.026558416874692514
1254.0,0.026083163839287996
1253.0,0.025679257036312835
1252.0,0.02534563863026576
1251.0,0.025066136105139494
1250.0,0.024838275604546697
1249.0,0.024669594535924412
1248.0,0.024557520186903506
1247.0,0.02449401345405394
1246.0,0.024481853027082275
1245.0,0.02452750666081181
1244.0,0.02462401057588081
1243.0,0.024757970573862538
1242.0,0.024928618649755784
1241.0,0.02514538876984969
1240.0,0.025412748122134263
1239.0,0.0257309681175822
1238.0,0.02610391846945635
1237.0,0.026531298490860195
1236.0,0.027001349936132915
1235.0,0.02750912059741628
1234.0,0.028076691713124127
1233.0,0.02873701439379249
1232.0,0.029501722591476716
1231.0,0.03036274469527954
1230.0,0.03132082855259122
1229.0,0.0323902997495061
1228.0,0.0335753974786887
1227.0,0.03486432970677684
1226.0,0.03624912292997429
1225.0,0.03772816336234406
1224.0,0.03928681585581251
1223.0,0.04090458680356132
1222.0,0.04258647095003047
1221.0,0.04435277714953128
1220.0,0.04619039726302445
1219.0,0.04805239569805443
1218.0,0.04991417746417085
1217.0,0.05178180615040658
1216.0,0.05363106297515197
1215.0,0.05539526162106878
1214.0,0.05703150858741354
1213.0,0.05853823081725863
1212.0,0.059892389179222516
1211.0,0.0610455234225252
1210.0,0.06200185177535017
1209.0,0.06281851705850669
1208.0,0.06351453212626805
1207.0,0.06406659805728822
1206.0,0.06450241428038488
1205.0,0.06490376057459174
1204.0,0.06531084231676512
1203.0,0.06572102771077547
1202.0,0.06618594354614052
1201.0,0.06680634673503273
1200.0,0.06762072348877995
1199.0,0.06859899755340797
1198.0,0.0697589543390993
1197.0,0.07118722701790198
1196.0,0.07292686948769536
1195.0,0.07495118739641578
1194.0,0.07727904906003179
1193.0,0.08000927022800526
1192.0,0.08319782961705935
1191.0,0.08680703332041974
1190.0,0.0908291766783362
1189.0,0.09534405243951125
1188.0,0.10037530210166541
1187.0,0.10579919124575446
1186.0,0.1114712311237014
1185.0,0.1172867824453201
1184.0,0.12298097456072041
1183.0,0.12801501294666004
1182.0,0.13178433252257063
1181.0,0.13374181588511994
1180.0,0.13324403486333108
1179.0,0.12970383772607327
1178.0,0.12312281380802734
1177.0,0.1141399308198399
1176.0,0.1035624172606185
1175.0,0.09219869291304178
1174.0,0.08093085824195102
1173.0,0.07050405832795474
1172.0,0.06127202768302846
1171.0,0.05328921086092664
1170.0,0.0465290662033431
1169.0,0.040924460162020206
1168.0,0.03633018017129954
1167.0,0.03257542686931147
1166.0,0.029530116018488164
1165.0,0.02708252275514223
1164.0,0.025104053790918766
1163.0,0.023482493810451217
1162.0,0.022158360169055605
1161.0,0.021096251323862197
1160.0,0.02024893865888748
1159.0,0.019575013774365248
1158.0,0.019061770649829758
1157.0,0.0187030170892948
1156.0,0.01847792159913048
1155.0,0.018376250912618953
1154.0,0.0184235480493485
1153.0,0.01865731865281132
1152.0,0.019093865687704163
1151.0,0.019738381220172296
1150.0,0.020614110786075276
1149.0,0.021762181656338524
1148.0,0.023221253343347764
1147.0,0.025025228088469312
1146.0,0.027214959165163567
1145.0,0.029827661144179722
1144.0,0.032863114274687036
1143.0,0.03627282867036878
1142.0,0.039992301588828175
1141.0,0.043962533240913496
1140.0,0.04810190362704536
1139.0,0.05229333853583337
1138.0,0.05643331715177317
1137.0,0.06045071788229536
1136.0,0.06424647700127868
1135.0,0.06769312381257601
1134.0,0.07074833425666271
1133.0,0.073479158865764
1132.0,0.07591912717193965
1131.0,0.07799970500090236
1130.0,0.07965408942311061
1129.0,0.08084952528152717
1128.0,0.08147029328675293
1127.0,0.08133001502202256
1126.0,0.08037663968956835
1125.0,0.07876210743116598
1124.0,0.07669398120231626
1123.0,0.07436604018513904
1122.0,0.07201364698202584
1121.0,0.06986051332239662
1120.0,0.06799535408731511
1119.0,0.06640889690422347
1118.0,0.0651277915243421
1117.0,0.06420666344218702
1116.0,0.06362592268736955
1115.0,0.06332675352606194
1114.0,0.0633448696296844
1113.0,0.0637999382950444
1112.0,0.0647509923610866
1111.0,0.06616467121137676
1110.0,0.0680268761478466
1109.0,0.07036999412149414
1108.0,0.0731612322123597
1107.0,0.07627781340200016
1106.0,0.07964192428701133
1105.0,0.08326653044348999
1104.0,0.08711354801145982
1103.0,0.09104624139690513
1102.0,0.09499908179940748
1101.0,0.0990423406633838
1100.0,0.10319017921894563
1099.0,0.1073216713669368
1098.0,0.11139670220290653
1097.0,0.11555093845489778
1096.0,0.11985759261435844
1095.0,0.12421419114324367
1094.0,0.1285869028848518
1093.0,0.1331095055757962
1092.0,0.13779602754129322
1091.0,0.1424451196709838
1090.0,0.1469925418183342
1089.0,0.1516242156820481
1088.0,0.1563501005580006
1087.0,0.16083969320206457
1086.0,0.16487949595586698
1085.0,0.16855523257356655
1084.0,0.17175892132327697
1083.0,0.17404381970121555
1082.0,0.17523075138865166
1081.0,0.17558759832603593
1080.0,0.1751834993882167
1079.0,0.17370342250807647
1078.0,0.1710731027611657
1077.0,0.16759788417964205
1076.0,0.16336340184568
1075.0,0.1581614427683488
1074.0,0.1520529881996037
1073.0,0.14538639417480934
1072.0,0.13828689207447672
1071.0,0.1306768848053899
1070.0,0.12272539565572335
1069.0,0.11481807283808729
1068.0,0.10717863627454739
1067.0,0.09988100862191669
1066.0,0.0931205333060111
1065.0,0.08717729344231612
1064.0,0.08219094060421876
1063.0,0.07817606520118309
1062.0,0.07517862136459541
1061.0,0.07324236783327837
1060.0,0.07226314276803841
1059.0,0.0720156853072865
1058.0,0.07231404634877567
1057.0,0.0730393801972466
1056.0,0.07403276443726643
1055.0,0.07510898107228241
1054.0,0.07620695682402547
1053.0,0.07739321402455297
1052.0,0.07867853310916569
1051.0,0.07998129732508136
1050.0,0.08131113031302074
1049.0,0.0827769709192469
1048.0,0.08433960764410586
1047.0,0.08577325651952886
1046.0,0.08692216774200677
1045.0,0.08777934436017515
1044.0,0.08828770273747912
1043.0,0.08828554512912246
1042.0,0.08769383037182837
1041.0,0.08656698942788933
1040.0,0.08492507594300938
1039.0,0.0827262929239329
1038.0,0.0800315255019216
1037.0,0.07701834741980157
1036.0,0.07382387894819907
1035.0,0.07052701745341403
1034.0,0.06726334012705695
1033.0,0.06420663404735373
1032.0,0.06144318150351272
1031.0,0.058966530021131836
1030.0,0.05676963245956935
1029.0,0.054849024341399155
1028.0,0.05314038779952259
1027.0,0.05153498104549008
1026.0,0.049950571328408765
1025.0,0.04832563678702782
1024.0,0.04657444656037097
1023.0,0.04462856661794938
1022.0,0.04250966115130846
1021.0,0.040295162136750544
1020.0,0.03803164563756003
1019.0,0.035736402693399075
1018.0,0.03344908294501004
1017.0,0.03122008121322843
1016.0,0.029071059579216352
1015.0,0.02701294660467468
1014.0,0.025078457621296863
1013.0,0.023299846253859762
1012.0,0.021678770221638912
1011.0,0.020206738263869328
1010.0,0.01889026475166955
1009.0,0.017731232189640626
1008.0,0.016705971168253703
1007.0,0.015786545017081807
1006.0,0.014964502271763384
1005.0,0.014237014666414444
1004.0,0.013588217916318885
1003.0,0.012999931519017585
1002.0,0.012464643530432983
1001.0,0.01197441702905317
1000.0,0.011511687930339715
999.0,0.011063716643695034
998.0,0.010634888208115496
997.0,0.010236319355292702
996.0,0.009874252384038015
995.0,0.009552217834304067
994.0,0.00926952933691935
993.0,0.009013080814942509
992.0,0.00876499119097645
991.0,0.008522011083727046
990.0,0.008293976010805762
989.0,0.008082619924651832
988.0,0.007878799549997118
987.0,0.007681630216385935
986.0,0.007500811233852298
985.0,0.007335664859598835
984.0,0.007169966239584097
983.0,0.006993210534832303
982.0,0.0068115174855983215
981.0,0.006633617043250268
980.0,0.006462272912768583
979.0,0.0063031511523860915
978.0,0.00616443999093487
977.0,0.006041814255383809
976.0,0.005918777522980086
975.0,0.0057869556676900455
974.0,0.005653473370962213
973.0,0.005526830930660389
972.0,0.005410919903533571
971.0,0.005315363480935732
970.0,0.00525517590017046
969.0,0.005235503254866389
968.0,0.00525098491668138
967.0,0.005304439463924568
966.0,0.0054143025427359995
965.0,0.005601828733055734
964.0,0.0058826394420182036
963.0,0.006269129936782376
962.0,0.006762195052857304
961.0,0.007331084544559189
960.0,0.007908941099056887
959.0,0.008415495119406162
958.0,0.00878641516078932
957.0,0.008987472011556131
956.0,0.009015959601362413
955.0,0.008899532768201202
954.0,0.008684963279022762
953.0,0.008415184468513142
952.0,0.008118873712217662
951.0,0.007820119439502338
950.0,0.0075399752061296645
949.0,0.007281481271782752
948.0,0.007029374817806584
947.0,0.006774436448353094
946.0,0.006528010563556064
945.0,0.006307586723748357
944.0,0.006120198588381802
943.0,0.005965317116155815
942.0,0.005842231669432454
941.0,0.005747937648146474
940.0,0.005674893131427472
939.0,0.0056142189269229245
938.0,0.005557002542888307
937.0,0.0054958581860126265
936.0,0.005433784433460348
935.0,0.005387965006260018
934.0,0.005373525961828026
933.0,0.0053852204822415
932.0,0.0054048314424286845
931.0,0.0054221609248949285
930.0,0.005437922376681356
929.0,0.005452196930147195
928.0,0.005464467251626078
927.0,0.005481355598886807
926.0,0.005509517283176267
925.0,0.005543385243216502
924.0,0.00557358705316323
923.0,0.005603070520370745
922.0,0.005639289208503824
921.0,0.0056750885814731995
920.0,0.005696222223501659
919.0,0.005706230267204366
918.0,0.005723995023004386
917.0,0.0057547209327256325
916.0,0.005781350104226649
915.0,0.005787381096673108
914.0,0.005772160049937235
913.0,0.005742416586488138
912.0,0.005706473721940043
911.0,0.005679136710644657
910.0,0.005672394232627524
909.0,0.005675366901209653
908.0,0.0056609100787016215
907.0,0.0056185270927720295
906.0,0.005566510402615897
905.0,0.0055281673481952405
904.0,0.005511628940127482
903.0,0.005515130511000509
902.0,0.005534327412683488
901.0,0.00556063515541106
900.0,0.005588622316318903
899.0,0.005627704475318782
898.0,0.005689187901225858
897.0,0.00575894200604991
896.0,0.0058014243111557656
895.0,0.005795255694138144
894.0,0.005746923056994339
893.0,0.005664832167206091
892.0,0.005542073279413841
891.0,0.005376877656309648
890.0,0.005192044050537945
889.0,0.005020295201971109
888.0,0.004883864499214227
887.0,0.004799465776942692
886.0,0.00479184153918449
885.0,0.00489381236743627
884.0,0.005140215813690119
883.0,0.005560644657959947
882.0,0.006162510749739374
881.0,0.006918570707073978
880.0,0.007784310064911598
879.0,0.008732124785722054
878.0,0.009760097867285097
877.0,0.010862192528803383
876.0,0.011997525063443468
875.0,0.01309812067003538
874.0,0.01410280896985264
873.0,0.014972366190318349
872.0,0.015676968496655636
871.0,0.01619187887875179
870.0,0.016510090478039127
869.0,0.016642990164947715
868.0,0.016611287894749853
867.0,0.016449128294922292
866.0,0.016200186612304657
865.0,0.015882685898741446
864.0,0.015467704902067659
863.0,0.014912905386061645
862.0,0.014204366857019896
861.0,0.013347230581945861
860.0,0.01234194883270525
859.0,0.011205626205933558
858.0,0.010003037840762318
857.0,0.008825765095278257
856.0,0.007748288439155825
855.0,0.006817898950751021
854.0,0.006064978120420122
853.0,0.005500868001384615
852.0,0.00511301600777647
851.0,0.004869967158777567
850.0,0.004724999165411558
849.0,0.0046178690951574446
848.0,0.004489637804627251
847.0,0.004304675780729052
846.0,0.004055381530898334
845.0,0.003749426802542333
844.0,0.0034046042636718156
843.0,0.0030515930098028443
842.0,0.0027199433570070835
841.0,0.0024176940428487243
840.0,0.002140724335047954
839.0,0.0018983119267402095
838.0,0.0017060439187269114
837.0,0.0015541562592689987
836.0,0.0014096805855524155
835.0,0.001256705953551476
834.0,0.0011134371483055346
833.0,0.0010026131474314822
832.0,0.0009258031754846678
831.0,0.0008758287846474325
830.0,0.0008527950220437357
829.0,0.0008513923867176764
828.0,0.0008466753055703441
827.0,0.0008131137171881013
826.0,0.0007557304452743491
825.0,0.000707205695499263
824.0,0.0006925566383771285
823.0,0.0007046584345639893
822.0,0.0007148932054365995
821.0,0.000703055945857462
820.0,0.0006731931650884844
819.0,0.0006402450548606111
818.0,0.0006069988696501185
817.0,0.0005645572283862858
816.0,0.0005172568230262537
815.0,0.0004915573115989455
814.0,0.0005071963846375559
813.0,0.0005495382705662287
812.0,0.0005847052300911671
811.0,0.0005940314484291862
810.0,0.0005811714731817803
809.0,0.000556122163378278
808.0,0.0005311741196044736
807.0,0.0005255881018025087
806.0,0.000550392855523163
805.0,0.0005879572654495574
804.0,0.0006065426091241034
803.0,0.0005991436873958164
802.0,0.0005937215327542081
801.0,0.0006211684742677233
800.0,0.0006845255323745577
799.0,0.0007600669718163464
798.0,0.0008169870231878006
797.0,0.0008382718567116728
796.0,0.0008363650094243454
795.0,0.0008503238987727871
794.0,0.0009158857125309058
793.0,0.0010358665103410436
792.0,0.0011877304144890504
791.0,0.0013551178665896719
790.0,0.0015383155517774095
789.0,0.0017372115069055572
788.0,0.001941541708823877
787.0,0.0021429685117567527
786.0,0.0023453244658735474
785.0,0.0025577771490547683
784.0,0.0027861775732086463
783.0,0.0030340452154329935
782.0,0.003301768275340086
781.0,0.0035773235473263096
780.0,0.0038331555425310092
779.0,0.004041800549651571
778.0,0.004200692410518306
777.0,0.004344787251478629
776.0,0.004534230790981839
775.0,0.004820419134676708
774.0,0.0052104610121485526
773.0,0.005662982569885133
772.0,0.006126286500917131
771.0,0.006580121058326538
770.0,0.007036597525704395
769.0,0.007510133060099199
768.0,0.008004161733428062
767.0,0.008527320206598204
766.0,0.009099471745837069
765.0,0.009726295150295881
764.0,0.010379792010122795
763.0,0.011020350520992591
762.0,0.011633645343496452
761.0,0.012231052648647274
760.0,0.012816043904608845
759.0,0.013364137998659736
758.0,0.01383245682996262
757.0,0.014174721364531746
756.0,0.014353659717249459
755.0,0.01436176732975715
754.0,0.014230655211324467
753.0,0.014001358175835144
752.0,0.013690798273090481
751.0,0.013306888399137566
750.0,0.012883787470050798
749.0,0.012472579665183791
748.0,0.012100455749413635
747.0,0.01176198361090379
746.0,0.011445559225852366
745.0,0.011145798914057661
744.0,0.010852686414426577
743.0,0.01055080371160823
742.0,0.01023133944477245
741.0,0.00988861475368724
740.0,0.009505310975198676
739.0,0.009056743255361934
738.0,0.00852955507558497
737.0,0.007925029179277588
736.0,0.007250268963786737
735.0,0.006522451677871306
734.0,0.005779896061349573
733.0,0.005075178486462887
732.0,0.004456581006585166
731.0,0.003959805743716417
730.0,0.003607020674018189
729.0,0.0034019965693178143
728.0,0.0033292818482614853
727.0,0.0033655521782973083
726.0,0.0034913824819306164
725.0,0.003690709711325499
724.0,0.003946039201023372
723.0,0.004243072913371121
722.0,0.004577611219706219
721.0,0.0049483630277018555
720.0,0.005341339294474412
719.0,0.005731687790822476
718.0,0.0061028480354172986
717.0,0.006451029851723689
716.0,0.0067722621183451456
715.0,0.007060523180344001
714.0,0.007318127083881784
713.0,0.007552062802959728
712.0,0.007757484835904832
711.0,0.007920495120113774
710.0,0.00804194098900663
709.0,0.008143511863197152
708.0,0.008243633050318994
707.0,0.008337061752628149
706.0,0.00840298222757429
705.0,0.008426596233616196
704.0,0.008409120926444275
703.0,0.008363873077104705
702.0,0.008308237905483896
701.0,0.00825593290571441
700.0,0.008213094692242644
699.0,0.008180605920708581
698.0,0.008156537824232719
697.0,0.008134673246280843
696.0,0.008104361335468662
695.0,0.00805602323368982
694.0,0.007987223384389489
693.0,0.007902527854787306
692.0,0.007810512664791533
691.0,0.007718468427126769
690.0,0.0076240940601371675
689.0,0.0075204067199259785
688.0,0.007418370405909234
687.0,0.007352746525422851
686.0,0.007344055619241971
685.0,0.007362605291233212
684.0,0.00735529509325983
683.0,0.00730185598308568
682.0,0.007222521418999213
681.0,0.0071380354373855506
680.0,0.007051034904211788
679.0,0.006964860911642662
678.0,0.0068896650141843895
677.0,0.006820256499799863
676.0,0.006739014728186485
675.0,0.006651042687389277
674.0,0.006583171488182615
673.0,0.006539837286455272
672.0,0.006498472417280328
671.0,0.006450748321119276
670.0,0.00642440185249764
669.0,0.006411710627626259
668.0,0.006291079655517912
667.0,0.006075688467896899
666.0,0.005938042063831318
665.0,0.005901130163178864
664.0,0.0058997429181925545
663.0,0.005889872537117745
662.0,0.00586666470110362
661.0,0.005847885249561787
660.0,0.005824072597507208
659.0,0.00575998939750285
658.0,0.005642798929556216
657.0,0.005504027922678199
656.0,0.005385323731911621
655.0,0.0053060596987269636
654.0,0.0052513291944240315
653.0,0.005180721854820245
652.0,0.00505776759933042
651.0,0.004885352004020934
650.0,0.004708655928943007
649.0,0.004570659657104483
648.0,0.004477606999851775
647.0,0.004415921050206405
646.0,0.004377179502046181
645.0,0.004350390034728193
644.0,0.004310000468925086
643.0,0.0042352503803648155
642.0,0.004136068169278355
641.0,0.004043511451497301
640.0,0.0039809381867852035
639.0,0.0039519110180809836
638.0,0.0039410040851305846
637.0,0.003918091918529036
636.0,0.0038556936733361667
635.0,0.0037573219927898895
634.0,0.003659220205500375
633.0,0.0035876999063878968
632.0,0.003527818071565476
631.0,0.0034457074964746974
630.0,0.0033259565468232565
629.0,0.003173366564363428
628.0,0.002993329142508305
627.0,0.00279313208183371
626.0,0.002595746393954901
625.0,0.0024314879976177553
624.0,0.002318772025893402
623.0,0.0022628357337790153
622.0,0.00226034065160146
621.0,0.0022951394298399473
620.0,0.0023346329200593643
619.0,0.002337982642218096
618.0,0.0022743995254567518
617.0,0.002140465011480808
616.0,0.0019679900604332784
615.0,0.001810826156362448
614.0,0.0017068149156428698
613.0,0.001648027937183604
612.0,0.00159540758116464
611.0,0.001520020501964702
610.0,0.0014261749403235756
609.0,0.001339938660459494
608.0,0.001284604380061635
607.0,0.001261784209365702
606.0,0.0012445071499394998
605.0,0.00119978668500334
604.0,0.0011279303443881032
603.0,0.0010673527380729254
602.0,0.0010495475726069094
601.0,0.0010615792458308513
600.0,0.0010695801777377938
599.0,0.001066146089678666
598.0,0.0010664897397302496
597.0,0.0010738720061754846
596.0,0.0010817503097400776
595.0,0.0010985885154758566
594.0,0.0011422693120213961
593.0,0.0012064536999495086
592.0,0.0012531317999975537
591.0,0.0012472800899440304
590.0,0.0011841122223729067
589.0,0.0010735754978551575
588.0,0.0009239613346815603
587.0,0.0007577931115958173
586.0,0.0006180683027039733
585.0,0.0005390723317693011
584.0,0.0005290576969206491
583.0,0.0005878086859239292
582.0,0.0007120616559757537
581.0,0.000879133211324724
580.0,0.0010437736369394365
579.0,0.0011555105121982693
578.0,0.0011825419365670952
577.0,0.0011217258305691478
576.0,0.000999540801841968
575.0,0.0008669914386414653
574.0,0.0007527184323539073
573.0,0.0006310701534898433
572.0,0.0004753200701338245
571.0,0.00032737061390482325
570.0,0.00026900844780048706
569.0,0.0003086418336279671
568.0,0.0003585963020629355
567.0,0.0003318774386438022
566.0,0.0002224585871403069
565.0,8.870919639890167e-05
564.0,-9.8810221984642e-06
563.0,-4.2607640837066633e-05
562.0,-2.837019012634414e-05
561.0,-2.8232209178903796e-05
560.0,-7.653886697841974e-05
559.0,-0.00012565548158487583
558.0,-0.00010558741743719839
557.0,-3.5119003198089485e-05
556.0,-4.6729683248966647e-07
555.0,-3.082017914768018e-05
554.0,-4.56386729124382e-05
553.0,3.137043039323512e-05
552.0,0.00014333796777085597
551.0,0.00014467324650560293
550.0,-3.798618205700689e-05
