cm-1,A
4000.0,0.004485138395442442
3999.0,0.0044773007322518685
3998.0,0.004479649947085124
3997.0,0.004489456192986756
3996.0,0.004502592395842912
3995.0,0.004515258805937693
3994.0,0.004525182961998754
3993.0,0.004531035810391198
3992.0,0.004532103461259771
3991.0,0.004528854138003063
3990.0,0.004523510483974756
3989.0,0.004518230659590774
3988.0,0.004512231967263438
3987.0,0.004502473174336755
3986.0,0.0044888028182685415
3985.0,0.004477932112321829
3984.0,0.00447931478474572
3983.0,0.0044970812287769765
3982.0,0.004525224925929024
3981.0,0.004551652077312967
3980.0,0.004566756257933319
3979.0,0.00456740576472431
3978.0,0.004556508825171496
3977.0,0.0045398986159271675
3976.0,0.004523785153677861
3975.0,0.004511965373145082
3974.0,0.004504466964472631
3973.0,0.004500289765555134
3972.0,0.004500076654699798
3971.0,0.004505875531932489
3970.0,0.004517299532305237
3969.0,0.004529478789345318
3968.0,0.004537309649128747
3967.0,0.004540802531615738
3966.0,0.004545658478829002
3965.0,0.0045572902168116
3964.0,0.004574691581736234
3963.0,0.004590412003884698
3962.0,0.004595171771838465
3961.0,0.004585001647156252
3960.0,0.004563489797132633
3959.0,0.00453917089252716
3958.0,0.004522908514150093
3957.0,0.004522299865598014
3956.0,0.004537955407690433
3955.0,0.00456241601323931
3954.0,0.004583885021917618
3953.0,0.0045921864318177325
3952.0,0.004582270954130984
3951.0,0.004557318894163836
3950.0,0.004527699403264635
3949.0,0.0045049034594330534
3948.0,0.004494806113822112
3947.0,0.004495463038748778
3946.0,0.00450010439627312
3945.0,0.004502846577822583
3944.0,0.004503113076575135
3943.0,0.00450535427441864
3942.0,0.004514457593477303
3941.0,0.004532183860484944
3940.0,0.004552186596897441
3939.0,0.004561718209892436
3938.0,0.004555261018715298
3937.0,0.004539419145572819
3936.0,0.004526510595196931
3935.0,0.0045249285903744465
3934.0,0.004536074460722234
3933.0,0.004553929894346066
3932.0,0.0045656767129000665
3931.0,0.004566538706109954
3930.0,0.004566886249015967
3929.0,0.004578511736149952
3928.0,0.004599298975098962
3927.0,0.004613496356743463
3926.0,0.004607844490679322
3925.0,0.004583627934369637
3924.0,0.004556353221754992
3923.0,0.004541908890838728
3922.0,0.0045421372859564425
3921.0,0.004551097258829188
3920.0,0.004567106297570166
3919.0,0.004589558497400826
3918.0,0.004608412907717881
3917.0,0.00460883389500108
3916.0,0.0045916369708136895
3915.0,0.004571852661803077
3914.0,0.004558772419811728
3913.0,0.004551695971416626
3912.0,0.004547704874241262
3911.0,0.004545325100059052
3910.0,0.0045445419898340455
3909.0,0.0045447114722327875
3908.0,0.004546102810277831
3907.0,0.00454811999988625
3906.0,0.004548827833899009
3905.0,0.00454489009717471
3904.0,0.004535798235875752
3903.0,0.004530657581924913
3902.0,0.004538205330195265
3901.0,0.0045495692445092755
3900.0,0.00455097202646787
3899.0,0.004546171424612883
3898.0,0.004548561967302734
3897.0,0.004558840650730143
3896.0,0.004564422920854683
3895.0,0.004557912751712859
3894.0,0.004546835477050575
3893.0,0.004540370393910906
3892.0,0.004533472204286335
3891.0,0.004519715139259278
3890.0,0.004518024075184852
3889.0,0.004537880286670428
3888.0,0.0045612934384255
3887.0,0.004577961020507039
3886.0,0.004591335554839475
3885.0,0.0045937107600205855
3884.0,0.004572210783037612
3883.0,0.004521428161839008
3882.0,0.004449875700357191
3881.0,0.004391635788316809
3880.0,0.004384624356925312
3879.0,0.004436251393597112
3878.0,0.00451458519462649
3877.0,0.004568641690989661
3876.0,0.004572824343238399
3875.0,0.004543432970257902
3874.0,0.004518737311667298
3873.0,0.004525005122583178
3872.0,0.00455212607337771
3871.0,0.004567134959162314
3870.0,0.004560015838287726
3869.0,0.004564483388445936
3868.0,0.00460882600374736
3867.0,0.0046590238475696134
3866.0,0.004666557991938262
3865.0,0.004628822082467171
3864.0,0.004574062090647169
3863.0,0.004529227420722709
3862.0,0.00451075897092877
3861.0,0.004514857712718303
3860.0,0.004526893965603761
3859.0,0.0045353152591363684
3858.0,0.004538155262654055
3857.0,0.004538135557712326
3856.0,0.004537643124813317
3855.0,0.004546610981786761
3854.0,0.004573174384148457
3853.0,0.004567015924643923
3852.0,0.004532089069113364
3851.0,0.004530086749404491
3850.0,0.004534630980758297
3849.0,0.004524499577151906
3848.0,0.0045097814980630535
3847.0,0.004500392872177914
3846.0,0.004496478786713951
3845.0,0.004496355702071681
3844.0,0.004500079365841689
3843.0,0.004506015457370425
3842.0,0.00451295569477126
3841.0,0.004516328463126778
3840.0,0.004510122634075261
3839.0,0.004493471911256994
3838.0,0.0044750853560663415
3837.0,0.004468084696454978
3836.0,0.004474495278976467
3835.0,0.004481844689633972
3834.0,0.004482507678180888
3833.0,0.004483294055610248
3832.0,0.004494552884918197
3831.0,0.004515504500614666
3830.0,0.004533884868504921
3829.0,0.0045365700528877135
3828.0,0.004521193885272955
3827.0,0.004500674884238942
3826.0,0.004494994137876671
3825.0,0.004510826685805129
3824.0,0.0045305326331109095
3823.0,0.004531872657844762
3822.0,0.004519284319444492
3821.0,0.004509611454808606
3820.0,0.004519889553855483
3819.0,0.004562512316593659
3818.0,0.004591575134311722
3817.0,0.004561710156470101
3816.0,0.0044907164524468895
3815.0,0.00444212753823434
3814.0,0.004453443473828483
3813.0,0.004496563899586905
3812.0,0.004532825439405235
3811.0,0.004555691883164089
3810.0,0.0045732590718085015
3809.0,0.004584742258636105
3808.0,0.004579704196148825
3807.0,0.004554688052214102
3806.0,0.004528329947662729
3805.0,0.004519228963398528
3804.0,0.004509151166566465
3803.0,0.0044774812233112325
3802.0,0.004443101473598127
3801.0,0.004431532338481743
3800.0,0.004459036722694256
3799.0,0.004503857624866766
3798.0,0.004512919678918493
3797.0,0.004481013561994741
3796.0,0.00445209904897024
3795.0,0.0044622521605600755
3794.0,0.00450154526615326
3793.0,0.004536104442387799
3792.0,0.004548616052664474
3791.0,0.004546784910837626
3790.0,0.004544711312414813
3789.0,0.00454835185829393
3788.0,0.004552866649490199
3787.0,0.004549948655598312
3786.0,0.004536103158945287
3785.0,0.004516480006050797
3784.0,0.0045010170360203355
3783.0,0.004492432791198327
3782.0,0.004480779380431853
3781.0,0.004460441687670309
3780.0,0.004445020541496682
3779.0,0.004450133134347733
3778.0,0.00447545871916998
3777.0,0.004506473101857589
3776.0,0.004525658316326611
3775.0,0.004530213086437527
3774.0,0.004535213886630852
3773.0,0.004550058606682993
3772.0,0.00456689695108692
3771.0,0.004571818004210745
3770.0,0.004562125466260199
3769.0,0.004548607544911111
3768.0,0.004540096946510506
3767.0,0.004527897762865867
3766.0,0.00450640605067767
3765.0,0.004490135215046178
3764.0,0.004494570063389032
3763.0,0.004514231204688397
3762.0,0.004530642462803261
3761.0,0.004539131725473291
3760.0,0.004549316521811071
3759.0,0.004557485425369096
3758.0,0.00455841335229412
3757.0,0.004565295316795436
3756.0,0.004586690840430849
3755.0,0.00461017439549323
3754.0,0.004618325225937003
3753.0,0.004617015105416775
3752.0,0.004636761241975509
3751.0,0.004668178047529097
3750.0,0.004663909056388374
3749.0,0.0046478445266883855
3748.0,0.004653740591392716
3747.0,0.0046641549356469785
3746.0,0.004657807256345205
3745.0,0.004637820618510901
3744.0,0.004617723997329806
3743.0,0.004622137811582773
3742.0,0.004646248287450449
3741.0,0.004656611072686721
3740.0,0.004653366229646901
3739.0,0.004652200990047251
3738.0,0.004653328131357326
3737.0,0.004642575084535642
3736.0,0.004606843491817161
3735.0,0.004549644204280065
3734.0,0.004513334606940233
3733.0,0.0045372736196221085
3732.0,0.004608248203231965
3731.0,0.004694411122916185
3730.0,0.004772436615306266
3729.0,0.004827195620525009
3728.0,0.0048543917988245425
3727.0,0.004864295319865746
3726.0,0.004869044523126762
3725.0,0.004866939512442525
3724.0,0.00484623853046289
3723.0,0.004807462606208594
3722.0,0.004771254239489649
3721.0,0.004756695513728971
3720.0,0.00476020403046099
3719.0,0.004765202619617508
3718.0,0.004767641644182089
3717.0,0.004778753499844102
3716.0,0.004803923305692539
3715.0,0.004834830143010482
3714.0,0.0048685916973612315
3713.0,0.004925386863188308
3712.0,0.005011973925565594
3711.0,0.0050736825283318
3710.0,0.005090886557661189
3709.0,0.0051227694131509485
3708.0,0.005196031984518018
3707.0,0.005288889773046111
3706.0,0.005377220166300569
3705.0,0.005455773566319294
3704.0,0.005537444948988236
3703.0,0.0056438845358414945
3702.0,0.0057818121858933015
3701.0,0.005931147751699697
3700.0,0.006071314206475956
3699.0,0.006190470122606243
3698.0,0.006279215984290477
3697.0,0.006340915929171759
3696.0,0.006389510558613623
3695.0,0.006433625223067377
3694.0,0.006468559528608213
3693.0,0.0064861654394143785
3692.0,0.006484972655369167
3691.0,0.006463619431661651
3690.0,0.006403604803673286
3689.0,0.006301221496250221
3688.0,0.006218868118605697
3687.0,0.006204761687027341
3686.0,0.006230833613528712
3685.0,0.006255840269581332
3684.0,0.006269708261367728
3683.0,0.006282396893958722
3682.0,0.0063005626799895065
3681.0,0.006320356117443592
3680.0,0.00633802695902826
3679.0,0.006361330270642375
3678.0,0.00640038572211366
3677.0,0.006460364871732507
3676.0,0.006515657259262696
3675.0,0.006529029918865658
3674.0,0.006558927768315811
3673.0,0.006643915217741358
3672.0,0.006737357340225776
3671.0,0.006827298269801243
3670.0,0.006918400266741573
3669.0,0.0069976821022164175
3668.0,0.007088851932265701
3667.0,0.007198576264658392
3666.0,0.007305790249194448
3665.0,0.007408524843844518
3664.0,0.00751700037588072
3663.0,0.00763273092634092
3662.0,0.007745339279861754
3661.0,0.007843695554283684
3660.0,0.00792757451798998
3659.0,0.008011701728384103
3658.0,0.00812102808218775
3657.0,0.008269963128113749
3656.0,0.00843343109872499
3655.0,0.008574640040956509
3654.0,0.008681424030510164
3653.0,0.008752345190667032
3652.0,0.008800820029083481
3651.0,0.008879722847120138
3650.0,0.009037480578551907
3649.0,0.00919204449424499
3648.0,0.009265379325985321
3647.0,0.009346071156851305
3646.0,0.009491209337444892
3645.0,0.009671397790300422
3644.0,0.009847691402757772
3643.0,0.010002706283355221
3642.0,0.010140298156408057
3641.0,0.010272627827496997
3640.0,0.010407709494760168
3639.0,0.010545290301818989
3638.0,0.010685300984818827
3637.0,0.010833788808894112
3636.0,0.010995157091469502
3635.0,0.01116490310192837
3634.0,0.011333662965406907
3633.0,0.011496966362166105
3632.0,0.011659886183688769
3631.0,0.011842819184919081
3630.0,0.012083970913795558
3629.0,0.012355085448227686
3628.0,0.01255103638655648
3627.0,0.01268980553155782
3626.0,0.012827730304982823
3625.0,0.012972968391602197
3624.0,0.013135276087995824
3623.0,0.013323613080721816
3622.0,0.01353899447017744
3621.0,0.013777948037391644
3620.0,0.014020631729072044
3619.0,0.014217393299761426
3618.0,0.014348154727655275
3617.0,0.014452404513671219
3616.0,0.014565929617496459
3615.0,0.014703575240516294
3614.0,0.014863946815584159
3613.0,0.015024365539129222
3612.0,0.015167258928027259
3611.0,0.015302161001186716
3610.0,0.015449262944067076
3609.0,0.015613315732920553
3608.0,0.015769833695881915
3607.0,0.01589882262550048
3606.0,0.016021090163800145
3605.0,0.016161716057275986
3604.0,0.01632457755055015
3603.0,0.016507474701256828
3602.0,0.01671033087962701
3601.0,0.016922797575880246
3600.0,0.017117894887601216
3599.0,0.017276110042610496
3598.0,0.017407591937582522
3597.0,0.01754247801999287
3596.0,0.01770189590525815
3595.0,0.01788031892356469
3594.0,0.01805377830850904
3593.0,0.018208115469818282
3592.0,0.018344963720634783
3591.0,0.018474673275387415
3590.0,0.018622096570106515
3589.0,0.018828343675295713
3588.0,0.019091766453270376
3587.0,0.019325150033337506
3586.0,0.019486663275187523
3585.0,0.019627464852535005
3584.0,0.019783622040326906
3583.0,0.01995767863598886
3582.0,0.020144609448874504
3581.0,0.02033648367203562
3580.0,0.020524363236056095
3579.0,0.02070676282300915
3578.0,0.02089151891679557
3577.0,0.021085102519818013
3576.0,0.021281522154891114
3575.0,0.021468298308278785
3574.0,0.02164071075446369
3573.0,0.02180262877522865
3572.0,0.021956836893841536
3571.0,0.022104792300876096
3570.0,0.022260216911935353
3569.0,0.022459177806477475
3568.0,0.02273144770647456
3567.0,0.023023156395263103
3566.0,0.02324337760872627
3565.0,0.02340322041782855
3564.0,0.023557307775662985
3563.0,0.023726811362030285
3562.0,0.023915484781064728
3561.0,0.024121023943423654
3560.0,0.02433175973426005
3559.0,0.0245355989280573
3558.0,0.02473199311194463
3557.0,0.024925483604328943
3556.0,0.025114725937562477
3555.0,0.02529660862139008
3554.0,0.025478020038440533
3553.0,0.02567215013194785
3552.0,0.02587915080883658
3551.0,0.026085837670403417
3550.0,0.026285192901924426
3549.0,0.026485421636230726
3548.0,0.026703164286480563
3547.0,0.026943032723805094
3546.0,0.027180949602025096
3545.0,0.027384471719392314
3544.0,0.027550584724896455
3543.0,0.027703490209728884
3542.0,0.027865707438703823
3541.0,0.028044820521646537
3540.0,0.028239871104930488
3539.0,0.02845211597815389
3538.0,0.02868689564788491
3537.0,0.028938987801462958
3536.0,0.02918378381725504
3535.0,0.02939859850965755
3534.0,0.0295850209609239
3533.0,0.029760398291236126
3532.0,0.029937722483273928
3531.0,0.0301219511833083
3530.0,0.030318580662574757
3529.0,0.030534068997205947
3528.0,0.03076308708784193
3527.0,0.03099107814134469
3526.0,0.031214672516417304
3525.0,0.031446096241039875
3524.0,0.031689729193579826
3523.0,0.03192614994240514
3522.0,0.03213339129309393
3521.0,0.03231256515595398
3520.0,0.03248154647781513
3519.0,0.032656852122173195
3518.0,0.03284615117986076
3517.0,0.0330487816305866
3516.0,0.03325779392303731
3515.0,0.03346455282667897
3514.0,0.03366491597356109
3513.0,0.0338621145557199
3512.0,0.034063442478428185
3511.0,0.034274883323422184
3510.0,0.03449564102107082
3509.0,0.03471726674793857
3508.0,0.03493065118538146
3507.0,0.035135148486098604
3506.0,0.03534149192429098
3505.0,0.03556593952639747
3504.0,0.0358117084030603
3503.0,0.03605435981057928
3502.0,0.03626310143712461
3501.0,0.03643427382474709
3500.0,0.036588026041578015
3499.0,0.036747831647980365
3498.0,0.036929302824997914
3497.0,0.03713390768185632
3496.0,0.037350717498208244
3495.0,0.03756882501936478
3494.0,0.03778549483562044
3493.0,0.03799938632138167
3492.0,0.03820372930453704
3491.0,0.03839462923849843
3490.0,0.03858245145519839
3489.0,0.03878453516293814
3488.0,0.03900423629284132
3487.0,0.03922653998130642
3486.0,0.039438148188418905
3485.0,0.03964230460467013
3484.0,0.03985113520175254
3483.0,0.04006995808786576
3482.0,0.04029081120552764
3481.0,0.040501281131432115
3480.0,0.040697890515827326
3479.0,0.04088872515913892
3478.0,0.041084155478068485
3477.0,0.04128727753094888
3476.0,0.04149326006225067
3475.0,0.04169798032482171
3474.0,0.04190507939948491
3473.0,0.04211990954317542
3472.0,0.04233977940892673
3471.0,0.04255729661202694
3470.0,0.04277066644387091
3469.0,0.04298247781082412
3468.0,0.043190144093265506
3467.0,0.043387742544112005
3466.0,0.04357911288003901
3465.0,0.043778597794629996
3464.0,0.043994611298523015
3463.0,0.0442181629627312
3462.0,0.04443135843874041
3461.0,0.04462521994576858
3460.0,0.044806080275548776
3459.0,0.04498721070697822
3458.0,0.04517649386163281
3457.0,0.04536898933386958
3456.0,0.04555153750012368
3455.0,0.045717826596070016
3454.0,0.04587697215980673
3453.0,0.04604376036227392
3452.0,0.046223188994727445
3451.0,0.04641211997330086
3450.0,0.04661280436260046
3449.0,0.04683306469135201
3448.0,0.0470663199840328
3447.0,0.04728221912593869
3446.0,0.047455594935087095
3445.0,0.047596904902079615
3444.0,0.04773885788634215
3443.0,0.047904896917062054
3442.0,0.048093976074315925
3441.0,0.048287751187551894
3440.0,0.048471024730650535
3439.0,0.04864316781421257
3438.0,0.04881051303912823
3437.0,0.0489731598143742
3436.0,0.0491242961714313
3435.0,0.049263602049638235
3434.0,0.049405208740904996
3433.0,0.04956597233125024
3432.0,0.0497471509181172
3431.0,0.049933803288411426
3430.0,0.050110936480571196
3429.0,0.05027463400612384
3428.0,0.05042751353557828
3427.0,0.050571690510797324
3426.0,0.050710800124184933
3425.0,0.050853386344811
3424.0,0.05100824039423618
3423.0,0.05117610748938261
3422.0,0.05134744078344221
3421.0,0.051509015854974194
3420.0,0.0516542462673676
3419.0,0.05178723656679097
3418.0,0.05191669637440664
3417.0,0.052047627808147055
3416.0,0.05217946450626623
3415.0,0.05231119062613487
3414.0,0.052446602599434324
3413.0,0.05259231860265415
3412.0,0.05274975687943201
3411.0,0.05291047583763323
3410.0,0.05306084874929274
3409.0,0.053192525706151114
3408.0,0.053308880207282104
3407.0,0.053420638668400515
3406.0,0.05353513736809465
3405.0,0.0536512747796077
3404.0,0.05376597032026329
3403.0,0.0538827364353958
3402.0,0.054008832311843856
3401.0,0.05414353700320824
3400.0,0.05427480770088684
3399.0,0.054391036689838856
3398.0,0.054492855126096564
3397.0,0.05459102811388229
3396.0,0.054695404267263874
3395.0,0.05480848611926571
3394.0,0.05492611478992876
3393.0,0.05503956825144376
3392.0,0.055140001782327086
3391.0,0.05522645446373125
3390.0,0.05530795783350206
3389.0,0.055395047784484695
3388.0,0.055491196124978534
3387.0,0.055593368686453516
3386.0,0.055697923615000255
3385.0,0.05580313655794586
3384.0,0.05590755960591662
3383.0,0.05600949241221307
3382.0,0.05610729894644786
3381.0,0.056198203126050734
3380.0,0.056278898372712986
3379.0,0.05635072401243933
3378.0,0.05642223891152747
3377.0,0.056502646143559855
3376.0,0.05659270201320146
3375.0,0.056684525896578034
3374.0,0.05676981048566021
3373.0,0.056846811978679586
3372.0,0.056920921759922825
3371.0,0.05699921862568932
3370.0,0.05708188865197213
3369.0,0.057158480764309724
3368.0,0.057217767575946786
3367.0,0.05726341740837936
3366.0,0.05731368844711982
3365.0,0.05738140969540122
3364.0,0.057460644482727065
3363.0,0.057537286705770165
3362.0,0.05760533728042919
3361.0,0.05766660618992857
3360.0,0.05772159938948874
3359.0,0.05777038032375565
3358.0,0.057818913687474466
3357.0,0.05787431732089765
3356.0,0.05793405085867992
3355.0,0.05798837549303762
3354.0,0.058033606493888654
3353.0,0.05807498691242478
3352.0,0.05811663406500464
3351.0,0.05815632987099306
3350.0,0.05819145309253929
3349.0,0.0582232129942892
3348.0,0.05825302109236253
3347.0,0.058280113349238216
3346.0,0.058304933359862365
3345.0,0.0583300802150943
3344.0,0.05835635905572371
3343.0,0.05838286755289207
3342.0,0.05841222667557167
3341.0,0.05845042684344845
3340.0,0.05849851607103326
3339.0,0.058547971502238075
3338.0,0.05858713305778642
3337.0,0.05861087787545533
3336.0,0.05862403533697822
3335.0,0.058638250764994744
3334.0,0.058665550961426116
3333.0,0.058710582563551626
3332.0,0.05876663829599371
3331.0,0.058821429821200935
3330.0,0.05886812375700961
3329.0,0.058908737866643725
3328.0,0.05894656624659517
3327.0,0.05897961993673442
3326.0,0.05900485881968516
3325.0,0.059026292088601044
3324.0,0.05905410107632231
3323.0,0.059095186468228075
3322.0,0.05914665729730583
3321.0,0.05919913485399917
3320.0,0.059245010917025935
3319.0,0.05928281843733557
3318.0,0.05931486738137138
3317.0,0.059343434977863256
3316.0,0.05937110530403321
3315.0,0.059402917740192136
3314.0,0.059443507784813825
3313.0,0.05949083198317453
3312.0,0.059536746402994944
3311.0,0.05957657852057923
3310.0,0.05961479639107085
3309.0,0.05965780337233894
3308.0,0.05970427327223639
3307.0,0.05974757261641428
3306.0,0.05978565401650769
3305.0,0.05982307499455791
3304.0,0.0598640124778058
3303.0,0.059907951063818646
3302.0,0.05995262563751878
3301.0,0.05999716086051088
3300.0,0.060040822597552765
3299.0,0.06008127480786904
3298.0,0.060115313846109755
3297.0,0.06014048021087638
3296.0,0.06015673335559753
3295.0,0.06016844524619962
3294.0,0.06018291427148545
3293.0,0.060202996617693655
3292.0,0.060221384705704706
3291.0,0.06022643793731956
3290.0,0.06021444650959237
3289.0,0.06019303243264129
3288.0,0.06017271955077265
3287.0,0.060158285947692194
3286.0,0.06014717995013438
3285.0,0.06013150353004708
3284.0,0.06010124714917875
3283.0,0.06005152328842939
3282.0,0.059989445093369634
3281.0,0.059929139943769694
3280.0,0.05987642786847522
3279.0,0.059821225139611356
3278.0,0.05974791570867581
3277.0,0.059650847358764685
3276.0,0.059537346291977815
3275.0,0.059418916092109954
3274.0,0.05930362939532271
3273.0,0.059194615262488696
3272.0,0.05909005912438002
3271.0,0.058983993960820165
3270.0,0.058870736765091296
3269.0,0.058749377093299956
3268.0,0.058621746028782326
3267.0,0.058486724012191904
3266.0,0.058340412938046225
3265.0,0.05818287936595679
3264.0,0.0580210078622572
3263.0,0.05786229067755429
3262.0,0.057707429836680486
3261.0,0.05755025092134635
3260.0,0.057383612373914185
3259.0,0.057204888204742795
3258.0,0.057017872529102016
3257.0,0.05683030796721709
3256.0,0.05664774640668086
3255.0,0.05646825563929626
3254.0,0.05628474817192628
3253.0,0.05609406194854683
3252.0,0.05590168628667411
3251.0,0.055715795479731885
3250.0,0.05553870939301042
3249.0,0.05536650180719277
3248.0,0.055194790760406086
3247.0,0.05502114164571919
3246.0,0.05484230804775854
3245.0,0.054654749362748126
3244.0,0.05446159970696752
3243.0,0.05427548259610212
3242.0,0.05410909034264318
3241.0,0.053962877822350375
3240.0,0.05382415804298595
3239.0,0.05367859069102722
3238.0,0.05352115232529877
3237.0,0.05335566884292293
3236.0,0.053186944225048466
3235.0,0.053016257852335075
3234.0,0.052843616134006254
3233.0,0.052671229217468425
3232.0,0.05250318984125649
3231.0,0.05234247048845949
3230.0,0.0521889238712634
3229.0,0.0520399846167701
3228.0,0.05189241036006268
3227.0,0.05174305612848323
3226.0,0.05158907769644206
3225.0,0.05142936266744541
3224.0,0.051266664434318585
3223.0,0.05110684055613259
3222.0,0.05095349929750042
3221.0,0.05080280729374571
3220.0,0.05064534010639765
3219.0,0.05047482582971271
3218.0,0.05029480699441506
3217.0,0.05011605855362635
3216.0,0.04994850111049627
3215.0,0.04979463145801488
3214.0,0.049648073911352175
3213.0,0.049498336935268984
3212.0,0.04933894539994122
3211.0,0.04917176667860624
3210.0,0.049003372174911713
3209.0,0.04883764533550526
3208.0,0.048672817116520696
3207.0,0.04850489714120694
3206.0,0.04833159179097028
3205.0,0.048152851093453984
3204.0,0.04797060643339902
3203.0,0.04778919842824943
3202.0,0.04761363750333097
3201.0,0.047445235192383646
3200.0,0.0472797657653695
3199.0,0.047110660621887276
3198.0,0.04693332832402699
3197.0,0.046746693907773404
3196.0,0.04655313053531748
3195.0,0.04635756201843034
3194.0,0.04616431042700715
3193.0,0.045973651446681196
3192.0,0.045783318899328844
3191.0,0.045593826932614795
3190.0,0.04540872606074468
3189.0,0.04522749439767583
3188.0,0.04504201212924719
3187.0,0.04484471679206268
3186.0,0.04463866435389906
3185.0,0.04443499297661876
3184.0,0.04424052476307432
3183.0,0.04405117117600669
3182.0,0.043857673533375253
3181.0,0.04365464470694845
3180.0,0.043444373511758574
3179.0,0.043234525161858814
3178.0,0.04303172431049575
3177.0,0.04283520433733861
3176.0,0.042637161261882175
3175.0,0.042430448882114835
3174.0,0.04221483309133735
3173.0,0.04199527165169703
3172.0,0.041776838902902944
3171.0,0.04156350640307495
3170.0,0.04135864786784515
3169.0,0.0411617376287348
3168.0,0.04096521138236741
3167.0,0.040759352536450945
3166.0,0.0405412133909094
3165.0,0.04031671230469423
3164.0,0.04009520105312629
3163.0,0.03988409764659233
3162.0,0.0396861390685086
3161.0,0.03949676995000931
3160.0,0.039304705835557834
3159.0,0.039100194806996516
3158.0,0.038883994107586466
3157.0,0.03866526533479478
3156.0,0.03845127402965867
3155.0,0.038243389747600054
3154.0,0.03804219519536325
3153.0,0.03784971556410245
3152.0,0.037664225281480994
3151.0,0.03747799130013621
3150.0,0.037284473007043004
3149.0,0.037085862641304285
3148.0,0.03689068535924214
3147.0,0.03670525369487075
3146.0,0.036528496586462365
3145.0,0.03635265789337232
3144.0,0.03616830847063633
3143.0,0.03597201971307335
3142.0,0.03577095730054002
3141.0,0.03557755821917821
3140.0,0.03539825655623285
3139.0,0.03522975505382714
3138.0,0.03506715243606772
3137.0,0.03491080202947456
3136.0,0.03476121070937464
3135.0,0.034610958067221524
3134.0,0.03444758628205706
3133.0,0.03426602182280768
3132.0,0.03407559226018002
3131.0,0.03389280249389242
3130.0,0.03372844860937104
3129.0,0.03358204910058483
3128.0,0.03344548072410697
3127.0,0.03331031650839895
3126.0,0.03317260386699055
3125.0,0.0330321832157703
3124.0,0.03288933122378501
3123.0,0.0327433032984967
3122.0,0.03259382167990853
3121.0,0.03244286813822875
3120.0,0.03229456444438892
3119.0,0.032153052092380154
3118.0,0.03201915050157651
3117.0,0.03188886751027243
3116.0,0.0317576930906178
3115.0,0.031627857858068216
3114.0,0.031508575988768224
3113.0,0.031406181665180416
3112.0,0.031316295402988074
3111.0,0.031228463945261804
3110.0,0.031135769384004128
3109.0,0.03103695761164762
3108.0,0.030932002323441815
3107.0,0.030821628463174204
3106.0,0.030711233000644912
3105.0,0.03060904591315515
3104.0,0.03051740151337732
3103.0,0.03042895502509063
3102.0,0.030334374435858152
3101.0,0.03023315070761229
3100.0,0.030135219943123674
3099.0,0.030051619364484666
3098.0,0.029984294280680376
3097.0,0.029924084009578543
3096.0,0.02985830749240318
3095.0,0.029782343804871478
3094.0,0.02970352171682522
3093.0,0.02963104433147261
3092.0,0.02956388217915363
3091.0,0.02949220787811937
3090.0,0.029409649763859284
3089.0,0.029320375390109912
3088.0,0.029233358964428267
3087.0,0.0291528732860774
3086.0,0.029076500715907186
3085.0,0.028999792248660512
3084.0,0.02892036388469959
3083.0,0.02883905251549416
3082.0,0.028758842870995675
3081.0,0.028681861064503617
3080.0,0.02860690639792993
3079.0,0.0285311787381825
3078.0,0.028454308362913964
3077.0,0.0283783874010873
3076.0,0.028303776381703595
3075.0,0.028227296919328338
3074.0,0.028145275989818034
3073.0,0.028055957313594292
3072.0,0.02795843566498952
3071.0,0.027852414685401543
3070.0,0.027741416885303533
3069.0,0.027634317554234403
3068.0,0.027539560982545314
3067.0,0.027456431336166764
3066.0,0.02737304732115674
3065.0,0.027275181236602566
3064.0,0.027158727392116565
3063.0,0.027033587317448798
3062.0,0.026914886226890825
3061.0,0.02680994387883859
3060.0,0.02671311450802078
3059.0,0.026612536684887347
3058.0,0.02650094972249668
3057.0,0.026378898398719153
3056.0,0.026250233348053906
3055.0,0.02611813318876195
3054.0,0.02598551839281219
3053.0,0.02585564840393148
3052.0,0.025729866408956897
3051.0,0.0256064338348538
3050.0,0.025482896024040996
3049.0,0.02535901525938812
3048.0,0.025236736129732477
3047.0,0.025118214555976737
3046.0,0.025004397906462406
3045.0,0.024894366981619537
3044.0,0.02478553894011623
3043.0,0.024675994923701254
3042.0,0.024567000980963875
3041.0,0.024461751051219022
3040.0,0.024361268161242376
3039.0,0.02426287662352678
3038.0,0.024163390283603797
3037.0,0.02406231702589879
3036.0,0.02396191706344617
3035.0,0.023865837198939463
3034.0,0.023777680149830532
3033.0,0.02369803519347385
3032.0,0.023621408105725633
3031.0,0.023537985889204506
3030.0,0.023441149957982858
3029.0,0.023332427622138347
3028.0,0.023218279870450376
3027.0,0.02310429203843882
3026.0,0.02299209600525514
3025.0,0.022880087103777882
3024.0,0.022766158418041204
3023.0,0.022650534747610352
3022.0,0.02253677187627998
3021.0,0.022429463600204893
3020.0,0.02233109122860915
3019.0,0.02224155886590885
3018.0,0.022159746841680934
3017.0,0.02208356900758031
3016.0,0.022008527877812472
3015.0,0.021928540790186142
3014.0,0.021840080961749345
3013.0,0.021745625520705695
3012.0,0.021652056425537084
3011.0,0.02156540401593934
3010.0,0.021487163833318817
3009.0,0.02141591276969135
3008.0,0.02135183247643287
3007.0,0.021297349889872308
3006.0,0.021252142791708204
3005.0,0.021209115952788835
3004.0,0.021159644196419698
3003.0,0.021103049622847012
3002.0,0.02104711724787975
3001.0,0.02099812315800945
3000.0,0.020954213966701718
2999.0,0.02091082562397477
2998.0,0.020868316411336994
2997.0,0.020830990741967564
2996.0,0.020801097457221984
2995.0,0.020778318121304533
2994.0,0.020764016006223438
2993.0,0.020762317069171355
2992.0,0.02077700423100093
2991.0,0.020809663333156828
2990.0,0.020859212097584835
2989.0,0.020920206825155
2988.0,0.02098368289390638
2987.0,0.021043834112167998
2986.0,0.021104253826150866
2985.0,0.021173981462576943
2984.0,0.021258133898162012
2983.0,0.021355042162785914
2982.0,0.02146144579151655
2981.0,0.021577334952745063
2980.0,0.021705927280110497
2979.0,0.021852214049090515
2978.0,0.02202159012700481
2977.0,0.02221819139764945
2976.0,0.02244607391106835
2975.0,0.02271364061993521
2974.0,0.023031834364312425
2973.0,0.02339993815626541
2972.0,0.023791030920197867
2971.0,0.02415925815566141
2970.0,0.024468634363322625
2969.0,0.02471770501954074
2968.0,0.024938295973072372
2967.0,0.02517018717943323
2966.0,0.025436081652817178
2965.0,0.025733405463958754
2964.0,0.02604404889653912
2963.0,0.02634907868529397
2962.0,0.026634833553077792
2961.0,0.026890498241548426
2960.0,0.027105421772862293
2959.0,0.027272612107092132
2958.0,0.02739322728548263
2957.0,0.027474501754687373
2956.0,0.027523642912573993
2955.0,0.027545239334590327
2954.0,0.027544706683822053
2953.0,0.02753234100563407
2952.0,0.02752458795919774
2951.0,0.02754304071819851
2950.0,0.02761175416568639
2949.0,0.027753629554280818
2948.0,0.027987644843231404
2947.0,0.028329354339303385
2946.0,0.02879146584341514
2945.0,0.029382430669286717
2944.0,0.030106163241202327
2943.0,0.030963590642479465
2942.0,0.03195291610298825
2941.0,0.0330679473357733
2940.0,0.03430047043323799
2939.0,0.03564738168334691
2938.0,0.037113045952015276
2937.0,0.038702242362802036
2936.0,0.04041480512426689
2935.0,0.04225087979681584
2934.0,0.04421780395829732
2933.0,0.04632802238517296
2932.0,0.048591230770948866
2931.0,0.05101208114289441
2930.0,0.05359454353573633
2929.0,0.05634712212887106
2928.0,0.05928544943450026
2927.0,0.06243194919881642
2926.0,0.06581120430828105
2925.0,0.06944360772888766
2924.0,0.07333807218072956
2923.0,0.07747937558274576
2922.0,0.08181386827524628
2921.0,0.08623744860012254
2920.0,0.09058020594027133
2919.0,0.094574160613278
2918.0,0.09783294716158196
2917.0,0.09990492937013788
2916.0,0.100416919280152
2915.0,0.09923190830277544
2914.0,0.09651336475573624
2913.0,0.09267597081562395
2912.0,0.08823769827784901
2911.0,0.08366107910111772
2910.0,0.07926894248311628
2909.0,0.07523953658530465
2908.0,0.07165070336238072
2907.0,0.06851435357216108
2906.0,0.06579764191874535
2905.0,0.06344231689209051
2904.0,0.06138553833610097
2903.0,0.05957071698283529
2902.0,0.05794785890217812
2901.0,0.05647376459286979
2900.0,0.05511435746814928
2899.0,0.05384483481230903
2898.0,0.05264235186086697
2897.0,0.05148208569631018
2896.0,0.05034092982438118
2895.0,0.04920463784221456
2894.0,0.048069338386558615
2893.0,0.04693429456501221
2892.0,0.04579569170102062
2891.0,0.0446492971975116
2890.0,0.04349797951797888
2889.0,0.04235321488353074
2888.0,0.04122736832712529
2887.0,0.04012649116543157
2886.0,0.03905161955024105
2885.0,0.038004668070103775
2884.0,0.03699160136537613
2883.0,0.03602181695920816
2882.0,0.035104980715440146
2881.0,0.03424690182411585
2880.0,0.033447783336287354
2879.0,0.03270742860683013
2878.0,0.03203215552932735
2877.0,0.03143281232702176
2876.0,0.030915082292144187
2875.0,0.03047442810250376
2874.0,0.03010013489740026
2873.0,0.029779387148547554
2872.0,0.029498552340001295
2871.0,0.029248658979301234
2870.0,0.02903630101703205
2869.0,0.028886833917095615
2868.0,0.02883417806855251
2867.0,0.028911349585416163
2866.0,0.029152260589547164
2865.0,0.029595283027272698
2864.0,0.030277476674361085
2863.0,0.031226927136912393
2862.0,0.032467795133646345
2861.0,0.03403289529881605
2860.0,0.035967602389052306
2859.0,0.038321155216148185
2858.0,0.04114017319781074
2857.0,0.04447142716683133
2856.0,0.048370880875006225
2855.0,0.05289728592995058
2854.0,0.058081307300993194
2853.0,0.06385651410704828
2852.0,0.0699461182987308
2851.0,0.07575459012583442
2850.0,0.08037394099970095
2849.0,0.08284515346989159
2848.0,0.08259219665630503
2847.0,0.07971899935711636
2846.0,0.07491206658757583
2845.0,0.06909282700983659
2844.0,0.06306851969641795
2843.0,0.057370069555650216
2842.0,0.05226261973646137
2841.0,0.04783107056847214
2840.0,0.044059430610321915
2839.0,0.04088163420612978
2838.0,0.03820654614835984
2837.0,0.03594195218496681
2836.0,0.03400852533392708
2835.0,0.03234621023962193
2834.0,0.030912976539213065
2833.0,0.02967389173182529
2832.0,0.028592946523024496
2831.0,0.0276328394833321
2830.0,0.026765859942119483
2829.0,0.025979735732980375
2828.0,0.025270999432048545
2827.0,0.024634001518731286
2826.0,0.024056715939588066
2825.0,0.023524710161545854
2824.0,0.023027161350984107
2823.0,0.022559200827251935
2822.0,0.02212030750024367
2821.0,0.021710063155289904
2820.0,0.021326003441546622
2819.0,0.02096611828834316
2818.0,0.02063123093077083
2817.0,0.020321365526789693
2816.0,0.020030281397935744
2815.0,0.019747811373918546
2814.0,0.019468634474349655
2813.0,0.019196367717392776
2812.0,0.01893854536989194
2811.0,0.01869924896322834
2810.0,0.018476531646886184
2809.0,0.018263820420730076
2808.0,0.018053390188230607
2807.0,0.01784220294751257
2806.0,0.017635352130369937
2805.0,0.017440796830765628
2804.0,0.017260037944382942
2803.0,0.017086267763381145
2802.0,0.016912208422462716
2801.0,0.016737473179239282
2800.0,0.01656701662783751
2799.0,0.01640485252896328
2798.0,0.01625091531009334
2797.0,0.01610197198682612
2796.0,0.015954420654048306
2795.0,0.015807313515723134
2794.0,0.01566287366887304
2793.0,0.015523357154242835
2792.0,0.015388052540734248
2791.0,0.015254370987611034
2790.0,0.015120446562000917
2789.0,0.014985499171344816
2788.0,0.01484997826597094
2787.0,0.014717858914300469
2786.0,0.01459616714142951
2785.0,0.014487654022917292
2784.0,0.014385454621471113
2783.0,0.014279538405196607
2782.0,0.014167813516243279
2781.0,0.014057156214233379
2780.0,0.013954312684981006
2779.0,0.013859569636800111
2778.0,0.013768893337956544
2777.0,0.013678052360016261
2776.0,0.013584619383494723
2775.0,0.013490386876318837
2774.0,0.013401831874256373
2773.0,0.013323903535544177
2772.0,0.013252897613112146
2771.0,0.013179729477412774
2770.0,0.01310084220351856
2769.0,0.013021468038149516
2768.0,0.012947579949109651
2767.0,0.012879083663310224
2766.0,0.012812213198486336
2765.0,0.012744358312382716
2764.0,0.012674622733070446
2763.0,0.012603067147355634
2762.0,0.0125317948530558
2761.0,0.012464555201603122
2760.0,0.012403279343211828
2759.0,0.01234632620162512
2758.0,0.012290748803791371
2757.0,0.012234550453953608
2756.0,0.012176639379437318
2755.0,0.012117331338632381
2754.0,0.012059601725855244
2753.0,0.012007041635752096
2752.0,0.011959160004014103
2751.0,0.011910270715749955
2750.0,0.011854709251797477
2749.0,0.0117931408157981
2748.0,0.011733628002305792
2747.0,0.011686377058851305
2746.0,0.011655420670086002
2745.0,0.011634455223485274
2744.0,0.011612128441320044
2743.0,0.011582103329083165
2742.0,0.011546249143075515
2741.0,0.01150828024095606
2740.0,0.011468631715115179
2739.0,0.011427699286608703
2738.0,0.011389040967625816
2737.0,0.01135442405025403
2736.0,0.011319065197922439
2735.0,0.01127713012175513
2734.0,0.011230189427275527
2733.0,0.01118510625824871
2732.0,0.011144569845622978
2731.0,0.011104734959468435
2730.0,0.011061513527947538
2729.0,0.011014789156673041
2728.0,0.010966676131996428
2727.0,0.010919327202334206
2726.0,0.010874299882571603
2725.0,0.010830989358167642
2724.0,0.010786350744771285
2723.0,0.010738703820905368
2722.0,0.010690343486599556
2721.0,0.010644078962782449
2720.0,0.010599615838044824
2719.0,0.010556304581655662
2718.0,0.01051591920397102
2717.0,0.010478607521051614
2716.0,0.010440007599945707
2715.0,0.010397705115363143
2714.0,0.010357002293093696
2713.0,0.010323821845750215
2712.0,0.01029436202748351
2711.0,0.010258951375497006
2710.0,0.010215015377670368
2709.0,0.010169167986556593
2708.0,0.010127667490687112
2707.0,0.010091651607430627
2706.0,0.01006108640772135
2705.0,0.010035559393385457
2704.0,0.010009965181284277
2703.0,0.009976770025746554
2702.0,0.009935064535868409
2701.0,0.009892486701601267
2700.0,0.00985666775956586
2699.0,0.009829035036065933
2698.0,0.009807322275760933
2697.0,0.009788865314912699
2696.0,0.009770303138698507
2695.0,0.009749223583928561
2694.0,0.009727699554045423
2693.0,0.009710131456791279
2692.0,0.009696960514065985
2691.0,0.00968453132459869
2690.0,0.009671004508032367
2689.0,0.009657375468085618
2688.0,0.009642515600174515
2687.0,0.009623151174352865
2686.0,0.009600170107333397
2685.0,0.009579627086043119
2684.0,0.00956517708301079
2683.0,0.009553407353596425
2682.0,0.009538631112804398
2681.0,0.009518701507769812
2680.0,0.009494865108684981
2679.0,0.009469534989557764
2678.0,0.009445788994488414
2677.0,0.009426158864747276
2676.0,0.009410441764867963
2675.0,0.009396862811973467
2674.0,0.009385214529155018
2673.0,0.009376058756830147
2672.0,0.009367509921198357
2671.0,0.009356556412875675
2670.0,0.009343449623955809
2669.0,0.009330901443106636
2668.0,0.009318963725446942
2667.0,0.009304893931612159
2666.0,0.009288461953681335
2665.0,0.009273405707293784
2664.0,0.009262631372267011
2663.0,0.009255209894137912
2662.0,0.00924863099184519
2661.0,0.009241027161573972
2660.0,0.009230931274350172
2659.0,0.009217794996340576
2658.0,0.009203279709234765
2657.0,0.009189814592788505
2656.0,0.009178398150162095
2655.0,0.00916979289783964
2654.0,0.009165778541919046
2653.0,0.0091655809937989
2652.0,0.009163072899446404
2651.0,0.009152336714884446
2650.0,0.009134913713129906
2649.0,0.009117286062485732
2648.0,0.009102350258530007
2647.0,0.009088297381658656
2646.0,0.009074451331963112
2645.0,0.009062322973831199
2644.0,0.009051400753469222
2643.0,0.009039588434403008
2642.0,0.009028224187466759
2641.0,0.00902152401974246
2640.0,0.009020822452477182
2639.0,0.009023558900049983
2638.0,0.009026993126421225
2637.0,0.009027986106390244
2636.0,0.009020517942955756
2635.0,0.009000111804379268
2634.0,0.008970744674557623
2633.0,0.008941669877386767
2632.0,0.008917631515457651
2631.0,0.008897152566402555
2630.0,0.008879046615490827
2629.0,0.008863578443496377
2628.0,0.008847487354289484
2627.0,0.008825599393231163
2626.0,0.008798483889858131
2625.0,0.008772655259134267
2624.0,0.00875245165509921
2623.0,0.008736984387796912
2622.0,0.008724400608150221
2621.0,0.008712506772263675
2620.0,0.008696154569758032
2619.0,0.008671674777273684
2618.0,0.00864394942780614
2617.0,0.008621735215538384
2616.0,0.008605682444062403
2615.0,0.00858854418745851
2614.0,0.008567341477659678
2613.0,0.008546790886742938
2612.0,0.008529787981409818
2611.0,0.008513099698711465
2610.0,0.008494382657154664
2609.0,0.008475234691916071
2608.0,0.008454972887944265
2607.0,0.008429256206828424
2606.0,0.008397782586224749
2605.0,0.00836663244432646
2604.0,0.008340475169002704
2603.0,0.008318714132281625
2602.0,0.008300712702049422
2601.0,0.008287182243741503
2600.0,0.008274090165137957
2599.0,0.008253246300967857
2598.0,0.008222777459984112
2597.0,0.008191210439732617
2596.0,0.008167904228257377
2595.0,0.008154057200290539
2594.0,0.008145279839423047
2593.0,0.008137328301003721
2592.0,0.008127077935481739
2591.0,0.008113308714358088
2590.0,0.008098822018129672
2589.0,0.008087781658218288
2588.0,0.008079855616528955
2587.0,0.008070534238616468
2586.0,0.008056266058940739
2585.0,0.008034636686459587
2584.0,0.008002213334902078
2583.0,0.007960190113400819
2582.0,0.007921292230790071
2581.0,0.007901330550243795
2580.0,0.007901439441684628
2579.0,0.007905693280269351
2578.0,0.007897746479591227
2577.0,0.007874146568685311
2576.0,0.007841223458066792
2575.0,0.00780668167525057
2574.0,0.00777718860468668
2573.0,0.007757812552946688
2572.0,0.007749396918937496
2571.0,0.007748254672004582
2570.0,0.007748342488067529
2569.0,0.007742004737119746
2568.0,0.00772289170892403
2567.0,0.007694168836901064
2566.0,0.007670597691057372
2565.0,0.007664694217209439
2564.0,0.007672463546260137
2563.0,0.007679672871489112
2562.0,0.007679408433409779
2561.0,0.007675442992741036
2560.0,0.007670596366890282
2559.0,0.007661256888631196
2558.0,0.0076439025037739645
2557.0,0.007619589911175303
2556.0,0.007592084100041984
2555.0,0.007567564649225426
2554.0,0.00755373206443632
2553.0,0.007551516306760472
2552.0,0.007550029023884585
2551.0,0.0075379982713700226
2550.0,0.007517895755457771
2549.0,0.007500350834033687
2548.0,0.007487290418174862
2547.0,0.007470737836051809
2546.0,0.007446909148706497
2545.0,0.007420903241145506
2544.0,0.007397687653781028
2543.0,0.007378179794034028
2542.0,0.00736402873691583
2541.0,0.007356486141535435
2540.0,0.007350053257421404
2539.0,0.007337050797477393
2538.0,0.007319951332454775
2537.0,0.007310753332486817
2536.0,0.0073163720498859094
2535.0,0.007330585856780951
2534.0,0.007340464343011275
2533.0,0.007335754433680418
2532.0,0.007314752036066371
2531.0,0.007287678619581565
2530.0,0.007270638384586286
2529.0,0.0072680672766743636
2528.0,0.0072649283604725706
2527.0,0.00724550684679354
2526.0,0.007215671682730086
2525.0,0.007195369470153801
2524.0,0.007192814678592103
2523.0,0.007198927152218022
2522.0,0.007204570834069652
2521.0,0.007208747965591341
2520.0,0.007209774133693059
2519.0,0.007202529728649442
2518.0,0.007187555756966895
2517.0,0.007171903958308147
2516.0,0.007158293893520596
2515.0,0.0071431383449224554
2514.0,0.007126584964673508
2513.0,0.0071136772810740465
2512.0,0.007103362496576801
2511.0,0.00708694733774924
2510.0,0.007061145173579225
2509.0,0.007034173057031967
2508.0,0.00701539367362781
2507.0,0.007005873937447336
2506.0,0.0070017576611031244
2505.0,0.007000209870250304
2504.0,0.006999127967080666
2503.0,0.006996156415343124
2502.0,0.006990291773379734
2501.0,0.006981728315561953
2500.0,0.006971030960456676
2499.0,0.006961234204544552
2498.0,0.006957089786694955
2497.0,0.00695755661026611
2496.0,0.006953486105870609
2495.0,0.006938672669865295
2494.0,0.006918510336758589
2493.0,0.006901634374709271
2492.0,0.006888940141227347
2491.0,0.006878059010295612
2490.0,0.006871317913567985
2489.0,0.006869556259535663
2488.0,0.006864978048132081
2487.0,0.0068512840692936845
2486.0,0.006834855991687934
2485.0,0.0068244550614933105
2484.0,0.006816224985179906
2483.0,0.006801789801529375
2482.0,0.006785333618823096
2481.0,0.0067782170083201185
2480.0,0.006780629394760774
2479.0,0.006782696985984552
2478.0,0.0067801691971762345
2477.0,0.00677460248027309
2476.0,0.0067618258805757035
2475.0,0.006736633210906168
2474.0,0.006707379274068346
2473.0,0.006689581051583278
2472.0,0.006684677533956891
2471.0,0.006679877624039935
2470.0,0.006668838717343306
2469.0,0.006657420631609625
2468.0,0.006649050543869996
2467.0,0.006640595298970289
2466.0,0.006634605766141655
2465.0,0.006639681766229708
2464.0,0.006654456831448174
2463.0,0.006664747227003541
2462.0,0.0066608927228025295
2461.0,0.0066465014794589265
2460.0,0.006627564693225705
2459.0,0.006605356599829756
2458.0,0.006583570650869946
2457.0,0.006570598089500894
2456.0,0.006570037492185419
2455.0,0.0065776678743215775
2454.0,0.006589419562760725
2453.0,0.006602690102498489
2452.0,0.0066097372779745185
2451.0,0.006602095720018713
2450.0,0.00658375069548392
2449.0,0.006568555538603301
2448.0,0.006562286463607735
2447.0,0.006558214520350749
2446.0,0.006551782390264372
2445.0,0.006546898001381501
2444.0,0.006544577220098723
2443.0,0.006537842628008405
2442.0,0.006523140250529782
2441.0,0.006507180421522833
2440.0,0.006497781773269996
2439.0,0.006495429649774343
2438.0,0.0064962088011589455
2437.0,0.006495349184736324
2436.0,0.006487184762356014
2435.0,0.0064705570855975005
2434.0,0.00645474022018145
2433.0,0.006450209564677537
2432.0,0.0064525787733241856
2431.0,0.006445922561848732
2430.0,0.0064236512444672995
2429.0,0.006396437974567852
2428.0,0.006378138339495825
2427.0,0.006373418910995317
2426.0,0.00638026307277625
2425.0,0.006394084818197662
2424.0,0.006406823966713233
2423.0,0.006411258935765589
2422.0,0.006408898640910947
2421.0,0.00640634443406314
2420.0,0.006403607521097056
2419.0,0.006394445184730599
2418.0,0.006377999032646932
2417.0,0.006360828114810503
2416.0,0.006347221454820354
2415.0,0.006336518977954229
2414.0,0.006330099075741975
2413.0,0.006331422703859499
2412.0,0.006338013215750615
2411.0,0.00634190038800908
2410.0,0.006338921091365977
2409.0,0.006330280763456892
2408.0,0.006315900936647495
2407.0,0.006295012868580886
2406.0,0.006272543666432649
2405.0,0.00625562439892882
2404.0,0.006244275476164371
2403.0,0.006233942612681253
2402.0,0.006225295935648496
2401.0,0.00622221260077398
2400.0,0.006222093836358517
2399.0,0.006218608281057371
2398.0,0.006213011619551965
2397.0,0.006212169563077637
2396.0,0.006215515974371246
2395.0,0.006214299108303495
2394.0,0.006204049651119208
2393.0,0.006188338356350554
2392.0,0.006171048635833785
2391.0,0.006154585880244545
2390.0,0.00614448651897923
2389.0,0.0061451366389936
2388.0,0.006150630220493254
2387.0,0.006150003360641822
2386.0,0.006142140085571911
2385.0,0.006135896228073446
2384.0,0.006135003664848479
2383.0,0.0061327224005978545
2382.0,0.006122664491069185
2381.0,0.006104949826251442
2380.0,0.006079286586351368
2379.0,0.00604326190651549
2378.0,0.0060032305903562075
2377.0,0.005975386975166628
2376.0,0.005968766660612645
2375.0,0.005978224509657758
2374.0,0.00599814469962986
2373.0,0.006026782385172146
2372.0,0.006050142521888243
2371.0,0.006045517002735896
2370.0,0.006017202915218002
2369.0,0.006003158774409385
2368.0,0.006027140620223665
2367.0,0.00607080323347112
2366.0,0.006108784739139434
2365.0,0.00613471946817817
2364.0,0.006136003302568619
2363.0,0.006096493816480135
2362.0,0.006043089580690404
2361.0,0.0060301984125920825
2360.0,0.006065330312744472
2359.0,0.006098765629660109
2358.0,0.006093381646438632
2357.0,0.006057226067854528
2356.0,0.006005873864618671
2355.0,0.005953559280779573
2354.0,0.005924943546575088
2353.0,0.005933380694358647
2352.0,0.00596371792735402
2351.0,0.005992277312250249
2350.0,0.006016055570687568
2349.0,0.00604168790558189
2348.0,0.006068579026898825
2347.0,0.006091662592851355
2346.0,0.006108376099000701
2345.0,0.006122916026567444
2344.0,0.006124856730858181
2343.0,0.006098326647592501
2342.0,0.0060557207573120626
2341.0,0.00603187982399229
2340.0,0.006044246403682881
2339.0,0.006070996579181574
2338.0,0.006088593245500543
2337.0,0.006093229692185501
2336.0,0.00608922495070443
2335.0,0.00607711687265607
2334.0,0.00606386558250401
2333.0,0.006061432706843209
2332.0,0.006074457323537639
2331.0,0.006096499659441808
2330.0,0.006125312039203757
2329.0,0.00615839683702654
2328.0,0.00618398772551457
2327.0,0.006201389094108523
2326.0,0.0062251046670029455
2325.0,0.006265695447532073
2324.0,0.006296399822396504
2323.0,0.006283282263513843
2322.0,0.006236386991698414
2321.0,0.006203016799608255
2320.0,0.006208076305629073
2319.0,0.0062292312290050415
2318.0,0.006241565573628729
2317.0,0.006243269646927553
2316.0,0.006242589255771428
2315.0,0.006239586837637163
2314.0,0.006233065435746251
2313.0,0.006227165146905364
2312.0,0.006224410935520201
2311.0,0.006223621571575518
2310.0,0.006223767424883099
2309.0,0.006225758879714755
2308.0,0.006226147386688497
2307.0,0.006224053813581667
2306.0,0.006224813924643406
2305.0,0.00623294655759173
2304.0,0.006242476190359056
2303.0,0.0062480444498980775
2302.0,0.0062561285433364935
2301.0,0.006275066397748945
2300.0,0.006298789805122801
2299.0,0.00631506934058741
2298.0,0.006322391736068553
2297.0,0.006326008867343386
2296.0,0.006322722737264115
2295.0,0.00630935891490601
2294.0,0.006297266163492227
2293.0,0.006302742942554221
2292.0,0.006322784016698681
2291.0,0.006341533087309006
2290.0,0.006354919390304662
2289.0,0.006372647112948401
2288.0,0.006395648452677952
2287.0,0.006412364200131769
2286.0,0.0064166956664408045
2285.0,0.006412581173782632
2284.0,0.0064015036921023115
2283.0,0.0063841669336074415
2282.0,0.006373428000626756
2281.0,0.006383572440080395
2280.0,0.006405174571975703
2279.0,0.006411865246833279
2278.0,0.006396086732947532
2277.0,0.006376976822614609
2276.0,0.006370162076155227
2275.0,0.006370841192168521
2274.0,0.006370985884260558
2273.0,0.006371566001200583
2272.0,0.0063727961151202935
2271.0,0.0063715240035113465
2270.0,0.006371499981689543
2269.0,0.006378242357962024
2268.0,0.006383650187675258
2267.0,0.006375352749394949
2266.0,0.006358549447987523
2265.0,0.006347384925692558
2264.0,0.006339325634319431
2263.0,0.006323333403420408
2262.0,0.0063073630731549195
2261.0,0.006307916656142341
2260.0,0.006316136671075387
2259.0,0.006307228442821405
2258.0,0.006283317088261507
2257.0,0.006271997433248194
2256.0,0.006279449111274847
2255.0,0.006280865680225014
2254.0,0.0062642267673063004
2253.0,0.006248713354374965
2252.0,0.006249712416584871
2251.0,0.006257748253929012
2250.0,0.00626276470013476
2249.0,0.006269112410636158
2248.0,0.0062762097827789454
2247.0,0.006272697582454887
2246.0,0.0062600604799113195
2245.0,0.00625658135820543
2244.0,0.006268911124166574
2243.0,0.0062846400485049286
2242.0,0.006298970207903715
2241.0,0.006320924319534462
2240.0,0.0063474974089132545
2239.0,0.006360115060461278
2238.0,0.006353673130738281
2237.0,0.006341638979843431
2236.0,0.006326925845497558
2235.0,0.006297572911792825
2234.0,0.006258803325655912
2233.0,0.006238986385983609
2232.0,0.006252894010451328
2231.0,0.006285163068768578
2230.0,0.006315206297374151
2229.0,0.006331620067136091
2228.0,0.006321716670220935
2227.0,0.006281021098561943
2226.0,0.006237633923224393
2225.0,0.006232069136244614
2224.0,0.006265000251436589
2223.0,0.006296835648337349
2222.0,0.00630363926299197
2221.0,0.0062979754880512755
2220.0,0.006291446002935271
2219.0,0.006277601373492631
2218.0,0.006261483091164208
2217.0,0.006264765999898769
2216.0,0.006287116265710151
2215.0,0.00629973355998459
2214.0,0.0062905291243751235
2213.0,0.00628031346408458
2212.0,0.0062811616707903395
2211.0,0.006276056404821452
2210.0,0.006255266006160559
2209.0,0.006237981007624855
2208.0,0.006240834155405895
2207.0,0.006254971796599531
2206.0,0.006268036961559331
2205.0,0.0062790063926132875
2204.0,0.006281344697536157
2203.0,0.006262876719128681
2202.0,0.006232921019668308
2201.0,0.006218299486134962
2200.0,0.006223467431147542
2199.0,0.00622658937534737
2198.0,0.006220760404497063
2197.0,0.006224152035917696
2196.0,0.006242134785809613
2195.0,0.00625642762477709
2194.0,0.006261800306885438
2193.0,0.006277601592344882
2192.0,0.006312707700673825
2191.0,0.006352356936536839
2190.0,0.006386709899546814
2189.0,0.006418070146029004
2188.0,0.006435914195624667
2187.0,0.0064224222119753155
2186.0,0.0063864829804426045
2185.0,0.0063527895207734905
2184.0,0.006314567633046825
2183.0,0.006243509783866572
2182.0,0.006153086319133552
2181.0,0.006099853904520858
2180.0,0.0061081220956966335
2179.0,0.006142545125886384
2178.0,0.006166603400160911
2177.0,0.006179632887298686
2176.0,0.006187514715566512
2175.0,0.0061856346951646435
2174.0,0.006183912701148897
2173.0,0.006204072132948187
2172.0,0.006240192974209874
2171.0,0.006264502342530479
2170.0,0.006279331554203063
2169.0,0.0063198842632889085
2168.0,0.00639620285267817
2167.0,0.006474069747255021
2166.0,0.006523312361062858
2165.0,0.0065447427685463525
2164.0,0.006542899017386478
2163.0,0.00651365743066072
2162.0,0.006463131801167178
2161.0,0.0063934016073780835
2160.0,0.0062709755204732685
2159.0,0.00607444142608314
2158.0,0.005875448681337681
2157.0,0.005785895309035035
2156.0,0.0058220592476855995
2155.0,0.005903881912447905
2154.0,0.005968018821836328
2153.0,0.0060083791559579144
2152.0,0.006031174520666221
2151.0,0.006037938258914918
2150.0,0.006046568924043053
2149.0,0.006070388085915016
2148.0,0.006076771493866046
2147.0,0.006023493890708614
2146.0,0.00593461552639263
2145.0,0.005883069322224272
2144.0,0.005895572150855021
2143.0,0.00592919045488806
2142.0,0.005944189287577882
2141.0,0.005943435407980166
2140.0,0.0059367653813775095
2139.0,0.005920347293164235
2138.0,0.005901037384943366
2137.0,0.005895150351543771
2136.0,0.005891435573541572
2135.0,0.005858139219627478
2134.0,0.005795710091275882
2133.0,0.0057427204837231325
2132.0,0.005723307859323411
2131.0,0.005726129568917681
2130.0,0.005737275584976821
2129.0,0.005755704593240911
2128.0,0.0057734936527793716
2127.0,0.0057761496297399064
2126.0,0.005769327001851163
2125.0,0.005775785095784636
2124.0,0.005799755261132406
2123.0,0.005820923934077109
2122.0,0.005827295065574615
2121.0,0.005827441585244135
2120.0,0.00582767157497172
2119.0,0.005824536775632673
2118.0,0.0058235310209824925
2117.0,0.005838097658374052
2116.0,0.005864858773350062
2115.0,0.005884635051999465
2114.0,0.005892148509887788
2113.0,0.005900364753426564
2112.0,0.005913017184230558
2111.0,0.005918196487343514
2110.0,0.005911639917289167
2109.0,0.005901846167122443
2108.0,0.005890518491329058
2107.0,0.0058724800209774015
2106.0,0.005854452103775655
2105.0,0.005848136658079809
2104.0,0.005847125678288051
2103.0,0.005837948266198031
2102.0,0.005829404610998623
2101.0,0.005839731826452332
2100.0,0.005859276055881391
2099.0,0.005859967376658552
2098.0,0.005838481822820104
2097.0,0.005815539015291217
2096.0,0.005796314596746167
2095.0,0.005769940170630168
2094.0,0.005745607374490204
2093.0,0.005746276719282886
2092.0,0.005765759419445245
2091.0,0.00577282223572941
2090.0,0.005760171213444225
2089.0,0.005751030534127869
2088.0,0.005754115529604294
2087.0,0.005753520482611183
2086.0,0.005748205327553316
2085.0,0.005759724932739762
2084.0,0.005791752034066663
2083.0,0.005818929390340481
2082.0,0.005826007327572879
2081.0,0.005824535248394233
2080.0,0.00582345531081172
2079.0,0.0058172310728508165
2078.0,0.0058095582413859636
2077.0,0.005811805208713492
2076.0,0.005811739604865051
2075.0,0.0057827180137694474
2074.0,0.005731359064711478
2073.0,0.005696065573179803
2072.0,0.005690343102417425
2071.0,0.00569021201540918
2070.0,0.005684985829668049
2069.0,0.005694655815008454
2068.0,0.005726046736800968
2067.0,0.005756330343495672
2066.0,0.005772857002696485
2065.0,0.00578724724632141
2064.0,0.005796374590066546
2063.0,0.005775617408171218
2062.0,0.005726428572020322
2061.0,0.005686106904252607
2060.0,0.005678102501085765
2059.0,0.005690121912616645
2058.0,0.005709659536893094
2057.0,0.005738563573689708
2056.0,0.005762768402582371
2055.0,0.0057560200931117906
2054.0,0.005729374533013414
2053.0,0.005730849523015207
2052.0,0.005778542295263936
2051.0,0.005836145743793906
2050.0,0.005867929168371963
2049.0,0.005877623139738474
2048.0,0.005878455020245266
2047.0,0.005867215360917437
2046.0,0.005847689761592564
2045.0,0.005836297004568742
2044.0,0.0058280873345017544
2043.0,0.005801908082766115
2042.0,0.005769510684981571
2041.0,0.005769490491497766
2040.0,0.005799686986213331
2039.0,0.00581278653003097
2038.0,0.005787938395112503
2037.0,0.005748126315059077
2036.0,0.005708458594377216
2035.0,0.005665209310387465
2034.0,0.005636205672635242
2033.0,0.005646850040781254
2032.0,0.005673303307844838
2031.0,0.005670820910597269
2030.0,0.0056527084391597955
2029.0,0.005665998550414754
2028.0,0.005699317895975887
2027.0,0.0056984684972334115
2026.0,0.005666935333166107
2025.0,0.005659939194272094
2024.0,0.005682089753634968
2023.0,0.005684516191547478
2022.0,0.005661978328518123
2021.0,0.005658958367829688
2020.0,0.005678158909903353
2019.0,0.005674142526224008
2018.0,0.0056458794624070245
2017.0,0.005642153461660395
2016.0,0.005658028709926508
2015.0,0.0056343490895351764
2014.0,0.005570697592861471
2013.0,0.005532290611217916
2012.0,0.0055425962323366025
2011.0,0.0055575549459338
2010.0,0.0055541964523308125
2009.0,0.005555843697571678
2008.0,0.005555888030914491
2007.0,0.005512630924113269
2006.0,0.00543789298008269
2005.0,0.005395085967687069
2004.0,0.005393450015613369
2003.0,0.005378536778537577
2002.0,0.005335158182033039
2001.0,0.005311971764242378
2000.0,0.005330549011512295
1999.0,0.005351635285358824
1998.0,0.005351709905959366
1997.0,0.005351694454742615
1996.0,0.005355017944944242
1995.0,0.005336334132083458
1994.0,0.00530566831167064
1993.0,0.005313286703009776
1992.0,0.005359857142065519
1991.0,0.0053821139145175285
1990.0,0.00536323528468629
1989.0,0.00535176869221162
1988.0,0.005358486608364373
1987.0,0.005338448376573803
1986.0,0.005286049312175959
1985.0,0.0052566107754229005
1984.0,0.005271397466101091
1983.0,0.00529102315709926
1982.0,0.005306820695447166
1981.0,0.005366800906418935
1980.0,0.005471175570650189
1979.0,0.005531187695345498
1978.0,0.005489508194108018
1977.0,0.005400338509583282
1976.0,0.00532869043775216
1975.0,0.005261325619461184
1974.0,0.0051795308594399575
1973.0,0.0051198219026578305
1972.0,0.005104680616703976
1971.0,0.005101146107978481
1970.0,0.005090991415152788
1969.0,0.005104899939469802
1968.0,0.005147617769732454
1967.0,0.005160198990808156
1966.0,0.005111217771192311
1965.0,0.005044864517435756
1964.0,0.004995984692030204
1963.0,0.004951536536778082
1962.0,0.004911768798546698
1961.0,0.0049069771632052565
1960.0,0.004933704853076757
1959.0,0.004947194456987368
1958.0,0.004939197908658093
1957.0,0.004949030381551225
1956.0,0.004983433482103417
1955.0,0.004998436530267096
1954.0,0.004980875810901293
1953.0,0.004974361408332056
1952.0,0.004999958774027988
1951.0,0.005020543554323862
1950.0,0.0050059979427921454
1949.0,0.004975781628925928
1948.0,0.004953131385511145
1947.0,0.004931925963023876
1946.0,0.004913615730773763
1945.0,0.004921395263368229
1944.0,0.004951797122439954
1943.0,0.004959938812730457
1942.0,0.00493157341983347
1941.0,0.004910163646922196
1940.0,0.004916485662247205
1939.0,0.004922164294240707
1938.0,0.004910622279225778
1937.0,0.004900029357205685
1936.0,0.004899793082268286
1935.0,0.004889037761780488
1934.0,0.004858517783717393
1933.0,0.004828653902631218
1932.0,0.00480949961923405
1931.0,0.004787798894670137
1930.0,0.004765325229085298
1929.0,0.004766924797330216
1928.0,0.004791940253599786
1927.0,0.004806851447386061
1926.0,0.004800368677883456
1925.0,0.0048003565451028
1924.0,0.00482428923383155
1923.0,0.004843076615829972
1922.0,0.004830254204020176
1921.0,0.004805290595090025
1920.0,0.004789889049807387
1919.0,0.004775821340645368
1918.0,0.004755882400579166
1917.0,0.0047450699017213315
1916.0,0.004749735511602439
1915.0,0.004754500129819455
1914.0,0.004753577650265471
1913.0,0.0047565793613127535
1912.0,0.0047616899338176625
1911.0,0.004752943754254432
1910.0,0.0047335569641998
1909.0,0.004730515676206517
1908.0,0.004747698278933893
1907.0,0.004760971785255319
1906.0,0.004764578609110413
1905.0,0.0047739873294045335
1904.0,0.004786994153645048
1903.0,0.004780004238551345
1902.0,0.00475184627479424
1901.0,0.004733124188608036
1900.0,0.004737767405039684
1899.0,0.004748101236222189
1898.0,0.0047534687555248895
1897.0,0.004762020908959985
1896.0,0.004768631283269544
1895.0,0.004749830955463998
1894.0,0.004711150731234555
1893.0,0.004689577273999831
1892.0,0.004695599737932667
1891.0,0.004700013686708613
1890.0,0.004681917945904693
1889.0,0.004660137354103263
1888.0,0.0046556541360559004
1887.0,0.004660797445551144
1886.0,0.004666797729281095
1885.0,0.004676140600733121
1884.0,0.004680479878189499
1883.0,0.004662867954424626
1882.0,0.004631162813405742
1881.0,0.0046154044668900935
1880.0,0.004621081235685442
1879.0,0.004622254553362163
1878.0,0.004608152947310005
1877.0,0.004596932708345495
1876.0,0.0045973501509808
1875.0,0.004594726511320452
1874.0,0.004584133653624513
1873.0,0.004580487391745702
1872.0,0.004586959987313764
1871.0,0.004585771313406488
1870.0,0.004572186885304255
1869.0,0.00456696000056773
1868.0,0.004564535289415947
1867.0,0.004537987548842025
1866.0,0.004503867619126084
1865.0,0.004496942337544534
1864.0,0.004515355852089167
1863.0,0.004530364095335216
1862.0,0.004530380677494372
1861.0,0.004532368107918913
1860.0,0.004542016135111743
1859.0,0.0045402544415392805
1858.0,0.004521748976033519
1857.0,0.004507688802083822
1856.0,0.00450702680284897
1855.0,0.004503562887775956
1854.0,0.004490685135608995
1853.0,0.00448528265166944
1852.0,0.0044942915104465575
1851.0,0.004503650936661304
1850.0,0.004511193261112512
1849.0,0.004528739333048353
1848.0,0.004547458683843207
1847.0,0.00453956299297179
1846.0,0.004504466152391703
1845.0,0.0044822382140744885
1844.0,0.004485878053522301
1843.0,0.004482842378457314
1842.0,0.0044736607413554536
1841.0,0.004483592537407942
1840.0,0.004506018905517108
1839.0,0.004515396278317731
1838.0,0.004506747862535489
1837.0,0.004503628045844036
1836.0,0.0045150005290104595
1835.0,0.004520343191524718
1834.0,0.004513609668473389
1833.0,0.0045140619332957425
1832.0,0.004527242130304432
1831.0,0.004526524891850002
1830.0,0.004487754747179455
1829.0,0.004438098027025156
1828.0,0.004421244187706866
1827.0,0.004434821915412277
1826.0,0.00445962729211037
1825.0,0.0044927580114823866
1824.0,0.004521487491321372
1823.0,0.0045259850362820535
1822.0,0.004514688539373311
1821.0,0.004511890825912042
1820.0,0.004518535727915821
1819.0,0.004513905049144346
1818.0,0.004493881653696496
1817.0,0.00448106883563846
1816.0,0.004485669694638782
1815.0,0.004491509911496501
1814.0,0.0044937805205891536
1813.0,0.0045068677746158605
1812.0,0.004526879226772689
1811.0,0.0045247330582414156
1810.0,0.004497096149846151
1809.0,0.0044822646420517925
1808.0,0.004496892596053974
1807.0,0.004514816510162815
1806.0,0.0045205043663139365
1805.0,0.004530744254793269
1804.0,0.004558522104896242
1803.0,0.004587788240612424
1802.0,0.004603762296558119
1801.0,0.004616028226608575
1800.0,0.004626103016386896
1799.0,0.004622736290088853
1798.0,0.00461970575783221
1797.0,0.004643287917184128
1796.0,0.004682252131639407
1795.0,0.004695507794904485
1794.0,0.0046726936607376975
1793.0,0.004658657402235044
1792.0,0.004675943924422885
1791.0,0.004686764891673399
1790.0,0.004687500613652747
1789.0,0.004710701345158357
1788.0,0.004755012161723797
1787.0,0.004793687858954137
1786.0,0.0048147778560551
1785.0,0.004834406600655392
1784.0,0.004858723258619275
1783.0,0.00486650823235248
1782.0,0.004858129302677889
1781.0,0.004867659790986369
1780.0,0.004903445028697829
1779.0,0.004933800526799635
1778.0,0.004947318859876233
1777.0,0.004970971411277641
1776.0,0.00501374844766636
1775.0,0.005049003160320195
1774.0,0.005060081870921626
1773.0,0.005080477669288147
1772.0,0.005121202017802111
1771.0,0.005145719326675208
1770.0,0.005185663835100421
1769.0,0.005298964912820782
1768.0,0.005464586305681409
1767.0,0.005602792049988246
1766.0,0.005678036005209354
1765.0,0.0057373245338005465
1764.0,0.005830594713201146
1763.0,0.005957493882478583
1762.0,0.006086613198167
1761.0,0.006206056713348217
1760.0,0.006328363002034746
1759.0,0.006457549022995524
1758.0,0.006607312147603347
1757.0,0.006810855355514237
1756.0,0.007042607566223558
1755.0,0.007234503047397491
1754.0,0.007390283898038164
1753.0,0.007578331562787685
1752.0,0.00784659133174622
1751.0,0.008148676815977064
1750.0,0.008401173438111073
1749.0,0.008626136824443346
1748.0,0.00885898249150597
1747.0,0.00905455078915755
1746.0,0.009211179057536507
1745.0,0.009387923808102671
1744.0,0.009589702857704092
1743.0,0.009743689271682671
1742.0,0.009817029846646294
1741.0,0.009880550442882724
1740.0,0.009987117997656897
1739.0,0.01007406554841636
1738.0,0.010097378163697952
1737.0,0.010101257622545651
1736.0,0.010117153770036484
1735.0,0.010090561233152013
1734.0,0.009959338999788776
1733.0,0.009842784516948713
1732.0,0.009847699937340026
1731.0,0.00989678238090489
1730.0,0.009936154677724351
1729.0,0.009987048367975936
1728.0,0.010049844801234043
1727.0,0.010092830289173219
1726.0,0.010111345985550796
1725.0,0.010133246476533062
1724.0,0.01015951101192251
1723.0,0.010147001633876983
1722.0,0.010079508483769045
1721.0,0.010002305155755394
1720.0,0.009957053541500477
1719.0,0.009937263992483803
1718.0,0.009916305040947591
1717.0,0.009919055075525453
1716.0,0.009950481451875146
1715.0,0.00994642365989352
1714.0,0.009922526096617148
1713.0,0.00995788064554606
1712.0,0.010058525176924299
1711.0,0.010163517073571186
1710.0,0.010239768785443177
1709.0,0.010319449918013968
1708.0,0.010434986298316348
1707.0,0.010581644086534767
1706.0,0.010759431484370162
1705.0,0.010983976262342538
1704.0,0.011204810120973168
1703.0,0.011369414399847354
1702.0,0.011511020653127478
1701.0,0.011860087237589738
1700.0,0.012492821003911258
1699.0,0.01304200874242181
1698.0,0.013428062500662388
1697.0,0.014005475515461096
1696.0,0.014862094022683674
1695.0,0.01561703335822125
1694.0,0.01609813871371481
1693.0,0.016507040021705166
1692.0,0.016985402839762218
1691.0,0.017574007369709443
1690.0,0.01823833501388326
1689.0,0.01891219334641122
1688.0,0.019464244038584613
1687.0,0.019858333195534594
1686.0,0.02017665315597135
1685.0,0.02084974436553253
1684.0,0.022022159671643435
1683.0,0.022919795508397584
1682.0,0.023437412619633613
1681.0,0.024013611615630072
1680.0,0.024675264504413708
1679.0,0.025266131290926357
1678.0,0.025703451765609765
1677.0,0.026149268779919795
1676.0,0.026823972490717104
1675.0,0.02765711412742594
1674.0,0.02832545945607615
1673.0,0.028794980360131887
1672.0,0.029275099202296345
1671.0,0.029930588455744343
1670.0,0.030812447307103592
1669.0,0.031734600166149256
1668.0,0.03247517649012992
1667.0,0.0330143985113483
1666.0,0.033441748573631705
1665.0,0.033888862054915696
1664.0,0.034521036925295706
1663.0,0.035366872539739545
1662.0,0.03618744491666282
1661.0,0.036818696959501275
1660.0,0.03734645724755021
1659.0,0.037818706434449116
1658.0,0.038209607427419634
1657.0,0.03848666808867113
1656.0,0.03869749046521226
1655.0,0.03889384912334547
1654.0,0.03928378736377505
1653.0,0.03981902049098726
1652.0,0.0400737372609229
1651.0,0.04014561485191881
1650.0,0.0401676978435723
1649.0,0.04015405995042736
1648.0,0.04025452162286208
1647.0,0.040391096825753064
1646.0,0.04036003932676286
1645.0,0.04027025124430907
1644.0,0.040272510769861894
1643.0,0.040288698790523964
1642.0,0.0402530477523195
1641.0,0.04016804831128465
1640.0,0.04006029407134533
1639.0,0.03992378966452244
1638.0,0.03972491400221411
1637.0,0.039431325861653384
1636.0,0.03901102478105938
1635.0,0.03852903432658996
1634.0,0.03814209277412464
1633.0,0.03787542357020737
1632.0,0.03763929280969339
1631.0,0.03734996041570758
1630.0,0.03694338637080312
1629.0,0.03639556731357684
1628.0,0.03575762870015712
1627.0,0.03513635354431238
1626.0,0.034577872253828114
1625.0,0.03402093053382886
1624.0,0.0333523348151474
1623.0,0.03256536708002522
1622.0,0.03184628775961147
1621.0,0.03132098281820073
1620.0,0.030914782562087295
1619.0,0.030498720470038626
1618.0,0.029929918521945174
1617.0,0.029097755699122995
1616.0,0.028187848986349854
1615.0,0.027502852885880502
1614.0,0.02702998972937489
1613.0,0.0266058137192553
1612.0,0.026139912594361367
1611.0,0.02561608978343085
1610.0,0.025064812465277652
1609.0,0.02451083738226817
1608.0,0.023972986251589366
1607.0,0.02348218689469641
1606.0,0.02305708741820768
1605.0,0.022670903533987673
1604.0,0.022283888074754617
1603.0,0.021896002918678405
1602.0,0.021532905405434823
1601.0,0.02119813781937654
1600.0,0.02088196710511707
1599.0,0.020594498209963157
1598.0,0.020346191740238866
1597.0,0.020114150879237205
1596.0,0.019866723188307872
1595.0,0.019612550329777857
1594.0,0.019384859668418596
1593.0,0.019185855191211774
1592.0,0.018995487146469658
1591.0,0.018817117140544695
1590.0,0.01866694253181705
1589.0,0.01853654304289984
1588.0,0.01840956281155539
1587.0,0.018300052746601327
1586.0,0.018228376449847716
1585.0,0.01818068302695511
1584.0,0.018130091426277258
1583.0,0.018085364249173584
1582.0,0.01807357168680227
1581.0,0.018081736159465102
1580.0,0.01807628031760397
1579.0,0.0180638892724317
1578.0,0.01809233894566776
1577.0,0.01818618373052099
1576.0,0.01827770240302922
1575.0,0.018333533060750962
1574.0,0.018412252102746524
1573.0,0.018509674411628128
1572.0,0.018591550366239114
1571.0,0.018689809822767533
1570.0,0.018864227516805953
1569.0,0.019065460871043455
1568.0,0.019219052475483698
1567.0,0.01937535894595181
1566.0,0.019599085896547408
1565.0,0.01985796486025702
1564.0,0.020092441507480345
1563.0,0.020232103266071375
1562.0,0.020324648167906984
1561.0,0.02036919701910065
1560.0,0.020553080882910916
1559.0,0.02116863603426469
1558.0,0.02166996054604233
1557.0,0.02188099823319729
1556.0,0.022162697858924992
1555.0,0.022508372801488284
1554.0,0.022855314671200392
1553.0,0.02312767460681684
1552.0,0.02332855291823922
1551.0,0.023534222820609105
1550.0,0.023759933052560217
1549.0,0.02393085999679723
1548.0,0.023997745912533508
1547.0,0.024009716411261508
1546.0,0.024030700036712788
1545.0,0.024066310406305653
1544.0,0.024057050419589065
1543.0,0.02394653526557739
1542.0,0.023785738767546184
1541.0,0.023590696454768988
1540.0,0.023245383026714785
1539.0,0.022906203941295247
1538.0,0.022786944013367668
1537.0,0.022776271665622634
1536.0,0.022733576705888863
1535.0,0.022601418644592603
1534.0,0.022336158099220463
1533.0,0.021981059552344633
1532.0,0.02168119144593113
1531.0,0.021487157499148847
1530.0,0.021328732066796453
1529.0,0.021143916352959913
1528.0,0.02090309556059511
1527.0,0.02060397233124618
1526.0,0.020288765787613204
1525.0,0.02002176926148701
1524.0,0.01980849387706874
1523.0,0.019589794665658133
1522.0,0.01928455664239484
1521.0,0.018941276191389574
1520.0,0.018702348519442986
1519.0,0.018547856677395433
1518.0,0.01837587056092931
1517.0,0.018127387133243848
1516.0,0.01781731629937421
1515.0,0.017516070423015038
1514.0,0.017235782014278635
1513.0,0.016959686134368622
1512.0,0.016666284240310705
1511.0,0.016366769707741338
1510.0,0.016072499057336265
1509.0,0.01581592229532726
1508.0,0.015476322343503567
1507.0,0.014735479211974444
1506.0,0.01395829118197023
1505.0,0.013646584225119439
1504.0,0.01360124337596742
1503.0,0.013572264577459508
1502.0,0.013485782010030452
1501.0,0.013349536314678034
1500.0,0.013191298282936428
1499.0,0.013003714197533213
1498.0,0.012790003445152997
1497.0,0.012589779246099811
1496.0,0.012436954965106009
1495.0,0.01230926560422074
1494.0,0.012200028580520455
1493.0,0.012128552064395053
1492.0,0.012088449000611763
1491.0,0.012020230062619961
1490.0,0.011883513674222836
1489.0,0.011752626163424653
1488.0,0.01167324855561138
1487.0,0.011602015740145494
1486.0,0.011550953374899921
1485.0,0.01156541704901231
1484.0,0.011632450216888584
1483.0,0.011715238112183224
1482.0,0.011829672419667737
1481.0,0.012018699947446603
1480.0,0.012271708778690731
1479.0,0.012583603266009451
1478.0,0.013110299863197816
1477.0,0.014099156710404084
1476.0,0.015673703139252163
1475.0,0.017719892602068008
1474.0,0.02024714223783949
1473.0,0.02293677913489605
1472.0,0.024583694944018797
1471.0,0.024991220404045382
1470.0,0.025121184671539672
1469.0,0.025388459383594447
1468.0,0.025767190158876203
1467.0,0.026248595621265594
1466.0,0.027007073310862214
1465.0,0.028066334848467284
1464.0,0.028837920988198193
1463.0,0.028841236490176253
1462.0,0.028222826827106907
1461.0,0.02725346562948653
1460.0,0.02609237446308491
1459.0,0.024879803206763345
1458.0,0.02373101888665779
1457.0,0.022733681753142936
1456.0,0.022010511015182525
1455.0,0.02154649377446801
1454.0,0.02116146417991113
1453.0,0.0207328647729663
1452.0,0.020265722571264036
1451.0,0.019838445265706765
1450.0,0.01949192449550633
1449.0,0.01918997514469613
1448.0,0.018898176850649442
1447.0,0.018641308405398058
1446.0,0.018447721641061
1445.0,0.01829667495350622
1444.0,0.018159132538633847
1443.0,0.018030301111675518
1442.0,0.017906521492866007
1441.0,0.017775135581023678
1440.0,0.017635288175603347
1439.0,0.017499204467788534
1438.0,0.017361122712342927
1437.0,0.017178562729555362
1436.0,0.0169524367379186
1435.0,0.016760072082549943
1434.0,0.016620854437082763
1433.0,0.016485662708016383
1432.0,0.016324150342925656
1431.0,0.016141093403595715
1430.0,0.015954067978265495
1429.0,0.01577817729001464
1428.0,0.015636998291154426
1427.0,0.015543526989434162
1426.0,0.0154841851080871
1425.0,0.015433748073786717
1424.0,0.015376524588376437
1423.0,0.015318289845391499
1422.0,0.015270407405010164
1421.0,0.015234689010675099
1420.0,0.015213560097300686
1419.0,0.015204145270331804
1418.0,0.015181818579859337
1417.0,0.015140489876473973
1416.0,0.015100351434251699
1415.0,0.015070113369417066
1414.0,0.015043650135121489
1413.0,0.015009889866136657
1412.0,0.01496248218636886
1411.0,0.014901011084020838
1410.0,0.01482461249614856
1409.0,0.014733162013471617
1408.0,0.014633227286802768
1407.0,0.014529911231623928
1406.0,0.014413737549667138
1405.0,0.01426638789815771
1404.0,0.014096678349636571
1403.0,0.013942314408221966
1402.0,0.013814527337172994
1401.0,0.013690025205584289
1400.0,0.01354831347829671
1399.0,0.01339718959415408
1398.0,0.013259766099210594
1397.0,0.013138437247626547
1396.0,0.013017498111000012
1395.0,0.012886731761098997
1394.0,0.012753917856904945
1393.0,0.012640738698615848
1392.0,0.012564307799266605
1391.0,0.012525061086201996
1390.0,0.012509654031742432
1389.0,0.012504126328454056
1388.0,0.01250756231236913
1387.0,0.012521579439980442
1386.0,0.012536729991275383
1385.0,0.012557332367386124
1384.0,0.012612062149582647
1383.0,0.01272385439570349
1382.0,0.012883907798436576
1381.0,0.01306263906917542
1380.0,0.013233588477311448
1379.0,0.013365905004653917
1378.0,0.01342051608901487
1377.0,0.01338134705863232
1376.0,0.01326899987282052
1375.0,0.013116059907907977
1374.0,0.01295456515707804
1373.0,0.012820655506211512
1372.0,0.012737520182907492
1371.0,0.012696311163031484
1370.0,0.012667074462267742
1369.0,0.012622359419418127
1368.0,0.012557397047992502
1367.0,0.012482528538664208
1366.0,0.01239275045041314
1365.0,0.012265351813170988
1364.0,0.012083705808629558
1363.0,0.011861612433635406
1362.0,0.011642324441372986
1361.0,0.011459797896993893
1360.0,0.011322378935652019
1359.0,0.011229402255851749
1358.0,0.011173237640217538
1357.0,0.01113847211608827
1356.0,0.011114348863244071
1355.0,0.011099282833432268
1354.0,0.011087630732609126
1353.0,0.011066116243795441
1352.0,0.011029823898641614
1351.0,0.0109831333594587
1350.0,0.010925640625886099
1349.0,0.010851296943723495
1348.0,0.01076379931657525
1347.0,0.01067695047697971
1346.0,0.01059527317167348
1345.0,0.010511930906123497
1344.0,0.010427656946348588
1343.0,0.010355994425802434
1342.0,0.01030500584798424
1341.0,0.010262530396712483
1340.0,0.010201825562103934
1339.0,0.010105246493481778
1338.0,0.009979054696845593
1337.0,0.009841635330005902
1336.0,0.0097125202192901
1335.0,0.009607355475395337
1334.0,0.009529125372750616
1333.0,0.009469703400043895
1332.0,0.0094234716452429
1331.0,0.009391736151580735
1330.0,0.009373001541880832
1329.0,0.00936028351502218
1328.0,0.009351786213824454
1327.0,0.009352452351249374
1326.0,0.009362694481171201
1325.0,0.009375959881839544
1324.0,0.009390004833484981
1323.0,0.009410347133180274
1322.0,0.00943922586474381
1321.0,0.009471394439897661
1320.0,0.009502756271837045
1319.0,0.009533345880048208
1318.0,0.00955972739897789
1317.0,0.00957678081200446
1316.0,0.00958844294209371
1315.0,0.009604482414013737
1314.0,0.009625827393952936
1313.0,0.00964221701666785
1312.0,0.009647419873342906
1311.0,0.009646722615867463
1310.0,0.009646088038650786
1309.0,0.009644970674156289
1308.0,0.009642541794510193
1307.0,0.009641001659506708
1306.0,0.009640016711966588
1305.0,0.00963551664890429
1304.0,0.009627032136569036
1303.0,0.009619079421172577
1302.0,0.009613160286142963
1301.0,0.009606111725252673
1300.0,0.009597899920648282
1299.0,0.009593654773446203
1298.0,0.009595841686989362
1297.0,0.009601432982195946
1296.0,0.009608384994130881
1295.0,0.009618204140979391
1294.0,0.009631175869204787
1293.0,0.009646056197349208
1292.0,0.00966538547345888
1291.0,0.009693882040967381
1290.0,0.009730311824537
1289.0,0.009767428897099304
1288.0,0.009801136396052963
1287.0,0.009833696528769469
1286.0,0.009867821584565978
1285.0,0.009904661506078619
1284.0,0.00994740477063343
1283.0,0.009999111945703559
1282.0,0.010056247400156483
1281.0,0.010111560916048099
1280.0,0.010164538238227584
1279.0,0.010222732606788238
1278.0,0.01029150968706006
1277.0,0.010368639141911915
1276.0,0.010449936369204889
1275.0,0.010534493984283513
1274.0,0.010623379111365676
1273.0,0.010717704810753636
1272.0,0.010818877539479806
1271.0,0.010927188317360118
1270.0,0.011040340714247561
1269.0,0.011156744291139895
1268.0,0.011278617312966931
1267.0,0.011408037402506817
1266.0,0.011541448992897822
1265.0,0.01167209442487311
1264.0,0.011796819381488152
1263.0,0.011916585618387187
1262.0,0.012030918129993748
1261.0,0.012134982023901932
1260.0,0.012222251206888904
1259.0,0.012289307802467338
1258.0,0.012338767353393355
1257.0,0.012378683652619947
1256.0,0.012418848453159945
1255.0,0.01246596721397619
1254.0,0.012521346073779393
1253.0,0.01258327291999783
1252.0,0.012650534514160486
1251.0,0.012722735552369352
1250.0,0.012799058323140974
1249.0,0.012878615477649092
1248.0,0.012961376174640923
1247.0,0.013047920321551757
1246.0,0.013138703760879281
1245.0,0.013233351825011437
1244.0,0.013329871449036336
1243.0,0.013425770597255884
1242.0,0.013521831331589795
1241.0,0.01362313622728415
1240.0,0.013733675955261104
1239.0,0.01385097791191944
1238.0,0.013968452482127452
1237.0,0.0140817109983509
1236.0,0.014189550880195849
1235.0,0.014290449227210508
1234.0,0.014381811401268731
1233.0,0.014461266078522862
1232.0,0.014525491122940971
1231.0,0.014569384395862289
1230.0,0.014589201831984672
1229.0,0.014584802098355321
1228.0,0.014557337628450333
1227.0,0.014507822845445821
1226.0,0.014439097530514027
1225.0,0.01435584895572269
1224.0,0.01426368069523578
1223.0,0.014174752540196432
1222.0,0.014113856235510206
1221.0,0.014107562543776403
1220.0,0.014157750340422784
1219.0,0.014226881738544722
1218.0,0.014257647346162267
1217.0,0.014212297250899175
1216.0,0.014093421009797418
1215.0,0.013933108960767802
1214.0,0.013769215386187358
1213.0,0.013627947263798488
1212.0,0.013518912239649447
1211.0,0.013439188742756195
1210.0,0.013380122059309035
1209.0,0.013332121443167547
1208.0,0.01328645138414053
1207.0,0.01323689284318363
1206.0,0.013181971593423946
1205.0,0.013123508695690907
1204.0,0.013061287600223338
1203.0,0.012991504052624118
1202.0,0.012912269826869825
1201.0,0.012827911806117623
1200.0,0.012745177200522654
1199.0,0.01266711283499265
1198.0,0.012592949504597726
1197.0,0.012522265288323692
1196.0,0.012456382881380807
1195.0,0.012396565740407497
1194.0,0.012343920288070857
1193.0,0.0123006028060286
1192.0,0.01226787491273985
1191.0,0.012242960688278105
1190.0,0.012221480434509034
1189.0,0.01220391967023278
1188.0,0.012196254765390607
1187.0,0.012202837367062883
1186.0,0.01222162120829818
1185.0,0.012247730100972555
1184.0,0.012278556611473306
1183.0,0.0123141945359108
1182.0,0.012356897539068523
1181.0,0.012411361109477291
1180.0,0.012480757293453998
1179.0,0.012560264450686885
1178.0,0.012639354767782805
1177.0,0.01271319316827744
1176.0,0.012787046048052529
1175.0,0.012866741185615743
1174.0,0.012949500928610417
1173.0,0.013027811012585915
1172.0,0.013098593569978511
1171.0,0.013164704918513535
1170.0,0.01323019297318078
1169.0,0.013297275403052988
1168.0,0.013366362235433228
1167.0,0.013436875767732656
1166.0,0.013508773830520772
1165.0,0.013583420536951437
1164.0,0.01366119333572691
1163.0,0.013738756398538807
1162.0,0.013811663157494138
1161.0,0.013879682330614061
1160.0,0.013946669476823409
1159.0,0.014015247028363303
1158.0,0.014084037627790133
1157.0,0.014149679861914722
1156.0,0.01420940083093511
1155.0,0.014262687995735112
1154.0,0.014312673877809403
1153.0,0.014364154218744679
1152.0,0.014418052217447939
1151.0,0.014470115243432224
1150.0,0.014517069137744316
1149.0,0.014560878193579183
1148.0,0.014604552932888818
1147.0,0.014648112310305737
1146.0,0.014692254881906529
1145.0,0.014741701760945424
1144.0,0.014800374631780085
1143.0,0.014866732957292166
1142.0,0.014938106864614602
1141.0,0.015015901136336801
1140.0,0.015101903989233362
1139.0,0.015193786035749429
1138.0,0.015290023317837315
1137.0,0.015395127614792264
1136.0,0.01551311089944776
1135.0,0.01563871899758152
1134.0,0.015761941918260924
1133.0,0.015878740083952743
1132.0,0.015991348563129653
1131.0,0.016101665925996312
1130.0,0.016210795191302873
1129.0,0.016321565379765472
1128.0,0.01643480144394302
1127.0,0.01654597308368284
1126.0,0.016651714626878596
1125.0,0.016756856153125853
1124.0,0.016869730733883592
1123.0,0.016993952397356377
1122.0,0.01712878069585446
1121.0,0.017272073346868644
1120.0,0.017418099101966105
1119.0,0.01755915477207905
1118.0,0.017695754501549397
1117.0,0.01783884549799087
1116.0,0.017995464579360347
1115.0,0.01815850033694337
1114.0,0.01831647621171698
1113.0,0.018465877160896215
1112.0,0.0186074529524767
1111.0,0.01873986170818449
1110.0,0.018865209823865886
1109.0,0.018991454186108862
1108.0,0.01912093670358759
1107.0,0.019245510469611014
1106.0,0.019360550840518954
1105.0,0.019473581252916334
1104.0,0.01959094461947802
1103.0,0.0197068842199798
1102.0,0.019814419234445633
1101.0,0.019916267621400814
1100.0,0.020016006998827243
1099.0,0.020109707724562807
1098.0,0.020195661561067817
1097.0,0.02028170562908531
1096.0,0.020373781994846237
1095.0,0.020467841849532587
1094.0,0.020560933891785857
1093.0,0.020658182896002054
1092.0,0.020760525593949277
1091.0,0.020858237192941022
1090.0,0.02094551770945904
1089.0,0.021029007240151706
1088.0,0.021113453867583343
1087.0,0.02119264904254445
1086.0,0.021263373116896953
1085.0,0.021333168958976363
1084.0,0.021403682097613227
1083.0,0.021461108451363287
1082.0,0.021494553714975988
1081.0,0.02151002380084157
1080.0,0.02151554935362905
1079.0,0.021506809703772597
1078.0,0.02147844861103778
1077.0,0.021436323858206003
1076.0,0.021388120097009983
1075.0,0.021333605335780964
1074.0,0.02127236482248211
1073.0,0.021208921459485962
1072.0,0.021143007742339442
1071.0,0.021067499795796987
1070.0,0.020982641690140906
1069.0,0.020899654352166116
1068.0,0.020824667691061945
1067.0,0.02075184285785729
1066.0,0.020676459852695606
1065.0,0.02060087261924663
1064.0,0.02052321771689163
1063.0,0.020435092892503854
1062.0,0.02033645594615103
1061.0,0.020239369444403868
1060.0,0.020150829315934562
1059.0,0.02006417430792474
1058.0,0.01997222607114159
1057.0,0.01987640452517065
1056.0,0.01977873150386549
1055.0,0.019678468797445562
1054.0,0.01958196836492105
1053.0,0.01950214727230091
1052.0,0.01944055716104243
1051.0,0.019382248122578882
1050.0,0.019316540926575462
1049.0,0.019249190972513947
1048.0,0.019186215262383746
1047.0,0.01912233184640942
1046.0,0.019052955108816806
1045.0,0.018982032156090588
1044.0,0.018911729240031476
1043.0,0.01883729100480316
1042.0,0.018757406970606804
1041.0,0.018678836198156683
1040.0,0.018605736923800284
1039.0,0.01853422245866655
1038.0,0.01846219060351348
1037.0,0.018395195630615414
1036.0,0.018337539002630444
1035.0,0.018285441581447227
1034.0,0.018232948842881253
1033.0,0.018176769746385026
1032.0,0.018111672625484177
1031.0,0.018029100953042627
1030.0,0.01792441508740837
1029.0,0.017798738799917842
1028.0,0.01765190471205857
1027.0,0.01748152501763642
1026.0,0.017290396277274328
1025.0,0.017086735804818228
1024.0,0.016876204635651364
1023.0,0.01666105120982856
1022.0,0.0164462288625924
1021.0,0.01623769000292089
1020.0,0.016034876040639842
1019.0,0.015833455304769165
1018.0,0.015635316502078875
1017.0,0.01544738243142739
1016.0,0.015270887151185339
1015.0,0.015100781697897626
1014.0,0.014936244882580725
1013.0,0.01478298118709977
1012.0,0.014643422667924878
1011.0,0.014512452424456083
1010.0,0.014385080384153925
1009.0,0.014261658249045687
1008.0,0.014142645874582704
1007.0,0.014023495617908152
1006.0,0.013897246156561797
1005.0,0.01375802821996331
1004.0,0.013601041722238374
1003.0,0.013424597427852559
1002.0,0.013234284663933234
1001.0,0.013040366383838285
1000.0,0.012848877219143379
999.0,0.012658310746671005
998.0,0.01246541512628073
997.0,0.012270685550970894
996.0,0.012077455627095316
995.0,0.011888554301197085
994.0,0.011704743684094583
993.0,0.011524853021381346
992.0,0.011347630602109202
991.0,0.01117457414769731
990.0,0.011009496441607567
989.0,0.010853638024099782
988.0,0.010702933307935448
987.0,0.010552092940343252
986.0,0.01039995380777975
985.0,0.010249071233409558
984.0,0.010101804332692456
983.0,0.009958729717216196
982.0,0.00981891184554155
981.0,0.009679364289781778
980.0,0.009535818674651166
979.0,0.009386604165116365
978.0,0.00923519900038049
977.0,0.009087355603824353
976.0,0.008946498405469487
975.0,0.008812697858881486
974.0,0.00868438898618306
973.0,0.008560004395767009
972.0,0.008439340841460433
971.0,0.008323865512485791
970.0,0.008213941115288071
969.0,0.008105514370299452
968.0,0.007992151215606544
967.0,0.00787151496152509
966.0,0.007747715686737652
965.0,0.0076261304917179095
964.0,0.007508190163852435
963.0,0.007392418785495774
962.0,0.00727768194229615
961.0,0.00716316561750485
960.0,0.007047436339967518
959.0,0.006930621813134485
958.0,0.006816894053065138
957.0,0.00671227250953086
956.0,0.006619471060998659
955.0,0.006535950304651459
954.0,0.006457299129104378
953.0,0.006381772629256582
952.0,0.00631090736159449
951.0,0.006246252767007573
950.0,0.006187163239741108
949.0,0.006132753386533546
948.0,0.006084653941786946
947.0,0.006045646453829906
946.0,0.0060157810621310395
945.0,0.005991986338894964
944.0,0.005971750003595162
943.0,0.005955204440696384
942.0,0.005943165048794892
941.0,0.005934991787898997
940.0,0.00592907432198218
939.0,0.005923904874553831
938.0,0.005918002625147297
937.0,0.005910009850663523
936.0,0.0058992536909542835
935.0,0.005885038573783969
934.0,0.0058652753230684935
933.0,0.005837325695771183
932.0,0.005800859947278109
931.0,0.005759051841122801
930.0,0.005716617866574883
929.0,0.005677284292567692
928.0,0.005642859016290677
927.0,0.005613267867079098
926.0,0.005587139978127188
925.0,0.005563634286647457
924.0,0.005544097032983645
923.0,0.005531015272128433
922.0,0.005525463532499957
921.0,0.005526576117270308
920.0,0.005532942283858849
919.0,0.005543031656684166
918.0,0.005554803767327764
917.0,0.005566544871364163
916.0,0.005577688697069495
915.0,0.005587625794747449
914.0,0.00559474356050987
913.0,0.005597945450808323
912.0,0.005597239202724549
911.0,0.005590357649226274
910.0,0.005570522207812258
909.0,0.00553138967007233
908.0,0.005474407073073147
907.0,0.005408738794578939
906.0,0.005343902807722813
905.0,0.005284395483109407
904.0,0.005230441619147751
903.0,0.0051800973789806505
902.0,0.0051301042200560774
901.0,0.0050783990252786446
900.0,0.005027094184604477
899.0,0.0049804764128990025
898.0,0.004939200887828538
897.0,0.004899494091895601
896.0,0.004858706000485538
895.0,0.00481854676958483
894.0,0.004782249105110365
893.0,0.004751885398147169
892.0,0.004729299331731197
891.0,0.004715762762326865
890.0,0.004708851922138326
889.0,0.004702834068140045
888.0,0.004694228396095611
887.0,0.004685145583952879
886.0,0.004680541350547192
885.0,0.004684638951385548
884.0,0.0047002023310513605
883.0,0.004727715796879273
882.0,0.004764356756459458
881.0,0.004807042754371427
880.0,0.004856430627496357
879.0,0.004913403985245221
878.0,0.004971874715383165
877.0,0.005021800377411279
876.0,0.00506125902050043
875.0,0.005098455863120285
874.0,0.005136898375727424
873.0,0.005163403985109264
872.0,0.005156902812642696
871.0,0.005108402537319671
870.0,0.005029865504680438
869.0,0.004945711426908257
868.0,0.004878539198701152
867.0,0.004839431859940709
866.0,0.004824552719183306
865.0,0.004819739987460794
864.0,0.00481236864797197
863.0,0.004800643506591491
862.0,0.004791030523354296
861.0,0.004787853770072681
860.0,0.004787744903509691
859.0,0.004783980520826131
858.0,0.00477399197774611
857.0,0.004761847089245562
856.0,0.004754164329123444
855.0,0.004753849919275129
854.0,0.004757611937230755
853.0,0.0047602638175986214
852.0,0.004761562013461168
851.0,0.0047672039404576694
850.0,0.00478232169167896
849.0,0.004805908503630982
848.0,0.004833251449801908
847.0,0.004862042904413754
846.0,0.004893567423662964
845.0,0.004928655415398327
844.0,0.00496532078826167
843.0,0.005001261738630466
842.0,0.005037027274339247
841.0,0.005075280094630099
840.0,0.0051173709247512335
839.0,0.005161732203018176
838.0,0.0052059016860239865
837.0,0.005249858381045887
836.0,0.005297140051481089
835.0,0.005352281636441395
834.0,0.005416256907620437
833.0,0.00548394474111861
832.0,0.005546825809186589
831.0,0.005599501141943622
830.0,0.005644074399607726
829.0,0.00568739663894673
828.0,0.005734202409867032
827.0,0.005784407707571427
826.0,0.005836417405716035
825.0,0.0058896590807839926
824.0,0.005942792899677887
823.0,0.005993100031930683
822.0,0.006039887037800852
821.0,0.0060855589185315456
820.0,0.006132046334430518
819.0,0.0061793941182949775
818.0,0.00622821237669083
817.0,0.006279591884199706
816.0,0.006331560764356852
815.0,0.006379677335167283
814.0,0.006423333385633976
813.0,0.006467495162304871
812.0,0.006515001886369885
811.0,0.006560973878563536
810.0,0.00659967955488102
809.0,0.0066346928835964315
808.0,0.006676704608067971
807.0,0.006731037503158189
806.0,0.006791137517487823
805.0,0.006845152347520436
804.0,0.006886377924241344
803.0,0.006917250338233299
802.0,0.006945736698874879
801.0,0.006978677236918343
800.0,0.007017351601502242
799.0,0.0070580383305150814
798.0,0.007095504433925235
797.0,0.007125323717252899
796.0,0.007144644267079291
795.0,0.007154060722327616
794.0,0.007159108971239636
793.0,0.007166887592062181
792.0,0.007180268656992334
791.0,0.007197197495932162
790.0,0.007214964438541117
789.0,0.0072323379966232944
788.0,0.00724813538970742
787.0,0.007261103825131792
786.0,0.007271445163278024
785.0,0.007280195450218067
784.0,0.007288477312127803
783.0,0.007300328508630388
782.0,0.007323173132354586
781.0,0.0073594284130098775
780.0,0.007398923262805748
779.0,0.007426233396211658
778.0,0.007435947121500959
777.0,0.007435563056618803
776.0,0.007434304949364303
775.0,0.007436148527267759
774.0,0.007443605249258054
773.0,0.007460024146671688
772.0,0.007485400735118821
771.0,0.007515307291903108
770.0,0.007545736521817611
769.0,0.007574814635322112
768.0,0.007600347199989381
767.0,0.007621840226395709
766.0,0.007644494734664477
765.0,0.00767424917506547
764.0,0.007709380352242544
763.0,0.007744168975803456
762.0,0.007779486105077175
761.0,0.007820903799048103
760.0,0.007867081097022856
759.0,0.007910297786278345
758.0,0.00794900746914833
757.0,0.00798939031556375
756.0,0.008033375508796311
755.0,0.008075961259785887
754.0,0.008116126020384385
753.0,0.008159399252122317
752.0,0.008207798182489498
751.0,0.008258256388638979
750.0,0.00831153286974054
749.0,0.008370004742832279
748.0,0.008425987080320252
747.0,0.008467090264041419
746.0,0.00849604109112782
745.0,0.008529666082156767
744.0,0.008574143415208558
743.0,0.00861756455830552
742.0,0.00865205447997492
741.0,0.008686227685967086
740.0,0.008730200913480299
739.0,0.008787327671609627
738.0,0.008867964075955796
737.0,0.008994594137220811
736.0,0.009195302287991073
735.0,0.009525274936427477
734.0,0.010099239651074813
733.0,0.011040039042975508
732.0,0.012322313264455282
731.0,0.013662030421663428
730.0,0.01463277545889577
729.0,0.014971366473957672
728.0,0.014776924819705096
727.0,0.014396844006724602
726.0,0.014159300376087411
725.0,0.014230360621016864
724.0,0.014664413415274094
723.0,0.015509296370493406
722.0,0.016796732916154068
721.0,0.018382816244207793
720.0,0.019823207929125803
719.0,0.020571711995403714
718.0,0.020396206249489932
717.0,0.019489027707206247
716.0,0.01820987873162585
715.0,0.016857964555361815
714.0,0.015619889630866118
713.0,0.01459029904467576
712.0,0.013789282492465752
711.0,0.013181529536932537
710.0,0.012713185319393035
709.0,0.012346355110696188
708.0,0.012061773905723532
707.0,0.01184086425459644
706.0,0.011662635765711561
705.0,0.011515914411196527
704.0,0.011398618510326228
703.0,0.011304394040483296
702.0,0.011221969577773272
701.0,0.011145536897178633
700.0,0.011073174522048182
699.0,0.010996971882263517
698.0,0.010908126400224129
697.0,0.010811009301079918
696.0,0.010719259702961685
695.0,0.010638754189465121
694.0,0.010565613638300565
693.0,0.01049847234061472
692.0,0.01043996007044813
691.0,0.01038696620396959
690.0,0.010332816517404666
689.0,0.010279869443622875
688.0,0.010237308040995303
687.0,0.010205386412417815
686.0,0.010175812286683584
685.0,0.010146592431575448
684.0,0.010120993426511269
683.0,0.010094204255554852
682.0,0.010056293406907483
681.0,0.01000908327861112
680.0,0.009968163861686552
679.0,0.009945433737256766
678.0,0.009937854965301222
677.0,0.009934184816544523
676.0,0.009923074494109481
675.0,0.009899185921988215
674.0,0.009867752257918062
673.0,0.009838909322983872
672.0,0.009812220050079755
671.0,0.009774215805358637
670.0,0.009717110156277915
669.0,0.009659795910778356
668.0,0.009641717321311246
667.0,0.009669523838015663
666.0,0.009698581045254699
665.0,0.009703426487412984
664.0,0.009696081993758258
663.0,0.009688441781801544
662.0,0.009678751478465633
661.0,0.009660956425187318
660.0,0.009634228019955959
659.0,0.009601891449705836
658.0,0.009570478692030013
657.0,0.009549319122590607
656.0,0.009540422183256285
655.0,0.00953310908980551
654.0,0.009514602431173939
653.0,0.009481146092696638
652.0,0.009432953554930469
651.0,0.009369762479102121
650.0,0.009301111881355096
649.0,0.009247590022561012
648.0,0.00921787075132362
647.0,0.009193087182746395
646.0,0.009145824632403866
645.0,0.009067433063711544
644.0,0.008968720524808063
643.0,0.008866234412615687
642.0,0.008775466463792618
641.0,0.008706957575482992
640.0,0.008661383363090401
639.0,0.008630551802649815
638.0,0.008604798566972445
637.0,0.008573970375898281
636.0,0.008521052172901274
635.0,0.008433195147522984
634.0,0.00832877706217492
633.0,0.00824952125330804
632.0,0.008213470768660783
631.0,0.008194776563738617
630.0,0.00815595206361085
629.0,0.008087256345084361
628.0,0.008001794264449302
627.0,0.007907013334471604
626.0,0.007801225181177436
625.0,0.007689705193334971
624.0,0.007584874968237778
623.0,0.007491238314744457
622.0,0.00740175616161606
621.0,0.007308320534477686
620.0,0.007210620877021012
619.0,0.007118049753178951
618.0,0.007046547154907188
617.0,0.007007147448145392
616.0,0.006993757587607192
615.0,0.00699109904033352
614.0,0.006994451031722667
613.0,0.0070075869268389195
612.0,0.007023322462038805
611.0,0.007023693262636554
610.0,0.0070098826051159715
609.0,0.007013425413578673
608.0,0.007060830531427321
607.0,0.007143099845664904
606.0,0.0072312684758771995
605.0,0.0073075714941999576
604.0,0.007364434699253941
603.0,0.007394143694516865
602.0,0.007402048388503113
601.0,0.007407303421197227
600.0,0.007413169846137333
599.0,0.007399570962699701
598.0,0.007359040801345305
597.0,0.007308443959741857
596.0,0.007249840511046922
595.0,0.007156004528329228
594.0,0.007013802549036366
593.0,0.006855709907714417
592.0,0.006726723771815655
591.0,0.006638071911658321
590.0,0.006570759858453373
589.0,0.006509623779167794
588.0,0.006448731494144797
587.0,0.0063794915065473815
586.0,0.006295821863184664
585.0,0.006197856009795583
584.0,0.006075124173261632
583.0,0.005902281342907493
582.0,0.005673393265599437
581.0,0.0054265818785841444
580.0,0.005213675492693651
579.0,0.005060647114748462
578.0,0.004959369567077761
577.0,0.004885087567856307
576.0,0.004819220356835954
575.0,0.004752540055642103
574.0,0.00468384443837635
573.0,0.004627577935584491
572.0,0.004604909984635492
571.0,0.004622213835519478
570.0,0.0046620459141289115
569.0,0.0047022544304109876
568.0,0.0047288979698582295
567.0,0.004727571883648557
566.0,0.004697790012492677
565.0,0.00466976679839093
564.0,0.004679019097849249
563.0,0.004734337585520745
562.0,0.004817771853672444
561.0,0.004912295348476531
560.0,0.0050001992037367275
559.0,0.005033110110345112
558.0,0.004964148095842162
557.0,0.004818343542889642
556.0,0.004676093517317844
555.0,0.004599876608264204
554.0,0.0045888083834285925
553.0,0.004596896527566974
552.0,0.004580414704888748
551.0,0.00451789331271734
550.0,0.004415322679717953
