cm-1,A
4000.0,0.0009496669377399292
3999.0,0.0009477778325229394
3998.0,0.0009562623251257868
3997.0,0.0009722473380252357
3996.0,0.0009885939285481558
3995.0,0.0010011324474963057
3994.0,0.0010121936388311796
3993.0,0.0010241760495286628
3992.0,0.0010326051446430558
3991.0,0.0010287115338522925
3990.0,0.0010098999964701621
3989.0,0.0009856455728546106
3988.0,0.0009691015599600749
3987.0,0.0009648684563485008
3986.0,0.0009668080434011822
3985.0,0.000966171738821121
3984.0,0.0009604903055842373
3983.0,0.0009536901518952801
3982.0,0.0009502975550054772
3981.0,0.0009517797132749204
3980.0,0.0009572788450561052
3979.0,0.0009657200293395179
3978.0,0.0009755588997309179
3977.0,0.0009837517151249104
3976.0,0.0009874341808614924
3975.0,0.0009871091760718204
3974.0,0.0009866601325230632
3973.0,0.0009895356085776684
3972.0,0.0009954808515503437
3971.0,0.0010015114147861781
3970.0,0.0010057041710133724
3969.0,0.0010082777780027951
3968.0,0.0010097534422494822
3967.0,0.0010096592939225504
3966.0,0.0010072088243191315
3965.0,0.00100195846354785
3964.0,0.0009941407107232562
3963.0,0.000985917606768821
3962.0,0.0009824262030602461
3961.0,0.0009890375596940896
3960.0,0.0010048298892902834
3959.0,0.001020251612657071
3958.0,0.001023882195299173
3957.0,0.0010131246341933498
3956.0,0.0009969579707288893
3955.0,0.0009866840315072825
3954.0,0.0009859365076820435
3953.0,0.00098866516404568
3952.0,0.000985325292950189
3951.0,0.0009713798250572758
3950.0,0.0009506930269679775
3949.0,0.0009320815778626091
3948.0,0.0009230478257231114
3947.0,0.0009259485848806518
3946.0,0.0009368827831685887
3945.0,0.0009474685897809524
3944.0,0.0009506748050646753
3943.0,0.000947062042960868
3942.0,0.0009458780105591167
3941.0,0.000959866858225704
3940.0,0.0009909695686065032
3939.0,0.001023462185626817
3938.0,0.0010406971321798005
3937.0,0.001040403611141469
3936.0,0.0010318548718231788
3935.0,0.001022354724770449
3934.0,0.0010105292999530195
3933.0,0.0009921293300352773
3932.0,0.0009674179057405242
3931.0,0.0009453674878242074
3930.0,0.0009362906347240224
3929.0,0.0009408983101412639
3928.0,0.0009496356266243426
3927.0,0.000950623596960633
3926.0,0.0009388665134687035
3925.0,0.0009198564047608108
3924.0,0.0009086500954845662
3923.0,0.0009204750973017918
3922.0,0.0009552758608259474
3921.0,0.0009956596518875035
3920.0,0.0010236753850271047
3919.0,0.0010320100806495904
3918.0,0.001021470009394049
3917.0,0.0009985574429045012
3916.0,0.0009770816303834749
3915.0,0.0009704884785904072
3914.0,0.0009794334733877446
3913.0,0.0009930247570300614
3912.0,0.0010031499287089934
3911.0,0.0010103290230434167
3910.0,0.0010181862553000816
3909.0,0.0010262722337981446
3908.0,0.0010311962810272133
3907.0,0.0010296551610289115
3906.0,0.0010177297737805437
3905.0,0.0009889898496773456
3904.0,0.0009435054106611327
3903.0,0.0009046816051417441
3902.0,0.0009012129103450827
3901.0,0.000926394463483663
3900.0,0.0009435873703295571
3899.0,0.0009354233965015663
3898.0,0.0009223414828097398
3897.0,0.0009266498593489077
3896.0,0.0009456043496062545
3895.0,0.0009659177058629994
3894.0,0.0009840072507262545
3893.0,0.00099626213030528
3892.0,0.0009868290701498365
3891.0,0.0009517939560002637
3890.0,0.0009267827888083558
3889.0,0.0009402959653000127
3888.0,0.0009747509126856429
3887.0,0.0010020393614483792
3886.0,0.0010113091845988646
3885.0,0.0010050010110008215
3884.0,0.0009975459400608632
3883.0,0.0009925563807203243
3882.0,0.0009699042869988617
3881.0,0.0009227610579612996
3880.0,0.0008783319206612921
3879.0,0.0008784088219194476
3878.0,0.0009344063401733101
3877.0,0.0010049573818287484
3876.0,0.001042643327703097
3875.0,0.001033250141088165
3874.0,0.0009912860172121318
3873.0,0.00095066921044178
3872.0,0.0009374282167481832
3871.0,0.0009396568881932223
3870.0,0.0009309822240129224
3869.0,0.0009208832517321533
3868.0,0.0009462997559680732
3867.0,0.0009973562992194364
3866.0,0.0010213542308050562
3865.0,0.0009934976828146855
3864.0,0.0009324819489491278
3863.0,0.0008758382106458268
3862.0,0.0008540801263517633
3861.0,0.0008683976434069203
3860.0,0.0009012492763013601
3859.0,0.0009354689095064512
3858.0,0.0009635649606840369
3857.0,0.0009907785547885696
3856.0,0.0010298038477143346
3855.0,0.001088704860141431
3854.0,0.0011499192617454728
3853.0,0.0011603557825688746
3852.0,0.0011390777980810544
3851.0,0.0011504743849622343
3850.0,0.0011576707173910899
3849.0,0.0011223772558658588
3848.0,0.0010670576758395607
3847.0,0.0010192484031559521
3846.0,0.000985495629417651
3845.0,0.000958870003562463
3844.0,0.0009331891926229434
3843.0,0.0009073018058952331
3842.0,0.0008932102684106053
3841.0,0.0009064875702898214
3840.0,0.0009456329063616487
3839.0,0.0009860155198662891
3838.0,0.0010036416367943252
3837.0,0.0010031497621781123
3836.0,0.0009993537305378118
3835.0,0.0009889592761083415
3834.0,0.0009656911661853441
3833.0,0.0009388523418140083
3832.0,0.0009255345254885005
3831.0,0.0009345625410114751
3830.0,0.0009586307528330736
3829.0,0.0009775538951739971
3828.0,0.0009709742456000779
3827.0,0.0009347123419900589
3826.0,0.000889942709034994
3825.0,0.0008709855962692962
3824.0,0.0008944326480758676
3823.0,0.0009465229389894842
3822.0,0.000994525661527945
3821.0,0.0009945686704250234
3820.0,0.0009574982611345929
3819.0,0.0009556656728304272
3818.0,0.0009911887266043208
3817.0,0.0010137572697376514
3816.0,0.0010097268360570466
3815.0,0.0010092214406698067
3814.0,0.0010427234844969453
3813.0,0.0010876483833073386
3812.0,0.0011012570499078739
3811.0,0.0010834834885825961
3810.0,0.0010653508401059864
3809.0,0.0010639959487036802
3808.0,0.0010640017782635775
3807.0,0.0010373025772966215
3806.0,0.000991700485402165
3805.0,0.0009676198354947768
3804.0,0.0009747968860364597
3803.0,0.0009897319163328466
3802.0,0.0009890330810395204
3801.0,0.0009624519517828627
3800.0,0.0009501185737165823
3799.0,0.0009803540015801235
3798.0,0.0010087912013441568
3797.0,0.0010014898543730794
3796.0,0.0009757892830341152
3795.0,0.0009679701341391819
3794.0,0.000990795439368521
3793.0,0.0010216199938053755
3792.0,0.0010355955443598225
3791.0,0.0010299737244819141
3790.0,0.001015176514454902
3789.0,0.0010012415859117858
3788.0,0.0009937888153224558
3787.0,0.0009936000143514977
3786.0,0.0009975243205369534
3785.0,0.0010020352632301615
3784.0,0.0010111819793404537
3783.0,0.0010325931851839346
3782.0,0.0010597785614638406
3781.0,0.0010701589970873592
3780.0,0.001049074446486091
3779.0,0.0010107372154138311
3778.0,0.0009905622290841635
3777.0,0.001005258079230693
3776.0,0.0010337649846646052
3775.0,0.0010508110981291582
3774.0,0.0010589306637680536
3773.0,0.0010755308163424055
3772.0,0.0011046780549090124
3771.0,0.0011290407987872213
3770.0,0.0011314835486019403
3769.0,0.001119824703983557
3768.0,0.0011155285251173532
3767.0,0.0011179567462941864
3766.0,0.0011116520012805187
3765.0,0.0010981740470121359
3764.0,0.001095227167354188
3763.0,0.0011091595439128449
3762.0,0.0011221536108021474
3761.0,0.0011146923919377525
3760.0,0.0010890684078957375
3759.0,0.0010597866152193159
3758.0,0.00103973230061943
3757.0,0.0010357121823881443
3756.0,0.001046594951100723
3755.0,0.0010663273066594725
3754.0,0.0010916894936901073
3753.0,0.0011270050297862546
3752.0,0.0011763964143750058
3751.0,0.0012217678815809982
3750.0,0.0012475371124379998
3749.0,0.0012827492677091037
3748.0,0.0013433688906641069
3747.0,0.0014045861194862549
3746.0,0.0014389222002605575
3745.0,0.0014291931963044337
3744.0,0.0013807012784622286
3743.0,0.0013457669929630015
3742.0,0.0013459576897947483
3741.0,0.001333987900977699
3740.0,0.0012996388326525685
3739.0,0.0012816343885528637
3738.0,0.0012976399495376499
3737.0,0.0013201607577621028
3736.0,0.0013042184050017266
3735.0,0.0012463814853793482
3734.0,0.001209159207321473
3733.0,0.0012424762844248614
3732.0,0.0013218670163528863
3731.0,0.0014016165778300365
3730.0,0.0014590228006512655
3729.0,0.0014878829274894562
3728.0,0.0014900879720568692
3727.0,0.0014754267878936906
3726.0,0.0014600862667300647
3725.0,0.001459336030846053
3724.0,0.0014731094024137154
3723.0,0.0014879791253454273
3722.0,0.0015012530882908335
3721.0,0.0015267735749043784
3720.0,0.0015733233508637397
3719.0,0.0016306060578236434
3718.0,0.0016827774231072989
3717.0,0.0017252678931194614
3716.0,0.0017657467770775092
3715.0,0.001813324594586604
3714.0,0.00187671742647519
3713.0,0.00196611288747273
3712.0,0.002072797008331226
3711.0,0.002160574728404869
3710.0,0.002226913240059122
3709.0,0.0023076372439100046
3708.0,0.002406993382444612
3707.0,0.002503160403119579
3706.0,0.0025896203235032853
3705.0,0.0026824186866717865
3704.0,0.0028043700678890815
3703.0,0.00296620191121474
3702.0,0.0031514358087283713
3701.0,0.0033266648170172572
3700.0,0.0034780879327772464
3699.0,0.003608222436916411
3698.0,0.0037091330229120424
3697.0,0.0037698895524779
3696.0,0.0037921992158516725
3695.0,0.0037898528977407774
3694.0,0.003777180045263571
3693.0,0.003764154290382457
3692.0,0.003758678861252987
3691.0,0.0037600602717726716
3690.0,0.0037482476203821837
3689.0,0.0037112319135556484
3688.0,0.003687353362734577
3687.0,0.003714377331269089
3686.0,0.003769022288439506
3685.0,0.0038104012332219077
3684.0,0.003828013364123623
3683.0,0.0038343118898927385
3682.0,0.0038413586699405176
3681.0,0.0038502664471749305
3680.0,0.0038585787067843456
3679.0,0.003878618954830403
3678.0,0.003938991357210336
3677.0,0.004061912575527424
3676.0,0.004213317925440295
3675.0,0.004311430197491842
3674.0,0.004386799749795534
3673.0,0.004519947614901179
3672.0,0.004699727338577017
3671.0,0.00490380664193641
3670.0,0.005095500779276219
3669.0,0.005217916423518075
3668.0,0.005301999776837474
3667.0,0.005393182813314295
3666.0,0.0054903443233925335
3665.0,0.005598442902218825
3664.0,0.00573022388257129
3663.0,0.005881937470956447
3662.0,0.006034166271588304
3661.0,0.006171422094307428
3660.0,0.006296997354237347
3659.0,0.006433124275461471
3658.0,0.006607937882854116
3657.0,0.006824530419532632
3656.0,0.007034829479797365
3655.0,0.007189957081305887
3654.0,0.00729097409831512
3653.0,0.00736165231069692
3652.0,0.0074433721796151545
3651.0,0.007610667772243575
3650.0,0.007901521336136969
3649.0,0.008200198456327037
3648.0,0.008389486699898198
3647.0,0.008528006047910817
3646.0,0.008688369230270217
3645.0,0.008873481562095076
3644.0,0.00906688795886442
3643.0,0.00925784040960027
3642.0,0.009441897795243515
3641.0,0.00961911030973812
3640.0,0.009793289863118535
3639.0,0.009967436905868847
3638.0,0.010142488336800705
3637.0,0.01032282899413725
3636.0,0.01051274688811044
3635.0,0.010706666385428148
3634.0,0.010891104192533908
3633.0,0.011062887456119566
3632.0,0.011245007154438427
3631.0,0.011488552565300321
3630.0,0.011854181270370478
3629.0,0.012293123034605783
3628.0,0.012638851402168676
3627.0,0.012884317441364104
3626.0,0.013104205704687656
3625.0,0.013296963748015977
3624.0,0.013457477949232393
3623.0,0.013604205659736525
3622.0,0.013772380230474928
3621.0,0.014002480124902286
3620.0,0.014296942931347662
3619.0,0.01457758673835185
3618.0,0.014773908338319198
3617.0,0.014916112567958516
3616.0,0.015061230009459258
3615.0,0.01523457166067757
3614.0,0.015431397389196213
3613.0,0.015624184051623302
3612.0,0.015796444694148568
3611.0,0.015967049472432666
3610.0,0.01617035693180315
3609.0,0.016424734793436802
3608.0,0.016703858185135863
3607.0,0.016957299371958737
3606.0,0.017172383635369555
3605.0,0.017365193451491383
3604.0,0.01754505166998506
3603.0,0.017718754712451153
3602.0,0.017902661913615087
3601.0,0.0181124238757505
3600.0,0.0183420313596011
3599.0,0.018567911812271035
3598.0,0.01877484598282846
3597.0,0.01897066295571032
3596.0,0.019175191901419242
3595.0,0.019396921106016166
3594.0,0.019621179163444122
3593.0,0.019826068410708435
3592.0,0.019998922198007845
3591.0,0.020144595627478435
3590.0,0.02029845883905949
3589.0,0.020528134587389765
3588.0,0.020861590553441365
3587.0,0.02120664594888242
3586.0,0.021476039919892276
3585.0,0.02169551364537672
3584.0,0.021906331827476987
3583.0,0.022118849169193936
3582.0,0.022335942395309394
3581.0,0.022558499895617864
3580.0,0.022782505107444884
3579.0,0.023003977998729767
3578.0,0.023225313539653788
3577.0,0.02345278246365921
3576.0,0.023687369227551467
3575.0,0.023919877334857786
3574.0,0.024135247976225307
3573.0,0.024319687736113118
3572.0,0.024467318170737624
3571.0,0.024588038472207696
3570.0,0.024716607055121805
3569.0,0.024912893968276607
3568.0,0.025221987444320425
3567.0,0.025587696604104846
3566.0,0.025897177383852363
3565.0,0.026142238532454152
3564.0,0.02637928898258251
3563.0,0.0266329945713555
3562.0,0.026901413346351603
3561.0,0.027171590191564295
3560.0,0.027424000508697307
3559.0,0.027648028061828752
3558.0,0.027852352406928883
3557.0,0.02805276040301861
3556.0,0.028260187111350293
3555.0,0.02848472946538995
3554.0,0.02873776842066953
3553.0,0.02901374054623317
3552.0,0.02927808419658061
3551.0,0.02950103813788138
3550.0,0.029691054089710355
3549.0,0.0298825558340838
3548.0,0.030109700260836
3547.0,0.030386635106381493
3546.0,0.0306968949739237
3545.0,0.031005940970120088
3544.0,0.03128808521190342
3543.0,0.031536417237788245
3542.0,0.031756594765026305
3541.0,0.031962049278389124
3540.0,0.0321711231561143
3539.0,0.03240326143628679
3538.0,0.032672009054067586
3537.0,0.03297023250808099
3536.0,0.03326470659518075
3535.0,0.03352367107615309
3534.0,0.03374579663012859
3533.0,0.03395331493950438
3532.0,0.034166691372767094
3531.0,0.03439339137609879
3530.0,0.03463314771241401
3529.0,0.0348833821899019
3528.0,0.03513669672239467
3527.0,0.03538518498878908
3526.0,0.035631789686217726
3525.0,0.03588844367055352
3524.0,0.036158185616095136
3523.0,0.036426459303312134
3522.0,0.03667869539905554
3521.0,0.036916781162390465
3520.0,0.03715090412683162
3519.0,0.037386758453287906
3518.0,0.03762487295457938
3517.0,0.037864963292989155
3516.0,0.038105617786772426
3515.0,0.038343171685139434
3514.0,0.0385751427474735
3513.0,0.038805924427013146
3512.0,0.039047664142908174
3511.0,0.0393125054477645
3510.0,0.03959659952227753
3509.0,0.03987290331168701
3508.0,0.04011176249740873
3507.0,0.0403113841104916
3506.0,0.040504003388069164
3505.0,0.04073485071491717
3504.0,0.04102533584645644
3503.0,0.04134765351493988
3502.0,0.041651527644315504
3501.0,0.04191454200073969
3500.0,0.04214664472637706
3499.0,0.04236608421021601
3498.0,0.042589197683023834
3497.0,0.042827569983100736
3496.0,0.0430832359579849
3495.0,0.04334805938477221
3494.0,0.043610727269829355
3493.0,0.043864166848751406
3492.0,0.044108767652286815
3491.0,0.04435322496732976
3490.0,0.044610371309930556
3489.0,0.0448841209308669
3488.0,0.04515891358289318
3487.0,0.04541065675515218
3486.0,0.045631074241310736
3485.0,0.045835985943620344
3484.0,0.04605241760748713
3483.0,0.046301048165825656
3482.0,0.04658291497349961
3481.0,0.04687726035608515
3480.0,0.04715626700733415
3479.0,0.047406476034643194
3478.0,0.04763635558864717
3477.0,0.0478651627930629
3476.0,0.0481067367827324
3475.0,0.04836251195683357
3474.0,0.04862605756615374
3473.0,0.04888978452554083
3472.0,0.049147984568820996
3471.0,0.04939975175882334
3470.0,0.04965082845195578
3469.0,0.04990701603102617
3468.0,0.05016398232884364
3467.0,0.05040921281597511
3466.0,0.05063681317276891
3465.0,0.05085576570134702
3464.0,0.05108232944491008
3463.0,0.05132643077003177
3462.0,0.051583122691618764
3461.0,0.05183562678567162
3460.0,0.05206971299225476
3459.0,0.05228802665109288
3458.0,0.05250787577821847
3457.0,0.05274147616215928
3456.0,0.0529822695372117
3455.0,0.053215620012717166
3454.0,0.053436700007171024
3453.0,0.053650031962677314
3452.0,0.05385670667381226
3451.0,0.05405535435640629
3450.0,0.054255877316803446
3449.0,0.05447945261405417
3448.0,0.05473501291767695
3447.0,0.05499998846633066
3446.0,0.05524054287013799
3445.0,0.05544921519456169
3444.0,0.05564823855606059
3443.0,0.0558640166642927
3442.0,0.056104551058637465
3441.0,0.05635456745746569
3440.0,0.05659156176179619
3439.0,0.056806289056182985
3438.0,0.05700728120306101
3437.0,0.057208846726154255
3436.0,0.05741729843337069
3435.0,0.05762854469017115
3434.0,0.05783479975102697
3433.0,0.05803071534119333
3432.0,0.05821595093388808
3431.0,0.05839647928502252
3430.0,0.05858163918191454
3429.0,0.058775885739509426
3428.0,0.05897415593260309
3427.0,0.0591671603570516
3426.0,0.05934972018913968
3425.0,0.0595229605007438
3424.0,0.05969305584620527
3423.0,0.059870997800389854
3422.0,0.06006807587575599
3421.0,0.06028379442395991
3420.0,0.0605002851890648
3419.0,0.06069623032385728
3418.0,0.06086554582522177
3417.0,0.061019942433212994
3416.0,0.061176217623814554
3415.0,0.061342291200052475
3414.0,0.061512667776819775
3413.0,0.061676186636896675
3412.0,0.061828813694080866
3411.0,0.06197790558567684
3410.0,0.062132122447260116
3409.0,0.062289107375375824
3408.0,0.06243877965894733
3407.0,0.0625784919012729
3406.0,0.06271751521478404
3405.0,0.06286434147529263
3404.0,0.06301636439761639
3403.0,0.06316553191755303
3402.0,0.0633082938626042
3401.0,0.06344560491072579
3400.0,0.06357824576334027
3399.0,0.06370763763482254
3398.0,0.06383692556348042
3397.0,0.06396635873770184
3396.0,0.06409210516595365
3395.0,0.06421395593978242
3394.0,0.06433808796767934
3393.0,0.06446567795307305
3392.0,0.0645850758944723
3391.0,0.06468553324870334
3390.0,0.06477440465920768
3389.0,0.06487099471137957
3388.0,0.06498605191543574
3387.0,0.06511344236806071
3386.0,0.06523929761154161
3385.0,0.06535244451684495
3384.0,0.06544633259486256
3383.0,0.06552009992602811
3382.0,0.06558211212620463
3381.0,0.06564750852554117
3380.0,0.06572743966720988
3379.0,0.06582011869717994
3378.0,0.06591219257972346
3377.0,0.06598829507564405
3376.0,0.06604235503870245
3375.0,0.06608390845759214
3374.0,0.06613229419291543
3373.0,0.06619974335048821
3372.0,0.06627974513701425
3371.0,0.06635525117534266
3370.0,0.06641808234951721
3369.0,0.06647651294174207
3368.0,0.06654285945318032
3367.0,0.0666170366865428
3366.0,0.0666843915257972
3365.0,0.06672874331493063
3364.0,0.06674727750823631
3363.0,0.06675420862036832
3362.0,0.06676970340097653
3361.0,0.06680333474983399
3360.0,0.06684868576749595
3359.0,0.06689482426898986
3358.0,0.06693933664603051
3357.0,0.0669863309526949
3356.0,0.06703474574940674
3355.0,0.06707503818194499
3354.0,0.06709844483402583
3353.0,0.0671055244445615
3352.0,0.06710481501185352
3351.0,0.06710578365098174
3350.0,0.06711332206679346
3349.0,0.06712617486440466
3348.0,0.06713904063768104
3347.0,0.0671466990741672
3346.0,0.0671471133559922
3345.0,0.06714216620902504
3344.0,0.06713716453760281
3343.0,0.0671388469590257
3342.0,0.06715011806287742
3341.0,0.06716561580998254
3340.0,0.06717556016199511
3339.0,0.0671755459852137
3338.0,0.0671694083656477
3337.0,0.06716076769665992
3336.0,0.06714660991190868
3335.0,0.06712401343823676
3334.0,0.06709938939801825
3333.0,0.06708408215204222
3332.0,0.06708156494128382
3331.0,0.06708427557373348
3330.0,0.06708354979432016
3329.0,0.06707855084875722
3328.0,0.06707356183388248
3327.0,0.06706921396505654
3326.0,0.06706005101100998
3325.0,0.06704189707605694
3324.0,0.06701934917945979
3323.0,0.06700251816048043
3322.0,0.06699512654626968
3321.0,0.06698894766026775
3320.0,0.06697367406635561
3319.0,0.06695084957546285
3318.0,0.06693297220516446
3317.0,0.06692807462866124
3316.0,0.0669303823768194
3315.0,0.06692867172077581
3314.0,0.06691934121667385
3313.0,0.0669076843478187
3312.0,0.06689933751830467
3311.0,0.06689467818984862
3310.0,0.06689011114181323
3309.0,0.06688094540245015
3308.0,0.06686403743037489
3307.0,0.06684145079229535
3306.0,0.06682157221974434
3305.0,0.06681353473918974
3304.0,0.06681884927419594
3303.0,0.06682875876424522
3302.0,0.06683045755808106
3301.0,0.06681657422815944
3300.0,0.06678965366479207
3299.0,0.06675821243027781
3298.0,0.06672803313375651
3297.0,0.06669750336279519
3296.0,0.06666223029541582
3295.0,0.06662277812848105
3294.0,0.06658495486356625
3293.0,0.06655283689997199
3292.0,0.066524950038581
3291.0,0.06649801683677847
3290.0,0.06647020928802075
3289.0,0.06643811814995525
3288.0,0.06639455070913812
3287.0,0.06633425459654811
3286.0,0.06626108586574887
3285.0,0.06618592087124224
3284.0,0.06611672070502711
3283.0,0.06605222981826579
3282.0,0.06598552243987078
3281.0,0.06591127301762559
3280.0,0.06582777951042704
3279.0,0.0657334035250082
3278.0,0.0656249223384054
3277.0,0.06550248863689681
3276.0,0.06537539996604617
3275.0,0.06525788152636047
3274.0,0.06515471656973044
3273.0,0.06505305351397507
3272.0,0.06493378904619966
3271.0,0.06479151946331663
3270.0,0.06463918497104125
3269.0,0.0644922006592608
3268.0,0.06435215049242184
3267.0,0.06420905394735589
3266.0,0.06405654438139231
3265.0,0.06389894217254974
3264.0,0.06374211473295001
3263.0,0.0635824990144238
3262.0,0.06341049519096241
3261.0,0.0632238963040938
3260.0,0.06303312232986766
3259.0,0.06285069410712597
3258.0,0.06267809995829125
3257.0,0.06250589071784032
3256.0,0.06232512805177291
3255.0,0.06213518682955862
3254.0,0.06194077350628089
3253.0,0.061746005634380784
3252.0,0.061553606790844685
3251.0,0.06136668902515019
3250.0,0.06118779530448851
3249.0,0.06101674499398776
3248.0,0.060850651936638
3247.0,0.060685074449281375
3246.0,0.060514985854658976
3245.0,0.060337644135894396
3244.0,0.060156167925497744
3243.0,0.059976984977479664
3242.0,0.059801587724204165
3241.0,0.059623999025703214
3240.0,0.05943855060635896
3239.0,0.059246625143835226
3238.0,0.05905253758533307
3237.0,0.0588566653796663
3236.0,0.05865845925730677
3235.0,0.05846365022622404
3234.0,0.05828042502534308
3233.0,0.05810722925885235
3232.0,0.05793096106391109
3231.0,0.05774111208121083
3230.0,0.05754217799457662
3229.0,0.05734876383556683
3228.0,0.05717033096073873
3227.0,0.05700269449720213
3226.0,0.05683232977292037
3225.0,0.05664670770463025
3224.0,0.05644210749914231
3223.0,0.05622477755878861
3222.0,0.05600583719465906
3221.0,0.055794365371971806
3220.0,0.05559379095076094
3219.0,0.055402271259469955
3218.0,0.05521454233387604
3217.0,0.05502433509045069
3216.0,0.054828110525095314
3215.0,0.05462766440339595
3214.0,0.054427615145976625
3213.0,0.054229886023037605
3212.0,0.0540321277853752
3211.0,0.053831024301726295
3210.0,0.053624546377142146
3209.0,0.05341121037746305
3208.0,0.053190592966528435
3207.0,0.052965915491450404
3206.0,0.05274346514270865
3205.0,0.052526999172458295
3204.0,0.05231338843198401
3203.0,0.05209548702180462
3202.0,0.05186976340442197
3201.0,0.051640620463645905
3200.0,0.051416716905554
3199.0,0.051201741782855414
3198.0,0.050988288789769486
3197.0,0.05076377560155297
3196.0,0.050525309169946006
3195.0,0.050285695823776705
3194.0,0.050059878651189556
3193.0,0.04984604418143981
3192.0,0.049624613113613825
3191.0,0.0493777787770174
3190.0,0.049107290255815825
3189.0,0.04883086957948325
3188.0,0.04856438262690651
3187.0,0.04831121047733236
3186.0,0.04806671182115831
3185.0,0.047827349621841965
3184.0,0.047593366231776825
3183.0,0.04736462609465098
3182.0,0.04713647921293033
3181.0,0.04690110551235428
3180.0,0.04665398777660744
3179.0,0.04639895817682381
3178.0,0.046144610937522514
3177.0,0.04589422084788745
3176.0,0.04564121151891621
3175.0,0.045377062608918106
3174.0,0.04510278532180436
3173.0,0.04483020497815225
3172.0,0.04457116754573328
3171.0,0.04432676336324224
3170.0,0.04408807535016193
3169.0,0.04384624908556697
3168.0,0.04359972395830045
3167.0,0.04335122311519652
3166.0,0.043100429001150804
3165.0,0.04284342799930718
3164.0,0.04258006593461353
3163.0,0.04231822013978161
3162.0,0.04206701729800858
3161.0,0.04182626793839721
3160.0,0.041586022938131906
3159.0,0.041337506707120886
3158.0,0.04108208000091082
3157.0,0.04082847718814211
3156.0,0.04058310991861996
3155.0,0.04034410199064265
3154.0,0.04010347986403302
3153.0,0.039854541512625546
3152.0,0.039598539683291335
3151.0,0.03934493109019702
3150.0,0.03910371541793837
3149.0,0.038876563339294644
3148.0,0.03865596399150463
3147.0,0.03843249580749138
3146.0,0.038201241568603626
3145.0,0.03796250180260961
3144.0,0.03772061042783597
3143.0,0.03748314068874814
3142.0,0.037257100497800635
3141.0,0.037042465355531344
3140.0,0.036830727225968356
3139.0,0.03661226426071239
3138.0,0.036384322792082945
3137.0,0.036150493977232266
3136.0,0.035915078977797575
3135.0,0.035680892023981496
3134.0,0.035450467184447
3133.0,0.03522583941699924
3132.0,0.0350078494226412
3131.0,0.03479842619698388
3130.0,0.034601825081959345
3129.0,0.03441910414312355
3128.0,0.0342413100183485
3127.0,0.03405324227378591
3126.0,0.033846649114828736
3125.0,0.03362763360758294
3124.0,0.033410610132107284
3123.0,0.03320710686467539
3122.0,0.03302014203321197
3121.0,0.032845348577813654
3120.0,0.03267425532350977
3119.0,0.03249825090489211
3118.0,0.03231363655443498
3117.0,0.03212465721202219
3116.0,0.031940724759354985
3115.0,0.03176946758664495
3114.0,0.03161168023132622
3113.0,0.0314621696866537
3112.0,0.03131486658384535
3111.0,0.031166820636044205
3110.0,0.031017278887996862
3109.0,0.030864328906939777
3108.0,0.030705262728504018
3107.0,0.030541603878628726
3106.0,0.030380833115797336
3105.0,0.03022975707711892
3104.0,0.030087019141081774
3103.0,0.029945000766159535
3102.0,0.029799242469834165
3101.0,0.029653491160316885
3100.0,0.029514242765807438
3099.0,0.029382345596425524
3098.0,0.029252087768267564
3097.0,0.029116751904834044
3096.0,0.02897354478854597
3095.0,0.028825061856073704
3094.0,0.028678347874770454
3093.0,0.028541730028634495
3092.0,0.028419156140560196
3091.0,0.02830580070413556
3090.0,0.02819036184090445
3089.0,0.02806337039164105
3088.0,0.02792376182001514
3087.0,0.027777891691500183
3086.0,0.027633823981780745
3085.0,0.02749719597872606
3084.0,0.02736954578698292
3083.0,0.02724731529070843
3082.0,0.027123308657092306
3081.0,0.026992709249296372
3080.0,0.02685821889377544
3079.0,0.02672623310603843
3078.0,0.026598403923780014
3077.0,0.026470904083565734
3076.0,0.026342248295816106
3075.0,0.02621645373531453
3074.0,0.026095007794967005
3073.0,0.025971062353715626
3072.0,0.02583677420944847
3071.0,0.025693797895990057
3070.0,0.025551502779487503
3069.0,0.025415679447515126
3068.0,0.025284542665932407
3067.0,0.025154173120435677
3066.0,0.02502147301060753
3065.0,0.02488178769373324
3064.0,0.024730646135184067
3063.0,0.024570944864916632
3062.0,0.024412458857785715
3061.0,0.02426127204846046
3060.0,0.024113638580637194
3059.0,0.02396297508400826
3058.0,0.023809200239994523
3057.0,0.023656502610678386
3056.0,0.02350512935345254
3055.0,0.023350522294495524
3054.0,0.023190512419255987
3053.0,0.023029223032175385
3052.0,0.022873078794635425
3051.0,0.02272526260280139
3050.0,0.0225834549954567
3049.0,0.0224412470912934
3048.0,0.022292451914856848
3047.0,0.02213606797919679
3046.0,0.021977518896356588
3045.0,0.021824767155579065
3044.0,0.021682670375429654
3043.0,0.021550112569877693
3042.0,0.021421127258732655
3041.0,0.02128850935018686
3040.0,0.02114850571994265
3039.0,0.021002895568932346
3038.0,0.020855754011804725
3037.0,0.02070912130139241
3036.0,0.02056374913393948
3035.0,0.020423008079644173
3034.0,0.020291229690691356
3033.0,0.020166709109458725
3032.0,0.020041236825912506
3031.0,0.01990965579229268
3030.0,0.019776733617641047
3029.0,0.01964984793736227
3028.0,0.01952819847100745
3027.0,0.019403630565375737
3026.0,0.019270541692311974
3025.0,0.01913207900647987
3024.0,0.01899700271571679
3023.0,0.018872769351975675
3022.0,0.018760287389414706
3021.0,0.018652918599995752
3020.0,0.018542150338296683
3019.0,0.01842609151774079
3018.0,0.018311323387754718
3017.0,0.01820459500670089
3016.0,0.018105050357648193
3015.0,0.018007104536560403
3014.0,0.01790767396318996
3013.0,0.017807543861408332
3012.0,0.01770809779904731
3011.0,0.01761105715586912
3010.0,0.01751928148216972
3009.0,0.01743322272365246
3008.0,0.01734796766169871
3007.0,0.017258147928550363
3006.0,0.01716507329038638
3005.0,0.017075396834435742
3004.0,0.016993006750968275
3003.0,0.01691643961746647
3002.0,0.016843607353170382
3001.0,0.016774809684852166
3000.0,0.01671055628963758
2999.0,0.016650589716825995
2998.0,0.01659582558965169
2997.0,0.01654778901588528
2996.0,0.01650559838294332
2995.0,0.016467249612895363
2994.0,0.016434969276050503
2993.0,0.01641553694703208
2992.0,0.016413110718653295
2991.0,0.016424735457402306
2990.0,0.016443936214462492
2989.0,0.0164656323313512
2988.0,0.016485973401793818
2987.0,0.016501912606948006
2986.0,0.016515949995827835
2985.0,0.016539517398250318
2984.0,0.0165863772388403
2983.0,0.016660522300940263
2982.0,0.016751700490296267
2981.0,0.016844696466660522
2980.0,0.016932246574135956
2979.0,0.01701901229632923
2978.0,0.017114512045723323
2977.0,0.017224557804579637
2976.0,0.017349846784429322
2975.0,0.01748975519109824
2974.0,0.01764531653981262
2973.0,0.017819097948510384
2972.0,0.018014360067331224
2971.0,0.01823361678443919
2970.0,0.018475250288489536
2969.0,0.01873109297205667
2968.0,0.01899019311067371
2967.0,0.019246771393673333
2966.0,0.019502488400150415
2965.0,0.01975940468059053
2964.0,0.02001204665442731
2963.0,0.02024812121566928
2962.0,0.020455583517098655
2961.0,0.020628900512692543
2960.0,0.02076976295452195
2959.0,0.02088289724632105
2958.0,0.020969864494751432
2957.0,0.021026589610832515
2956.0,0.021048671142620344
2955.0,0.02103996290919154
2954.0,0.02101466868652667
2953.0,0.02099021783319381
2952.0,0.020980458975479406
2951.0,0.02099647666257806
2950.0,0.021051775765914806
2949.0,0.02116472217293977
2948.0,0.02135609111795807
2947.0,0.021644183111389558
2946.0,0.02203914218834238
2945.0,0.0225406080804454
2944.0,0.023143782357458946
2943.0,0.023848374157218355
2942.0,0.024659479263385558
2941.0,0.025578662718502492
2940.0,0.026598508197690798
2939.0,0.02770901694969569
2938.0,0.02890757356307627
2937.0,0.030200519195785428
2936.0,0.03159726592331441
2935.0,0.03310377891750917
2934.0,0.034718594805150146
2933.0,0.03643461919234396
2932.0,0.03824912303081837
2931.0,0.04017344568063313
2930.0,0.04223014105948073
2929.0,0.04443942884055218
2928.0,0.046812737661824935
2927.0,0.0493596977044051
2926.0,0.052095339556149235
2925.0,0.05503715982574924
2924.0,0.05819640436870521
2923.0,0.061568512994356055
2922.0,0.06512341543802751
2921.0,0.06879012296717546
2920.0,0.07243213452412918
2919.0,0.07581379473223133
2918.0,0.07858917284279145
2917.0,0.0803611543500655
2916.0,0.08081461929634216
2915.0,0.07985064428661301
2914.0,0.07762862000675398
2913.0,0.07450994357992982
2912.0,0.07092812972041695
2911.0,0.06726008626637112
2910.0,0.06376019525514152
2909.0,0.06055877083423997
2908.0,0.05770337210847262
2907.0,0.055194421211596775
2906.0,0.053004953844311795
2905.0,0.05109190055071677
2904.0,0.04940819149782137
2903.0,0.04791179283125487
2902.0,0.04656829336158028
2901.0,0.04534902780588128
2900.0,0.04422774507464852
2899.0,0.043179536955630454
2898.0,0.04218106762779406
2897.0,0.04121399115121379
2896.0,0.04026592180118375
2895.0,0.03932633024184777
2894.0,0.03838263685941242
2893.0,0.03742232305328807
2892.0,0.036439974400998415
2891.0,0.03544150636030217
2890.0,0.03443961230326889
2889.0,0.03344542600429356
2888.0,0.03246301979111704
2887.0,0.03149122648056947
2886.0,0.030530250526392883
2885.0,0.029586684662348293
2884.0,0.028672284791141315
2883.0,0.02779772857791485
2882.0,0.026967115094194773
2881.0,0.026178376492500512
2880.0,0.025429236910084013
2879.0,0.024723345183397503
2878.0,0.02407152990485811
2877.0,0.023486856201707103
2876.0,0.022977438048160367
2875.0,0.022541943771437804
2874.0,0.022170344217381552
2873.0,0.021848867906660394
2872.0,0.02156696148967337
2871.0,0.021321877229325874
2870.0,0.021119781050350044
2869.0,0.020975988577435403
2868.0,0.02091536047968118
2867.0,0.02097026966226508
2866.0,0.021174319709232316
2865.0,0.021556595815254452
2864.0,0.02214263440426552
2863.0,0.022957113901000855
2862.0,0.02402061782415857
2861.0,0.025346191647793663
2860.0,0.026948764098584172
2859.0,0.028860602077214702
2858.0,0.031133622744169184
2857.0,0.03382404437701953
2856.0,0.03698391668107001
2855.0,0.04066609219140334
2854.0,0.04492060903031983
2853.0,0.049741751663474054
2852.0,0.05495314637596757
2851.0,0.060082480270057234
2850.0,0.0643417134884265
2849.0,0.06684857032681579
2848.0,0.06703155481030346
2847.0,0.06492989367746536
2846.0,0.06112412788556149
2845.0,0.056413095687585145
2844.0,0.051487100443895484
2843.0,0.04679008768066609
2842.0,0.04254274540268802
2841.0,0.038819072244821805
2840.0,0.03561014793424616
2839.0,0.03286746238175
2838.0,0.030526276369802412
2837.0,0.028520868099716053
2836.0,0.026789015876523572
2835.0,0.025279016827648923
2834.0,0.02395712529918463
2833.0,0.022801817915368432
2832.0,0.021791708446186154
2831.0,0.020899434721940766
2830.0,0.02009933679791619
2829.0,0.019373562435406645
2828.0,0.01871028958434415
2827.0,0.018100677034207976
2826.0,0.017539239841985098
2825.0,0.017023155922211396
2824.0,0.016548161075542696
2823.0,0.016106962727555248
2822.0,0.015692787346643464
2821.0,0.015302198279797768
2820.0,0.014934484702060215
2819.0,0.014589788892890646
2818.0,0.014267288903397098
2817.0,0.013963360067335827
2816.0,0.013672885431854992
2815.0,0.013394402321134398
2814.0,0.013131041335011273
2813.0,0.012883113505665468
2812.0,0.012643452608982243
2811.0,0.012405495391870759
2810.0,0.012173364249767591
2809.0,0.011957247440978072
2808.0,0.011759766551726981
2807.0,0.011572696844466783
2806.0,0.01138675396707998
2805.0,0.011199338845253797
2804.0,0.011012789690737974
2803.0,0.010831086666058063
2802.0,0.010659205554160545
2801.0,0.01049946890929419
2800.0,0.010347375368624697
2799.0,0.010195919057794175
2798.0,0.010044265703126956
2797.0,0.009897340749039694
2796.0,0.009756443538849241
2795.0,0.009616421723508788
2794.0,0.009474050573727575
2793.0,0.009333528661353261
2792.0,0.009200831900010439
2791.0,0.009076677008313756
2790.0,0.00895752069772273
2789.0,0.008839782133632873
2788.0,0.008720597668660597
2787.0,0.008598291412246998
2786.0,0.008474676664011463
2785.0,0.008354548589359108
2784.0,0.008241541695951014
2783.0,0.008136078415476877
2782.0,0.008037152752793956
2781.0,0.007942519478530937
2780.0,0.007846900343538262
2779.0,0.007745124418925999
2778.0,0.007639043520052465
2777.0,0.007537663868793837
2776.0,0.0074484230355188015
2775.0,0.007370546843351312
2774.0,0.007297838310366482
2773.0,0.007224607036162899
2772.0,0.007147778321827716
2771.0,0.007067294353457915
2770.0,0.006987220115847684
2769.0,0.006913609010852189
2768.0,0.006848252945046896
2767.0,0.006786034085640468
2766.0,0.006720376015871264
2765.0,0.006650005193725601
2764.0,0.006579416936127687
2763.0,0.006514086621554727
2762.0,0.006455704699690186
2761.0,0.006400990534752735
2760.0,0.0063447809819347474
2759.0,0.006285341997914529
2758.0,0.006226072605146675
2757.0,0.006170528717848146
2756.0,0.006117322303931744
2755.0,0.006062721097514029
2754.0,0.0060071286948741
2753.0,0.0059550395105472855
2752.0,0.005908643496316594
2751.0,0.005865371406654043
2750.0,0.005822526151598416
2749.0,0.005780523119688933
2748.0,0.0057398403254804685
2747.0,0.005698197998436881
2746.0,0.005653392124123679
2745.0,0.005607050416916645
2744.0,0.005563216982054102
2743.0,0.005523795314092164
2742.0,0.005486917136401714
2741.0,0.005449562731301033
2740.0,0.005410828333459058
2739.0,0.005372285862471111
2738.0,0.005335360557941635
2737.0,0.005299207090438444
2736.0,0.005262390903075714
2735.0,0.005226005311393971
2734.0,0.0051925581574994665
2733.0,0.005161457467536911
2732.0,0.005128447696460151
2731.0,0.0050907377545889535
2730.0,0.0050498804474857
2729.0,0.005008184265091587
2728.0,0.0049657686829787965
2727.0,0.004923312017024962
2726.0,0.004883732854525775
2725.0,0.004847439793201708
2724.0,0.0048094128975773925
2723.0,0.004765539536455605
2722.0,0.004719193508596064
2721.0,0.004676438789046778
2720.0,0.004636498782432793
2719.0,0.004593131295571468
2718.0,0.00454502767298626
2717.0,0.004499182572442139
2716.0,0.004462596721059983
2715.0,0.004434434332472014
2714.0,0.0044079412111367065
2713.0,0.004377426022312173
2712.0,0.004342365139872166
2711.0,0.004306586090048304
2710.0,0.004274253173105042
2709.0,0.00424611004897583
2708.0,0.00421983736737465
2707.0,0.00419400301107169
2706.0,0.004168893625580715
2705.0,0.004142556125957873
2704.0,0.004110194141193101
2703.0,0.004070735211444441
2702.0,0.004031014257850272
2701.0,0.003999148055556291
2700.0,0.003975883180416618
2699.0,0.003956074477938728
2698.0,0.003936316846155971
2697.0,0.00391685935818883
2696.0,0.0038978538091286753
2695.0,0.0038786666201115066
2694.0,0.0038600445753161398
2693.0,0.003842822374307597
2692.0,0.0038254855085177774
2691.0,0.003806804761752957
2690.0,0.003789438634186813
2689.0,0.003776619002210687
2688.0,0.0037662613849568185
2687.0,0.003752958393032782
2686.0,0.0037352204592570677
2685.0,0.0037165453790228807
2684.0,0.003699735438768443
2683.0,0.003684140025288573
2682.0,0.003668480481776666
2681.0,0.003652679421242323
2680.0,0.0036370032011690326
2679.0,0.003622451611576334
2678.0,0.003611088700183557
2677.0,0.0036026699086530046
2676.0,0.0035922614604424665
2675.0,0.003575384241232267
2674.0,0.003554912266636604
2673.0,0.0035386802871077024
2672.0,0.003530440057441903
2671.0,0.0035268409778868026
2670.0,0.00352290285330762
2669.0,0.003516448910247644
2668.0,0.003507143157689372
2667.0,0.0034953663565910715
2666.0,0.0034830160673861225
2665.0,0.0034726285097640705
2664.0,0.003464876734179436
2663.0,0.003458761381365802
2662.0,0.00345370204319474
2661.0,0.0034491836361611595
2660.0,0.003443261658446479
2659.0,0.0034341012741245787
2658.0,0.0034225727270720363
2657.0,0.003410920041998424
2656.0,0.003399575470227001
2655.0,0.00338748780582438
2654.0,0.003374396845437882
2653.0,0.0033605878544973795
2652.0,0.0033458452102057786
2651.0,0.0033309189526144947
2650.0,0.0033181009138197664
2649.0,0.003307819660473078
2648.0,0.003296979891411132
2647.0,0.0032835667037273528
2646.0,0.003270513028948266
2645.0,0.0032620535610825858
2644.0,0.0032589162149769374
2643.0,0.0032598836226963484
2642.0,0.0032642563887474154
2641.0,0.00326896217712086
2640.0,0.0032675459503060033
2639.0,0.0032574770802886433
2638.0,0.00324482911621871
2637.0,0.0032361621205174683
2636.0,0.0032293359657005628
2635.0,0.0032179889727667033
2634.0,0.0032011835260524644
2633.0,0.0031815033720068555
2632.0,0.0031576739734613564
2631.0,0.003127763921291286
2630.0,0.0030970554114662934
2629.0,0.003073527256157544
2628.0,0.0030562804075858706
2627.0,0.003037215809843953
2626.0,0.003013583612994328
2625.0,0.0029902691360112477
2624.0,0.0029699185613827235
2623.0,0.0029497894352993746
2622.0,0.0029290989729707398
2621.0,0.0029102708231554543
2620.0,0.0028911982750238078
2619.0,0.002865463578143574
2618.0,0.002833749448741741
2617.0,0.0028074280485520724
2616.0,0.002796017184896445
2615.0,0.002795827849956113
2614.0,0.0027941251199512093
2613.0,0.002780608780586636
2612.0,0.0027536877905370715
2611.0,0.0027204354152064896
2610.0,0.0026925402999806577
2609.0,0.002677868880279387
2608.0,0.002673336056338854
2607.0,0.002668789489481102
2606.0,0.0026574762992150665
2605.0,0.0026393461245814574
2604.0,0.0026161780949309913
2603.0,0.0025895447330203758
2602.0,0.002563726445659875
2601.0,0.0025442071605674575
2600.0,0.002531290301351506
2599.0,0.002519673063750799
2598.0,0.0025054689293767846
2597.0,0.002489870140908483
2596.0,0.002475348876023158
2595.0,0.0024617463363795495
2594.0,0.0024469354493047097
2593.0,0.002429060373456519
2592.0,0.0024085302286360136
2591.0,0.0023891694728504086
2590.0,0.002374692346656903
2589.0,0.0023622449321174482
2588.0,0.0023440177834436944
2587.0,0.0023187557544687796
2586.0,0.0022959675865454198
2585.0,0.002283172570069173
2584.0,0.0022746599966498265
2583.0,0.00225995376953705
2582.0,0.00223857187906791
2581.0,0.002218045803626648
2580.0,0.0022010132451171335
2579.0,0.0021837390583770216
2578.0,0.0021651750559662504
2577.0,0.002148542720179881
2576.0,0.002134886380797274
2575.0,0.0021223492602491447
2574.0,0.0021104873084009396
2573.0,0.0020984532035642567
2572.0,0.0020815833689488057
2571.0,0.0020579465036111933
2570.0,0.0020359253215512314
2569.0,0.0020264878999308616
2568.0,0.0020289222449231385
2567.0,0.0020319962398333597
2566.0,0.0020282818382636185
2565.0,0.002019574546408673
2564.0,0.0020090647152081766
2563.0,0.0019964439360428184
2562.0,0.0019811295746042304
2561.0,0.0019639097642483823
2560.0,0.0019458206342574513
2559.0,0.0019303626780682649
2558.0,0.0019240201755077173
2557.0,0.0019280625188799203
2556.0,0.001932761772597639
2555.0,0.0019274347798555504
2554.0,0.0019141311458465557
2553.0,0.0019036947661211924
2552.0,0.0019006337218106623
2551.0,0.0019000175570094075
2550.0,0.001897058465839519
2549.0,0.001891190856483522
2548.0,0.0018816003826423134
2547.0,0.001866380983467342
2546.0,0.0018460271630014505
2545.0,0.0018222873828346608
2544.0,0.0017956783205741306
2543.0,0.0017697047007103777
2542.0,0.0017535229161329223
2541.0,0.0017524456429909795
2540.0,0.001758521277823666
2539.0,0.001758491157970299
2538.0,0.0017486726713895355
2537.0,0.001735135319885013
2536.0,0.0017233598719141826
2535.0,0.0017162075913991492
2534.0,0.001718533577730566
2533.0,0.001733556041943551
2532.0,0.0017551166809760654
2531.0,0.0017714587984406826
2530.0,0.0017761328953555377
2529.0,0.0017697564888437187
2528.0,0.0017546763139267999
2527.0,0.0017352423109284656
2526.0,0.0017201361956727876
2525.0,0.001715925710698347
2524.0,0.001719341654600282
2523.0,0.0017216952898125371
2522.0,0.0017181340506974975
2521.0,0.0017080233443682678
2520.0,0.001692182329503771
2519.0,0.0016760227625625922
2518.0,0.0016681629988287462
2517.0,0.0016674041663816473
2516.0,0.0016586124372149796
2515.0,0.0016325651684157717
2514.0,0.0016033737844338893
2513.0,0.0015933044554182548
2512.0,0.0016042496628837159
2511.0,0.0016166646531616893
2510.0,0.0016142335704569571
2509.0,0.0015981043237231218
2508.0,0.0015787105249599408
2507.0,0.0015648319397107765
2506.0,0.0015604432722218483
2505.0,0.0015630238480995554
2504.0,0.0015651074686189935
2503.0,0.0015639630511193627
2502.0,0.0015661565482767935
2501.0,0.0015754032660248408
2500.0,0.001582111883079891
2499.0,0.0015750044176926156
2498.0,0.0015573652775876753
2497.0,0.0015404281160388564
2496.0,0.001526089525418802
2495.0,0.0015094752048490266
2494.0,0.0014946593464975977
2493.0,0.0014924955183792101
2492.0,0.001502858103346788
2491.0,0.0015124465444689037
2490.0,0.0015117157449801655
2489.0,0.001503123501165412
2488.0,0.0014919279485290534
2487.0,0.0014791347820585095
2486.0,0.0014648901726300252
2485.0,0.0014506056949035138
2484.0,0.0014373594183447048
2483.0,0.0014283837009846595
2482.0,0.0014299137244772493
2481.0,0.0014415107683990224
2480.0,0.0014499362476827677
2479.0,0.0014431678373316057
2478.0,0.0014273184118873624
2477.0,0.0014186492809153584
2476.0,0.001421370809572427
2475.0,0.001424835993866105
2474.0,0.0014207248624277398
2473.0,0.0014108566153377845
2472.0,0.0013987571792584217
2471.0,0.0013855363232389384
2470.0,0.001374885688727934
2469.0,0.0013713592865431511
2468.0,0.0013720858248999462
2467.0,0.0013690115862704528
2466.0,0.0013603039575034912
2465.0,0.001352109549529504
2464.0,0.0013495254308857022
2463.0,0.001353042893692639
2462.0,0.0013622093681468581
2461.0,0.0013749292628651613
2460.0,0.001385081843370484
2459.0,0.001388772642535219
2458.0,0.0013907384473652578
2457.0,0.0013970521075265436
2456.0,0.0014047773608349041
2455.0,0.0014068482818735291
2454.0,0.001403075561283594
2453.0,0.001397276807028941
2452.0,0.0013880082082510909
2451.0,0.001372717616049883
2450.0,0.0013575026877354686
2449.0,0.0013516461571101194
2448.0,0.0013548804905606363
2447.0,0.0013600614201374449
2446.0,0.0013648398718826616
2445.0,0.001369933368151856
2444.0,0.001370123731465384
2443.0,0.0013595294230269147
2442.0,0.0013432070835672832
2441.0,0.0013313964097920825
2440.0,0.0013244079855370236
2439.0,0.00131512490734911
2438.0,0.0013041751416410438
2437.0,0.0012998784178656867
2436.0,0.0013042458715354416
2435.0,0.0013111996101502002
2434.0,0.0013179017906445466
2433.0,0.001326116482294817
2432.0,0.0013331642331045224
2431.0,0.0013335823393900294
2430.0,0.0013299493843771813
2429.0,0.001330875965266831
2428.0,0.001337667667642857
2427.0,0.0013426957681588684
2426.0,0.0013405922761418696
2425.0,0.001331940054753863
2424.0,0.0013178045419135278
2423.0,0.001300764742383974
2422.0,0.0012892488180534087
2421.0,0.0012897122837851765
2420.0,0.001296009036242957
2419.0,0.0012974214075325084
2418.0,0.0012950239460607874
2417.0,0.0012983239699265077
2416.0,0.0013076055114054428
2415.0,0.0013123983762792593
2414.0,0.0013075266158135528
2413.0,0.0012987420569201362
2412.0,0.0012916546769357932
2411.0,0.0012862171400591707
2410.0,0.0012831474852518768
2409.0,0.0012847338156388125
2408.0,0.0012872871371703784
2407.0,0.00128305081577096
2406.0,0.0012720267012661956
2405.0,0.0012630128462318639
2404.0,0.0012612347850788953
2403.0,0.0012629511834378695
2402.0,0.001263007949504932
2401.0,0.0012600230882347104
2400.0,0.0012536964263910543
2399.0,0.0012445271501596755
2398.0,0.0012369457897664843
2397.0,0.0012361311843387672
2396.0,0.0012411774504187774
2395.0,0.0012465342100777637
2394.0,0.0012486065794693748
2393.0,0.0012456743359747855
2392.0,0.001235217943036881
2391.0,0.0012186219318660416
2390.0,0.0012049553475118634
2389.0,0.001201594199640307
2388.0,0.001203289956138194
2387.0,0.0011987945723963623
2386.0,0.0011862322537971037
2385.0,0.0011735865428420097
2384.0,0.0011657607177732808
2383.0,0.0011594532395791607
2382.0,0.0011499385468533238
2381.0,0.0011357910511470073
2380.0,0.0011185254587425992
2379.0,0.001105235711110744
2378.0,0.001108025130661803
2377.0,0.0011283101716566954
2376.0,0.0011441626374185457
2375.0,0.0011301596341219697
2374.0,0.0010914255640139688
2373.0,0.0010600764610458062
2372.0,0.0010538259821893032
2371.0,0.0010583866920506285
2370.0,0.0010577121637024441
2369.0,0.0010578728596284518
2368.0,0.0010704955059208966
2367.0,0.0010952734653515246
2366.0,0.001128357068432019
2365.0,0.0011655593596838739
2364.0,0.0011912919172870151
2363.0,0.0011904543637434309
2362.0,0.0011730632349910113
2361.0,0.0011612909686422202
2360.0,0.0011560628489865096
2359.0,0.0011462815927700727
2358.0,0.0011414636533303294
2357.0,0.0011572163496813414
2356.0,0.0011805985241025837
2355.0,0.0011882126559298106
2354.0,0.001183921255307873
2353.0,0.0011857712371814687
2352.0,0.0011937849701840596
2351.0,0.0011984075545511768
2350.0,0.0012030265749016027
2349.0,0.0012165320171101982
2348.0,0.0012361620107145613
2347.0,0.0012494671807514132
2346.0,0.0012526139662793364
2345.0,0.0012567417647508406
2344.0,0.0012657734565101988
2343.0,0.0012704156268868664
2342.0,0.0012735469103449173
2341.0,0.001286769976367682
2340.0,0.0013022805414421759
2339.0,0.0013033717833701483
2338.0,0.0012978542101587348
2337.0,0.0013084455572063215
2336.0,0.0013347469918346705
2335.0,0.0013547245586674906
2334.0,0.0013580141629036555
2333.0,0.0013494092496750135
2332.0,0.0013287253214300343
2331.0,0.0012967529171680067
2330.0,0.001275728301387031
2329.0,0.001293861994127273
2328.0,0.0013520277114325197
2327.0,0.0014293745497004683
2326.0,0.0015110304694403982
2325.0,0.001586730101596044
2324.0,0.0016334853803177361
2323.0,0.001629924328718223
2322.0,0.0015893391116085123
2321.0,0.0015510293077411522
2320.0,0.0015361201119419737
2319.0,0.0015360012429436207
2318.0,0.0015396759919744135
2317.0,0.0015454216147748605
2316.0,0.0015472102606146835
2315.0,0.0015348967791653228
2314.0,0.0015112868798289538
2313.0,0.0014918894304181308
2312.0,0.0014841743688821121
2311.0,0.0014828896585107648
2310.0,0.0014853109946741836
2309.0,0.001494601872000284
2308.0,0.001507563544701668
2307.0,0.001514930521065961
2306.0,0.0015145471694184365
2305.0,0.0015117882783198166
2304.0,0.0015085031356928517
2303.0,0.001503558930804821
2302.0,0.0015015006952512236
2301.0,0.0015078260489112076
2300.0,0.0015185570622110415
2299.0,0.0015273051325678708
2298.0,0.0015386686056283933
2297.0,0.0015599534208138991
2296.0,0.0015838404946934355
2295.0,0.001596269603156143
2294.0,0.0015990482503296063
2293.0,0.0016071277955705592
2292.0,0.0016241873733594825
2291.0,0.0016384864127346398
2290.0,0.001643957722682941
2289.0,0.0016492406519724191
2288.0,0.0016632421334040325
2287.0,0.0016851596759776813
2286.0,0.0017096733556757461
2285.0,0.0017286495959142236
2284.0,0.0017297960314172397
2283.0,0.0017091544403302953
2282.0,0.0016835968584132087
2281.0,0.0016746867596397243
2280.0,0.001680767182638565
2279.0,0.0016824540018782173
2278.0,0.001673030360227358
2277.0,0.0016635150488273547
2276.0,0.0016594851617288907
2275.0,0.0016553559391421391
2274.0,0.0016516079259837062
2273.0,0.0016545354452573249
2272.0,0.0016579973544601173
2271.0,0.0016475257690266958
2270.0,0.0016233151749406962
2269.0,0.0015970792761520142
2268.0,0.001568255172185016
2267.0,0.0015294182766021182
2266.0,0.0014939516887588378
2265.0,0.0014885793499418917
2264.0,0.0015141167844664293
2263.0,0.0015416561736628486
2262.0,0.0015528737299697996
2261.0,0.001558010464537172
2260.0,0.0015692828360800465
2259.0,0.0015823135619935514
2258.0,0.001590282576874837
2257.0,0.0015920875956312737
2256.0,0.001580836909003143
2255.0,0.0015480399922900494
2254.0,0.0015050068698179823
2253.0,0.0014775125128707964
2252.0,0.001474407988220432
2251.0,0.0014825491435288348
2250.0,0.0014933947796779649
2249.0,0.0015099711755830077
2248.0,0.0015276137701676832
2247.0,0.001534771815170254
2246.0,0.0015352158990584435
2245.0,0.001543416196622153
2244.0,0.001555355292994727
2243.0,0.001551770180293596
2242.0,0.0015341380099664654
2241.0,0.0015283708336934414
2240.0,0.0015465926555073394
2239.0,0.0015711455384206838
2238.0,0.0015818455214591297
2237.0,0.0015753146245635744
2236.0,0.001554736737131198
2235.0,0.0015265540847777888
2234.0,0.001509449951246832
2233.0,0.0015195902453692136
2232.0,0.0015429405214560535
2231.0,0.0015492364712355981
2230.0,0.001535027626379048
2229.0,0.0015245435977680288
2228.0,0.0015284479372387658
2227.0,0.0015323546158681068
2226.0,0.0015286758401035268
2225.0,0.0015275651172390408
2224.0,0.0015319167398573676
2223.0,0.001531870388508962
2222.0,0.0015271434853640143
2221.0,0.0015259851637298765
2220.0,0.0015219134254070713
2219.0,0.0015034676751859378
2218.0,0.0014864745514433413
2217.0,0.001499839982194411
2216.0,0.0015378162618697529
2215.0,0.0015640875948051693
2214.0,0.0015661002147087278
2213.0,0.0015677193900742292
2212.0,0.0015827158919625816
2211.0,0.00159513125776163
2210.0,0.0015937667827388097
2209.0,0.0015879873152251254
2208.0,0.0015801376758106925
2207.0,0.001557807055342882
2206.0,0.0015241421900010666
2205.0,0.0015025229765368508
2204.0,0.001501278237894795
2203.0,0.0015060751612148077
2202.0,0.0015127022682135192
2201.0,0.001532174307758144
2200.0,0.0015579787351876178
2199.0,0.0015654736565393844
2198.0,0.001553005375300798
2197.0,0.0015483269909327651
2196.0,0.0015640780029144363
2195.0,0.0015801634232888379
2194.0,0.0015795318578853963
2193.0,0.0015699626173324454
2192.0,0.0015629820692435958
2191.0,0.0015616555345304708
2190.0,0.0015739500635737751
2189.0,0.001604772616749777
2188.0,0.0016316296366145956
2187.0,0.0016240009892808755
2186.0,0.001590247629031477
2185.0,0.0015692907300764419
2184.0,0.0015713219206264179
2183.0,0.0015661742543325269
2182.0,0.0015374652678591396
2181.0,0.001507763204131242
2180.0,0.0014999337353404029
2179.0,0.001509219822475835
2178.0,0.001521204460672533
2177.0,0.0015245025266043418
2176.0,0.0015049489940569582
2175.0,0.0014615178491377803
2174.0,0.0014269977942321856
2173.0,0.001439084350469691
2172.0,0.0014936428667142172
2171.0,0.0015579505227071083
2170.0,0.0016171106641778004
2169.0,0.0016704328956959726
2168.0,0.0016991964465609443
2167.0,0.0016841520523074064
2166.0,0.0016495306680234698
2165.0,0.0016447194740433493
2164.0,0.0016838503757660276
2163.0,0.0017442762729589223
2162.0,0.0018053216968937091
2161.0,0.0018315252587538407
2160.0,0.0017452624968999524
2159.0,0.001508121929843647
2158.0,0.001223801241065584
2157.0,0.0010536372425173776
2156.0,0.0010337966898262062
2155.0,0.0010749185089944417
2154.0,0.0011092339078762948
2153.0,0.0011441635485282418
2152.0,0.0011966559181522591
2151.0,0.0012528535776405155
2150.0,0.0012958236703993506
2149.0,0.0013199379400922605
2148.0,0.0013146589572256835
2147.0,0.0012762786110345253
2146.0,0.0012315981549057638
2145.0,0.0012098940510089664
2144.0,0.001200769889290398
2143.0,0.0011802906132461436
2142.0,0.0011626288357802412
2141.0,0.0011792101909899662
2140.0,0.0012204948882120255
2139.0,0.001246867194783129
2138.0,0.001245464932804402
2137.0,0.001229119077571012
2136.0,0.0011922778552205075
2135.0,0.0011211142070258757
2134.0,0.0010413858843086631
2133.0,0.0010036504020614425
2132.0,0.0010206670185964883
2131.0,0.0010621305188135849
2130.0,0.0011060915217274865
2129.0,0.001153800449116558
2128.0,0.0012002704318024092
2127.0,0.0012306460274051217
2126.0,0.0012459713158231487
2125.0,0.00125964259540129
2124.0,0.0012698643920743416
2123.0,0.001266783367859596
2122.0,0.001262024069265081
2121.0,0.0012768034521645631
2120.0,0.0013035928552459404
2119.0,0.0013155262966218638
2118.0,0.001312203009032642
2117.0,0.001320425060751802
2116.0,0.0013484375683362672
2115.0,0.001375396720402216
2114.0,0.0013903982525913761
2113.0,0.0014064389673736609
2112.0,0.0014288027629062038
2111.0,0.0014422748673012706
2110.0,0.0014385062997016973
2109.0,0.0014278494179574637
2108.0,0.001417411001371697
2107.0,0.0014037439067341882
2106.0,0.0013903942080011173
2105.0,0.001385369798248808
2104.0,0.0013806456954073504
2103.0,0.0013634758060409105
2102.0,0.0013470436891103016
2101.0,0.0013569950563916736
2100.0,0.0013871677201624064
2099.0,0.0014021792644616294
2098.0,0.001384732167236936
2097.0,0.0013487944490796914
2096.0,0.0013075758883161189
2095.0,0.001264791372292469
2094.0,0.001236856188008356
2093.0,0.0012426525873819303
2092.0,0.0012688482025956399
2091.0,0.0012832375564451322
2090.0,0.0012854616388808407
2089.0,0.0013071954855528713
2088.0,0.0013566404523770086
2087.0,0.0014014001582839607
2086.0,0.0014141475743338142
2085.0,0.0014008122232637538
2084.0,0.0013777547083427203
2083.0,0.0013532342754164544
2082.0,0.001338693549683682
2081.0,0.0013458450481413909
2080.0,0.0013629188193131992
2079.0,0.0013645382585535718
2078.0,0.0013508381400510407
2077.0,0.0013463727065855663
2076.0,0.0013577349013195472
2075.0,0.0013658181206457438
2074.0,0.0013631494324308638
2073.0,0.0013612393152696487
2072.0,0.0013582300544935895
2071.0,0.0013384060995877789
2070.0,0.0013088045555587806
2069.0,0.0012976990006307893
2068.0,0.0013091350661651418
2067.0,0.0013164175918601512
2066.0,0.0013060731284993173
2065.0,0.0012917832413040214
2064.0,0.0012805130186330734
2063.0,0.0012644441432231874
2062.0,0.0012498192200645789
2061.0,0.001251712599611587
2060.0,0.0012604194661469277
2059.0,0.001255251493672151
2058.0,0.0012489230787932912
2057.0,0.0012713066980659259
2056.0,0.0013114558569808942
2055.0,0.0013292044411359874
2054.0,0.0013276076749545636
2053.0,0.0013552716607016587
2052.0,0.0014266605122150572
2051.0,0.001494883060094871
2050.0,0.0015155006773840112
2049.0,0.0014906423489429224
2048.0,0.0014387976721723704
2047.0,0.0013711596561156846
2046.0,0.0013145856294182123
2045.0,0.0013011628541590298
2044.0,0.0013148462352055629
2043.0,0.0013049894977744522
2042.0,0.0012671221368028025
2041.0,0.0012529243346600287
2040.0,0.0012846992938586818
2039.0,0.0013253496699285382
2038.0,0.0013474706842805542
2037.0,0.0013602715098124426
2036.0,0.0013613421168269465
2035.0,0.0013330534831257359
2034.0,0.001296827494887771
2033.0,0.0012957925883825007
2032.0,0.0013099841937270584
2031.0,0.001273536607018599
2030.0,0.0011885648306468267
2029.0,0.0011370502529207515
2028.0,0.001163092702685754
2027.0,0.0012235226785670668
2026.0,0.0012731505857186914
2025.0,0.0013130073107858338
2024.0,0.0013385473960629108
2023.0,0.0013258575088418638
2022.0,0.0012884234887646615
2021.0,0.0012721057710945133
2020.0,0.0012765389130732668
2019.0,0.0012541517243385993
2018.0,0.0012030069991525365
2017.0,0.001183050246296873
2016.0,0.0012127647259530883
2015.0,0.001237836646059331
2014.0,0.0012253287253877123
2013.0,0.0011999793490440672
2012.0,0.001177772438600497
2011.0,0.001140017569579825
2010.0,0.001087076883225708
2009.0,0.0010478465321512147
2008.0,0.0010195391834323957
2007.0,0.0009700144834367585
2006.0,0.0009121281087149095
2005.0,0.0008969104284842097
2004.0,0.0009235547101729662
2003.0,0.0009367827064743827
2002.0,0.0009181854307476267
2001.0,0.000907026022408049
2000.0,0.0009222818733329169
1999.0,0.0009360380079945903
1998.0,0.0009370335257261876
1997.0,0.0009478184652609651
1996.0,0.0009653705610476642
1995.0,0.0009526736539549051
1994.0,0.0009042291376631902
1993.0,0.0008650965100944032
1992.0,0.0008626683886129339
1991.0,0.0008744875836673913
1990.0,0.0008905115913072539
1989.0,0.0009325487842639613
1988.0,0.0009931236645682124
1987.0,0.0010284007333846714
1986.0,0.001024805882568112
1985.0,0.0010108346728867693
1984.0,0.0009965092110333416
1983.0,0.0009698910865528584
1982.0,0.000956042212255687
1981.0,0.0009993356124100687
1980.0,0.0010695917243753435
1979.0,0.0010690303108598714
1978.0,0.0009672198289841515
1977.0,0.0008505845354567944
1976.0,0.0007964943237379363
1975.0,0.0007867489386557404
1974.0,0.0007835463401221549
1973.0,0.0007880489298285329
1972.0,0.0007911079792600375
1971.0,0.0007611144370073295
1970.0,0.0007103902524979111
1969.0,0.0006973237044689467
1968.0,0.0007341205806219315
1967.0,0.0007599432995930712
1966.0,0.0007437497866652218
1965.0,0.0007284797343671931
1964.0,0.0007390691080706936
1963.0,0.000741251305194319
1962.0,0.0007086047369800009
1961.0,0.000658465979485314
1960.0,0.0006060522421781589
1959.0,0.0005462394162747937
1958.0,0.0004989842433609176
1957.0,0.0005052149944084313
1956.0,0.0005596016846201256
1955.0,0.0006062044004467143
1954.0,0.0006164458422490165
1953.0,0.0006146941093672901
1952.0,0.0006174707053405332
1951.0,0.0006084085174427331
1950.0,0.0005856520165235901
1949.0,0.0005776581025191899
1948.0,0.0005935629224388781
1947.0,0.0006078385143650986
1946.0,0.0006087250720012885
1945.0,0.0006130494285179148
1944.0,0.000621026075245205
1943.0,0.0006064329608473766
1942.0,0.0005736762563754113
1941.0,0.000562169959651445
1940.0,0.0005769453249927009
1939.0,0.0005855490520405707
1938.0,0.0005777164670878253
1937.0,0.000573323223962552
1936.0,0.000575303662305941
1935.0,0.0005615809076357523
1934.0,0.0005345600623101685
1933.0,0.0005271410441014667
1932.0,0.0005465854399082393
1931.0,0.0005601416544908695
1930.0,0.0005495003533296281
1929.0,0.0005361040405979633
1928.0,0.0005366981038444665
1927.0,0.0005413250317853116
1926.0,0.0005436826659003088
1925.0,0.0005540193678788427
1924.0,0.0005690422709181966
1923.0,0.0005634520541779111
1922.0,0.0005380492271274139
1921.0,0.0005261740266273901
1920.0,0.000536716000622386
1919.0,0.0005410810269277177
1918.0,0.0005223985727096246
1917.0,0.0005022819130872301
1916.0,0.0004994453684703065
1915.0,0.0005050586463225872
1914.0,0.0005132564694487779
1913.0,0.000529713754438747
1912.0,0.0005483090337188607
1911.0,0.0005504122184367416
1910.0,0.0005373523117722506
1909.0,0.0005341555274530968
1908.0,0.0005470650094752114
1907.0,0.0005584942437815319
1906.0,0.0005642641719719988
1905.0,0.000576769822456506
1904.0,0.0005928626745510871
1903.0,0.0005932962623143849
1902.0,0.0005803897885446749
1901.0,0.0005775956729253029
1900.0,0.0005856396172297082
1899.0,0.0005807667591316819
1898.0,0.0005578345479592479
1897.0,0.0005389004905205949
1896.0,0.0005348209341007287
1895.0,0.0005304356398054866
1894.0,0.0005219801734714769
1893.0,0.0005257969009128706
1892.0,0.0005410044232814408
1891.0,0.0005441409195562003
1890.0,0.0005284426336233186
1889.0,0.0005174078341453117
1888.0,0.0005215194006384727
1887.0,0.0005235877569333685
1886.0,0.0005171061266259777
1885.0,0.0005147071901786635
1884.0,0.0005180998377554515
1883.0,0.0005135044152872404
1882.0,0.000503253731354103
1881.0,0.0005068265927498267
1880.0,0.0005225838801271855
1879.0,0.0005269030175308776
1878.0,0.0005158383733794716
1877.0,0.000511658647546571
1876.0,0.0005230067012858443
1875.0,0.0005313914240702542
1874.0,0.0005257820051224441
1873.0,0.0005179041896579263
1872.0,0.000515332740591489
1871.0,0.0005078584759652059
1870.0,0.0004896508864495849
1869.0,0.0004693665431204933
1868.0,0.0004445177281982483
1867.0,0.00041097693300877085
1866.0,0.00039323269552727643
1865.0,0.0004132413838218348
1864.0,0.0004529190079627945
1863.0,0.0004753751093067564
1862.0,0.0004728560517094056
1861.0,0.0004711371479219082
1860.0,0.0004817379449612006
1859.0,0.00048706017229092403
1858.0,0.00048041593328645483
1857.0,0.000479050373099942
1856.0,0.00048792549911668966
1855.0,0.0004897054926557918
1854.0,0.0004792511105123682
1853.0,0.0004752255687273639
1852.0,0.0004842680360297757
1851.0,0.0004912121396224635
1850.0,0.0004902070531246571
1849.0,0.0004907261889036241
1848.0,0.0004911122574732146
1847.0,0.0004761815983688771
1846.0,0.00044902213598185196
1845.0,0.00043662492774568966
1844.0,0.0004395935359117118
1843.0,0.0004277349864597421
1842.0,0.0004088192392334355
1841.0,0.00041511555083276414
1840.0,0.0004432397383348219
1839.0,0.00046357693472765205
1838.0,0.00046333607105216194
1837.0,0.0004608666920195204
1836.0,0.00046758528164220377
1835.0,0.0004687441045063695
1834.0,0.00045843344027368774
1833.0,0.0004519340069908453
1832.0,0.00045504143072890935
1831.0,0.00045017981886019996
1830.0,0.00042548905896926825
1829.0,0.0004018563959082191
1828.0,0.0003995099726049992
1827.0,0.00040924813612515696
1826.0,0.0004228238764050564
1825.0,0.00044602412410544017
1824.0,0.00047062404112287556
1823.0,0.0004772356131178131
1822.0,0.0004697292207429226
1821.0,0.0004664671038474453
1820.0,0.00046743368428402014
1819.0,0.0004576903110089711
1818.0,0.00043797474117483986
1817.0,0.0004283277963929673
1816.0,0.0004325686369263188
1815.0,0.0004325751330718257
1814.0,0.00042588768283156696
1813.0,0.00042917468742026795
1812.0,0.000443013485893444
1811.0,0.00044292799431507567
1810.0,0.0004229294257050603
1809.0,0.0004114825090431186
1808.0,0.00042020888191151684
1807.0,0.00042873776126620003
1806.0,0.00042747021902942226
1805.0,0.0004312089879977715
1804.0,0.0004478729778419111
1803.0,0.00046160598094203487
1802.0,0.0004619331378808774
1801.0,0.000458666021245453
1800.0,0.00045556710224969947
1799.0,0.00044412051816846657
1798.0,0.0004312848247461299
1797.0,0.0004356638799413625
1796.0,0.0004507848406722579
1795.0,0.00044896320513293736
1794.0,0.00042468652600669265
1793.0,0.0004090079648314973
1792.0,0.0004140707661407692
1791.0,0.00041107581265517666
1790.0,0.00040151283625125783
1789.0,0.00041458614095635584
1788.0,0.00044772884431111255
1787.0,0.00047316873266450534
1786.0,0.00047609120780432664
1785.0,0.0004693620299052769
1784.0,0.0004637728473375194
1783.0,0.00045062375474456766
1782.0,0.0004343716296942507
1781.0,0.00043516141188947944
1780.0,0.00045164302071840453
1779.0,0.0004596787856245592
1778.0,0.0004546576656864698
1777.0,0.00045641664182166105
1776.0,0.00046499353594397515
1775.0,0.00045857252521809127
1774.0,0.00043252497251818056
1773.0,0.0004178266065928246
1772.0,0.000420496534516106
1771.0,0.00041125974468393293
1770.0,0.00040981493209431616
1769.0,0.0004569039865260192
1768.0,0.0005374600271823366
1767.0,0.0005939333149795928
1766.0,0.0006067846185437456
1765.0,0.0006136416941421889
1764.0,0.0006439696107221346
1763.0,0.0006868058443918989
1762.0,0.0007236390172743695
1761.0,0.0007646001343602548
1760.0,0.000825288949869552
1759.0,0.0008974970288632483
1758.0,0.0009783094730470238
1757.0,0.0010823997665521915
1756.0,0.0011938371333740185
1755.0,0.0012764629704925228
1754.0,0.0013384915266439988
1753.0,0.0014256520048554332
1752.0,0.0015646833127081405
1751.0,0.0017195174945437088
1750.0,0.0018454745623673573
1749.0,0.001981414558849876
1748.0,0.002154370043994766
1747.0,0.002310391468913873
1746.0,0.002428024512686607
1745.0,0.0025477700117600343
1744.0,0.0026858198986473942
1743.0,0.0028013934567056417
1742.0,0.0028769047796634722
1741.0,0.002965191726265487
1740.0,0.003094455335790462
1739.0,0.0031967399409425987
1738.0,0.0032260192656201406
1737.0,0.00323394352551115
1736.0,0.0032727044500833902
1735.0,0.003344527319321056
1734.0,0.003409199628632891
1733.0,0.0034561407062580754
1732.0,0.003525805840738483
1731.0,0.0036167232152618045
1730.0,0.0037083217723572616
1729.0,0.0038084520386540976
1728.0,0.003911486872139605
1727.0,0.003993811093711894
1726.0,0.0040590411189977
1725.0,0.00413892226497596
1724.0,0.004239377578305802
1723.0,0.004313717345208925
1722.0,0.00433487699796945
1721.0,0.0043410048274794225
1720.0,0.004373361866791338
1719.0,0.004429789599441784
1718.0,0.004498375618919447
1717.0,0.004612106098626949
1716.0,0.004776380322396318
1715.0,0.004931688711392386
1714.0,0.0050637389034035255
1713.0,0.00521112799299759
1712.0,0.005382293308381346
1711.0,0.005545091313229502
1710.0,0.005681633410107539
1709.0,0.005813478291603236
1708.0,0.005965733681121035
1707.0,0.006145655887588387
1706.0,0.00636273989266051
1705.0,0.006615591746353997
1704.0,0.006839126230134497
1703.0,0.0069991874352312005
1702.0,0.007158210597901661
1701.0,0.007531383580626513
1700.0,0.008129070247873424
1699.0,0.008574859510431142
1698.0,0.008834503435558142
1697.0,0.009258546201497827
1696.0,0.00994731998851994
1695.0,0.010583926592871459
1694.0,0.010984492717013322
1693.0,0.011308160878076241
1692.0,0.011682160565599458
1691.0,0.012129422694227218
1690.0,0.012625603880722881
1689.0,0.013137405197321247
1688.0,0.013573971227478169
1687.0,0.013899182444989203
1686.0,0.014183632007537972
1685.0,0.014782292070327073
1684.0,0.015783219439135503
1683.0,0.016546336318406612
1682.0,0.01697278279098892
1681.0,0.01742830306731135
1680.0,0.017964659729699326
1679.0,0.018456547722034672
1678.0,0.01883226314191513
1677.0,0.019223444187474778
1676.0,0.019808131904604738
1675.0,0.02051182047415217
1674.0,0.021055711456247614
1673.0,0.021417703599710857
1672.0,0.02179107629669635
1671.0,0.022316386634278828
1670.0,0.023034932737169066
1669.0,0.02381391224622714
1668.0,0.024456949368764268
1667.0,0.02490968970630505
1666.0,0.025250125535625476
1665.0,0.025612697746837783
1664.0,0.026143148649902602
1663.0,0.0268519136808586
1662.0,0.027536446394512942
1661.0,0.028066267567528155
1660.0,0.028512400724788653
1659.0,0.028912961036755506
1658.0,0.029244608784781023
1657.0,0.02947663280994746
1656.0,0.029651058362911913
1655.0,0.029815958910304714
1654.0,0.030187302972320595
1653.0,0.030772585089024806
1652.0,0.03109502537614051
1651.0,0.03114151659842562
1650.0,0.031129422454724998
1649.0,0.031123625466169064
1648.0,0.031229008607023698
1647.0,0.031393807940766315
1646.0,0.031435610602667745
1645.0,0.031389665129621096
1644.0,0.031383590681627264
1643.0,0.031390922123564646
1642.0,0.03136490354962371
1641.0,0.03130450134831343
1640.0,0.03123082011878189
1639.0,0.031139740298757407
1638.0,0.031003267546150987
1637.0,0.030821884208453797
1636.0,0.03060570815977745
1635.0,0.03034731696207554
1634.0,0.030080992588040742
1633.0,0.02984989484496967
1632.0,0.029639341240527178
1631.0,0.02939582761168604
1630.0,0.02906571968982169
1629.0,0.02863590216791575
1628.0,0.028152690905514897
1627.0,0.02768077694238782
1626.0,0.027235634863699478
1625.0,0.02677409038242713
1624.0,0.026228930031042676
1623.0,0.025596699042403272
1622.0,0.024996812071646408
1621.0,0.02452293899289735
1620.0,0.02413804858707382
1619.0,0.023747630100654282
1618.0,0.02323253897474994
1617.0,0.022521207187349474
1616.0,0.021773542728859143
1615.0,0.021206646691590045
1614.0,0.020799470146900763
1613.0,0.02042821420674626
1612.0,0.020022152956565568
1611.0,0.019568469134121823
1610.0,0.01908855018402303
1609.0,0.0185997147791755
1608.0,0.018118975189921175
1607.0,0.017672416504764588
1606.0,0.0172741546081024
1605.0,0.016903665579191453
1604.0,0.016532258161197088
1603.0,0.01615958416114475
1602.0,0.015802914367527118
1601.0,0.015468423734436399
1600.0,0.015154763517874521
1599.0,0.01486818152546167
1598.0,0.014608204147714068
1597.0,0.014352704924962894
1596.0,0.014082282558213829
1595.0,0.013810235084173441
1594.0,0.013563753231012903
1593.0,0.013344759952755114
1592.0,0.013139444302810903
1591.0,0.012949078383283035
1590.0,0.012780574575117002
1589.0,0.01262405721898505
1588.0,0.012469070062950787
1587.0,0.012328069449061198
1586.0,0.012215145631546243
1585.0,0.012119941784458424
1584.0,0.012025107961164773
1583.0,0.01193892215707098
1582.0,0.01187615912814312
1581.0,0.011821758110585777
1580.0,0.011752898348612487
1579.0,0.01167711088119359
1578.0,0.011624155111596262
1577.0,0.011606039065956811
1576.0,0.011594397209568617
1575.0,0.011588744197456353
1574.0,0.011620745597558197
1573.0,0.011674262547564759
1572.0,0.011718871538591115
1571.0,0.011771592321447746
1570.0,0.011869752159981142
1569.0,0.011979474298903454
1568.0,0.012053079935119912
1567.0,0.012128681167062701
1566.0,0.012255743876148745
1565.0,0.01241033335476048
1564.0,0.012542184000861557
1563.0,0.012602317895728564
1562.0,0.01262238636462181
1561.0,0.012610568735839968
1560.0,0.01270295039472069
1559.0,0.013113148956780993
1558.0,0.013514043980063884
1557.0,0.01370201444554862
1556.0,0.013883210966446452
1555.0,0.014108836895591068
1554.0,0.01434693575278299
1553.0,0.014537833218823114
1552.0,0.014669177225374745
1551.0,0.01478584846920744
1550.0,0.014896176596614952
1549.0,0.014966076503748833
1548.0,0.014974547403148302
1547.0,0.01494687316385561
1546.0,0.01490934877744405
1545.0,0.01485536008226915
1544.0,0.014756331190380785
1543.0,0.014601463787737834
1542.0,0.014416329820051555
1541.0,0.014186739906422104
1540.0,0.013877298438353908
1539.0,0.013620840176548457
1538.0,0.013517825719199966
1537.0,0.013487835596575709
1536.0,0.01344785264736785
1535.0,0.013341788462420697
1534.0,0.01312804003362107
1533.0,0.012844288561459569
1532.0,0.012600730905783532
1531.0,0.012432183190622616
1530.0,0.012290779173450237
1529.0,0.012133257312349717
1528.0,0.011932766715819698
1527.0,0.011682840310660773
1526.0,0.011415764879754363
1525.0,0.011178857106339715
1524.0,0.010974405848911887
1523.0,0.010757502503366548
1522.0,0.010488524008223482
1521.0,0.010224670370623053
1520.0,0.010050221341026223
1519.0,0.00993544030593777
1518.0,0.009802438578367979
1517.0,0.009596123575870141
1516.0,0.009329271154265396
1515.0,0.009068192532399846
1514.0,0.008833810678343948
1513.0,0.008609247859865504
1512.0,0.008368756922986047
1511.0,0.0081114894647336
1510.0,0.007849617983888406
1509.0,0.007601194186960205
1508.0,0.007279315723429876
1507.0,0.006721891904430888
1506.0,0.00621576187840886
1505.0,0.006036336519845569
1504.0,0.006005002259768714
1503.0,0.005974024256980173
1502.0,0.005903781707796346
1501.0,0.005795825901959398
1500.0,0.005664198660235082
1499.0,0.005498532559542787
1498.0,0.005304761866717198
1497.0,0.005128168202913665
1496.0,0.004999009242839555
1495.0,0.004891129766221869
1494.0,0.004797622023822796
1493.0,0.004732049023061606
1492.0,0.004677188320544514
1491.0,0.004581840902940427
1490.0,0.0044421426601366125
1489.0,0.0043427109049431105
1488.0,0.004305789096211579
1487.0,0.004275331019708661
1486.0,0.004250465010513998
1485.0,0.004263918100133207
1484.0,0.004307163678485334
1483.0,0.004357884976563273
1482.0,0.0044362271805623915
1481.0,0.004578346167811937
1480.0,0.0047728712649488594
1479.0,0.005020782337264811
1478.0,0.005462170079538269
1477.0,0.006314800842139782
1476.0,0.007679328717466475
1475.0,0.009451044979072912
1474.0,0.011577516156012862
1473.0,0.01371699876146775
1472.0,0.014958325463554962
1471.0,0.015222655876271184
1470.0,0.015282154428525097
1469.0,0.015482931337374127
1468.0,0.0158160624525782
1467.0,0.016309529498706888
1466.0,0.017184945476568753
1465.0,0.018482989515872746
1464.0,0.019538939946081364
1463.0,0.019721186003696056
1462.0,0.01912847503979987
1461.0,0.018092577768215646
1460.0,0.016842324419056868
1459.0,0.015557621495370528
1458.0,0.0144251417549944
1457.0,0.01360399058822181
1456.0,0.013073557682766308
1455.0,0.012688935339542169
1454.0,0.01233705719187043
1453.0,0.011952870254660486
1452.0,0.01154088064888587
1451.0,0.011161928725458172
1450.0,0.010849194740418825
1449.0,0.010581565997034173
1448.0,0.010341447891176862
1447.0,0.010145237424855872
1446.0,0.009998365778062474
1445.0,0.009874600159982698
1444.0,0.009754790738386889
1443.0,0.00964035382307512
1442.0,0.009527939259230803
1441.0,0.00940576312025545
1440.0,0.009275006107890244
1439.0,0.009151204222604256
1438.0,0.009037800815003183
1437.0,0.008908893633183682
1436.0,0.008750630490479864
1435.0,0.00860052305406194
1434.0,0.008481424204276626
1433.0,0.008372198171284003
1432.0,0.008253675440386916
1431.0,0.008128241604822652
1430.0,0.008005223193028238
1429.0,0.007888636497891748
1428.0,0.007786120180959463
1427.0,0.0077036683608472855
1426.0,0.00763813761835822
1425.0,0.007579946739110432
1424.0,0.0075236804491502505
1423.0,0.007471108582425789
1422.0,0.0074222806000091455
1421.0,0.007374762909838158
1420.0,0.007334701476884381
1419.0,0.007309950858380232
1418.0,0.0072900249410944255
1417.0,0.007269084542785486
1416.0,0.007254176175962535
1415.0,0.007241573515502851
1414.0,0.00721930076412067
1413.0,0.007178590967148928
1412.0,0.007120650002134908
1411.0,0.007052369442526296
1410.0,0.006975198702838237
1409.0,0.00688606015444364
1408.0,0.006785854246702851
1407.0,0.006676651039164449
1406.0,0.006554985600937534
1405.0,0.0064137977204543305
1404.0,0.006262217264082972
1403.0,0.006122992452404737
1402.0,0.0059982239452707
1401.0,0.005867842314113679
1400.0,0.005716393116746922
1399.0,0.005553866584552589
1398.0,0.0054022804323202445
1397.0,0.0052648377484068
1396.0,0.005132257426856876
1395.0,0.005004185139414339
1394.0,0.004887993981776473
1393.0,0.0047874427946263615
1392.0,0.00470457562941285
1391.0,0.004638944702832482
1390.0,0.004581903944333315
1389.0,0.0045234189762590575
1388.0,0.004467100454377229
1387.0,0.004425503949129457
1386.0,0.004399975527131824
1385.0,0.00438791965559298
1384.0,0.004399850325238032
1383.0,0.004449714823510711
1382.0,0.004534896934070362
1381.0,0.004637546212619255
1380.0,0.004737311999275351
1379.0,0.00480770576457219
1378.0,0.004815343680124823
1377.0,0.0047439083153950025
1376.0,0.0046085309890288575
1375.0,0.0044455626031908
1374.0,0.004298777759053322
1373.0,0.004198066209776078
1372.0,0.004144935862783565
1371.0,0.0041207495083264035
1370.0,0.004098346618589885
1369.0,0.004050213201492253
1368.0,0.003967273523673395
1367.0,0.003863966000963641
1366.0,0.003752853374417533
1365.0,0.003631413486299372
1364.0,0.003496258658827804
1363.0,0.0033574366914857347
1362.0,0.0032325723282554944
1361.0,0.003131721784880656
1360.0,0.0030565198759940322
1359.0,0.0030042960474936753
1358.0,0.0029669445774698168
1357.0,0.002935241866427817
1356.0,0.0029083695519250344
1355.0,0.0028911305589499154
1354.0,0.0028800952685441358
1353.0,0.0028646377278097957
1352.0,0.0028422534767095706
1351.0,0.0028175998688264163
1350.0,0.0027898369218298325
1349.0,0.00275196604131779
1348.0,0.0027050141607697416
1347.0,0.002658802801695275
1346.0,0.0026166878997780523
1345.0,0.002573693116556455
1344.0,0.0025292205517820714
1343.0,0.0024890995898896756
1342.0,0.002453848558625531
1341.0,0.0024148607578058207
1340.0,0.0023649706179429872
1339.0,0.0023075544331101583
1338.0,0.0022495531220326323
1337.0,0.0021933203549877158
1336.0,0.002141498873371418
1335.0,0.0020986346967482557
1334.0,0.0020650190339256487
1333.0,0.002037572073425406
1332.0,0.002017058575111794
1331.0,0.002006541566095984
1330.0,0.0020035390889941644
1329.0,0.002003113212406925
1328.0,0.002008103135581744
1327.0,0.0020253636198445486
1326.0,0.002052910099940645
1325.0,0.002080775990298346
1324.0,0.002104293076170911
1323.0,0.0021264754093101644
1322.0,0.0021483020013759006
1321.0,0.0021676468176442774
1320.0,0.0021874036074590207
1319.0,0.002213459570166789
1318.0,0.002242904827471928
1317.0,0.0022664802091869273
1316.0,0.0022830016710491674
1315.0,0.0022995153987964106
1314.0,0.0023186758229658227
1313.0,0.0023356141031323978
1312.0,0.002347671596379617
1311.0,0.0023578609579341407
1310.0,0.002367314391027445
1309.0,0.0023734192690316766
1308.0,0.002376132999809237
1307.0,0.0023779754693252723
1306.0,0.002377694382434696
1305.0,0.002371293535977835
1304.0,0.002360093734825174
1303.0,0.0023502528925841122
1302.0,0.0023438018103578333
1301.0,0.002337290636386565
1300.0,0.002329488096153258
1299.0,0.002323305240942978
1298.0,0.0023193456729650704
1297.0,0.0023144158925123086
1296.0,0.0023072933968730633
1295.0,0.002300191770204148
1294.0,0.002294388826487951
1293.0,0.0022901957457328323
1292.0,0.0022905580503170455
1291.0,0.0022983629419787996
1290.0,0.002310786774195418
1289.0,0.002322490381381362
1288.0,0.0023337933737922643
1287.0,0.0023494051182318034
1286.0,0.0023702757221758363
1285.0,0.0023938039413735077
1284.0,0.0024206192562318757
1283.0,0.0024537799906052893
1282.0,0.002492034793563295
1281.0,0.00253061364621686
1280.0,0.002568500527969917
1279.0,0.002609151617062727
1278.0,0.002654489910989606
1277.0,0.00270385929920928
1276.0,0.00275778568360136
1275.0,0.002817095094148473
1274.0,0.002879527296986565
1273.0,0.0029429028097837633
1272.0,0.0030108360871211725
1271.0,0.0030896818325059352
1270.0,0.003180215959257401
1269.0,0.003277654708941125
1268.0,0.0033786970553377114
1267.0,0.003483223633280822
1266.0,0.003590752827256993
1265.0,0.0037001733052771995
1264.0,0.003811395168208524
1263.0,0.003922911965804381
1262.0,0.00402905314497596
1261.0,0.004123308884615769
1260.0,0.004203392825067082
1259.0,0.0042710693740516765
1258.0,0.004329640480352401
1257.0,0.004384775754228049
1256.0,0.004445020446825376
1255.0,0.004516723997710572
1254.0,0.004598636781696691
1253.0,0.004684492067322692
1252.0,0.004770261027910181
1251.0,0.00485676449647081
1250.0,0.004946894037945945
1249.0,0.005042533478960812
1248.0,0.0051428047505451555
1247.0,0.005243670517482425
1246.0,0.005340559537823043
1245.0,0.005432221056666356
1244.0,0.005520294247120273
1243.0,0.00560519665576337
1242.0,0.005685016016899917
1241.0,0.005758287638018073
1240.0,0.00582512416813569
1239.0,0.005885973996518723
1238.0,0.005941887278501283
1237.0,0.00599500901407974
1236.0,0.00604559207863676
1235.0,0.006089389561608064
1234.0,0.006121715089148348
1233.0,0.006143820534952382
1232.0,0.0061618421785013386
1231.0,0.006179672729122154
1230.0,0.006195954156128038
1229.0,0.0062078552796414254
1228.0,0.006214631696230037
1227.0,0.006217222243570622
1226.0,0.006217106605665146
1225.0,0.006215972934664289
1224.0,0.006214380823531687
1223.0,0.006210442662059218
1222.0,0.0062015262772288846
1221.0,0.006187513689541736
1220.0,0.006171422422984207
1219.0,0.006157185974278094
1218.0,0.006147374380031854
1217.0,0.006141978525366975
1216.0,0.006138422711586553
1215.0,0.006134032670618709
1214.0,0.006130046687183671
1213.0,0.006132221093373308
1212.0,0.006146023914725723
1211.0,0.006172057706609904
1210.0,0.00620715715118723
1209.0,0.00624781596211372
1208.0,0.006290186549955673
1207.0,0.00632880318026212
1206.0,0.006358572631104802
1205.0,0.006377040207825201
1204.0,0.006382698212469665
1203.0,0.006373362499872433
1202.0,0.00634868519613106
1201.0,0.006312023034331526
1200.0,0.0062676806722138274
1199.0,0.0062184780429924745
1198.0,0.00616736231898725
1197.0,0.0061185197434782835
1196.0,0.006074976983196525
1195.0,0.006037479288369583
1194.0,0.006007327833112688
1193.0,0.005987485432207098
1192.0,0.005978440052829521
1191.0,0.0059754511425665425
1190.0,0.005973309217823659
1189.0,0.0059726636740466505
1188.0,0.005978922221918418
1187.0,0.005996263667648675
1186.0,0.006025361544354731
1185.0,0.006065510483140176
1184.0,0.00611576023843621
1183.0,0.006174605128637911
1182.0,0.006241350772979726
1181.0,0.006316961516238198
1180.0,0.006401031669500997
1179.0,0.0064897764800817504
1178.0,0.0065804279897876
1177.0,0.006675615255197526
1176.0,0.006779609868304011
1175.0,0.006892281481621411
1174.0,0.007010616967231339
1173.0,0.007133719226523439
1172.0,0.007261627453721374
1171.0,0.0073914817939680225
1170.0,0.007519879978607854
1169.0,0.007647020100280103
1168.0,0.007773901582576006
1167.0,0.00789810304414536
1166.0,0.008017035506829627
1165.0,0.008132026105575816
1164.0,0.008243995315988552
1163.0,0.008349025304595912
1162.0,0.008444173448934347
1161.0,0.008534050351144526
1160.0,0.0086257312475854
1159.0,0.00872049710927754
1158.0,0.008815705737309408
1157.0,0.008910882111167601
1156.0,0.009006551070367385
1155.0,0.009100986063542274
1154.0,0.009193471647937075
1153.0,0.009286857184995629
1152.0,0.009382301971684773
1151.0,0.009476392052603602
1150.0,0.009568053575993976
1149.0,0.009662620847819043
1148.0,0.009764145328945442
1147.0,0.009869810698745977
1146.0,0.009977035609709346
1145.0,0.010089630676557002
1144.0,0.010211451206015546
1143.0,0.010340596935696288
1142.0,0.01047572487077881
1141.0,0.010621290565200682
1140.0,0.010780002534167143
1139.0,0.010946226075184083
1138.0,0.0111124725027087
1137.0,0.011275329197522652
1136.0,0.011429786746971237
1135.0,0.011567279613437469
1134.0,0.011686872300494764
1133.0,0.011799802903692534
1132.0,0.011916716197734689
1131.0,0.012039475500091155
1130.0,0.0121703936488526
1129.0,0.012317756530040538
1128.0,0.012484172246661353
1127.0,0.012659280699298019
1126.0,0.01283152801279022
1125.0,0.012997222993088071
1124.0,0.013151726643025032
1123.0,0.013285439556831667
1122.0,0.013398302890593284
1121.0,0.013505901936880413
1120.0,0.013621774104580816
1119.0,0.013745031124476816
1118.0,0.013871990402683226
1117.0,0.01400581572266111
1116.0,0.014146324044842555
1115.0,0.01428455242763142
1114.0,0.014417264025453343
1113.0,0.014553438421741923
1112.0,0.014697038740031669
1111.0,0.014837465023044637
1110.0,0.014966263945686505
1109.0,0.01508859850166408
1108.0,0.01520960711701165
1107.0,0.015325603921435081
1106.0,0.015437454224736103
1105.0,0.015555427320767357
1104.0,0.01568139493312415
1103.0,0.015802700373220627
1102.0,0.01591216432629923
1101.0,0.016018119617634424
1100.0,0.016127401242914938
1099.0,0.016237724286244974
1098.0,0.016353045936363986
1097.0,0.0164848846163937
1096.0,0.01662920207862442
1095.0,0.016763033926943952
1094.0,0.01687405922328355
1093.0,0.016972806465072123
1092.0,0.017067524769008212
1091.0,0.017150411635110278
1090.0,0.017217221858479872
1089.0,0.01727538147505858
1088.0,0.017322528388498345
1087.0,0.017342834112827474
1086.0,0.017336673906127312
1085.0,0.017328308970857634
1084.0,0.017331117220646088
1083.0,0.017329066948987462
1082.0,0.017303796834299535
1081.0,0.01725617642307077
1080.0,0.017190887644107474
1079.0,0.017105262297118506
1078.0,0.0170048162459916
1077.0,0.016905708024178043
1076.0,0.016811020000380712
1075.0,0.01670650320171866
1074.0,0.01658765430401778
1073.0,0.016467751193067873
1072.0,0.01635218780166674
1071.0,0.016230007213468307
1070.0,0.016098686618825693
1069.0,0.015972464240981643
1068.0,0.015857564582910558
1067.0,0.015742474053952377
1066.0,0.015620321898047174
1065.0,0.015498383938367612
1064.0,0.01537853558487944
1063.0,0.01525107401559773
1062.0,0.015115442810789106
1061.0,0.014985148677876769
1060.0,0.014864054538083028
1059.0,0.014738996991278404
1058.0,0.014604132132717397
1057.0,0.014472173560055755
1056.0,0.014353229912680851
1055.0,0.01424188891185142
1054.0,0.014133195813180524
1053.0,0.014032537177196205
1052.0,0.013939627472940825
1051.0,0.013841133472838938
1050.0,0.013731414219185832
1049.0,0.013621778228000954
1048.0,0.013518230058994671
1047.0,0.013410874700877614
1046.0,0.013293298099355137
1045.0,0.01317181567863028
1044.0,0.013049611032958944
1043.0,0.012920024722189479
1042.0,0.012781153498211599
1041.0,0.012641898067528023
1040.0,0.012508312547245343
1039.0,0.01237757807808955
1038.0,0.012249543265914677
1037.0,0.012130567623637923
1036.0,0.012021730975702569
1035.0,0.011916132163134061
1034.0,0.011811604124171907
1033.0,0.011712946843382432
1032.0,0.011617443273316642
1031.0,0.01151137913187546
1030.0,0.011385716515234845
1029.0,0.011243048814254444
1028.0,0.01108560151129298
1027.0,0.01090957601476798
1026.0,0.010715373023913757
1025.0,0.010510915285227258
1024.0,0.010301029208625648
1023.0,0.01008484166499599
1022.0,0.009866447593695482
1021.0,0.009656522659238782
1020.0,0.009459526966312873
1019.0,0.0092694823839634
1018.0,0.009081910387339586
1017.0,0.008900770088278494
1016.0,0.008730603391553432
1015.0,0.008571007783604197
1014.0,0.008422198456540174
1013.0,0.00828779425658839
1012.0,0.008168645943828602
1011.0,0.008060645156098204
1010.0,0.007960861510935517
1009.0,0.007868776275211091
1008.0,0.007779073185665647
1007.0,0.00768098542859073
1006.0,0.007568883329715108
1005.0,0.007447108748124977
1004.0,0.007320482519406733
1003.0,0.007186082052275766
1002.0,0.007038180098489577
1001.0,0.00687620323294554
1000.0,0.006704575423244784
999.0,0.006528955679249509
998.0,0.0063547260080650285
997.0,0.006185078182754804
996.0,0.006018855237548971
995.0,0.005853496288578534
994.0,0.005690701872305439
993.0,0.005535481520591357
992.0,0.005389061621573685
991.0,0.005246832508048974
990.0,0.0051046716634739805
989.0,0.004964088544621804
988.0,0.004829937501505753
987.0,0.004705698554046273
986.0,0.004591681667469572
985.0,0.004485255415013385
984.0,0.0043818351302888315
983.0,0.004277517870059445
982.0,0.004171696074654753
981.0,0.004066179683626269
980.0,0.003962085324386381
979.0,0.0038589516606978872
978.0,0.0037560145869220034
977.0,0.0036523745424101666
976.0,0.0035467452651257087
975.0,0.0034392603298110946
974.0,0.003332806002109888
973.0,0.0032302568591236164
972.0,0.0031308843696883073
971.0,0.003031475696003051
970.0,0.0029302505058326524
969.0,0.0028275091899383833
968.0,0.0027231164373697323
967.0,0.0026161287711151293
966.0,0.0025072599836851515
965.0,0.0023995732431662006
964.0,0.002295986743238847
963.0,0.0021970958688684182
962.0,0.0021014862171277546
961.0,0.0020072397582139895
960.0,0.0019132717808561961
959.0,0.0018203235858135418
958.0,0.0017309337241767332
957.0,0.0016477009378057955
956.0,0.0015710077935793068
955.0,0.0014984074160391946
954.0,0.0014268482771111683
953.0,0.0013564970077328037
952.0,0.0012923327555279722
951.0,0.0012403517313274615
950.0,0.0012011392134700033
949.0,0.0011685628883378193
948.0,0.0011362510625822022
947.0,0.0011039445776614989
946.0,0.0010756026487692312
945.0,0.001052651479182131
944.0,0.0010323687449716966
943.0,0.0010131408737281784
942.0,0.0009980746970190556
941.0,0.000991307204056883
940.0,0.0009920661540697281
939.0,0.000994273971209321
938.0,0.0009918388814398023
937.0,0.0009833719579936786
936.0,0.0009719008610033124
935.0,0.0009610053994573974
934.0,0.0009513026750018149
933.0,0.0009398484980905263
932.0,0.0009226208196570553
931.0,0.0008980339488325627
930.0,0.0008686083490496367
929.0,0.0008394998427746626
928.0,0.0008153860798694676
927.0,0.0007981926904341136
926.0,0.000787009492018912
925.0,0.0007801933254339273
924.0,0.0007778725510237251
923.0,0.000781926676056772
922.0,0.0007931029105415457
921.0,0.0008091016788519565
920.0,0.0008265892162902742
919.0,0.0008442677246804943
918.0,0.0008624358686721865
917.0,0.0008801945146832406
916.0,0.0008954684244977552
915.0,0.0009081118883987936
914.0,0.0009202433356366934
913.0,0.0009317188235434627
912.0,0.000937310389005364
911.0,0.0009308748997920919
910.0,0.0009112906015816582
909.0,0.0008820251291545027
908.0,0.000846092961278573
907.0,0.0008043646118813201
906.0,0.0007578873297776472
905.0,0.0007085150461186555
904.0,0.0006572394598304045
903.0,0.000604521373577039
902.0,0.0005522261409237837
901.0,0.0005028702753362884
900.0,0.0004570403389140179
899.0,0.0004140419445611756
898.0,0.0003750539642913947
897.0,0.0003431273456960891
896.0,0.0003192266893761699
895.0,0.00030027475354071334
894.0,0.0002821606228326116
893.0,0.0002633392964177579
892.0,0.0002449702435428214
891.0,0.00022928554376107889
890.0,0.00021860221958973027
889.0,0.00021386023792359013
888.0,0.00021242349354502283
887.0,0.00020877373216258806
886.0,0.00019958333049236994
885.0,0.00018759801029134184
884.0,0.00017896602730563838
883.0,0.00017757972589076075
882.0,0.00018378858498978027
881.0,0.00019746803961604605
880.0,0.0002187132198611197
879.0,0.0002446532879199024
878.0,0.0002693860243401024
877.0,0.00029028345995752954
876.0,0.0003124637925935779
875.0,0.00034318386586765096
874.0,0.0003810462284356565
873.0,0.0004127284618561831
872.0,0.00042169163255449167
871.0,0.00040045381059302553
870.0,0.0003555550840651789
869.0,0.0003025891856325519
868.0,0.00025764144241141774
867.0,0.00023133436887694944
866.0,0.00022552835788239956
865.0,0.0002327633055837381
864.0,0.0002410778202494026
863.0,0.00024252044760906256
862.0,0.00023765618004065295
861.0,0.00023139692166899439
860.0,0.0002262133013027834
859.0,0.0002215455130907947
858.0,0.0002179746981165655
857.0,0.00021777148484527215
856.0,0.0002206188611518568
855.0,0.0002219976622550927
854.0,0.00021776749757620122
853.0,0.00020909686778836502
852.0,0.0002017805261004624
851.0,0.00020153132504470265
850.0,0.00021011661991241162
849.0,0.0002251942210842606
848.0,0.00024402844863163868
847.0,0.0002677052986947094
846.0,0.0003001174832364581
845.0,0.0003415133618114105
844.0,0.00038567776348952113
843.0,0.0004269109272086511
842.0,0.00046799083301636167
841.0,0.0005164843473332437
840.0,0.0005739199500838651
839.0,0.0006339728098665322
838.0,0.0006916432426053137
837.0,0.000748434070336771
836.0,0.0008069541162042664
835.0,0.000866513282930702
834.0,0.0009268813953552553
833.0,0.000990811627471395
832.0,0.0010589650626514778
831.0,0.0011268900277000352
830.0,0.001191021568241359
829.0,0.0012534681132409604
828.0,0.0013167116448488728
827.0,0.0013782143745329131
826.0,0.001435335114193785
825.0,0.0014906390144447908
824.0,0.0015467262293203258
823.0,0.001601508928772322
822.0,0.0016539716952174595
821.0,0.0017079060961136849
820.0,0.0017654718545622296
819.0,0.0018239674667616687
818.0,0.0018820600834035933
817.0,0.001942422195910264
816.0,0.002005388804807564
815.0,0.0020666348507813238
814.0,0.002124483592830293
813.0,0.002182744489980472
812.0,0.002242192647926548
811.0,0.002296415643727566
810.0,0.002341767218048474
809.0,0.002385444118699519
808.0,0.0024377236336766786
807.0,0.0025006569066660877
806.0,0.0025688332205928708
805.0,0.0026362492631149094
804.0,0.0026981078651436173
803.0,0.002751342087624445
802.0,0.0027981662650053717
801.0,0.0028444169335333975
800.0,0.0028911179586914026
799.0,0.0029334148787965777
798.0,0.0029702504102982075
797.0,0.0030072937853363305
796.0,0.0030467139351228376
795.0,0.003082837853070215
794.0,0.0031129983596661446
793.0,0.0031440155450030514
792.0,0.0031815996438573327
791.0,0.0032209280494441394
790.0,0.003253926468721248
789.0,0.00327919687449104
788.0,0.00329902509961785
787.0,0.0033135978780556513
786.0,0.0033249282164419178
785.0,0.0033408482014745523
784.0,0.0033684897089017824
783.0,0.0034068428080510633
782.0,0.0034487907434788538
781.0,0.003485988153277045
780.0,0.003510470670101638
779.0,0.003519397362678217
778.0,0.0035217430281493044
777.0,0.0035326496001041045
776.0,0.0035574531928792117
775.0,0.0035880489418215434
774.0,0.003616933168890928
773.0,0.003646183538799345
772.0,0.0036796454012896313
771.0,0.003715612094346334
770.0,0.0037515537520889895
769.0,0.003788133172714788
768.0,0.0038249572978416475
767.0,0.0038605898688863728
766.0,0.003899366227484341
765.0,0.003948305661792701
764.0,0.004004342007485033
763.0,0.004055295647778161
762.0,0.004097140469535774
761.0,0.0041394839343087166
760.0,0.004189536267670223
759.0,0.004241696092714642
758.0,0.004288143463641413
757.0,0.004328911207480302
756.0,0.0043662222090143366
755.0,0.004400118017359127
754.0,0.004435858329233593
753.0,0.004484744981700024
752.0,0.004550076970740694
751.0,0.004619861139237413
750.0,0.004677649586774494
749.0,0.004714036826032868
748.0,0.004728598866909303
747.0,0.004732142845432364
746.0,0.004746467068194097
745.0,0.004786580747260569
744.0,0.0048407156116952845
743.0,0.004882590241415219
742.0,0.004904931552342736
741.0,0.004924858817112988
740.0,0.004956973430005721
739.0,0.0050029093463028656
738.0,0.005069413902139226
737.0,0.005175843869926731
736.0,0.0053484015723764015
735.0,0.005641853038515445
734.0,0.006167860638376554
733.0,0.007039706569740568
732.0,0.008225441585601312
731.0,0.009455997407818401
730.0,0.010341220564911862
729.0,0.010642595232804712
728.0,0.01044472095259306
727.0,0.010061174603344346
726.0,0.00980377006264685
725.0,0.00984264599281188
724.0,0.01023791369089887
723.0,0.011040792619342401
722.0,0.012291283988893863
721.0,0.013853654598104215
720.0,0.015277018748230151
719.0,0.015988025704618433
718.0,0.015738096269886568
717.0,0.014762339852304383
716.0,0.013497848696383154
715.0,0.012274668836401026
714.0,0.011234954411498998
713.0,0.010400874907340284
712.0,0.009746848688850321
711.0,0.009231869429498038
710.0,0.008820278281479268
709.0,0.008495574305559701
708.0,0.008249917388038382
707.0,0.008066602102128066
706.0,0.007925088054011218
705.0,0.007814904375553235
704.0,0.007729128795937267
703.0,0.007652551510233455
702.0,0.007572728410729594
701.0,0.007493995484067007
700.0,0.007425159265075823
699.0,0.007362659298930932
698.0,0.007299763357984164
697.0,0.007241783928727177
696.0,0.007195239991600048
695.0,0.007151235719475135
694.0,0.00709727953921069
693.0,0.007037302902386662
692.0,0.006984171946216713
691.0,0.006940778643626275
690.0,0.006903248203343728
689.0,0.006874047412409359
688.0,0.006854474108945906
687.0,0.006832562766237339
686.0,0.006797961405154649
685.0,0.006758437142809867
684.0,0.0067256946706244014
683.0,0.0066982442480654405
682.0,0.006671046128133318
681.0,0.006648346920792677
680.0,0.006633784621092909
679.0,0.006620451184102155
678.0,0.006603318995345458
677.0,0.006588274924086232
676.0,0.006577058911826063
675.0,0.00655760927292997
674.0,0.006523412736620487
673.0,0.006486620070755178
672.0,0.0064575928541693245
671.0,0.006430073198494456
670.0,0.0063979801493440226
669.0,0.0063835169679113315
668.0,0.006410808703523484
667.0,0.006429388452914132
666.0,0.006398244549730676
665.0,0.006342559344854961
664.0,0.0062884329187654735
663.0,0.006245852940749182
662.0,0.006218096049587888
661.0,0.006206877511770334
660.0,0.006204336329426416
659.0,0.006191679763154669
658.0,0.006162301293133717
657.0,0.0061333252097361375
656.0,0.006117715888790132
655.0,0.0061009453357529445
654.0,0.006063758621397346
653.0,0.0060109965261057
652.0,0.005957892709635591
651.0,0.0059064592193220095
650.0,0.0058552360628906465
649.0,0.00581312362443953
648.0,0.005782642997139674
647.0,0.005747427694532904
646.0,0.005696571569063631
645.0,0.005642247647562192
644.0,0.0055942646453296715
643.0,0.00553929005502044
642.0,0.005466129444778769
641.0,0.005390709844701224
640.0,0.005332455687308
639.0,0.005285368479125225
638.0,0.005234718673924155
637.0,0.005182768602589388
636.0,0.005133410954074398
635.0,0.005073519987567405
634.0,0.004996137338607619
633.0,0.004918278105800265
632.0,0.004851971756173722
631.0,0.004786481664482516
630.0,0.004716897550288978
629.0,0.004657595063865959
628.0,0.004604727396864247
627.0,0.0045173410165111364
626.0,0.004371498937999632
625.0,0.004210246640405238
624.0,0.004091277155962594
623.0,0.004008603824602294
622.0,0.003913489092803633
621.0,0.0037933488994436534
620.0,0.003682213688850903
619.0,0.0036047763612946536
618.0,0.0035502976528724306
617.0,0.00350018517680261
616.0,0.0034513754601178245
615.0,0.003410871809764759
614.0,0.003391292309568819
613.0,0.0034064356281095208
612.0,0.003452867829521864
611.0,0.0035055372908187484
610.0,0.0035462982982689085
609.0,0.0035804989485945693
608.0,0.0036121717207455617
607.0,0.0036348456625701878
606.0,0.00366065026596658
605.0,0.0037150429683804167
604.0,0.0037821713599856827
603.0,0.0038032874624741113
602.0,0.003757569914398552
601.0,0.0036955111094734857
600.0,0.0036687633579273763
599.0,0.003674993256039418
598.0,0.003688690439135692
597.0,0.0036975450973186037
596.0,0.0036750704670658594
595.0,0.003571869136581924
594.0,0.0033832013626940156
593.0,0.003180497119833572
592.0,0.0030368221680979863
591.0,0.0029577778719011697
590.0,0.0029097155964833564
589.0,0.00287556683808029
588.0,0.002838948058489465
587.0,0.0027559201790663926
586.0,0.0025976937089347302
585.0,0.002393796717880956
584.0,0.0021860591993099364
583.0,0.0019771868994418553
582.0,0.0017564080684328133
581.0,0.0015356592565338356
580.0,0.0013334256540838297
579.0,0.001153869266298765
578.0,0.0010037047406112561
577.0,0.0008994157584560012
576.0,0.0008309168862541907
575.0,0.0007491445050606993
574.0,0.0006314223819686846
573.0,0.0005247820998512089
572.0,0.00048392644078635715
571.0,0.0004958804762877504
570.0,0.0004904798792875279
569.0,0.00043727006683894954
568.0,0.00038172643761621544
567.0,0.0003737707773440178
566.0,0.0004160751521896895
565.0,0.0004912769276954729
564.0,0.000588961025269353
563.0,0.000681535204163941
562.0,0.0007223689419215961
561.0,0.0006915961348955791
560.0,0.0006058234513872276
559.0,0.0004931473665325826
558.0,0.00038823905463769565
557.0,0.0003272687530263014
556.0,0.0003252921615691843
555.0,0.00035829468074317206
554.0,0.0003795607961208614
553.0,0.00036134592945083206
552.0,0.00029610043412424755
551.0,0.00018087371475800158
550.0,3.666437803044112e-05
