cm-1,A
4000.0,0.0032108700223490716
3999.0,0.0032170759053080124
3998.0,0.003229656159167423
3997.0,0.00324288014397886
3996.0,0.0032502070090426284
3995.0,0.0032504524017500785
3994.0,0.0032487861942990977
3993.0,0.0032500909102166986
3992.0,0.0032533243559654847
3991.0,0.0032536548993449873
3990.0,0.003248653992621058
3989.0,0.0032413540242166756
3988.0,0.0032367599148906264
3987.0,0.0032373817925850914
3986.0,0.00324230677662243
3985.0,0.0032485099906430235
3984.0,0.0032524665370641283
3983.0,0.0032513489765436145
3982.0,0.0032447831909978454
3981.0,0.00323547891972377
3980.0,0.0032277555178525487
3979.0,0.003224767477306904
3978.0,0.003226041101582905
3977.0,0.0032276736869597785
3976.0,0.0032254117461838787
3975.0,0.0032185424850375245
3974.0,0.0032107313821835735
3973.0,0.003206562580970504
3972.0,0.0032071516158874835
3971.0,0.0032101172154425156
3970.0,0.003213874002239013
3969.0,0.0032200134205072175
3968.0,0.0032296902959210814
3967.0,0.0032399062345571297
3966.0,0.0032454223760531196
3965.0,0.003243979438913791
3964.0,0.003238741077430383
3963.0,0.0032349549022316236
3962.0,0.003235613657571611
3961.0,0.0032402756417511105
3960.0,0.003245739779853183
3959.0,0.0032482954113354787
3958.0,0.00324547685463633
3957.0,0.0032385226811689986
3956.0,0.0032324932873547168
3955.0,0.0032321546259512623
3954.0,0.003238638439536752
3953.0,0.0032485269892992942
3952.0,0.003256471714515234
3951.0,0.0032588658894935254
3950.0,0.0032556601397900117
3949.0,0.003250448225775168
3948.0,0.003248351024682231
3947.0,0.0032539135296333847
3946.0,0.003268137961705702
3945.0,0.0032836178479792796
3944.0,0.0032880009829743106
3943.0,0.0032765910007024925
3942.0,0.0032582951710031956
3941.0,0.0032459301686423815
3940.0,0.003241973830644935
3939.0,0.003239321083464631
3938.0,0.0032331359994042432
3937.0,0.003228030282169174
3936.0,0.0032321198088661133
3935.0,0.003245575159999612
3934.0,0.0032601078507079728
3933.0,0.0032684650747456185
3932.0,0.00327158662430774
3931.0,0.00327390779720106
3930.0,0.003276562242742774
3929.0,0.003279366384783806
3928.0,0.0032827028015927273
3927.0,0.0032850849094385954
3926.0,0.003281072508277978
3925.0,0.003268638891443419
3924.0,0.0032558089710551467
3923.0,0.0032529252659202782
3922.0,0.0032623537342818896
3921.0,0.00327856049732297
3920.0,0.003295288112417345
3919.0,0.003308562544889676
3918.0,0.0033132990789791397
3917.0,0.003306215687492441
3916.0,0.0032921154886147086
3915.0,0.0032812147946971112
3914.0,0.0032776373624783008
3913.0,0.0032770397940796985
3912.0,0.003273309099619726
3911.0,0.0032664830069566294
3910.0,0.0032602762012838337
3909.0,0.0032581330737340448
3908.0,0.0032612248555634604
3907.0,0.003267890346009711
3906.0,0.003273938883058888
3905.0,0.003276391883973077
3904.0,0.0032795144446369625
3903.0,0.0032912379634123254
3902.0,0.003312015841115362
3901.0,0.0033297429873455197
3900.0,0.0033309335109805325
3899.0,0.0033163866980641856
3898.0,0.0032993014895549367
3897.0,0.0032900302551320797
3896.0,0.0032877257274518236
3895.0,0.0032890737423260036
3894.0,0.003292763204700482
3893.0,0.003295799440788811
3892.0,0.0032892871994659404
3891.0,0.0032707364821566156
3890.0,0.0032552238277589853
3889.0,0.0032633025959560415
3888.0,0.003294337428852945
3887.0,0.003320350364383476
3886.0,0.003318522903329754
3885.0,0.0033031292712275753
3884.0,0.0033041154250278296
3883.0,0.003328976393897544
3882.0,0.0033546450206070333
3881.0,0.0033532887481749936
3880.0,0.0033232809842383406
3879.0,0.0032890663875536083
3878.0,0.0032750941738346343
3877.0,0.003284365217213033
3876.0,0.0032966222724750095
3875.0,0.0032907725951872094
3874.0,0.0032724642074292267
3873.0,0.0032680923004594215
3872.0,0.0032865180353508537
3871.0,0.00330166861011644
3870.0,0.0032896038746636803
3869.0,0.003267738489293631
3868.0,0.003268390984247785
3867.0,0.003293787638485192
3866.0,0.0033152677607992884
3865.0,0.003316159138463816
3864.0,0.0033092221746832606
3863.0,0.0033076334666634543
3862.0,0.0033054551482952855
3861.0,0.0032958842325254128
3860.0,0.003279172220552606
3859.0,0.0032575903622732586
3858.0,0.0032331692217637854
3857.0,0.0032129648458292578
3856.0,0.003204002908671317
3855.0,0.00319680155223436
3854.0,0.003180054337958195
3853.0,0.003175655599205824
3852.0,0.003202259673816811
3851.0,0.0032506443739197446
3850.0,0.003298954049991973
3849.0,0.0033308482282139494
3848.0,0.0033449004229772848
3847.0,0.0033465548614849917
3846.0,0.0033368306903281495
3845.0,0.003316114361141094
3844.0,0.0032883195161554487
3843.0,0.003262579160563381
3842.0,0.003248674747341272
3841.0,0.0032498012335248445
3840.0,0.003258388968248224
3839.0,0.0032660974696956677
3838.0,0.003271525673476339
3837.0,0.003278110038120216
3836.0,0.0032894132858862337
3835.0,0.003306991971558631
3834.0,0.003327850236980843
3833.0,0.0033435640722102875
3832.0,0.003346649389102247
3831.0,0.003340276905646494
3830.0,0.0033356313979478972
3829.0,0.0033398328555840585
3828.0,0.0033455924964901802
3827.0,0.003339177729375151
3826.0,0.003320224464825234
3825.0,0.003306295172881923
3824.0,0.0033099632866570392
3823.0,0.003317868879941694
3822.0,0.003303940970866682
3821.0,0.0032754699935297026
3820.0,0.0032666787623361736
3819.0,0.0032933069549772554
3818.0,0.0033376955657489433
3817.0,0.003359647767600102
3816.0,0.003342196846940095
3815.0,0.003316345627134022
3814.0,0.0033138412418912454
3813.0,0.0033264702435959357
3812.0,0.003327387871429841
3811.0,0.00330882029781932
3810.0,0.0032875782097663443
3809.0,0.0032773098172083513
3808.0,0.0032696133292889513
3807.0,0.0032544374530022882
3806.0,0.003243336708625537
3805.0,0.003255709333163025
3804.0,0.0032889308900634993
3803.0,0.003313605125237154
3802.0,0.0033070380752055154
3801.0,0.00329007798055927
3800.0,0.0032972241279814905
3799.0,0.003331275939820128
3798.0,0.003368334617588009
3797.0,0.003385408417493801
3796.0,0.0033825515459948337
3795.0,0.0033753926202711743
3794.0,0.0033736863428352366
3793.0,0.0033746939569674157
3792.0,0.003374153846693439
3791.0,0.0033740879265044396
3790.0,0.003377957856801915
3789.0,0.0033846586955689206
3788.0,0.003390379816657285
3787.0,0.003393014283272131
3786.0,0.0033924572097339288
3785.0,0.0033902201208250143
3784.0,0.003390083896833866
3783.0,0.003397385685698644
3782.0,0.003413014992570143
3781.0,0.003429127998895605
3780.0,0.0034353996494951577
3779.0,0.003431205798808394
3778.0,0.003425269020818733
3777.0,0.0034244400910789516
3776.0,0.003424916306867372
3775.0,0.003420150417664092
3774.0,0.003414359345697709
3773.0,0.003418369313657057
3772.0,0.0034312127174710777
3771.0,0.0034386437651663998
3770.0,0.003435312537475291
3769.0,0.0034343828687935585
3768.0,0.0034467012867860775
3767.0,0.003464280308567643
3766.0,0.003470640795719393
3765.0,0.003462865187945683
3764.0,0.003455243003457697
3763.0,0.0034605281459886787
3762.0,0.0034731754835973854
3761.0,0.003478974996857339
3760.0,0.0034747868609045366
3759.0,0.003467405005252916
3758.0,0.003457582771294325
3757.0,0.003443151301461475
3756.0,0.0034294466114967665
3755.0,0.003421570222724382
3754.0,0.0034155505120123074
3753.0,0.0034055825173313304
3752.0,0.003399875504396744
3751.0,0.0034088093340535006
3750.0,0.003419588724438191
3749.0,0.003420534636990614
3748.0,0.0034265868630972513
3747.0,0.0034504887052144023
3746.0,0.0034680121962291756
3745.0,0.003442692237508295
3744.0,0.0033972246177974693
3743.0,0.0033876117417043746
3742.0,0.003419163259211924
3741.0,0.0034568759421666068
3740.0,0.0034783051029593946
3739.0,0.0034936275647775425
3738.0,0.0035175045190505693
3737.0,0.003541640152892331
3736.0,0.003556317839627866
3735.0,0.003570231755134489
3734.0,0.0035887685329928087
3733.0,0.0035992422388892165
3732.0,0.0035928533741487866
3731.0,0.00358044249651679
3730.0,0.0035793000247765607
3729.0,0.0035913138456947855
3728.0,0.0036012205720167573
3727.0,0.0035980664550937505
3726.0,0.0035932420070333634
3725.0,0.0036033253137103486
3724.0,0.003625176514556767
3723.0,0.003642200778181168
3722.0,0.0036460771080605078
3721.0,0.0036428552560730182
3720.0,0.003640345412758663
3719.0,0.0036381010410478937
3718.0,0.0036305328212145127
3717.0,0.0036192249543707585
3716.0,0.0036150684592357067
3715.0,0.003623198985087008
3714.0,0.0036348223375161515
3713.0,0.003638899055258718
3712.0,0.0036418003937078143
3711.0,0.003661228165571656
3710.0,0.0036985756939039802
3709.0,0.003739350009923986
3708.0,0.003768922025299524
3707.0,0.0037826569085872928
3706.0,0.003788703465893279
3705.0,0.00380074379422082
3704.0,0.003826286907746992
3703.0,0.003860629727692433
3702.0,0.003892203501449921
3701.0,0.003913223827752563
3700.0,0.003926222814253139
3699.0,0.003938150071893123
3698.0,0.0039497673702299655
3697.0,0.003958095354349433
3696.0,0.0039660244965181645
3695.0,0.003978291876058872
3694.0,0.003992664309281293
3693.0,0.004004274512519981
3692.0,0.004017288297149
3691.0,0.00404776501748927
3690.0,0.004107129440208131
3689.0,0.004182410689741353
3688.0,0.00424748753941446
3687.0,0.004296063064800178
3686.0,0.004337932908452162
3685.0,0.00437544525800521
3684.0,0.004405769223862946
3683.0,0.004434352549604127
3682.0,0.004471217910875516
3681.0,0.004513123639620903
3680.0,0.004546419091721171
3679.0,0.004570211950468259
3678.0,0.004603091962500839
3677.0,0.004660934749265044
3676.0,0.004742903236228028
3675.0,0.0048287721764711565
3674.0,0.004899821144996707
3673.0,0.004966627605119105
3672.0,0.005037138936775884
3671.0,0.0051066748318497265
3670.0,0.005181993037441878
3669.0,0.005267698413584622
3668.0,0.005349490874056675
3667.0,0.005416058314928118
3666.0,0.005466431316976627
3665.0,0.005506602246590185
3664.0,0.005544089744324851
3663.0,0.005582185170065389
3662.0,0.005619220281090172
3661.0,0.005653566001507226
3660.0,0.005689565225934679
3659.0,0.005733793431494505
3658.0,0.005787572782263891
3657.0,0.005840181529975154
3656.0,0.005877471809214781
3655.0,0.005896651970059566
3654.0,0.005907971464856638
3653.0,0.005919426422856074
3652.0,0.0059292316765168435
3651.0,0.005945577207005232
3650.0,0.005998139719865031
3649.0,0.006094648573572063
3648.0,0.00619068861332818
3647.0,0.006250641414742674
3646.0,0.0062792687645875376
3645.0,0.006294369538858377
3644.0,0.006304413624947425
3643.0,0.006310934775868389
3642.0,0.006317815199366962
3641.0,0.006331262355749691
3640.0,0.006351206296346288
3639.0,0.006369600783517456
3638.0,0.006382639693589468
3637.0,0.006395807002418296
3636.0,0.006414109190905016
3635.0,0.006433073767363218
3634.0,0.006447000741140424
3633.0,0.006461113538944317
3632.0,0.006488760803918484
3631.0,0.006540565327349818
3630.0,0.006618879063350409
3629.0,0.0067153007057452144
3628.0,0.006795798878427163
3627.0,0.006836422246264802
3626.0,0.006849011758551921
3625.0,0.006847259396983399
3624.0,0.006838972122823361
3623.0,0.006835264152580409
3622.0,0.006851287620574098
3621.0,0.0068979833927275865
3620.0,0.0069723959160162205
3619.0,0.007049236847900342
3618.0,0.007097667302288571
3617.0,0.007115037384327921
3616.0,0.007123541733741851
3615.0,0.007144020467374685
3614.0,0.007183631320530024
3613.0,0.007234731890461294
3612.0,0.007283394727924851
3611.0,0.007323341280293411
3610.0,0.00736047067653459
3609.0,0.007406147809749766
3608.0,0.007464934855795587
3607.0,0.0075265888568811935
3606.0,0.007577240397324776
3605.0,0.0076126973387436545
3604.0,0.00763793095524138
3603.0,0.007662776567287522
3602.0,0.007699541009310643
3601.0,0.007754293017206058
3600.0,0.007821340129109983
3599.0,0.007887227030237559
3598.0,0.007943255900164752
3597.0,0.007990736814659647
3596.0,0.008037267556657261
3595.0,0.00808897904733093
3594.0,0.008146435455181485
3593.0,0.00820322159149831
3592.0,0.008252051778515377
3591.0,0.00829529373973209
3590.0,0.008347638764346604
3589.0,0.008430527643459921
3588.0,0.008551523878831175
3587.0,0.008679414902805872
3586.0,0.008770532798786828
3585.0,0.008817000979680885
3584.0,0.00883889653074886
3583.0,0.008857129847040967
3582.0,0.008886108544994067
3581.0,0.008931579049365812
3580.0,0.00898958343867648
3579.0,0.00905087555956201
3578.0,0.009109798088063826
3577.0,0.009166646700135134
3576.0,0.00922223941424252
3575.0,0.00927383127917917
3574.0,0.009316613967441023
3573.0,0.009347049324490026
3572.0,0.009365633591800357
3571.0,0.009381618942033489
3570.0,0.009414290393878496
3569.0,0.009487108725266287
3568.0,0.009611992698623431
3567.0,0.009762610633391492
3566.0,0.009881680177761042
3565.0,0.00993922125220629
3564.0,0.00995146149985781
3563.0,0.009950278110341996
3562.0,0.009960468605235815
3561.0,0.009991761816440316
3560.0,0.010037208635540647
3559.0,0.01008291720306065
3558.0,0.010121433454501382
3557.0,0.01015377082551017
3556.0,0.01018320168966682
3555.0,0.010214133527782478
3554.0,0.010253772406228488
3553.0,0.01030721546299787
3552.0,0.010367793092672778
3551.0,0.010421576717739212
3550.0,0.010463407741017523
3549.0,0.010501171990478888
3548.0,0.01054665099853136
3547.0,0.010605914322335248
3546.0,0.010674377485784982
3545.0,0.010740086696174189
3544.0,0.010794162147528834
3543.0,0.010838253441656466
3542.0,0.010880149032127591
3541.0,0.010924302265344719
3540.0,0.010969182654955018
3539.0,0.011013776541967956
3538.0,0.011064259441223539
3537.0,0.011129179514324947
3536.0,0.01120743810497681
3535.0,0.011286465399509046
3534.0,0.011355293947462592
3533.0,0.011412981555915825
3532.0,0.011466035539880914
3531.0,0.01152319273799925
3530.0,0.011591838241425338
3529.0,0.011672648452268803
3528.0,0.011755275649618523
3527.0,0.011825410005147731
3526.0,0.011879244953234674
3525.0,0.011928944708067515
3524.0,0.011992414527785576
3523.0,0.01207730266663611
3522.0,0.012175136425081605
3521.0,0.012269965296990934
3520.0,0.012350606830900578
3519.0,0.012416119796631181
3518.0,0.01247270682207331
3517.0,0.0125250678799911
3516.0,0.012572514523274151
3515.0,0.01261553483042435
3514.0,0.012663621719586588
3513.0,0.012730909334717266
3512.0,0.012822976797841423
3511.0,0.012930322796246793
3510.0,0.013034115440849828
3509.0,0.013116638926947028
3508.0,0.013169223846638302
3507.0,0.013195015855839912
3506.0,0.01320562482546696
3505.0,0.013214974457773785
3504.0,0.013235105397091858
3503.0,0.013272658540420932
3502.0,0.013323757686984163
3501.0,0.013373568776543108
3500.0,0.013405692398322427
3499.0,0.013415681209837707
3498.0,0.013416456915648432
3497.0,0.013426593719281269
3496.0,0.013452104471096899
3495.0,0.013483763463477945
3494.0,0.013511172047869583
3493.0,0.013532274364843064
3492.0,0.01354913244623072
3491.0,0.013561896575953955
3490.0,0.013569881991399328
3489.0,0.013574193625659578
3488.0,0.013577469753937517
3487.0,0.013583721215217
3486.0,0.013597731626125032
3485.0,0.013620058613328614
3484.0,0.013642067218161236
3483.0,0.013650691482349238
3482.0,0.013640895658423987
3481.0,0.013620922531787493
3480.0,0.013604434841391181
3479.0,0.013600739620138698
3478.0,0.013611631285479608
3477.0,0.01363210849441069
3476.0,0.013652725732317315
3475.0,0.013665204614394149
3474.0,0.013667301313323672
3473.0,0.013660301800130068
3472.0,0.013644167012063778
3471.0,0.013619880855237161
3470.0,0.013594974436248667
3469.0,0.013580507806058692
3468.0,0.013581541948408516
3467.0,0.013594809976721684
3466.0,0.013615531886377175
3465.0,0.013640936372743809
3464.0,0.013667062073480323
3463.0,0.013688497347526574
3462.0,0.013703676035865406
3461.0,0.013716601987102357
3460.0,0.013731664519285739
3459.0,0.013749544406766205
3458.0,0.013768630547317372
3457.0,0.013786826958544296
3456.0,0.013802309691517571
3455.0,0.013815585449988739
3454.0,0.013830228884372181
3453.0,0.013847961548574214
3452.0,0.0138649475290803
3451.0,0.0138774924613101
3450.0,0.013889813463766146
3449.0,0.01391075812244307
3448.0,0.013942444722931883
3447.0,0.013976592457211725
3446.0,0.01400385305558376
3445.0,0.014022834621744302
3444.0,0.014037856647151929
3443.0,0.014052805031067173
3442.0,0.014068920857888995
3441.0,0.014084046959428394
3440.0,0.014093366116400585
3439.0,0.014094465756369638
3438.0,0.01409241793762554
3437.0,0.014097014914249415
3436.0,0.014114632469282505
3435.0,0.014143885916447514
3434.0,0.01417781982624432
3433.0,0.014207864734796311
3432.0,0.014228374874272734
3431.0,0.014241426685699525
3430.0,0.014256188992310613
3429.0,0.014280213923051874
3428.0,0.014312014887672754
3427.0,0.01434418276153648
3426.0,0.01437088688199581
3425.0,0.014389635122493385
3424.0,0.014400077425349716
3423.0,0.014406413321537007
3422.0,0.014418220208970305
3421.0,0.014442365394036245
3420.0,0.014474701042613954
3419.0,0.014504919427972635
3418.0,0.014527526733609474
3417.0,0.014543160185120281
3416.0,0.014552785580319106
3415.0,0.014557526087041731
3414.0,0.014562699951153573
3413.0,0.014575098199813251
3412.0,0.01459562541239557
3411.0,0.014619308171541074
3410.0,0.014642033085783443
3409.0,0.014662788176436858
3408.0,0.014680274787180328
3407.0,0.014692907405506946
3406.0,0.014702523437639593
3405.0,0.014713272853197065
3404.0,0.014726356802599299
3403.0,0.014739597345030622
3402.0,0.014751978112575635
3401.0,0.014764218610520848
3400.0,0.014775282284884634
3399.0,0.0147832200899259
3398.0,0.014789701302995246
3397.0,0.014799271246723176
3396.0,0.014814109892070434
3395.0,0.014833704654737656
3394.0,0.014858551179058807
3393.0,0.014888305310642391
3392.0,0.014916412694174486
3391.0,0.014933386922751299
3390.0,0.014937254187897531
3389.0,0.014936161124706398
3388.0,0.014939935728232025
3387.0,0.01495226060695454
3386.0,0.014970590114706611
3385.0,0.01498960657000848
3384.0,0.015004444480475894
3383.0,0.015014344524590169
3382.0,0.015023861099567753
3381.0,0.0150375282452215
3380.0,0.015053888529794071
3379.0,0.01506803419337227
3378.0,0.015078908654591897
3377.0,0.015089589685219021
3376.0,0.01510113893174814
3375.0,0.015111434107867756
3374.0,0.015119799982495994
3373.0,0.015127599592955992
3372.0,0.01513437604099837
3371.0,0.015138700933039172
3370.0,0.015143053394867316
3369.0,0.015152575185815996
3368.0,0.015167991491828695
3367.0,0.015184566434571407
3366.0,0.015198960095407985
3365.0,0.01521237804738395
3364.0,0.015226253719050894
3363.0,0.015239571250882458
3362.0,0.015251294138110157
3361.0,0.015261506870663247
3360.0,0.015269936836181348
3359.0,0.01527714057159427
3358.0,0.01528649385680228
3357.0,0.01530027373927189
3356.0,0.01531430250982349
3355.0,0.015321951351535877
3354.0,0.015323197956559217
3353.0,0.01532416488500089
3352.0,0.015328055894259077
3351.0,0.015332697242847904
3350.0,0.015337657281478699
3349.0,0.015347162236346301
3348.0,0.015363478438120803
3347.0,0.015382264100709964
3346.0,0.015396948075097377
3345.0,0.015404039122758534
3344.0,0.015403291004736766
3343.0,0.015397301943708617
3342.0,0.015392232132955715
3341.0,0.01539425686858168
3340.0,0.015403264155138915
3339.0,0.015413178226610525
3338.0,0.015419285742146228
3337.0,0.015421861199764235
3336.0,0.015422672387743096
3335.0,0.015422525293184258
3334.0,0.015422750279337202
3333.0,0.015424107335812044
3332.0,0.015423383049469996
3331.0,0.015416071687889277
3330.0,0.015403578038596738
3329.0,0.015393111586403621
3328.0,0.015389113216650381
3327.0,0.015388826938715159
3326.0,0.015387528975545881
3325.0,0.015383716751402904
3324.0,0.015377426638500391
3323.0,0.015367995215337833
3322.0,0.015356351914616678
3321.0,0.015346195524094008
3320.0,0.015339882632021525
3319.0,0.015334733260014825
3318.0,0.015325229221333558
3317.0,0.015308449959289032
3316.0,0.015287839496460242
3315.0,0.015272602901577541
3314.0,0.015271147429244378
3313.0,0.015282207108394025
3312.0,0.015294454118154222
3311.0,0.015298229698040629
3310.0,0.015295250867332254
3309.0,0.015292846752483404
3308.0,0.015292205051555065
3307.0,0.01528874157494221
3306.0,0.015281611369467658
3305.0,0.015274865295147287
3304.0,0.015269707647927417
3303.0,0.015263264230178406
3302.0,0.015255720353189488
3301.0,0.015251314460139147
3300.0,0.015250502252722047
3299.0,0.015247688926260043
3298.0,0.01523915367168462
3297.0,0.015227779631077201
3296.0,0.015217743140281511
3295.0,0.01520961003868139
3294.0,0.015203045274208276
3293.0,0.015199609872011414
3292.0,0.015199882466005295
3291.0,0.015201002149812178
3290.0,0.015199093097108547
3289.0,0.015191821772914883
3288.0,0.015178417823670229
3287.0,0.015160470051975194
3286.0,0.015142544589831084
3285.0,0.015128183610448966
3284.0,0.01511529268574158
3283.0,0.015099421414740424
3282.0,0.015081218492400364
3281.0,0.015065759906557622
3280.0,0.015054467199510702
3279.0,0.015043067742332085
3278.0,0.015028287771746474
3277.0,0.01501151393451908
3276.0,0.014994946671849956
3275.0,0.0149789351289797
3274.0,0.014963950354442045
3273.0,0.01495018124509916
3272.0,0.014934107478759347
3271.0,0.014910259669575002
3270.0,0.01487752799387717
3269.0,0.014839864564514516
3268.0,0.014800861841499417
3267.0,0.014762228154800609
3266.0,0.014727248668980357
3265.0,0.014699786394352866
3264.0,0.014678356405108717
3263.0,0.014656250418120026
3262.0,0.014629250379175597
3261.0,0.014599037102509546
3260.0,0.014568128011827419
3259.0,0.014536320303455147
3258.0,0.014503234972475838
3257.0,0.01446960552155874
3256.0,0.014434931012509854
3255.0,0.014398221587227608
3254.0,0.014361846486819955
3253.0,0.014329950193193945
3252.0,0.01430222081982613
3251.0,0.014273762189480604
3250.0,0.014241717490899461
3249.0,0.014207548940739178
3248.0,0.014172704926630135
3247.0,0.014137314205778904
3246.0,0.014103946607765889
3245.0,0.014077184853181973
3244.0,0.014057518966910574
3243.0,0.014040009243585616
3242.0,0.014019976853565626
3241.0,0.013995656314389935
3240.0,0.013965482326806382
3239.0,0.013928600820764971
3238.0,0.013888937803669968
3237.0,0.013853237919620497
3236.0,0.01382352740748565
3235.0,0.013795881967808593
3234.0,0.013767209777680792
3233.0,0.013738412660926168
3232.0,0.013710512671715325
3231.0,0.013682970026171406
3230.0,0.013656537494744984
3229.0,0.013632600318992407
3228.0,0.013609339375778542
3227.0,0.013583817816287301
3226.0,0.013557449878396181
3225.0,0.013533242887716932
3224.0,0.013508115932283323
3223.0,0.013475656133995552
3222.0,0.013437520624808413
3221.0,0.013404076229603844
3220.0,0.013380747756336825
3219.0,0.013360818206667667
3218.0,0.013335324254235207
3217.0,0.013303521658502187
3216.0,0.013269951324758248
3215.0,0.013237404343115003
3214.0,0.013206806774701135
3213.0,0.013178976356066198
3212.0,0.01315243181711017
3211.0,0.013123190017727056
3210.0,0.013089743231527737
3209.0,0.013054900608388624
3208.0,0.013020904412032823
3207.0,0.012987050918945142
3206.0,0.01295396704339902
3205.0,0.012925144948279867
3204.0,0.012901209310016154
3203.0,0.012877003105056531
3202.0,0.012847514954931163
3201.0,0.012813299369028077
3200.0,0.012777878788540125
3199.0,0.012743606088604831
3198.0,0.012711990715760136
3197.0,0.01268399465154629
3196.0,0.012657585686686028
3195.0,0.012628268641347643
3194.0,0.012593626217480005
3193.0,0.012554360485124382
3192.0,0.012510718376741444
3191.0,0.012462399350938642
3190.0,0.012413171035883068
3189.0,0.012370811803315668
3188.0,0.012339773817985839
3187.0,0.012316916747369604
3186.0,0.012295672207324405
3185.0,0.01227072773033844
3184.0,0.012237913435632079
3183.0,0.012194912479119427
3182.0,0.012144922517546536
3181.0,0.012096145818675644
3180.0,0.01205526784436367
3179.0,0.012023031316009479
3178.0,0.011996055900486706
3177.0,0.011970031535635856
3176.0,0.01194144934818967
3175.0,0.011909899721809367
3174.0,0.011878903092307226
3173.0,0.011851193640972138
3172.0,0.011823681450301942
3171.0,0.011791079933439558
3170.0,0.011753664674919699
3169.0,0.011716422634455525
3168.0,0.011681150889232257
3167.0,0.011645337800678973
3166.0,0.01160855848511806
3165.0,0.011573446829413456
3164.0,0.011539849723247895
3163.0,0.0115043263826448
3162.0,0.011466781588997025
3161.0,0.011431825408415097
3160.0,0.011401656915010555
3159.0,0.011372802415627895
3158.0,0.011341601724044033
3157.0,0.0113079182032558
3156.0,0.011272366722834975
3155.0,0.011235405127934554
3154.0,0.011200342028396914
3153.0,0.011171559787505477
3152.0,0.011147979616231051
3151.0,0.011123022522217866
3150.0,0.011092723599657104
3149.0,0.011059329070428905
3148.0,0.011025566450406383
3147.0,0.010990983047086891
3146.0,0.010955953177142007
3145.0,0.010923783076521417
3144.0,0.01089617203264555
3143.0,0.010870587884138977
3142.0,0.010843947505882084
3141.0,0.01081528684596872
3140.0,0.01078366276302411
3139.0,0.010747738363387393
3138.0,0.010709440370757205
3137.0,0.010673949528267885
3136.0,0.01064431956046407
3135.0,0.010619471543656027
3134.0,0.010597606282493257
3133.0,0.010577408179788882
3132.0,0.010555729512280905
3131.0,0.010529104906368054
3130.0,0.010498750869437676
3129.0,0.010469480760367028
3128.0,0.010442984344492505
3127.0,0.010417005969876806
3126.0,0.010391154417307187
3125.0,0.010367840725263817
3124.0,0.010346528361862685
3123.0,0.010322162179028635
3122.0,0.010291318143081476
3121.0,0.010255860155110047
3120.0,0.010219458886828514
3119.0,0.010185200365903044
3118.0,0.010156934574156238
3117.0,0.01013737544960734
3116.0,0.010123328033690574
3115.0,0.0101072851040242
3114.0,0.010085489345662816
3113.0,0.010060637503596266
3112.0,0.010036355830045461
3111.0,0.01001382691624016
3110.0,0.009993620671574029
3109.0,0.009975768695062196
3108.0,0.009957412109223358
3107.0,0.009934904379392642
3106.0,0.009908809237135972
3105.0,0.00988256446494265
3104.0,0.009857309879526299
3103.0,0.009833016427311287
3102.0,0.009813014062207819
3101.0,0.009801063590957605
3100.0,0.009793734209272903
3099.0,0.00978278914784011
3098.0,0.009765942302911421
3097.0,0.00974828669687142
3096.0,0.00973297931633424
3095.0,0.009716915365228942
3094.0,0.009697496746845616
3093.0,0.00967748881799019
3092.0,0.009660223441789937
3091.0,0.009645298988024768
3090.0,0.009630727348953342
3089.0,0.009615151626050375
3088.0,0.009597113709808088
3087.0,0.009576440900354474
3086.0,0.009556931692005628
3085.0,0.009542523549535315
3084.0,0.00953089114356193
3083.0,0.009515888707589298
3082.0,0.009496698989651147
3081.0,0.009479205941629746
3080.0,0.00946721864295262
3079.0,0.00945820003265984
3078.0,0.009448058838339629
3077.0,0.009434664309422965
3076.0,0.00941634713390426
3075.0,0.009392968675141252
3074.0,0.009369560456531967
3073.0,0.00935260863985216
3072.0,0.009341947732650294
3071.0,0.00933119763327461
3070.0,0.009316609838970145
3069.0,0.0092998107477447
3068.0,0.009281696482374886
3067.0,0.009261010056413405
3066.0,0.009239539682441855
3065.0,0.009221992374867974
3064.0,0.00920849522186886
3063.0,0.009193706156836226
3062.0,0.009175023118529038
3061.0,0.00915545419480537
3060.0,0.009137362273901608
3059.0,0.009119303838033235
3058.0,0.009101024248296365
3057.0,0.009085115564902284
3056.0,0.009071799359398967
3055.0,0.009057602010356235
3054.0,0.009041228578158549
3053.0,0.0090251735747918
3052.0,0.009010052703748349
3051.0,0.00899347253270657
3050.0,0.008975896363472369
3049.0,0.00896195467318226
3048.0,0.008953232701843217
3047.0,0.008945467920984931
3046.0,0.008935039355449065
3045.0,0.008923201309319895
3044.0,0.008912204667877661
3043.0,0.00890232155228514
3042.0,0.0088947854404907
3041.0,0.00889266261404075
3040.0,0.008896940091016875
3039.0,0.008905882895580843
3038.0,0.008919176175180673
3037.0,0.008937747539661322
3036.0,0.008959157456828539
3035.0,0.00897869133998126
3034.0,0.008996677058219297
3033.0,0.009019199885361148
3032.0,0.009050357845854493
3031.0,0.009089061774984458
3030.0,0.009134572284066653
3029.0,0.009189511448797814
3028.0,0.009255979209643939
3027.0,0.009334171942730595
3026.0,0.009425748830732307
3025.0,0.009533107374097165
3024.0,0.009654559980463454
3023.0,0.009785819668185173
3022.0,0.009927001754464069
3021.0,0.010082700458487961
3020.0,0.010254763985266894
3019.0,0.010441573905739611
3018.0,0.010644997254293466
3017.0,0.01087166954486405
3016.0,0.011125651021425622
3015.0,0.011405912231026605
3014.0,0.011711442341188602
3013.0,0.012042359906770902
3012.0,0.012394992027712663
3011.0,0.01276304481234467
3010.0,0.01314514132002401
3009.0,0.013545278212402886
3008.0,0.0139650606065521
3007.0,0.014401686116863396
3006.0,0.014852926009380511
3005.0,0.01531617717477474
3004.0,0.015781454961746398
3003.0,0.016233323582889956
3002.0,0.016661594936757212
3001.0,0.017063405809633524
3000.0,0.017432484801661235
2999.0,0.01775387148511422
2998.0,0.018011209332303005
2997.0,0.018192021525971696
2996.0,0.018282293075710682
2995.0,0.018263839094072157
2994.0,0.018122336332182153
2993.0,0.01785529538684033
2992.0,0.0174711956849547
2991.0,0.016986909836543808
2990.0,0.016429407435934833
2989.0,0.01583360436783167
2988.0,0.015233481902548755
2987.0,0.014656773369561539
2986.0,0.01412619638346306
2985.0,0.013658978421333564
2984.0,0.013261376941126708
2983.0,0.0129284481440481
2982.0,0.012651691871771984
2981.0,0.012423475755592953
2980.0,0.012234866407101563
2979.0,0.01207653859764273
2978.0,0.01194481749681722
2977.0,0.011841510599965783
2976.0,0.011766074068250141
2975.0,0.011712717781361712
2974.0,0.011676893972892158
2973.0,0.011658175138321859
2972.0,0.011655301858378757
2971.0,0.011664688601651851
2970.0,0.01168606170178977
2969.0,0.011722959746542331
2968.0,0.011775060939612485
2967.0,0.011836127937846917
2966.0,0.01190217926964973
2965.0,0.011976215397077042
2964.0,0.01206240657736176
2963.0,0.012161448281066039
2962.0,0.012273923628987705
2961.0,0.012403051635427861
2960.0,0.012551707029082428
2959.0,0.012722073474832169
2958.0,0.012919449694100917
2957.0,0.013150512950711533
2956.0,0.013416600187714295
2955.0,0.013714020189804218
2954.0,0.014041076133898212
2953.0,0.014396924583245194
2952.0,0.01477285772216733
2951.0,0.015152109379479785
2950.0,0.015519552895806227
2949.0,0.01586265180677808
2948.0,0.01616046661964399
2947.0,0.01638049799495862
2946.0,0.016490902356537676
2945.0,0.016472846970720087
2944.0,0.01632032466953099
2943.0,0.016038819339838948
2942.0,0.015648902069349182
2941.0,0.015183458195788698
2940.0,0.014675712897777853
2939.0,0.01415309867575386
2938.0,0.013643052350630938
2937.0,0.01317462796736617
2936.0,0.012767432474005313
2935.0,0.012423226915760024
2934.0,0.012132554510061786
2933.0,0.011884735872582427
2932.0,0.01166934239877896
2931.0,0.011477086792051578
2930.0,0.011305217131443534
2929.0,0.011155992023062214
2928.0,0.01102689525712351
2927.0,0.010908351646469914
2926.0,0.010794148947335939
2925.0,0.010686534916719599
2924.0,0.01058807252968892
2923.0,0.010496093715719407
2922.0,0.010408075295474205
2921.0,0.010324721594937875
2920.0,0.010244448292650763
2919.0,0.010163035898678114
2918.0,0.010081008351128622
2917.0,0.01000329285945907
2916.0,0.009930450028930804
2915.0,0.009858394216144062
2914.0,0.009788213755329886
2913.0,0.00972670682793654
2912.0,0.00967518995664767
2911.0,0.009627611142539554
2910.0,0.009581846462709548
2909.0,0.009544048236237725
2908.0,0.009517601562299435
2907.0,0.009495580303932001
2906.0,0.00946980187713211
2905.0,0.009440284123155073
2904.0,0.009411724031562202
2903.0,0.009385668018251594
2902.0,0.00936062811716431
2901.0,0.009334844859779139
2900.0,0.00930592144363664
2899.0,0.009272274727306988
2898.0,0.009237568623615924
2897.0,0.009209123608132629
2896.0,0.009189532946599115
2895.0,0.009174855017801456
2894.0,0.009162373434259873
2893.0,0.009155240303176911
2892.0,0.009157765416905047
2891.0,0.009171863233558277
2890.0,0.00919978500936499
2889.0,0.009243801649601573
2888.0,0.009300759427929637
2887.0,0.009362553896151446
2886.0,0.009423684368223516
2885.0,0.009483561246620609
2884.0,0.009539754865337249
2883.0,0.009584478202773304
2882.0,0.009609648852348187
2881.0,0.009609946181497622
2880.0,0.009580395444317553
2879.0,0.009517263926183746
2878.0,0.009423212127607465
2877.0,0.009305853904608526
2876.0,0.009170664722106262
2875.0,0.009020989094420846
2874.0,0.008865407609591982
2873.0,0.008717145127437438
2872.0,0.008583125375791525
2871.0,0.008460349820237726
2870.0,0.008344933121134292
2869.0,0.008237660489849235
2868.0,0.008139587824853555
2867.0,0.008050579371863927
2866.0,0.007974927679449718
2865.0,0.00792046154023266
2864.0,0.007888276038075254
2863.0,0.007869546492307774
2862.0,0.00785568638054777
2861.0,0.007844741929941721
2860.0,0.007835899516804688
2859.0,0.007826447811124454
2858.0,0.007816954237688446
2857.0,0.007811068659765897
2856.0,0.00780708894379873
2855.0,0.007797918097175524
2854.0,0.0077816483996484675
2853.0,0.007763176679234977
2852.0,0.0077422304984884425
2851.0,0.0077090904677148495
2850.0,0.007657325481072782
2849.0,0.007592618341702011
2848.0,0.007523595231178525
2847.0,0.0074524100824345935
2846.0,0.0073793592125028645
2845.0,0.007309162896072228
2844.0,0.007247407300949939
2843.0,0.007196002388884053
2842.0,0.0071553078637629644
2841.0,0.007125167747688424
2840.0,0.007101013729032127
2839.0,0.007075252426762685
2838.0,0.007045838244885429
2837.0,0.00701826765220894
2836.0,0.006996649848368328
2835.0,0.006978321833963304
2834.0,0.00696004915800165
2833.0,0.006943157031923023
2832.0,0.006928993595647687
2831.0,0.0069151847403686306
2830.0,0.006899992682649942
2829.0,0.006885065049765123
2828.0,0.0068705441360621825
2827.0,0.006852594929870202
2826.0,0.006829119045825049
2825.0,0.006803189960179402
2824.0,0.006778037597835333
2823.0,0.00675321497009467
2822.0,0.006727798404668981
2821.0,0.006702632581060596
2820.0,0.006677312570432412
2819.0,0.006649835917954931
2818.0,0.006621116573071712
2817.0,0.006594713654613658
2816.0,0.006570598847402451
2815.0,0.006544834042979359
2814.0,0.006516960747341012
2813.0,0.006491556008785954
2812.0,0.00647037318651214
2811.0,0.006449035065371293
2810.0,0.006423995578642644
2809.0,0.006397103706015263
2808.0,0.006370855938880848
2807.0,0.00634486055916409
2806.0,0.006319537544840824
2805.0,0.0062975574169708785
2804.0,0.006279052057409024
2803.0,0.006260708985459962
2802.0,0.0062416346118767466
2801.0,0.006224583970535524
2800.0,0.0062094811002155696
2799.0,0.006191789133114304
2798.0,0.0061696404212062475
2797.0,0.006146836249979282
2796.0,0.0061263918833916135
2795.0,0.006106771881271777
2794.0,0.006086782363509095
2793.0,0.006068209834175679
2792.0,0.0060511494022532026
2791.0,0.006032656132118758
2790.0,0.0060126623235498685
2789.0,0.005995539317190604
2788.0,0.00598315610506751
2787.0,0.005971642370266832
2786.0,0.00595749089732182
2785.0,0.005941795685163086
2784.0,0.005926238155829167
2783.0,0.005910264390296156
2782.0,0.005894407246991638
2781.0,0.00588095077229358
2780.0,0.005869157757518276
2779.0,0.005854962932121355
2778.0,0.00583717390843604
2777.0,0.0058191669633116
2776.0,0.005803376825509232
2775.0,0.0057894479384600125
2774.0,0.005778558744293225
2773.0,0.0057731748669776
2772.0,0.0057709361642514796
2771.0,0.005765139999841215
2770.0,0.005753190976070492
2769.0,0.005738767688677871
2768.0,0.0057248406217468425
2767.0,0.005711039237861053
2766.0,0.005698724945522257
2765.0,0.005691281432697145
2764.0,0.005687356833643111
2763.0,0.005680828486310825
2762.0,0.005669736968241307
2761.0,0.005658449069182382
2760.0,0.0056493243810047025
2759.0,0.005639491581898882
2758.0,0.005627874575678872
2757.0,0.005618108486820877
2756.0,0.005611805006799588
2755.0,0.005605595531729077
2754.0,0.005597173613765745
2753.0,0.005587611125853698
2752.0,0.005575985778484586
2751.0,0.005559437819186901
2750.0,0.0055410303944383454
2749.0,0.005529557071742063
2748.0,0.005527734264323699
2747.0,0.005527956679287883
2746.0,0.005523525379928947
2745.0,0.00551676201794058
2744.0,0.005512426278606794
2743.0,0.005509975933734237
2742.0,0.005506639314821105
2741.0,0.0055022599988212
2740.0,0.005496801865109338
2739.0,0.005488223682371996
2738.0,0.005476313761394209
2737.0,0.00546389467476045
2736.0,0.005451878240338888
2735.0,0.00543840175371704
2734.0,0.005424862322317395
2733.0,0.005416348865033167
2732.0,0.005413336829917011
2731.0,0.005409310090823429
2730.0,0.005399369087839292
2729.0,0.005385355561360013
2728.0,0.005370013838562241
2727.0,0.005352552956975035
2726.0,0.0053330275441883235
2725.0,0.005315095618727737
2724.0,0.005301345668202689
2723.0,0.005291018839350735
2722.0,0.005284189108474322
2721.0,0.005281979348522344
2720.0,0.0052810004750712194
2719.0,0.005274728585019078
2718.0,0.00526265742070818
2717.0,0.005251333897360753
2716.0,0.005244131639382361
2715.0,0.005237303528126854
2714.0,0.005228539015201577
2713.0,0.005221341629351576
2712.0,0.005217337594804174
2711.0,0.00521221172432847
2710.0,0.005203692401617554
2709.0,0.005196202138256602
2708.0,0.0051930585037417544
2707.0,0.0051905946041145715
2706.0,0.005184833028414852
2705.0,0.005177833981633348
2704.0,0.005172522183810325
2703.0,0.005167057190678822
2702.0,0.0051590611755646205
2701.0,0.005150315563951222
2700.0,0.005142868944750073
2699.0,0.0051352428707648595
2698.0,0.005126605935447879
2697.0,0.005120162554775537
2696.0,0.005118394016889048
2695.0,0.005119126991138815
2694.0,0.00511949816394254
2693.0,0.005119563925076004
2692.0,0.00511942936365801
2691.0,0.005117311265094387
2690.0,0.005113056705540648
2689.0,0.005109106128153009
2688.0,0.00510585786545526
2687.0,0.005100752492440933
2686.0,0.0050935230703174576
2685.0,0.005087143262142501
2684.0,0.00508223108822331
2683.0,0.005076284255754907
2682.0,0.005070046694906317
2681.0,0.005068038688519564
2680.0,0.0050704862039953535
2679.0,0.005071442420444447
2678.0,0.00506754104351186
2677.0,0.005062388848271699
2676.0,0.00505935222231076
2675.0,0.005056304603891157
2674.0,0.0050508459573325145
2673.0,0.005044907380339961
2672.0,0.005040874852486848
2671.0,0.005038150881965989
2670.0,0.005036415143154533
2669.0,0.0050373629374483924
2668.0,0.005041098643612172
2667.0,0.005046132338745018
2666.0,0.005054592447468897
2665.0,0.005071373407060244
2664.0,0.005095978197159327
2663.0,0.005121317592385065
2662.0,0.005142691383153397
2661.0,0.005162033721476124
2660.0,0.0051813168336391135
2659.0,0.005198440652369799
2658.0,0.005212355991853663
2657.0,0.005225601334572579
2656.0,0.005238810178835903
2655.0,0.005248881382594593
2654.0,0.005255355131972065
2653.0,0.005262299049387
2652.0,0.005271061475750474
2651.0,0.005277895730287115
2650.0,0.005281638024536248
2649.0,0.00528688176868589
2648.0,0.005296142060619504
2647.0,0.005305486890290007
2646.0,0.005311048978853776
2645.0,0.005313412898038796
2644.0,0.005312890434919936
2643.0,0.005307711831899344
2642.0,0.005300123060106191
2641.0,0.005296577883553104
2640.0,0.005298296731170041
2639.0,0.005298792204910952
2638.0,0.005294238949459679
2637.0,0.005288772443064517
2636.0,0.005286224099606735
2635.0,0.005284678575243431
2634.0,0.005282933268141915
2633.0,0.005284029357550858
2632.0,0.005288016100999463
2631.0,0.005289111613122426
2630.0,0.005284405307238763
2629.0,0.005277803344334514
2628.0,0.005271598745392951
2627.0,0.0052625876129425275
2626.0,0.005250272854920744
2625.0,0.005239892870321804
2624.0,0.005232739786661504
2623.0,0.005222841689098242
2622.0,0.005208320544665766
2621.0,0.005196635924094078
2620.0,0.005192672281171111
2619.0,0.005190527831174853
2618.0,0.005183590688649364
2617.0,0.005174465793820387
2616.0,0.005168527244560893
2615.0,0.005165182836187187
2614.0,0.0051616228531652635
2613.0,0.005158204945171515
2612.0,0.005154576101822271
2611.0,0.005147372407381609
2610.0,0.005136570906472991
2609.0,0.005127377559773467
2608.0,0.00512197585054157
2607.0,0.005116847697352042
2606.0,0.005111222199937763
2605.0,0.005109164395999088
2604.0,0.005109955980426583
2603.0,0.005106161875563533
2602.0,0.005095411218399378
2601.0,0.0050845497090563204
2600.0,0.005078050866457901
2599.0,0.005072522590527973
2598.0,0.005066663192144915
2597.0,0.005065546706622316
2596.0,0.005069799667123547
2595.0,0.005071494052330819
2594.0,0.005066742073055006
2593.0,0.005061899919545176
2592.0,0.005061756019704014
2591.0,0.005061768919379926
2590.0,0.005057594152662206
2589.0,0.005051941891856517
2588.0,0.005046314635848363
2587.0,0.005036833234527464
2586.0,0.005024135033921389
2585.0,0.005016345129787132
2584.0,0.005015793174912573
2583.0,0.005013170578906193
2582.0,0.005001501029377903
2581.0,0.004986123380854493
2580.0,0.0049744540519294665
2579.0,0.00496596767926247
2578.0,0.004958380847088777
2577.0,0.004953475009281015
2576.0,0.004950527162036417
2575.0,0.004943567195952424
2574.0,0.004931202179391124
2573.0,0.004920143476747826
2572.0,0.004913943293318998
2571.0,0.004907915761029773
2570.0,0.0048995387022806895
2569.0,0.00489307230341891
2568.0,0.004889264740492852
2567.0,0.0048817038527350035
2566.0,0.004868700378501373
2565.0,0.004857893797381199
2564.0,0.0048537988986671835
2563.0,0.004851610975711149
2562.0,0.004847848513157779
2561.0,0.004845438408245615
2560.0,0.004843687562084304
2559.0,0.004835660197935666
2558.0,0.004821209926910973
2557.0,0.004810746208120974
2556.0,0.004810245167437435
2555.0,0.004813621467993131
2554.0,0.004814870579088065
2553.0,0.004815719141470821
2552.0,0.004816247464426325
2551.0,0.004811054493082517
2550.0,0.004800708770615283
2549.0,0.004794602123515622
2548.0,0.004796339847140691
2547.0,0.004798085221837426
2546.0,0.004794746460477561
2545.0,0.004791122716452805
2544.0,0.00478957826342029
2543.0,0.004783893916443807
2542.0,0.004771678934421659
2541.0,0.004760216070302641
2540.0,0.004753290843328623
2539.0,0.004744767567139195
2538.0,0.004731680969293493
2537.0,0.004721002353826395
2536.0,0.004716963267303704
2535.0,0.004713797034441587
2534.0,0.004707319975643796
2533.0,0.004701722802033811
2532.0,0.00469901045964921
2531.0,0.004694236374984789
2530.0,0.004686919153005084
2529.0,0.0046841126205859045
2528.0,0.00468619049552555
2527.0,0.004682953208282014
2526.0,0.00467065092692776
2525.0,0.004659689162811381
2524.0,0.00465802701609603
2523.0,0.004659725032962743
2522.0,0.004657346767319196
2521.0,0.0046533034382983994
2520.0,0.0046516499202034775
2519.0,0.004650356421362998
2518.0,0.004648653068987058
2517.0,0.004650758018178241
2516.0,0.004655923520884387
2515.0,0.004656305452534936
2514.0,0.004650692858664295
2513.0,0.004648401172810481
2512.0,0.004653731746107
2511.0,0.004658631870509194
2510.0,0.004656506587601788
2509.0,0.004651362490712709
2508.0,0.004647587401099897
2507.0,0.004642555036612521
2506.0,0.004634984419387485
2505.0,0.004629026674447883
2504.0,0.00462513941019061
2503.0,0.004618809133171548
2502.0,0.004612148555352468
2501.0,0.004613300913194158
2500.0,0.0046203211264962685
2499.0,0.004620091203204997
2498.0,0.0046081400564489975
2497.0,0.004594766532940121
2496.0,0.004586205462054833
2495.0,0.004575359680040181
2494.0,0.004558109117363905
2493.0,0.004543402053143706
2492.0,0.004538394357729563
2491.0,0.004537125952410211
2490.0,0.004532343531089843
2489.0,0.004525952404233165
2488.0,0.004520274044339547
2487.0,0.0045117006542963085
2486.0,0.004500505649967139
2485.0,0.0044945113153891355
2484.0,0.004495616849348181
2483.0,0.004494373888198737
2482.0,0.004484401247716527
2481.0,0.004470662035492042
2480.0,0.004458116411287791
2479.0,0.004444761289987023
2478.0,0.004431453201123575
2477.0,0.004425274102433907
2476.0,0.004426579581912784
2475.0,0.004425476918830384
2474.0,0.004417555179981914
2473.0,0.004410503348610479
2472.0,0.004409219315437176
2471.0,0.00440746153999658
2470.0,0.004400468222969779
2469.0,0.004392941323352909
2468.0,0.004388415118797562
2467.0,0.004383439045009634
2466.0,0.004377910160312404
2465.0,0.004377946650183058
2464.0,0.004382826540527907
2463.0,0.00438272217194419
2462.0,0.004375631448014177
2461.0,0.004373187494032437
2460.0,0.004383259974853827
2459.0,0.004399663700392914
2458.0,0.004414720471152103
2457.0,0.004428391602872414
2456.0,0.004439256320340326
2455.0,0.0044407252806906656
2454.0,0.0044331938881347135
2453.0,0.004426829128488571
2452.0,0.004425757145875828
2451.0,0.0044224025140599255
2450.0,0.004413110466132403
2449.0,0.0044051696658859215
2448.0,0.0044021263051725835
2447.0,0.004396990461803134
2446.0,0.004387261213066038
2445.0,0.004382059349217079
2444.0,0.004386316271443501
2443.0,0.004391450519808399
2442.0,0.00438959117890872
2441.0,0.0043844307011906055
2440.0,0.004381114710777796
2439.0,0.0043782213561230545
2438.0,0.004376221586778096
2437.0,0.004380582354126945
2436.0,0.004389816127873119
2435.0,0.004393551123118614
2434.0,0.004388786861535709
2433.0,0.004385010780913908
2432.0,0.004387415663534795
2431.0,0.004388966200439808
2430.0,0.004385298597298842
2429.0,0.004383002108595167
2428.0,0.004386050419542806
2427.0,0.004388038417379722
2426.0,0.004385226505315374
2425.0,0.004383876270899678
2424.0,0.0043873824961841515
2423.0,0.004389246777962826
2422.0,0.004386093336234675
2421.0,0.004384813177759626
2420.0,0.0043897578036785935
2419.0,0.004395454562601974
2418.0,0.0043985025029590705
2417.0,0.004404042780015337
2416.0,0.00441399286358543
2415.0,0.00442092959199305
2414.0,0.004419997663995423
2413.0,0.004415854484700086
2412.0,0.0044126225762335745
2411.0,0.004407919971969525
2410.0,0.004400800761857834
2409.0,0.004393797419488851
2408.0,0.004383750004637772
2407.0,0.004363910033652792
2406.0,0.004338736819047498
2405.0,0.00432232863757271
2404.0,0.004318428420112006
2403.0,0.004316405853491967
2402.0,0.004310216977124862
2401.0,0.004305945255527675
2400.0,0.004306206782614491
2399.0,0.004302760466137215
2398.0,0.0042908499373353354
2397.0,0.004276743929181127
2396.0,0.004264852851780152
2395.0,0.004250944340004843
2394.0,0.0042339267385803165
2393.0,0.004220492236229724
2392.0,0.004212246703456768
2391.0,0.004201135054729064
2390.0,0.004182600463775437
2389.0,0.00416080059962019
2388.0,0.004136533734024775
2387.0,0.004103828179102807
2386.0,0.004064054730476484
2385.0,0.004030058110513474
2384.0,0.004010212191677931
2383.0,0.004000841967678845
2382.0,0.003999944311903853
2381.0,0.004014284682433393
2380.0,0.00404318415997167
2379.0,0.004068084783164361
2378.0,0.00407153647937674
2377.0,0.004054387584846173
2376.0,0.0040221417149927646
2375.0,0.003972006777983768
2374.0,0.003911446057062328
2373.0,0.003869284100465953
2372.0,0.003862721676667613
2371.0,0.003872088478006571
2370.0,0.0038768930806065867
2369.0,0.003891242671153594
2368.0,0.003930106426911483
2367.0,0.003973894897595893
2366.0,0.004005849328732785
2365.0,0.004043235768845447
2364.0,0.004086735803772815
2363.0,0.004094267718887789
2362.0,0.00405355098600342
2361.0,0.004019707662375596
2360.0,0.004026841291391845
2359.0,0.004035568672043588
2358.0,0.004018826576976133
2357.0,0.004009925796806706
2356.0,0.004026808250255797
2355.0,0.004040409668996831
2354.0,0.004040285485218904
2353.0,0.0040484000733431195
2352.0,0.0040620982502026755
2351.0,0.004058056981232341
2350.0,0.004044695163704784
2349.0,0.004057988656286604
2348.0,0.004112978511304976
2347.0,0.004171956006434408
2346.0,0.004178483355350782
2345.0,0.00413139968564641
2344.0,0.004080957511088584
2343.0,0.004054554443678518
2342.0,0.004056194883765431
2341.0,0.00409485422147229
2340.0,0.004151998171791033
2339.0,0.004184914261507899
2338.0,0.004183049376310794
2337.0,0.004177221598667257
2336.0,0.004181407999005265
2335.0,0.004176561084013326
2334.0,0.004156413677386826
2333.0,0.00413853224515689
2332.0,0.0041206674455049564
2331.0,0.00407765130524375
2330.0,0.004013175431950995
2329.0,0.003974597292200766
2328.0,0.004004015155575521
2327.0,0.0041039456060185855
2326.0,0.004254548614011656
2325.0,0.004415902081814962
2324.0,0.004523720788275656
2323.0,0.004527080642513173
2322.0,0.004446979303831662
2321.0,0.004357879099758774
2320.0,0.004300632600647954
2319.0,0.004261430024985084
2318.0,0.00422691652455031
2317.0,0.00421177012705632
2316.0,0.004220950567206002
2315.0,0.004232929510000389
2314.0,0.004230491873231829
2313.0,0.004220372508683719
2312.0,0.004209291622607967
2311.0,0.004190861693638891
2310.0,0.004166877998576104
2309.0,0.004152092608630792
2308.0,0.004148270068639733
2307.0,0.004139561988230748
2306.0,0.004122389046891011
2305.0,0.004112636902229264
2304.0,0.004117356570734026
2303.0,0.00412452555829623
2302.0,0.004128530994455796
2301.0,0.004140094221645157
2300.0,0.004161763183733713
2299.0,0.004178051059351292
2298.0,0.004182171745584446
2297.0,0.004188246433974353
2296.0,0.004206745660411649
2295.0,0.004230261409786989
2294.0,0.0042548123746680684
2293.0,0.004289834007519098
2292.0,0.004335640559468013
2291.0,0.004374660788469723
2290.0,0.004398753216885914
2289.0,0.004422444969439951
2288.0,0.0044558616222095575
2287.0,0.004485914299493571
2286.0,0.004498351974351701
2285.0,0.004496497967933216
2284.0,0.004485465253304772
2283.0,0.0044605559823077704
2282.0,0.004425739547641714
2281.0,0.004400429193657967
2280.0,0.004391059540214487
2279.0,0.004379374363701946
2278.0,0.004354675714277945
2277.0,0.004333580387157546
2276.0,0.004330509440087991
2275.0,0.004334638536097041
2274.0,0.004333693726282038
2273.0,0.004333948191869113
2272.0,0.0043389283918598585
2271.0,0.00433511024566083
2270.0,0.004317289861087294
2269.0,0.004300404040476985
2268.0,0.004289474590317688
2267.0,0.004267319128832138
2266.0,0.0042293618727777165
2265.0,0.004200050514079619
2264.0,0.00419538538085727
2263.0,0.004200292622979376
2262.0,0.004201657156706249
2261.0,0.00421155939765672
2260.0,0.004237566836574527
2259.0,0.004260518816372735
2258.0,0.004262156392441973
2257.0,0.004246468388205545
2256.0,0.004218389859859698
2255.0,0.004173943138929429
2254.0,0.00412723721386184
2253.0,0.004111023294494051
2252.0,0.004131132610815816
2251.0,0.004154962608124181
2250.0,0.004161775549602509
2249.0,0.004167133111815971
2248.0,0.0041824889378094645
2247.0,0.0041917696151236574
2246.0,0.004187807632315457
2245.0,0.004190977102624796
2244.0,0.004207908661539302
2243.0,0.004212472095138857
2242.0,0.004192414381341543
2241.0,0.004174628203492922
2240.0,0.0041797624667829734
2239.0,0.004190505473254257
2238.0,0.004188983867439773
2237.0,0.00418594819487176
2236.0,0.004188265033869173
2235.0,0.00417838061010772
2234.0,0.004152004994767491
2233.0,0.004136220581865309
2232.0,0.0041438521671461215
2231.0,0.00415062681769969
2230.0,0.004141746987529015
2229.0,0.004138100471881748
2228.0,0.004151550365425857
2227.0,0.004158620672152842
2226.0,0.004145465071180831
2225.0,0.0041338806752229
2224.0,0.004136664537162385
2223.0,0.004133503010825507
2222.0,0.004117344461117689
2221.0,0.0041161134592854285
2220.0,0.004138672119004308
2219.0,0.0041489920816410375
2218.0,0.004125484859655134
2217.0,0.004097760625244504
2216.0,0.004093423251840276
2215.0,0.004095789980023853
2214.0,0.004086074150107543
2213.0,0.004078457805905577
2212.0,0.004081298314985097
2211.0,0.004072662059355071
2210.0,0.0040452593039124515
2209.0,0.004027951910544098
2208.0,0.004033490069581459
2207.0,0.004034685699260053
2206.0,0.0040210099960880175
2205.0,0.00402488869903769
2204.0,0.0040608949328837345
2203.0,0.00409430752046027
2202.0,0.004100884444751371
2201.0,0.004101866844988859
2200.0,0.004110387478158006
2199.0,0.004101570062170082
2198.0,0.00406972591718417
2197.0,0.004056299770529042
2196.0,0.004083748348353141
2195.0,0.004119006729102713
2194.0,0.004136932273152859
2193.0,0.004160676747307923
2192.0,0.004204338181955295
2191.0,0.004237042379526587
2190.0,0.0042416052189885554
2189.0,0.004248462499187349
2188.0,0.004274048031221294
2187.0,0.00428713822490225
2186.0,0.0042725576579344185
2185.0,0.004261277569929255
2184.0,0.004258694333545955
2183.0,0.0042167273193117255
2182.0,0.004124550800708017
2181.0,0.0040534195497952995
2180.0,0.004057226641680161
2179.0,0.004096987490789273
2178.0,0.004111771125666371
2177.0,0.004095785509418416
2176.0,0.004064433472479488
2175.0,0.004015914227596342
2174.0,0.003972474973353347
2173.0,0.0039903087198806106
2172.0,0.0040810343395940325
2171.0,0.004187526697714458
2170.0,0.004271652820421621
2169.0,0.004357778696121553
2168.0,0.004458573739500355
2167.0,0.0045334749433618045
2166.0,0.004566435127732267
2165.0,0.004611827912260125
2164.0,0.004706793373836457
2163.0,0.004799584201256294
2162.0,0.004803135664953244
2161.0,0.004652440259279669
2160.0,0.0042964567979411105
2159.0,0.0037522338440465187
2158.0,0.003205430337761483
2157.0,0.0029012004943425023
2156.0,0.002885123943102451
2155.0,0.0029945449934383733
2154.0,0.003099079082495295
2153.0,0.0032055116279800307
2152.0,0.003335786178758065
2151.0,0.003442458905235993
2150.0,0.0034885180752040916
2149.0,0.0035063206054737907
2148.0,0.003524462099621872
2147.0,0.0035202876001591155
2146.0,0.003487992023481886
2145.0,0.0034733036105310863
2144.0,0.00349754877614034
2143.0,0.00352194216562312
2142.0,0.003521745648073752
2141.0,0.003522772114932321
2140.0,0.003536349558821037
2139.0,0.0035308977312539266
2138.0,0.0034947634285884184
2137.0,0.003456156585417602
2136.0,0.0034172959737641733
2135.0,0.0033462508880389404
2134.0,0.003259091360651442
2133.0,0.0032288069482188896
2132.0,0.0032822452996434173
2131.0,0.003363475058813694
2130.0,0.0034245775446682496
2129.0,0.0034797583179452677
2128.0,0.003546264893184764
2127.0,0.003600700195285422
2126.0,0.0036276805760815235
2125.0,0.0036544837266137137
2124.0,0.0037022765748746006
2123.0,0.00375149772981792
2122.0,0.0037844979879318517
2121.0,0.0038156043764632805
2120.0,0.0038532063121609604
2119.0,0.0038805585380616466
2118.0,0.003899277044772479
2117.0,0.00394208666951314
2116.0,0.004014796761707729
2115.0,0.004074714527088467
2114.0,0.004094988901145198
2113.0,0.004101850544467014
2112.0,0.004119817972800033
2111.0,0.004130279354206671
2110.0,0.00411682398621603
2109.0,0.004101943342574152
2108.0,0.0041037004139661635
2107.0,0.004103403144907788
2106.0,0.004089957271542209
2105.0,0.004089237084929678
2104.0,0.004115518620929326
2103.0,0.004141108617397165
2102.0,0.004146570103508457
2101.0,0.004152561750165616
2100.0,0.004170242448416678
2099.0,0.004168707638404379
2098.0,0.004125283508381677
2097.0,0.0040622661124720145
2096.0,0.0040038269689568525
2095.0,0.003946377019976369
2094.0,0.003899615702335695
2093.0,0.0038993740059519713
2092.0,0.00394837276025941
2091.0,0.003999391261889713
2090.0,0.0040260540083837905
2089.0,0.004056547094261343
2088.0,0.004108158710561522
2087.0,0.004147599606504614
2086.0,0.004151239804466481
2085.0,0.0041486052780370306
2084.0,0.004168226528328233
2083.0,0.004191629315228937
2082.0,0.004199234002595195
2081.0,0.004209854682672268
2080.0,0.004234726858055303
2079.0,0.004244092739309901
2078.0,0.004220823953079191
2077.0,0.004196977902817588
2076.0,0.0041970136047309444
2075.0,0.00419579702666884
2074.0,0.004172104637106007
2073.0,0.004149513188527332
2072.0,0.004145274112158219
2071.0,0.004134560908028258
2070.0,0.004104631405672625
2069.0,0.004086597483680097
2068.0,0.00409347748434415
2067.0,0.004087679661752288
2066.0,0.0040503112052278165
2065.0,0.004021240074925444
2064.0,0.004026360691183965
2063.0,0.004030389961134909
2062.0,0.0040061911668173075
2061.0,0.003981272784495392
2060.0,0.0039775953528318475
2059.0,0.003974151451887952
2058.0,0.0039638404802725576
2057.0,0.00397443954093674
2056.0,0.003999697670671416
2055.0,0.003994756699835499
2054.0,0.003979887879378019
2053.0,0.004048934704827893
2052.0,0.004218180546230684
2051.0,0.004362637583411034
2050.0,0.00436847737586922
2049.0,0.004273468269034614
2048.0,0.00418050786142445
2047.0,0.0041090957172249375
2046.0,0.004032662495059793
2045.0,0.003977592493905411
2044.0,0.003972961683824669
2043.0,0.0039784087429290856
2042.0,0.003957909560463096
2041.0,0.0039546544156855235
2040.0,0.004007371375889069
2039.0,0.0040696485366258275
2038.0,0.004092263793279525
2037.0,0.004096080818926683
2036.0,0.004093221560438282
2035.0,0.004034043521858273
2034.0,0.00391117817770267
2033.0,0.0038156022123712026
2032.0,0.003801288476822384
2031.0,0.0038046799395046642
2030.0,0.003775670951384138
2029.0,0.0037624871645766905
2028.0,0.003789893332540329
2027.0,0.00378532483483038
2026.0,0.0037155205099092363
2025.0,0.0036674959885272555
2024.0,0.00370184835935142
2023.0,0.0037515832239445935
2022.0,0.0037523513288227383
2021.0,0.0037463700412824963
2020.0,0.003772204236749661
2019.0,0.0037764361832242793
2018.0,0.0037267996760731135
2017.0,0.0036971562321439088
2016.0,0.0037409049450664597
2015.0,0.0038003315505250423
2014.0,0.0038298921573104976
2013.0,0.0038769174507959584
2012.0,0.0039637208720799365
2011.0,0.004014241318893215
2010.0,0.003975059146624129
2009.0,0.0038974353489858093
2008.0,0.003827794786298521
2007.0,0.0037381816179153865
2006.0,0.0036371738249794403
2005.0,0.0036113820157245694
2004.0,0.003679075462694405
2003.0,0.0037404102814788433
2002.0,0.0037377791436642473
2001.0,0.0037364864323577553
2000.0,0.0037864810812952843
1999.0,0.003831386566146422
1998.0,0.003827546819288379
1997.0,0.003828810120184099
1996.0,0.0038739068953805495
1995.0,0.003908325788484913
1994.0,0.0038935357136037976
1993.0,0.0038887273220713876
1992.0,0.003937870431563982
1991.0,0.003979316672378652
1990.0,0.003970413758311216
1989.0,0.003978737506249206
1988.0,0.004056580940830093
1987.0,0.004146852266892916
1986.0,0.004194019892151232
1985.0,0.004240244023605464
1984.0,0.00432968469859949
1983.0,0.00442525247010029
1982.0,0.00449771108951777
1981.0,0.004581761967800865
1980.0,0.004661354867690825
1979.0,0.004621275683707108
1978.0,0.0044219734253177385
1977.0,0.004203625872867055
1976.0,0.004087501255368786
1975.0,0.004017330272929026
1974.0,0.003920947884431723
1973.0,0.003853986725107884
1972.0,0.003864454821503095
1971.0,0.003880605700622307
1970.0,0.003846207814544061
1969.0,0.003826006500487413
1968.0,0.0038715393825147233
1967.0,0.003908340923528795
1966.0,0.003872585867167061
1965.0,0.0038258655135346817
1964.0,0.0038218673345835597
1963.0,0.003805672079497255
1962.0,0.003732514227912618
1961.0,0.0036582072936607803
1960.0,0.0036293952102174577
1959.0,0.0036019493247273246
1958.0,0.003550799804342691
1957.0,0.003534748829825942
1956.0,0.0035772937458759947
1955.0,0.0036045748373135875
1954.0,0.00357236951458097
1953.0,0.00354020606411739
1952.0,0.0035512325377937406
1951.0,0.0035539779672389008
1950.0,0.003509812223997272
1949.0,0.003467839028653934
1948.0,0.0034662327056184726
1947.0,0.003462818758874534
1946.0,0.003430201025740478
1945.0,0.003416694131201368
1944.0,0.003446478294461871
1943.0,0.003455588735593151
1942.0,0.0034068631886142926
1941.0,0.003363022649982314
1940.0,0.00336330878600827
1939.0,0.003357147136845673
1938.0,0.00331310449767281
1937.0,0.003278366989728413
1936.0,0.003284447030949403
1935.0,0.003286979882853987
1934.0,0.0032578678153700924
1933.0,0.0032422874171799654
1932.0,0.003264806139630613
1931.0,0.003276081783959969
1930.0,0.003247346558217823
1929.0,0.0032236937428000703
1928.0,0.0032315153419961795
1927.0,0.0032269881362584183
1926.0,0.0031881321674513724
1925.0,0.0031659652353107984
1924.0,0.0031938851450072823
1923.0,0.0032270502277072627
1922.0,0.0032335300688305143
1921.0,0.0032533629427135414
1920.0,0.003304281869256751
1919.0,0.0033288159667116297
1918.0,0.0032957966113245636
1917.0,0.003266523594545873
1916.0,0.003282169737117508
1915.0,0.0032960856313141366
1914.0,0.003277098763721176
1913.0,0.003266065127381363
1912.0,0.0032902340826196164
1911.0,0.003304544440685516
1910.0,0.003275843222052674
1909.0,0.003249236616673104
1908.0,0.0032608452707127743
1907.0,0.003272179596693213
1906.0,0.0032555611070389508
1905.0,0.003250200268124325
1904.0,0.003278571085085465
1903.0,0.00329544939668574
1902.0,0.0032717367564470837
1901.0,0.0032493425815803
1900.0,0.0032593182908013997
1899.0,0.0032662275007076915
1898.0,0.0032458862970549075
1897.0,0.00323658403677952
1896.0,0.0032618619559671895
1895.0,0.0032776097704384074
1894.0,0.0032578599876981846
1893.0,0.003246599635592423
1892.0,0.003267765858047626
1891.0,0.003274214419411552
1890.0,0.003237363654086207
1889.0,0.0032100946043823525
1888.0,0.00322707467915416
1887.0,0.0032413550490492968
1886.0,0.003222484569168634
1885.0,0.003209949853164108
1884.0,0.003228531495410317
1883.0,0.0032365965960359185
1882.0,0.0032089340621741036
1881.0,0.0031905949080379636
1880.0,0.003211831317703596
1879.0,0.0032314833807215687
1878.0,0.003219176902889727
1877.0,0.0032117092596896375
1876.0,0.0032329753330725564
1875.0,0.0032416354921669874
1874.0,0.00321545489937928
1873.0,0.0032013697923841465
1872.0,0.0032284574787251616
1871.0,0.0032501225857867596
1870.0,0.003226444551918284
1869.0,0.0032076065114415822
1868.0,0.0032370060594208053
1867.0,0.003261021944698054
1866.0,0.0032472619609037693
1865.0,0.003244152488603312
1864.0,0.003275797730534814
1863.0,0.003298693283812582
1862.0,0.003287617956654512
1861.0,0.0032865334781521263
1860.0,0.0033222009504504366
1859.0,0.0033497914460335868
1858.0,0.0033415644824083606
1857.0,0.0033417084005659785
1856.0,0.0033775272361460116
1855.0,0.0034046235913523836
1854.0,0.0033955487175583473
1853.0,0.0033947266120215166
1852.0,0.003431690761443717
1851.0,0.0034634743885503558
1850.0,0.003461249351683221
1849.0,0.0034721984157660996
1848.0,0.003529745721864262
1847.0,0.0035862283558137976
1846.0,0.003596328961092405
1845.0,0.003602704234516849
1844.0,0.0036488034615285775
1843.0,0.00368791512214535
1842.0,0.0036985608716997138
1841.0,0.0037358367929492846
1840.0,0.0038157538192204014
1839.0,0.003883503437472907
1838.0,0.0039123109492781895
1837.0,0.003955644394557
1836.0,0.004044123476293739
1835.0,0.004124846522091794
1834.0,0.004167849214553976
1833.0,0.004221873305144372
1832.0,0.004319918340641348
1831.0,0.004410807332155963
1830.0,0.004455161757309599
1829.0,0.0045119477337304545
1828.0,0.004615527909744454
1827.0,0.004703415061665031
1826.0,0.004741833565540289
1825.0,0.004792217288306785
1824.0,0.004890438873748826
1823.0,0.004973657592655253
1822.0,0.0050086885696609745
1821.0,0.005049812240608059
1820.0,0.005123244370846348
1819.0,0.0051740606268324855
1818.0,0.005177841271589114
1817.0,0.005205176651945055
1816.0,0.005296950978305206
1815.0,0.005394566509417948
1814.0,0.005459168563265033
1813.0,0.005540884538841976
1812.0,0.005670723374150546
1811.0,0.005785061198730761
1810.0,0.005847338369926667
1809.0,0.005926764198331186
1808.0,0.006060249904438784
1807.0,0.006184679096997644
1806.0,0.006270158504322913
1805.0,0.006381911909089553
1804.0,0.006556737602744093
1803.0,0.0067333167445432374
1802.0,0.006876864701940529
1801.0,0.007064802651725562
1800.0,0.007334339904641257
1799.0,0.007597762859604319
1798.0,0.00782530407249681
1797.0,0.008111421954996664
1796.0,0.008493669959491969
1795.0,0.008897755358776358
1794.0,0.00931779672050569
1793.0,0.009929209398571478
1792.0,0.010817285626309493
1791.0,0.011772998126371028
1790.0,0.012668830018956474
1789.0,0.013636120846601991
1788.0,0.014787070198426287
1787.0,0.016131781106918763
1786.0,0.017713673032403465
1785.0,0.01958657500240758
1784.0,0.021627855367888422
1783.0,0.023661095376785336
1782.0,0.025771174298314187
1781.0,0.028187020625405824
1780.0,0.03082199154325604
1779.0,0.03330924002782972
1778.0,0.03554517936150806
1777.0,0.03772626772529743
1776.0,0.03991956233933573
1775.0,0.042046690428943496
1774.0,0.04427427863688614
1773.0,0.047113384093988894
1772.0,0.05054509218658205
1771.0,0.05375333888802299
1770.0,0.05653453030302149
1769.0,0.05958274425649984
1768.0,0.06333258753555826
1767.0,0.06744227831677774
1766.0,0.07140271367050159
1765.0,0.07529904688675561
1764.0,0.07968539957345937
1763.0,0.0851737804450722
1762.0,0.09186111341270396
1761.0,0.09878303047340245
1760.0,0.10480266287693057
1759.0,0.10993179541217499
1758.0,0.1151422040729721
1757.0,0.12103272807970004
1756.0,0.12670649723556035
1755.0,0.130894328355698
1754.0,0.13373528723994482
1753.0,0.13622882662911512
1752.0,0.1389394698579444
1751.0,0.14154756188598833
1750.0,0.14349422868877906
1749.0,0.14461368565306815
1748.0,0.14470954147576756
1747.0,0.14355937119539364
1746.0,0.14129187983187425
1745.0,0.13800156084766654
1744.0,0.13353319120916093
1743.0,0.12797440181755082
1742.0,0.12161382388680121
1741.0,0.11417937304225045
1740.0,0.10531829159541689
1739.0,0.09622048612293001
1738.0,0.08871130411190475
1737.0,0.08275993647986725
1736.0,0.07683543673297982
1735.0,0.06921908349345976
1734.0,0.06053312179120888
1733.0,0.05368062557215781
1732.0,0.049185317467181286
1731.0,0.04564415282452993
1730.0,0.04238918234839737
1729.0,0.039369119348049555
1728.0,0.036729505615152376
1727.0,0.03453420735643677
1726.0,0.03270956777839715
1725.0,0.031060208984231542
1724.0,0.029457904246569685
1723.0,0.02801975515192661
1722.0,0.02689076962721362
1721.0,0.02597116912079212
1720.0,0.025021935161412236
1719.0,0.023909791677414197
1718.0,0.022713624420794942
1717.0,0.021560756913263358
1716.0,0.020466209333251863
1715.0,0.01947346818772947
1714.0,0.01863465984160194
1713.0,0.017878737638342954
1712.0,0.01711612558182758
1711.0,0.016361737710374004
1710.0,0.01568056014686807
1709.0,0.015067824523405361
1708.0,0.014458036022325411
1707.0,0.013828323195615765
1706.0,0.013231960797791174
1705.0,0.012717993161865454
1704.0,0.01229073041780151
1703.0,0.0119414037720448
1702.0,0.01164252009276383
1701.0,0.011287333794770885
1700.0,0.010827222745827226
1699.0,0.010432332769597385
1698.0,0.010211486227404108
1697.0,0.01004513139293136
1696.0,0.009806681127791796
1695.0,0.009548689582598788
1694.0,0.009379513196559941
1693.0,0.009274508001334595
1692.0,0.009160759928231616
1691.0,0.009029783562555025
1690.0,0.008922099523697716
1689.0,0.008847059823504769
1688.0,0.008771586326742834
1687.0,0.00869116535814329
1686.0,0.008629442128960748
1685.0,0.008588622525091462
1684.0,0.008535523453404059
1683.0,0.008473852952197838
1682.0,0.008447382658254048
1681.0,0.008439865955294217
1680.0,0.008413779720415371
1679.0,0.008380302309721676
1678.0,0.008368107856191496
1677.0,0.008371891341903725
1676.0,0.00836367489951873
1675.0,0.008350834288421559
1674.0,0.008357018629338683
1673.0,0.008369694498251617
1672.0,0.008362677222783832
1671.0,0.008346729794340882
1670.0,0.008362873283195923
1669.0,0.008399888750007425
1668.0,0.008410481341891237
1667.0,0.008406745114539468
1666.0,0.008420179386298104
1665.0,0.008445310645754604
1664.0,0.008462883321651312
1663.0,0.008480615289267282
1662.0,0.00851533819042423
1661.0,0.008548000531275565
1660.0,0.008561094773483203
1659.0,0.008568763611934403
1658.0,0.008595314378868138
1657.0,0.008631870958238384
1656.0,0.00865884124542836
1655.0,0.008659106463233895
1654.0,0.00869192645473876
1653.0,0.008781454522623779
1652.0,0.00879851680890198
1651.0,0.008765747854086162
1650.0,0.008764349054639653
1649.0,0.008777032198266494
1648.0,0.008784839914444346
1647.0,0.008796851431910408
1646.0,0.008819167690838679
1645.0,0.008818371352321386
1644.0,0.00879171994555253
1643.0,0.00876653256177144
1642.0,0.008759728053850032
1641.0,0.008764122596426173
1640.0,0.008762470634784974
1639.0,0.008755298903244828
1638.0,0.008753728911771478
1637.0,0.008755530016390334
1636.0,0.008746843876802421
1635.0,0.00872258252793442
1634.0,0.008691803141757236
1633.0,0.008658756657396625
1632.0,0.008617570613913017
1631.0,0.008572618491579417
1630.0,0.008535565633208102
1629.0,0.008503672493302016
1628.0,0.008463574210478615
1627.0,0.008416607244033593
1626.0,0.008372090354177648
1625.0,0.008320791818412068
1624.0,0.00824809421305185
1623.0,0.008167889381154633
1622.0,0.008102760188907258
1621.0,0.008046581637690859
1620.0,0.00798475633492398
1619.0,0.007915499227452
1618.0,0.007843551243486447
1617.0,0.007762541739342143
1616.0,0.007662831826150747
1615.0,0.00756580179319373
1614.0,0.007493984956485397
1613.0,0.007432908409256454
1612.0,0.007361433659576154
1611.0,0.007283763628855287
1610.0,0.0072150423109934555
1609.0,0.0071493950431795895
1608.0,0.007072873105370018
1607.0,0.006996401156204402
1606.0,0.006937674655654382
1605.0,0.006889887834018811
1604.0,0.006837850118181942
1603.0,0.006786533856533246
1602.0,0.006748202889716061
1601.0,0.0067143773704301905
1600.0,0.00666918803227381
1599.0,0.0066175038045741975
1598.0,0.006574177964077945
1597.0,0.006538297861316052
1596.0,0.006499823657968438
1595.0,0.00646242749858632
1594.0,0.0064352600057707285
1593.0,0.006410771237645287
1592.0,0.006376524373594016
1591.0,0.006338531717321021
1590.0,0.006309884006413331
1589.0,0.006286620598783072
1588.0,0.006257098691475122
1587.0,0.006225628497565172
1586.0,0.0062029981286211055
1585.0,0.00618356660634928
1584.0,0.006155807216621915
1583.0,0.006124400254058235
1582.0,0.0061003868448174315
1581.0,0.006080518873053194
1580.0,0.006055405608061774
1579.0,0.0060264490615833085
1578.0,0.006000375649080458
1577.0,0.005977050009634203
1576.0,0.005948728169475008
1575.0,0.005916994258110887
1574.0,0.005894528023694684
1573.0,0.0058788934675488395
1572.0,0.005854469684060689
1571.0,0.005819442376809128
1570.0,0.005793033736842942
1569.0,0.005777722788179199
1568.0,0.005755405513629346
1567.0,0.005729291653012295
1566.0,0.005713073823225536
1565.0,0.005703013755398501
1564.0,0.005690752440941387
1563.0,0.005678440912686144
1562.0,0.00567470323098439
1561.0,0.005666427567354319
1560.0,0.005637263697359417
1559.0,0.005641743599545963
1558.0,0.00567769998663506
1557.0,0.005682891471841588
1556.0,0.005674427360793001
1555.0,0.0056687554858765865
1554.0,0.005665977971094121
1553.0,0.0056636120424520845
1552.0,0.005655745893064838
1551.0,0.005649337602762002
1550.0,0.005653260051787392
1549.0,0.005662858709544875
1548.0,0.0056640202176898215
1547.0,0.005657675791941615
1546.0,0.005653522101180387
1545.0,0.005654895026106857
1544.0,0.005649928311497591
1543.0,0.00562900713411706
1542.0,0.005602384967140344
1541.0,0.005591362725772763
1540.0,0.005594238664687696
1539.0,0.0055819875352033504
1538.0,0.00556141890060683
1537.0,0.005552705795049221
1536.0,0.005545167654363206
1535.0,0.005525292475727048
1534.0,0.005502383357002702
1533.0,0.005491340751701926
1532.0,0.005480545435805387
1531.0,0.005462063432421344
1530.0,0.005445624529973951
1529.0,0.005434246766360773
1528.0,0.0054185070141694386
1527.0,0.005390943431002004
1526.0,0.005363029192354218
1525.0,0.005347959460899615
1524.0,0.0053399018741690256
1523.0,0.005326011717570992
1522.0,0.0053181175321774295
1521.0,0.0053296615379230606
1520.0,0.00533610748430684
1519.0,0.005322618495977305
1518.0,0.005300664755455825
1517.0,0.005280023330845887
1516.0,0.005257408587046099
1515.0,0.005227920276097705
1514.0,0.005200395046021455
1513.0,0.005179441536977498
1512.0,0.005156502443976393
1511.0,0.0051272142209566225
1510.0,0.005100163191087219
1509.0,0.005080315626456695
1508.0,0.005046940600086664
1507.0,0.004983478426332163
1506.0,0.004915631787245186
1505.0,0.004871697816226049
1504.0,0.004850864145522343
1503.0,0.004837054964329232
1502.0,0.004824121610297334
1501.0,0.004816077538278715
1500.0,0.0048070777121931585
1499.0,0.004782444432539561
1498.0,0.004748728833867611
1497.0,0.004737261906346153
1496.0,0.004746602642045732
1495.0,0.004748110195114552
1494.0,0.00475018982699953
1493.0,0.004774497000574505
1492.0,0.004810300743959072
1491.0,0.004831913919503995
1490.0,0.004851623555794465
1489.0,0.004903231107067985
1488.0,0.004968765360902955
1487.0,0.005017218865030079
1486.0,0.005064299192475643
1485.0,0.005133167888238355
1484.0,0.005216312241989028
1483.0,0.005298359175590532
1482.0,0.005392246838205987
1481.0,0.005518346380098896
1480.0,0.0056611161050925595
1479.0,0.005798282317171963
1478.0,0.005954480675972233
1477.0,0.0061731063352265325
1476.0,0.0064429690040115235
1475.0,0.006726456224430052
1474.0,0.007088165835113582
1473.0,0.00767617357092455
1472.0,0.008439908176383015
1471.0,0.009172585038369374
1470.0,0.009870866391272555
1469.0,0.010650075740283869
1468.0,0.011566101470983102
1467.0,0.012683562945555265
1466.0,0.014174360822809925
1465.0,0.016136067320023574
1464.0,0.018241114086654537
1463.0,0.020065628142730954
1462.0,0.021608616873808696
1461.0,0.023048487343427883
1460.0,0.024488699882137248
1459.0,0.026018840296772275
1458.0,0.02792715347239179
1457.0,0.030120416841998898
1456.0,0.0316856922184746
1455.0,0.032352585903664986
1454.0,0.032631766408374674
1453.0,0.03277079495292403
1452.0,0.03274288286645819
1451.0,0.03249578765439864
1450.0,0.03202868129606941
1449.0,0.03126265825406135
1448.0,0.030088152474616783
1447.0,0.02858965314570518
1446.0,0.0269383035568804
1445.0,0.025145958603049006
1444.0,0.02315229466734709
1443.0,0.021015406527099448
1442.0,0.01889915807632517
1441.0,0.016961438756142203
1440.0,0.015293366205205664
1439.0,0.013886317468389536
1438.0,0.012602254606515534
1437.0,0.011310630015918649
1436.0,0.010172807579698764
1435.0,0.009424246223374346
1434.0,0.008978276998230976
1433.0,0.008627692550166259
1432.0,0.00829292028166219
1431.0,0.007999477683866682
1430.0,0.007762810023075158
1429.0,0.007549772360612045
1428.0,0.00736220639482487
1427.0,0.007230773382897694
1426.0,0.007139741028538903
1425.0,0.007041698491662614
1424.0,0.006938940027169109
1423.0,0.00687446113726006
1422.0,0.006843998818969179
1421.0,0.0068006924273494055
1420.0,0.00673721889445015
1419.0,0.0066996908768637165
1418.0,0.006689744673622781
1417.0,0.006664812849056251
1416.0,0.006637093327161346
1415.0,0.006638211444536018
1414.0,0.006655235434470822
1413.0,0.006660228188642995
1412.0,0.006664094145746663
1411.0,0.006697500720698756
1410.0,0.006750621175305418
1409.0,0.0067945702423263645
1408.0,0.006840498368979729
1407.0,0.006921597116525957
1406.0,0.007035890958224761
1405.0,0.007159457717006907
1404.0,0.0073008405813663945
1403.0,0.007477009520668699
1402.0,0.00767716567298922
1401.0,0.007911182862060094
1400.0,0.00825142762175914
1399.0,0.008744844629315582
1398.0,0.00933504582798094
1397.0,0.010007444962493195
1396.0,0.010904073672227716
1395.0,0.012131626648713702
1394.0,0.013542164209144777
1393.0,0.01492047694975057
1392.0,0.016241404865075526
1391.0,0.01757125092266651
1390.0,0.01895563163943561
1389.0,0.020466115432248203
1388.0,0.022176523442217478
1387.0,0.02395957326005978
1386.0,0.025499178947168938
1385.0,0.02663788099144232
1384.0,0.02742664991063493
1383.0,0.02789640713730539
1382.0,0.028005750157792497
1381.0,0.027724247026614048
1380.0,0.02706611873209368
1379.0,0.026097137188538382
1378.0,0.024966497215030962
1377.0,0.023868152114154547
1376.0,0.02296483989103679
1375.0,0.02240617231376496
1374.0,0.022319512476265582
1373.0,0.022671591811659435
1372.0,0.023276331733143352
1371.0,0.023979381332019146
1370.0,0.024709434865592714
1369.0,0.02540295402707173
1368.0,0.025975014029502745
1367.0,0.02637636637961714
1366.0,0.026636905271733183
1365.0,0.02682753175356249
1364.0,0.027008532520015234
1363.0,0.027202273854117796
1362.0,0.027381373153685207
1361.0,0.0274948302388371
1360.0,0.02751238458958587
1359.0,0.027430395726356655
1358.0,0.027251349285597394
1357.0,0.02696792772201655
1356.0,0.026564091554178368
1355.0,0.0260367634839309
1354.0,0.02541027876912803
1353.0,0.024717155376513637
1352.0,0.023974675742127357
1351.0,0.023195808819161425
1350.0,0.022407789510592895
1349.0,0.021641596457360586
1348.0,0.020913042413589322
1347.0,0.020227644255160018
1346.0,0.019592494696377718
1345.0,0.01901144160335914
1344.0,0.018481151701678147
1343.0,0.01799900458253459
1342.0,0.0175623685456683
1341.0,0.017157633129241182
1340.0,0.016768275783063627
1339.0,0.01640122925104926
1338.0,0.016078659212994333
1337.0,0.01579958777484261
1336.0,0.015542151913418942
1335.0,0.01529695482547502
1334.0,0.015071097490309143
1333.0,0.014866082587003638
1332.0,0.014674441472552055
1331.0,0.01449959280334144
1330.0,0.014357374380017707
1329.0,0.014253106785357442
1328.0,0.01417629750665142
1327.0,0.014120722544509148
1326.0,0.014090264087446515
1325.0,0.014081975429714408
1324.0,0.014082127431198351
1323.0,0.014083110236148243
1322.0,0.014088360718127997
1321.0,0.014097335464650187
1320.0,0.014101130841849082
1319.0,0.014097331487525774
1318.0,0.01409396567745973
1317.0,0.014093982627523502
1316.0,0.014092203342411548
1315.0,0.014090397157499929
1314.0,0.014098402650738915
1313.0,0.014116928576657842
1312.0,0.014134673798663453
1311.0,0.014146663835657219
1310.0,0.01415927011133458
1309.0,0.014173781667282618
1308.0,0.014181002878460672
1307.0,0.014176026017845868
1306.0,0.014163847922494803
1305.0,0.014145824953412645
1304.0,0.014114825649448774
1303.0,0.014067688737941876
1302.0,0.014008084444986055
1301.0,0.013932445741652859
1300.0,0.013826822465085598
1299.0,0.01368241191708614
1298.0,0.01350169889433078
1297.0,0.013286744441117526
1296.0,0.013036989208279602
1295.0,0.012764086234764677
1294.0,0.012495249410422467
1293.0,0.012258563123342546
1292.0,0.012077972152275854
1291.0,0.011982955354752547
1290.0,0.012007557396432665
1289.0,0.012174624489850308
1288.0,0.012488843021977218
1287.0,0.012944524250530427
1286.0,0.013531556319334023
1285.0,0.014234156345412698
1284.0,0.015032041739451166
1283.0,0.01590660372839248
1282.0,0.016842776075099247
1281.0,0.017821696354355668
1280.0,0.0188151869685122
1279.0,0.019794819866454583
1278.0,0.0207445005245013
1277.0,0.02165462403067974
1276.0,0.02250723476855062
1275.0,0.023281514127657246
1274.0,0.023971849150135328
1273.0,0.024582983751351175
1272.0,0.025107989962430178
1271.0,0.025529906588821826
1270.0,0.025844443558902915
1269.0,0.026060234973819076
1268.0,0.026178783617805335
1267.0,0.02619635233939567
1266.0,0.026122205629850397
1265.0,0.02597342183520437
1264.0,0.02575601540658777
1263.0,0.0254710739831174
1262.0,0.02513282075879436
1261.0,0.02476153493248772
1260.0,0.024366641259663792
1259.0,0.023954216647532247
1258.0,0.023540760699627055
1257.0,0.023142563461260965
1256.0,0.02276243284062879
1255.0,0.022401642418611773
1254.0,0.02207363394597652
1253.0,0.021792200511832314
1252.0,0.02155670239360652
1251.0,0.021361579286953997
1250.0,0.021210078220145825
1249.0,0.021106658094762414
1248.0,0.021046009268704025
1247.0,0.021021622608697683
1246.0,0.021036762826854682
1245.0,0.021096201068923296
1244.0,0.021195316042664517
1243.0,0.021328215767801573
1242.0,0.02149871523029131
1241.0,0.021712137854899723
1240.0,0.021963894299751367
1239.0,0.02224802429054318
1238.0,0.02257095155498008
1237.0,0.02294490923272949
1236.0,0.023373108189447364
1235.0,0.023853740444699956
1234.0,0.02439365296026675
1233.0,0.02500446955570953
1232.0,0.02568845113194159
1231.0,0.026441779716274698
1230.0,0.027268877454927926
1229.0,0.02817828761322408
1228.0,0.029166316922050423
1227.0,0.030221835738865662
1226.0,0.0313464766527467
1225.0,0.03255018026150777
1224.0,0.03382567454242483
1223.0,0.03515078721204845
1222.0,0.03651922303423164
1221.0,0.037941675264575994
1220.0,0.039410433135097796
1219.0,0.04089290210439378
1218.0,0.04236742580153928
1217.0,0.0438302261256335
1216.0,0.0452574484975007
1215.0,0.046601792814415045
1214.0,0.047839066372238365
1213.0,0.048973845375989734
1212.0,0.04998866283089068
1211.0,0.05084097146535692
1210.0,0.051525121352436976
1209.0,0.052081969498044604
1208.0,0.0525368379649445
1207.0,0.05288776844587055
1206.0,0.053162869648029264
1205.0,0.05342564710641089
1204.0,0.053713022896910545
1203.0,0.054027868313016605
1202.0,0.05439910318359128
1201.0,0.054887519485674864
1200.0,0.05552426138417276
1199.0,0.05630284449471016
1198.0,0.05724038443681859
1197.0,0.05838733072197594
1196.0,0.05976626896947752
1195.0,0.06136371535697171
1194.0,0.06319760652392732
1193.0,0.0653289754935506
1192.0,0.067786590095373
1191.0,0.07054698488788796
1190.0,0.07361326533483581
1189.0,0.07703505875288136
1188.0,0.08080792747479519
1187.0,0.08482587643523974
1186.0,0.08896927770034865
1185.0,0.0931354187839469
1184.0,0.0971103247960795
1183.0,0.10050767034422993
1182.0,0.10290417606752586
1181.0,0.10392340222566603
1180.0,0.10316527491182503
1179.0,0.10030728431533173
1178.0,0.09539855624580205
1177.0,0.0888826794477721
1176.0,0.08132931000922432
1175.0,0.07330568008332129
1174.0,0.06538225002130843
1173.0,0.058013307787701314
1172.0,0.05140714524389742
1171.0,0.0455935107742147
1170.0,0.04055976171014694
1169.0,0.03627460617234401
1168.0,0.032659387691285596
1167.0,0.02961625893578494
1166.0,0.027071972331467676
1165.0,0.024966950730644696
1164.0,0.023230759643882295
1163.0,0.021797297868744
1162.0,0.0206246245615064
1161.0,0.019680626348617756
1160.0,0.018926190466772356
1159.0,0.018327256293456346
1158.0,0.01786811284110512
1157.0,0.017540464201992383
1156.0,0.017332755096367943
1155.0,0.017240594541406796
1154.0,0.017274792848727797
1153.0,0.017450044544471098
1152.0,0.01777720472049354
1151.0,0.0182746410182071
1150.0,0.018975742675494036
1149.0,0.01991563544510349
1148.0,0.021117874135930758
1147.0,0.022600741996410996
1146.0,0.02438770171098004
1145.0,0.026497721380898762
1144.0,0.028923369529928394
1143.0,0.03162844781893731
1142.0,0.034568957201763825
1141.0,0.037697874276034826
1140.0,0.04093985885971014
1139.0,0.044190872085615104
1138.0,0.047365079690572104
1137.0,0.05041158133271464
1136.0,0.05326965358058879
1135.0,0.05586241840610557
1134.0,0.05816407658631899
1133.0,0.06021073979629497
1132.0,0.06201300411872984
1131.0,0.06352011818665906
1130.0,0.06468523219542592
1129.0,0.06548023381358674
1128.0,0.06582677604047661
1127.0,0.06561663526724881
1126.0,0.0648403716780965
1125.0,0.06361512076859821
1124.0,0.06208065876650967
1123.0,0.06036238441579304
1122.0,0.05862099646751644
1121.0,0.05702271192492856
1120.0,0.05564674346729598
1119.0,0.05449293057484983
1118.0,0.0535705542918305
1117.0,0.05291282767197298
1116.0,0.052520373748932626
1115.0,0.0523695300939043
1114.0,0.05248162218548353
1113.0,0.05291962450517544
1112.0,0.053711556516858175
1111.0,0.05483802254141346
1110.0,0.056297620050281265
1109.0,0.05811377455935384
1108.0,0.06025980432932244
1107.0,0.06264705974290646
1106.0,0.06521312840880376
1105.0,0.06795093781027645
1104.0,0.07082465977650994
1103.0,0.07374692166847292
1102.0,0.07668159728874281
1101.0,0.07967379625013817
1100.0,0.08273066655563867
1099.0,0.08578070675916145
1098.0,0.08880416475351822
1097.0,0.0918779569739356
1096.0,0.0950297637398963
1095.0,0.09818698647141279
1094.0,0.10133598815488747
1093.0,0.10457438663666044
1092.0,0.10792913354210067
1091.0,0.11129072076196819
1090.0,0.11460511616786495
1089.0,0.1179402440760691
1088.0,0.12126729200579509
1087.0,0.12438285365133916
1086.0,0.1271538334066593
1085.0,0.12961091725748103
1084.0,0.13169488431778975
1083.0,0.13318096987540684
1082.0,0.13396778585955252
1081.0,0.1341545200040043
1080.0,0.1337403285995516
1079.0,0.13255958665673
1078.0,0.13058414141854618
1077.0,0.12796846989344648
1076.0,0.12475320211359658
1075.0,0.12084387357006286
1074.0,0.11630044157269494
1073.0,0.11134793467481728
1072.0,0.1061133659478349
1071.0,0.1006224676758808
1070.0,0.09501682532482089
1069.0,0.0895337369011335
1068.0,0.08431056198934053
1067.0,0.07939646451145978
1066.0,0.07490532936838523
1065.0,0.07099886369883647
1064.0,0.06775473955071502
1063.0,0.06516856406117794
1062.0,0.06325084475061886
1061.0,0.062018361406841846
1060.0,0.06140410612383269
1059.0,0.06126414916602349
1058.0,0.0614769545724614
1057.0,0.06196842430941012
1056.0,0.06264675045885207
1055.0,0.06340455385367103
1054.0,0.06420704398118988
1053.0,0.06509794237746395
1052.0,0.06609085496045326
1051.0,0.06713489306144899
1050.0,0.06820697371172232
1049.0,0.0693231654650743
1048.0,0.07042397892407225
1047.0,0.07137207695532406
1046.0,0.07208998478978661
1045.0,0.07258220109250663
1044.0,0.07281503644736118
1043.0,0.07269718334544228
1042.0,0.07218982025019971
1041.0,0.07132553119924755
1040.0,0.07011198727407113
1039.0,0.06852874955680942
1038.0,0.06662560368228437
1037.0,0.0645211183559251
1036.0,0.062304787509241455
1035.0,0.0600293828734498
1034.0,0.05778306213197428
1033.0,0.05567693695058024
1032.0,0.05376331847019927
1031.0,0.052034549644698856
1030.0,0.05048777123697729
1029.0,0.049126114066226606
1028.0,0.04790695280054954
1027.0,0.04675091454004054
1026.0,0.04560221358387341
1025.0,0.04443468635695337
1024.0,0.0432104085353579
1023.0,0.041886427243862705
1022.0,0.040460894210218805
1021.0,0.03896848483854973
1020.0,0.037434663914839704
1019.0,0.03587243824152567
1018.0,0.03431166009186834
1017.0,0.03279074958399856
1016.0,0.03132656436585376
1015.0,0.029922930675873878
1014.0,0.028597393278981205
1013.0,0.027371530041427426
1012.0,0.026245502347700834
1011.0,0.025206330113405867
1010.0,0.02425188466118276
1009.0,0.023386682396710132
1008.0,0.022603146592628416
1007.0,0.021885988382670963
1006.0,0.02122891271804846
1005.0,0.020631770216692637
1004.0,0.020087299770768535
1003.0,0.019583894315785454
1002.0,0.019115660374844256
1001.0,0.01867894288477811
1000.0,0.01826552229926065
999.0,0.01786926067137667
998.0,0.017493081368755468
997.0,0.017140537404768934
996.0,0.01680693203562209
995.0,0.01648639344984684
994.0,0.016180460887429256
993.0,0.015891741164025218
992.0,0.015615834461736453
991.0,0.015347072905934008
990.0,0.01508576324336586
989.0,0.014832989892934396
988.0,0.014584901389484317
987.0,0.0143384024861018
986.0,0.014095996446167873
985.0,0.013859385756700067
984.0,0.013624766913385464
983.0,0.01338938402313656
982.0,0.01315611572751705
981.0,0.01292716234818834
980.0,0.01270015802933469
979.0,0.012474811036430165
978.0,0.012256268591224341
977.0,0.012047836680166861
976.0,0.011847313919554051
975.0,0.011653787665527032
974.0,0.011470916048875256
973.0,0.011300814542367086
972.0,0.011142214638873915
971.0,0.010997295116344584
970.0,0.010873034268952074
969.0,0.01077377594026739
968.0,0.01070042954555683
967.0,0.010660008821028395
966.0,0.01066925850707666
965.0,0.01074652720855777
964.0,0.010905347895385682
963.0,0.011153984877904123
962.0,0.011489322785535416
961.0,0.011885310906227095
960.0,0.01229273445638699
959.0,0.012655837179589968
958.0,0.012930184867515947
957.0,0.01308796449774793
956.0,0.01311736487456979
955.0,0.013026549989507948
954.0,0.012843573945804277
953.0,0.012602590396721952
952.0,0.012330134642247267
951.0,0.012045753190555331
950.0,0.011766033863365494
949.0,0.011500654769741327
948.0,0.011250557698684502
947.0,0.011015371961588971
946.0,0.010797938340270121
945.0,0.01059951900640935
944.0,0.010417743062095294
943.0,0.010252184415367693
942.0,0.010105313321962168
941.0,0.009975685490578397
940.0,0.009857273957121165
939.0,0.009748113223955012
938.0,0.009652850546562845
937.0,0.009574326630644614
936.0,0.00950922516888812
935.0,0.009454173877782102
934.0,0.00940942616409715
933.0,0.009374227490993132
932.0,0.009345021847580213
931.0,0.009320705972429944
930.0,0.009303787565852187
929.0,0.009294237059173678
928.0,0.00928797007919092
927.0,0.009283324576127608
926.0,0.009283145438100618
925.0,0.00928828664724644
924.0,0.009294624667999575
923.0,0.009298523097313553
922.0,0.009299779973872636
921.0,0.009297482265383955
920.0,0.009288843945800587
919.0,0.009274316428075718
918.0,0.009258183393497545
917.0,0.009241793987168238
916.0,0.009221528032915982
915.0,0.009195462074427462
914.0,0.009166680049416781
913.0,0.009138085713760246
912.0,0.009109520800106408
911.0,0.009081915528899458
910.0,0.00905834680356934
909.0,0.009038836374737583
908.0,0.009020050524181117
907.0,0.009002368025527435
906.0,0.008991363611088567
905.0,0.008990120384904486
904.0,0.008995910843756037
903.0,0.009006437993727029
902.0,0.00902325165870642
901.0,0.00904654879512277
900.0,0.00907235566200843
899.0,0.00909746463802491
898.0,0.009121496369757905
897.0,0.009140856455168466
896.0,0.009145660196220585
895.0,0.009125998767852648
894.0,0.009077296890883872
893.0,0.008997384606535002
892.0,0.008884006748208996
891.0,0.008739777791207985
890.0,0.008576565962556692
889.0,0.008412831891693957
888.0,0.008270646572224474
887.0,0.008176443078058631
886.0,0.008158866902083976
885.0,0.008242769884190376
884.0,0.00844674735588052
883.0,0.008783227757031985
882.0,0.009254977524768079
881.0,0.009852613903363866
880.0,0.010559790664028353
879.0,0.01135960913201972
878.0,0.012232819521194694
877.0,0.013150387192787022
876.0,0.014070945020940574
875.0,0.014948877368748684
874.0,0.015746091944855968
873.0,0.016434380717280345
872.0,0.01699064236760169
871.0,0.017401141245733227
870.0,0.017671408835352155
869.0,0.017820439728984325
868.0,0.01786326637440479
867.0,0.01780733699952465
866.0,0.017660881953399248
865.0,0.017430800412362907
864.0,0.017113110441444628
863.0,0.016695852018363534
862.0,0.016169614180100544
861.0,0.015528828944999993
860.0,0.014772504587008985
859.0,0.013917836781785355
858.0,0.013008913040576569
857.0,0.012102707982870956
856.0,0.01125119743745114
855.0,0.010498906222944108
854.0,0.009881028309567129
853.0,0.009411809310983527
852.0,0.009079618907140336
851.0,0.008856333689083368
850.0,0.008705838307209685
849.0,0.008585362683416357
848.0,0.008451550250336143
847.0,0.00827424171026458
846.0,0.008043662645795672
845.0,0.007764693300118631
844.0,0.00745065168490271
843.0,0.007122640704525195
842.0,0.006804150604964616
841.0,0.006510316694048307
840.0,0.006246495308407916
839.0,0.006016071152468277
838.0,0.005821374309123063
837.0,0.005657423305062551
836.0,0.0055140360527127395
835.0,0.005385853371036972
834.0,0.005273940931809885
833.0,0.005177920194546036
832.0,0.005093923918510433
831.0,0.005020368925654492
830.0,0.00495814016980094
829.0,0.004904265631096798
828.0,0.004852564470683945
827.0,0.0048014666606644215
826.0,0.004754356565075892
825.0,0.0047122952422309445
824.0,0.004673977471096368
823.0,0.004641064701724162
822.0,0.0046143099685417
821.0,0.004587413434917079
820.0,0.004554388985047774
819.0,0.004519601425501448
818.0,0.004491840314244505
817.0,0.004471365441618236
816.0,0.004450630299353489
815.0,0.0044259855799077385
814.0,0.004401204908360567
813.0,0.004380112487521354
812.0,0.0043626141685841726
811.0,0.0043477908158446096
810.0,0.0043347718156728915
809.0,0.004320858617707513
808.0,0.004304212412385149
807.0,0.004287778076962311
806.0,0.0042757602991487275
805.0,0.0042679517416830594
804.0,0.00426251445308932
803.0,0.004261488041946112
802.0,0.004267377651075549
801.0,0.004277014359774341
800.0,0.0042859374513317785
799.0,0.004297201964213106
798.0,0.004318867201285414
797.0,0.004353980128824344
796.0,0.0043999031384833135
795.0,0.004456499109332107
794.0,0.004527921875253748
793.0,0.004616549287415263
792.0,0.004721546019769059
791.0,0.004843466433463023
790.0,0.004984726961366838
789.0,0.005145532481574453
788.0,0.005324042775596817
787.0,0.00552000494893494
786.0,0.005733024744289798
785.0,0.0059570158838875955
784.0,0.006181263929443632
783.0,0.006398509721582414
782.0,0.006609295269769626
781.0,0.006818483796387962
780.0,0.007031443180170094
779.0,0.00725420772245175
778.0,0.007492634247656553
777.0,0.007748764517792186
776.0,0.008020484935579554
775.0,0.008306187554504216
774.0,0.008607347682161004
773.0,0.008925608739268232
772.0,0.009260757918871071
771.0,0.009613812037157499
770.0,0.009989339672687248
769.0,0.010392154890429203
768.0,0.010824027089679007
767.0,0.011286168646998534
766.0,0.011782003847033791
765.0,0.012313425036690556
764.0,0.012875849664825512
763.0,0.01346028524834457
762.0,0.014057257702485785
761.0,0.014652638778228894
760.0,0.015221042369536034
759.0,0.015731021087534817
758.0,0.016157730956494445
757.0,0.016484576932098687
756.0,0.016695585187569754
755.0,0.016779192328368196
754.0,0.016742059961492674
753.0,0.016608695303846906
752.0,0.016405922221265832
751.0,0.016156348926436685
750.0,0.015883820963705872
749.0,0.015611811502517892
748.0,0.01535407207251259
747.0,0.01511386175871397
746.0,0.014890686345517577
745.0,0.014680249005235634
744.0,0.014470733180707
743.0,0.014248341043513163
742.0,0.014005424978941569
741.0,0.013736324765498823
740.0,0.013428666383046708
739.0,0.013067242618419423
738.0,0.012643723945521981
737.0,0.01215568767999382
736.0,0.011602446735564027
735.0,0.010993841298891374
734.0,0.010361731883934376
733.0,0.009753001511618379
732.0,0.009210016271626103
731.0,0.00876069976502268
730.0,0.008420609906327535
729.0,0.00819410946811905
728.0,0.008074530202814564
727.0,0.008050760266624386
726.0,0.008114724470891645
725.0,0.008259364565795718
724.0,0.008472655836573154
723.0,0.008741540416357534
722.0,0.009060336871799655
721.0,0.009425754078460661
720.0,0.009821449016214769
719.0,0.010218009901412188
718.0,0.01059316985479547
717.0,0.010940647521910127
716.0,0.01125770184440742
715.0,0.011538425173271857
714.0,0.01178138609046186
713.0,0.011991528142321375
712.0,0.01217142702182256
711.0,0.012319856356281548
710.0,0.012439614783037395
709.0,0.012536805714653758
708.0,0.012612676598533197
707.0,0.012665756412139847
706.0,0.012700522301842682
705.0,0.012724997435808651
704.0,0.01274072508280676
703.0,0.012743908303780752
702.0,0.012735883406783423
701.0,0.012722628290401923
700.0,0.012704949286972328
699.0,0.012679546296201058
698.0,0.012647256365365756
697.0,0.012611532609788409
696.0,0.012571171849900899
695.0,0.01252372887303134
694.0,0.012475100218571641
693.0,0.012434171054015947
692.0,0.012399053548927768
691.0,0.01236003268451165
690.0,0.012313865613936065
689.0,0.012265771909631046
688.0,0.012218170922880136
687.0,0.012168267963599341
686.0,0.01211725436848326
685.0,0.012068851809581033
684.0,0.012020589094130658
683.0,0.01196885478983422
682.0,0.011918337297600022
681.0,0.011875825139583357
680.0,0.011838186199909116
679.0,0.011798098631609907
678.0,0.011756218751602716
677.0,0.011716406586864537
676.0,0.011676597783626869
675.0,0.011630340749119741
674.0,0.011579672253513048
673.0,0.011532327123297346
672.0,0.01148832696974774
671.0,0.011445590514922452
670.0,0.011419330310458772
669.0,0.011435622975089937
668.0,0.011445370482761117
667.0,0.01135380216092349
666.0,0.01122276035204344
665.0,0.011112595755211445
664.0,0.011018162193417573
663.0,0.010931432018460521
662.0,0.010854288720246064
661.0,0.01078690847442131
660.0,0.010722452784401032
659.0,0.010651451116690384
658.0,0.0105716251694687
657.0,0.010487240305579706
656.0,0.010403045187770268
655.0,0.010317280586213147
654.0,0.010225520365425018
653.0,0.010125990442972584
652.0,0.010021150352849138
651.0,0.009917690810454882
650.0,0.009823115811554855
649.0,0.009737529996811722
648.0,0.009653226055147263
647.0,0.009563849442175703
646.0,0.009469133251959368
645.0,0.00937092041076212
644.0,0.009269576908851218
643.0,0.009166756978944613
642.0,0.009065831881129043
641.0,0.008966000752337024
640.0,0.008863214859917975
639.0,0.008758268174140089
638.0,0.00865515935876551
637.0,0.0085522023403054
636.0,0.008446647016747211
635.0,0.00834731376970271
634.0,0.00826762161973026
633.0,0.00820388567004588
632.0,0.008136258485243264
631.0,0.008051680339483388
630.0,0.007953615169586117
629.0,0.007848170726263138
628.0,0.007733493492727055
627.0,0.007607131364105358
626.0,0.007471659477074934
625.0,0.007329887849341729
624.0,0.0071849377794581965
623.0,0.007045846114854133
622.0,0.006917171193565982
621.0,0.006787058133910125
620.0,0.006645567961679417
619.0,0.006507207438560253
618.0,0.006390449324067778
617.0,0.006284587732479552
616.0,0.0061725534132375725
615.0,0.00606970418824879
614.0,0.006000444687695841
613.0,0.005957321984418338
612.0,0.005918004989679821
611.0,0.005881558176850517
610.0,0.0058574899208761015
609.0,0.005835209466109848
608.0,0.005795997636885739
607.0,0.005744079223900994
606.0,0.005699301914438573
605.0,0.005667208775537975
604.0,0.005639577827668606
603.0,0.005613843373430121
602.0,0.00559174183939203
601.0,0.005569214994674732
600.0,0.005543421888545419
599.0,0.0055204006507235375
598.0,0.005501679954856903
597.0,0.0054775041456537445
596.0,0.005445724477124589
595.0,0.005419938911374374
594.0,0.005404044458143119
593.0,0.005376955692526864
592.0,0.0053208192029599475
591.0,0.005247453285434068
590.0,0.005175763272788581
589.0,0.005101061263078755
588.0,0.00501498919696138
587.0,0.004932849673882992
586.0,0.004869792556767947
585.0,0.0048074193753655705
584.0,0.004720665633797005
583.0,0.004621032080709416
582.0,0.004535762207985316
581.0,0.0044603397841410436
580.0,0.00437344156405183
579.0,0.004276410218016302
578.0,0.004174098180430943
577.0,0.004049050736487286
576.0,0.0039054066957355136
575.0,0.0038019060199088323
574.0,0.003777365505126914
573.0,0.0037918724011601077
572.0,0.003799561290866886
571.0,0.003812453285236354
570.0,0.0038475956651581288
569.0,0.003865780294211381
568.0,0.0038190459755608726
567.0,0.003719755656538368
566.0,0.0036209914337020747
565.0,0.0035558092387499634
564.0,0.003537394198682299
563.0,0.003574081714014252
562.0,0.0036367800998371377
561.0,0.0036669060054472973
560.0,0.003646606411077731
559.0,0.0036156414296537173
558.0,0.0036064724006125547
557.0,0.003603001563046191
556.0,0.0035831217901892073
555.0,0.0035495161418447286
554.0,0.0034943618398395335
553.0,0.003394061690854355
552.0,0.003265278668344889
551.0,0.0031721182262507853
550.0,0.0031360674789076472
