cm-1,A
4000.0,0.0010828444393580633
3999.0,0.0010838685653148043
3998.0,0.0010841488119398323
3997.0,0.0010831003210050407
3996.0,0.0010808900912517403
3995.0,0.001078873663490587
3994.0,0.0010784339420827885
3993.0,0.001079584404726133
3992.0,0.0010812050752613321
3991.0,0.001082482090383011
3990.0,0.0010833151502007282
3989.0,0.001083492132957852
3988.0,0.0010823147598173367
3987.0,0.0010796138554390023
3986.0,0.001076945846736303
3985.0,0.0010769702939701436
3984.0,0.0010808648594882726
3983.0,0.001086755218364087
3982.0,0.001091090584021119
3981.0,0.0010917703649271832
3980.0,0.0010903896968503868
3979.0,0.0010906135888631813
3978.0,0.0010944760531068454
3977.0,0.0011002451089364772
3976.0,0.0011036945641522734
3975.0,0.0011020839459376542
3974.0,0.0010962883757576058
3973.0,0.0010897320356740765
3972.0,0.0010858002269664344
3971.0,0.0010857753464104058
3970.0,0.0010886685926695385
3969.0,0.0010917800523664721
3968.0,0.0010921838002067067
3967.0,0.0010887067662159872
3966.0,0.0010827588862667372
3965.0,0.0010771939516562086
3964.0,0.0010743882856246133
3963.0,0.0010756993616014288
3962.0,0.0010816697721541199
3961.0,0.0010914309662902637
3960.0,0.001101755747851269
3959.0,0.0011080808824176797
3958.0,0.0011074852524643308
3957.0,0.0011010622999253364
3956.0,0.001092584896974702
3955.0,0.0010849439851225429
3954.0,0.001078875956478002
3953.0,0.0010743640986772933
3952.0,0.0010723243584588717
3951.0,0.001074225801110466
3950.0,0.001080240789686464
3949.0,0.0010878726562071337
3948.0,0.0010933321691120115
3947.0,0.0010941675801602125
3946.0,0.0010904016009934455
3945.0,0.0010843402276135461
3944.0,0.0010791565095866372
3943.0,0.0010771594973309241
3942.0,0.001078340703082812
3941.0,0.0010804027829446517
3940.0,0.0010809988821955468
3939.0,0.0010800316742100406
3938.0,0.0010799546964572304
3937.0,0.0010830624958887878
3936.0,0.0010886416738073669
3935.0,0.0010936200532069601
3934.0,0.001095280216485826
3933.0,0.0010940482905502915
3932.0,0.0010926939173578466
3931.0,0.0010931159161885775
3930.0,0.0010946359102225966
3929.0,0.0010948064109101516
3928.0,0.0010925760097836446
3927.0,0.0010896773680008447
3926.0,0.0010889607747873954
3925.0,0.001091384168191435
3924.0,0.001094825829767411
3923.0,0.001096470747957131
3922.0,0.0010956342847497915
3921.0,0.0010942736641613268
3920.0,0.0010948001612497052
3919.0,0.0010976713122551915
3918.0,0.0011018367486081311
3917.0,0.0011070052954878955
3916.0,0.0011139680023780209
3915.0,0.0011219204112753582
3914.0,0.0011272021491962351
3913.0,0.0011263964767173767
3912.0,0.0011194730464623797
3911.0,0.00110944954563744
3910.0,0.0010993814046806626
3909.0,0.0010902957428273522
3908.0,0.0010820526460527768
3907.0,0.001075337052682801
3906.0,0.0010719417753799105
3905.0,0.001072688447214677
3904.0,0.0010762654164252405
3903.0,0.001080911671958876
3902.0,0.001086713261008656
3901.0,0.0010944749522721422
3900.0,0.0011032117000259966
3899.0,0.0011109170144786035
3898.0,0.0011163461262503297
3897.0,0.0011191591604197454
3896.0,0.0011196744292094824
3895.0,0.0011187386250364492
3894.0,0.0011176321439539494
3893.0,0.0011176197508916544
3892.0,0.0011190174226906274
3891.0,0.0011218492512154537
3890.0,0.0011259108086315941
3889.0,0.0011288977005074708
3888.0,0.0011268739297343032
3887.0,0.0011186920364861326
3886.0,0.0011098252459897798
3885.0,0.0011079824836575036
3884.0,0.001113535967750187
3883.0,0.001119143663824977
3882.0,0.0011179970837215788
3881.0,0.0011111303841837591
3880.0,0.0011068928839013325
3879.0,0.0011108492432425144
3878.0,0.0011186567174279755
3877.0,0.0011211794193989484
3876.0,0.0011131561393974995
3875.0,0.001098036504993613
3874.0,0.0010861235736786283
3873.0,0.0010852520165642772
3872.0,0.0010936456736595854
3871.0,0.0011035788142959642
3870.0,0.0011100934676630345
3869.0,0.0011152101556504892
3868.0,0.0011222670186796621
3867.0,0.0011298644854806704
3866.0,0.0011345796638218156
3865.0,0.0011361849785033037
3864.0,0.0011372290411805622
3863.0,0.0011386605361027456
3862.0,0.0011389688244298041
3861.0,0.0011371686885509435
3860.0,0.0011340819980791346
3859.0,0.0011317945123313555
3858.0,0.0011318798087650184
3857.0,0.0011338749554772798
3856.0,0.0011357674702925304
3855.0,0.0011375651263477917
3854.0,0.0011420018330190107
3853.0,0.0011467819668614274
3852.0,0.0011496781962799926
3851.0,0.0011532635142576023
3850.0,0.0011581288135791303
3849.0,0.0011620567556136303
3848.0,0.0011626679269987877
3847.0,0.0011596406420310442
3846.0,0.0011553050529298997
3845.0,0.0011534743652576915
3844.0,0.001156415054559578
3843.0,0.0011627550169015064
3842.0,0.0011693212845482889
3841.0,0.0011736731550486478
3840.0,0.001174716174770015
3839.0,0.0011733190203995953
3838.0,0.001172288455261786
3837.0,0.0011735829882243637
3836.0,0.001176204520599041
3835.0,0.001177644301792989
3834.0,0.0011761591506420233
3833.0,0.0011724926604234573
3832.0,0.0011697211877302223
3831.0,0.001170182266220981
3830.0,0.0011725089026753915
3829.0,0.0011731649512194174
3828.0,0.0011704509039209287
3827.0,0.0011671563868243216
3826.0,0.0011682277418335544
3825.0,0.0011749758871565444
3824.0,0.0011827026425155162
3823.0,0.001185385530774667
3822.0,0.0011839929596419777
3821.0,0.0011873116588452745
3820.0,0.0012010603413893622
3819.0,0.0012204137392240113
3818.0,0.0012354953497050866
3817.0,0.0012406681206058702
3816.0,0.0012393364133726288
3815.0,0.0012375823308878177
3814.0,0.0012350860264009834
3813.0,0.0012279159389813313
3812.0,0.0012159605879947404
3811.0,0.0012042936073964204
3810.0,0.0011984129123315576
3809.0,0.0011981564550862462
3808.0,0.0011987108020753312
3807.0,0.0011985263413247678
3806.0,0.0012027460614037339
3805.0,0.0012158569907680281
3804.0,0.0012345315088806445
3803.0,0.001249331311588931
3802.0,0.0012525042979165514
3801.0,0.0012462757349047389
3800.0,0.0012391970670895577
3799.0,0.0012355238135147648
3798.0,0.0012336079433937566
3797.0,0.0012306534018945861
3796.0,0.0012260692103755221
3795.0,0.0012207414648800683
3794.0,0.0012150986886707309
3793.0,0.0012092217067025436
3792.0,0.0012046322764464727
3791.0,0.0012043386793880598
3790.0,0.0012099800278767645
3789.0,0.0012192107653590258
3788.0,0.0012268803570873407
3787.0,0.0012297028525639886
3786.0,0.0012292255249596292
3785.0,0.0012302743203011553
3784.0,0.001235714793519366
3783.0,0.0012438377184642994
3782.0,0.0012503509263116126
3781.0,0.0012518319271106197
3780.0,0.0012482248303956598
3779.0,0.0012434376959593856
3778.0,0.0012422990027610688
3777.0,0.0012459566199190459
3776.0,0.0012518051528846487
3775.0,0.001257482888074625
3774.0,0.001262983720219324
3773.0,0.0012689086710289121
3772.0,0.0012738490948187697
3771.0,0.0012757629601503773
3770.0,0.0012763699923864498
3769.0,0.001280521898454015
3768.0,0.001289527491028401
3767.0,0.0012998641233270647
3766.0,0.0013079196780086447
3765.0,0.0013133406048268974
3764.0,0.0013170234199187348
3763.0,0.0013177724768887221
3762.0,0.0013139287270024294
3761.0,0.001307675086305016
3760.0,0.0013046436688907933
3759.0,0.0013077218643754978
3758.0,0.0013145114217470518
3757.0,0.0013229472438961373
3756.0,0.001334926130739227
3755.0,0.0013534411038356921
3754.0,0.0013788952059899653
3753.0,0.0014075353555959018
3752.0,0.0014302132669160232
3751.0,0.0014364837226345153
3750.0,0.0014272756479202925
3749.0,0.0014144809904426334
3748.0,0.0014060759847993494
3747.0,0.0014007786497815845
3746.0,0.001394695460120137
3745.0,0.0013890119848425013
3744.0,0.0013878919964485947
3743.0,0.0013905690918390255
3742.0,0.0013939578820373498
3741.0,0.001397330047377745
3740.0,0.0014012136517197247
3739.0,0.0014058401330256914
3738.0,0.0014109540818999537
3737.0,0.0014166002499801829
3736.0,0.001422643190668543
3735.0,0.0014284593047951158
3734.0,0.0014323376910922404
3733.0,0.0014294680495813986
3732.0,0.0014162234757104392
3731.0,0.001397334455350186
3730.0,0.0013830771656261126
3729.0,0.0013806635940216325
3728.0,0.0013900212548325882
3727.0,0.0014043464400664125
3726.0,0.001415564927837718
3725.0,0.0014215315513535429
3724.0,0.0014275300214883794
3723.0,0.0014409000722885525
3722.0,0.0014640216636115653
3721.0,0.0014916799780349808
3720.0,0.0015151235278182376
3719.0,0.001530157360278428
3718.0,0.001540065414507877
3717.0,0.0015522744116774011
3716.0,0.0015717252614147917
3715.0,0.001598694768539615
3714.0,0.0016312921724812128
3713.0,0.001667797944167625
3712.0,0.0017052204400324071
3711.0,0.0017398259183143043
3710.0,0.0017740497934234318
3709.0,0.00181490124321488
3708.0,0.0018652064035929628
3707.0,0.0019223434898975344
3706.0,0.0019822315413196585
3705.0,0.0020433710043321856
3704.0,0.0021085556998667963
3703.0,0.00218408622372835
3702.0,0.0022731345944926188
3701.0,0.002368875347374165
3700.0,0.0024577123980243434
3699.0,0.0025287928089323466
3698.0,0.002576778981704256
3697.0,0.0026009998851336123
3696.0,0.0026051642216674544
3695.0,0.0025951070628607758
3694.0,0.0025758045524851723
3693.0,0.0025506461185012927
3692.0,0.0025236658943612153
3691.0,0.002499059516134555
3690.0,0.002478030913682309
3689.0,0.002458623718784373
3688.0,0.0024407219399130947
3687.0,0.002428181596269855
3686.0,0.0024240869860323454
3685.0,0.002428323384548141
3684.0,0.0024388803264553975
3683.0,0.002454439238020489
3682.0,0.002474809183116837
3681.0,0.002499365977096935
3680.0,0.002526676473225062
3679.0,0.0025556272771924972
3678.0,0.0025850875554599643
3677.0,0.0026122138977373805
3676.0,0.0026349058581374087
3675.0,0.0026602638291425757
3674.0,0.0027011972968617906
3673.0,0.0027583714314832032
3672.0,0.002818308340967004
3671.0,0.0028641823022664526
3670.0,0.0028918046269598555
3669.0,0.0029161377666313826
3668.0,0.0029519559512849697
3667.0,0.0029984832966478817
3666.0,0.0030494637096509713
3665.0,0.0031025926875900586
3664.0,0.0031578410058912096
3663.0,0.0032130768291363772
3662.0,0.0032645568533514902
3661.0,0.0033113178607072037
3660.0,0.003355387186939801
3659.0,0.003397591994315677
3658.0,0.0034357761622076247
3657.0,0.003468739425593794
3656.0,0.0035015382155273445
3655.0,0.0035424999270919893
3654.0,0.003594499144759655
3653.0,0.0036529639416008125
3652.0,0.0037109044000161115
3651.0,0.0037626665692306735
3650.0,0.0038048675768654183
3649.0,0.003834803835717014
3648.0,0.003854640266692009
3647.0,0.003873372613183614
3646.0,0.003900249970603671
3645.0,0.0039378510791254024
3644.0,0.003982926316007425
3643.0,0.004031513610181056
3642.0,0.004081899924338226
3641.0,0.004133460821511639
3640.0,0.004183988424375302
3639.0,0.004231315806249056
3638.0,0.004276720995161427
3637.0,0.004323695736698925
3636.0,0.004374068768945348
3635.0,0.004427513981718522
3634.0,0.004485263166973542
3633.0,0.004549650283351245
3632.0,0.004618306691416007
3631.0,0.0046816667045183336
3630.0,0.00472914491051748
3629.0,0.004763026051216706
3628.0,0.004804325774610176
3627.0,0.00486890579263969
3626.0,0.004952375725245551
3625.0,0.005044599815879278
3624.0,0.005138655120571411
3623.0,0.005230930383817229
3622.0,0.005318100281381361
3621.0,0.0053935922940176574
3620.0,0.005448723198484918
3619.0,0.005483223241444264
3618.0,0.005511558617130702
3617.0,0.005547413734885167
3616.0,0.005589213463607557
3615.0,0.005626352080804336
3614.0,0.005653990857169222
3613.0,0.00568039861786127
3612.0,0.0057165735589310585
3611.0,0.00576266935619299
3610.0,0.00580905492293777
3609.0,0.005848529829314008
3608.0,0.005884474209170115
3607.0,0.005927909869269957
3606.0,0.00598579700996012
3605.0,0.006055611953318882
3604.0,0.006129767446193909
3603.0,0.006201590787227573
3602.0,0.006268102696273126
3601.0,0.006330401726006253
3600.0,0.0063918377673304145
3599.0,0.006454651956980802
3598.0,0.006518474691851195
3597.0,0.006581341489743107
3596.0,0.006641557111042515
3595.0,0.006699145170734818
3594.0,0.006757129821245396
3593.0,0.006820457981902938
3592.0,0.006892548808164261
3591.0,0.006971829529644831
3590.0,0.007050131638747779
3589.0,0.007112973729407098
3588.0,0.0071505134742862785
3587.0,0.007176964147515047
3586.0,0.007221040245508039
3585.0,0.007292849110189967
3584.0,0.007380649388986825
3583.0,0.007470094051842327
3582.0,0.007554331658397121
3581.0,0.007631425586271751
3580.0,0.007701028631615838
3579.0,0.007765585843443227
3578.0,0.007830780594037787
3577.0,0.007899685325566796
3576.0,0.007968968017059132
3575.0,0.008034401299372329
3574.0,0.008098756362685578
3573.0,0.008169591898784398
3572.0,0.008249830265663605
3571.0,0.008334029562415681
3570.0,0.008412205818613355
3569.0,0.008473350949664185
3568.0,0.008508923146321658
3567.0,0.008524883094000924
3566.0,0.008546001606248478
3565.0,0.008592563306144527
3564.0,0.008663963860246525
3563.0,0.008748970327637749
3562.0,0.008837457736007737
3561.0,0.008922087723435406
3560.0,0.00899811016733086
3559.0,0.009066972870556059
3558.0,0.00913651908892933
3557.0,0.009213080256807225
3556.0,0.009294154304959942
3555.0,0.00937062771939408
3554.0,0.0094350680363531
3553.0,0.009487676283732146
3552.0,0.009536028696313393
3551.0,0.009590158639952138
3550.0,0.009656538653390511
3549.0,0.009733569447400368
3548.0,0.009810697018399818
3547.0,0.00987499717157935
3546.0,0.009923314234887981
3545.0,0.009965841478922625
3544.0,0.010015098720505787
3543.0,0.010075827164425734
3542.0,0.010147100591362373
3541.0,0.010226662599972954
3540.0,0.010310299214044725
3539.0,0.01039165726788904
3538.0,0.010465839893449149
3537.0,0.010533802054662835
3536.0,0.010602626871186223
3535.0,0.010680433866876735
3534.0,0.010770140978622642
3533.0,0.010867113852582707
3532.0,0.010961967123232077
3531.0,0.011046747376710055
3530.0,0.011119660604491577
3529.0,0.011184281668183789
3528.0,0.011245749998420346
3527.0,0.01130813073675461
3526.0,0.011372940200537715
3525.0,0.011437957708491391
3524.0,0.011500224669890221
3523.0,0.011562840251719374
3522.0,0.011634614032961125
3521.0,0.011719219816889595
3520.0,0.011808373428451407
3519.0,0.011889718817743927
3518.0,0.011959543747003505
3517.0,0.01202441175196577
3516.0,0.01209198328369352
3515.0,0.01216587175197166
3514.0,0.012248200475628978
3513.0,0.01234020181868212
3512.0,0.012436675768037848
3511.0,0.012524809841163139
3510.0,0.012594562674442575
3509.0,0.012649847597067724
3508.0,0.012705175157393412
3507.0,0.012770670768643818
3506.0,0.012842576411912936
3505.0,0.012907567049144765
3504.0,0.012956006955229898
3503.0,0.012993272130206674
3502.0,0.013035628628897606
3501.0,0.01309245475733912
3500.0,0.0131577744108856
3499.0,0.013220567463259487
3498.0,0.013277699135361812
3497.0,0.013334316184203976
3496.0,0.01339446175869985
3495.0,0.013456010859177834
3494.0,0.013515000856320557
3493.0,0.013570517274370357
3492.0,0.01362400125785806
3491.0,0.013676329409215076
3490.0,0.013726616807498157
3489.0,0.013772868123307748
3488.0,0.013815072052900503
3487.0,0.013858946704107268
3486.0,0.013913446998710452
3485.0,0.013980776645791426
3484.0,0.01404957377812443
3483.0,0.014102403124665791
3482.0,0.014132763439830925
3481.0,0.014152512141112546
3480.0,0.014180838625519755
3479.0,0.01422826637763622
3478.0,0.014291373362370467
3477.0,0.014358434469202496
3476.0,0.014418273493981065
3475.0,0.014467067650887927
3474.0,0.014509420533231048
3473.0,0.014552114015070297
3472.0,0.014597183730017843
3471.0,0.01464210619688393
3470.0,0.014684807572735015
3469.0,0.01472611099495689
3468.0,0.014768718973192659
3467.0,0.014816023198211263
3466.0,0.014870452737688517
3465.0,0.014930091715297994
3464.0,0.014987860585838425
3463.0,0.015037680865227105
3462.0,0.015081700588345483
3461.0,0.015128313857709214
3460.0,0.015182637627544345
3459.0,0.015241637973933068
3458.0,0.015298640976542162
3457.0,0.015349995370113213
3456.0,0.015396786336324964
3455.0,0.015442377235713792
3454.0,0.015489535798091966
3453.0,0.015539341164758039
3452.0,0.015592423172507034
3451.0,0.015650279781052417
3450.0,0.015712966910714353
3449.0,0.015774874352793875
3448.0,0.01582659168912378
3447.0,0.015864953839470664
3446.0,0.015897847072674304
3445.0,0.015934015853635655
3444.0,0.01597266653077915
3443.0,0.016008495038847124
3442.0,0.016042809440425018
3441.0,0.01608322211004324
3440.0,0.016133007237680404
3439.0,0.01618717136931081
3438.0,0.016239911228801744
3437.0,0.016290298959616353
3436.0,0.016339201970964785
3435.0,0.016385534810829563
3434.0,0.01642796175776768
3433.0,0.016467304833864604
3432.0,0.016505076666798194
3431.0,0.016541810928872584
3430.0,0.016578391878370777
3429.0,0.01661681516989184
3428.0,0.01665824752723997
3427.0,0.016702061565223057
3426.0,0.01674750547498003
3425.0,0.01679410553263125
3424.0,0.01683959321682078
3423.0,0.01687975837752097
3422.0,0.016912082541635072
3421.0,0.016938712292259177
3420.0,0.016964967576483025
3419.0,0.016995716462625945
3418.0,0.017033112313545654
3417.0,0.017075573400244282
3416.0,0.01711812057394835
3415.0,0.017155528224945624
3414.0,0.01718641311847123
3413.0,0.01721356162425613
3412.0,0.0172405801814882
3411.0,0.017269685097636645
3410.0,0.017301917036700958
3409.0,0.01733691054586076
3408.0,0.017372237771487872
3407.0,0.017405177204265182
3406.0,0.017435640299040343
3405.0,0.017465676149763305
3404.0,0.01749604326132358
3403.0,0.017525220357979567
3402.0,0.01755179604041329
3401.0,0.017575422047630882
3400.0,0.01759507281935927
3399.0,0.017609526686634736
3398.0,0.01762133906243889
3397.0,0.01763778779430635
3396.0,0.01766490003532806
3395.0,0.017700641889685332
3394.0,0.017735478419946084
3393.0,0.01776002953421056
3392.0,0.0177724366083372
3391.0,0.017778872849085678
3390.0,0.01778762723025975
3389.0,0.017803090133300892
3388.0,0.017824403287953632
3387.0,0.01784811328781222
3386.0,0.017871083906259643
3385.0,0.017891522694152544
3384.0,0.01790886357666903
3383.0,0.017923395718596274
3382.0,0.01793532581515492
3381.0,0.01794435923702178
3380.0,0.017951369897164483
3379.0,0.017959836314079457
3378.0,0.01797296335426765
3377.0,0.017988839367635522
3376.0,0.01800124252855885
3375.0,0.01800641651058138
3374.0,0.018006372244004566
3373.0,0.018004431629323248
3372.0,0.01800117789284724
3371.0,0.01799722345579648
3370.0,0.01799644082935897
3369.0,0.018002000332632558
3368.0,0.018010592380148564
3367.0,0.018015008742880836
3366.0,0.0180124604826385
3365.0,0.018006849185495444
3364.0,0.018002862586175016
3363.0,0.01800116184253666
3362.0,0.017999641149887384
3361.0,0.01799657012767343
3360.0,0.017991650120013806
3359.0,0.017985810224483194
3358.0,0.01798051328800395
3357.0,0.017976078722814603
3356.0,0.0179708734965112
3355.0,0.01796346358679059
3354.0,0.01795486090705448
3353.0,0.017946934571152668
3352.0,0.017939323017534457
3351.0,0.01792983844439165
3350.0,0.017917604516632952
3349.0,0.01790398150738869
3348.0,0.01789063251834353
3347.0,0.017878266274127454
3346.0,0.01786674020462032
3345.0,0.01785464978575981
3344.0,0.017839425464626506
3343.0,0.017819943522231662
3342.0,0.01779885626369515
3341.0,0.017780490676369238
3340.0,0.017766297712949214
3339.0,0.01775343972534844
3338.0,0.017737484369015268
3337.0,0.01771550287918968
3336.0,0.017687689139641083
3335.0,0.01765782510554669
3334.0,0.017631625064842806
3333.0,0.01761277855695077
3332.0,0.017600299889097743
3331.0,0.017589981172241143
3330.0,0.017577323071687027
3329.0,0.01755867962527698
3328.0,0.017531955795742665
3327.0,0.017498391770866477
3326.0,0.017462502991187193
3325.0,0.01742850637723723
3324.0,0.01739790427771819
3323.0,0.017371507092932975
3322.0,0.017350904626932347
3321.0,0.01733513854235749
3320.0,0.017318397795825766
3319.0,0.017295048186982086
3318.0,0.01726603070147167
3317.0,0.017236941178262858
3316.0,0.01721075583550949
3315.0,0.01718594915442796
3314.0,0.017160837705916292
3313.0,0.017135564967350223
3312.0,0.017109466014527282
3311.0,0.017080303880981612
3310.0,0.017047640727180454
3309.0,0.017014501589580937
3308.0,0.016984507453889835
3307.0,0.016959129015325796
3306.0,0.01693827159743615
3305.0,0.016921354968882932
3304.0,0.01690679691763551
3303.0,0.016891925622498045
3302.0,0.016874180105533237
3301.0,0.01685186218057722
3300.0,0.01682445632329922
3299.0,0.01679369051947012
3298.0,0.01676338008120162
3297.0,0.016736152464124836
3296.0,0.0167107544870291
3295.0,0.016684170737209614
3294.0,0.01665542433112407
3293.0,0.0166255846745312
3292.0,0.016595624146560295
3291.0,0.016566749915307138
3290.0,0.0165410675753397
3289.0,0.016518367510088946
3288.0,0.016493418675566075
3287.0,0.01646074114747321
3286.0,0.016422300051456472
3285.0,0.01638672855134624
3284.0,0.016360145511368857
3283.0,0.01634067595375713
3282.0,0.016322363339920352
3281.0,0.01630097778673345
3280.0,0.016275068461007867
3279.0,0.01624502456111363
3278.0,0.016213020212173454
3277.0,0.016181266643788005
3276.0,0.016148738010515636
3275.0,0.01611193194805478
3274.0,0.016070034846371532
3273.0,0.01602665800283652
3272.0,0.01598512913788109
3271.0,0.01594499598167918
3270.0,0.01590504665872801
3269.0,0.01586708488034932
3268.0,0.015834025149205466
3267.0,0.015805522204962032
3266.0,0.015777701052586867
3265.0,0.015746816454292243
3264.0,0.015712045552307524
3263.0,0.015675332767343966
3262.0,0.015639348220121953
3261.0,0.01560484076696957
3260.0,0.015569449883493371
3259.0,0.015530105824632191
3258.0,0.015486955487545483
3257.0,0.015443664776979244
3256.0,0.015403476924960264
3255.0,0.015366397669777692
3254.0,0.015330634457329281
3253.0,0.015294979712473743
3252.0,0.015258760904119203
3251.0,0.015221110149785503
3250.0,0.015181866956729413
3249.0,0.015142404232136069
3248.0,0.015104254808646064
3247.0,0.015067043855815282
3246.0,0.015028395555936522
3245.0,0.014985934250251232
3244.0,0.014939538237419265
3243.0,0.014892040834901688
3242.0,0.014847513150945192
3241.0,0.0148081044731796
3240.0,0.014772249133715108
3239.0,0.014735931381715101
3238.0,0.014695211277669845
3237.0,0.014647738762435553
3236.0,0.014593958672819953
3235.0,0.014538386073559674
3234.0,0.01448774282087879
3233.0,0.014444978994272174
3232.0,0.014405647683227702
3231.0,0.014362671201354338
3230.0,0.01431449323331013
3229.0,0.01426614714939578
3228.0,0.014222451734626076
3227.0,0.014182762567190154
3226.0,0.014142866430085107
3225.0,0.01409986198827377
3224.0,0.014054371016115674
3223.0,0.014009235063755428
3222.0,0.013966199896559903
3221.0,0.013922900055759201
3220.0,0.013874173919911189
3219.0,0.013818359192791447
3218.0,0.013760970891709816
3217.0,0.01370919180362554
3216.0,0.01366354780850015
3215.0,0.013618207361196507
3214.0,0.013569184821036953
3213.0,0.013518397849392752
3212.0,0.013468774683835717
3211.0,0.013419350824948205
3210.0,0.013367331223588658
3209.0,0.013312219626336642
3208.0,0.013255732523996344
3207.0,0.01319947778530583
3206.0,0.013144465040457303
3205.0,0.013091233187946923
3204.0,0.013038857525713954
3203.0,0.012985306683922056
3202.0,0.012930201411696015
3201.0,0.012875834189087781
3200.0,0.01282418979277776
3199.0,0.012774152603033438
3198.0,0.012722688759955221
3197.0,0.012667781510271509
3196.0,0.012609579334633452
3195.0,0.012550005528154584
3194.0,0.012491866946835885
3193.0,0.012436815394022534
3192.0,0.012383384262584575
3191.0,0.012328341179759651
3190.0,0.012270553939018897
3189.0,0.012211988679942797
3188.0,0.012154349813064846
3187.0,0.012096617920128547
3186.0,0.012036921910622871
3185.0,0.01197517643481853
3184.0,0.011912798807770903
3183.0,0.01185135227391944
3182.0,0.011792501501435414
3181.0,0.011737779488274619
3180.0,0.011687098564904
3179.0,0.011638376454925579
3178.0,0.011589270536688009
3177.0,0.011538240879070204
3176.0,0.01148377945917577
3175.0,0.011424558284971102
3174.0,0.011361386204470952
3173.0,0.011297496670513297
3172.0,0.011235590242340339
3171.0,0.01117546378948346
3170.0,0.011115302852065974
3169.0,0.011054328166760998
3168.0,0.01099377312412542
3167.0,0.010936450596107167
3166.0,0.010885354524422948
3165.0,0.010840695461052622
3164.0,0.010797762341990315
3163.0,0.010749734748442546
3162.0,0.01069391431459839
3161.0,0.010634045949917889
3160.0,0.010575823640964379
3159.0,0.010521584082400054
3158.0,0.010469964067150245
3157.0,0.010418559265513175
3156.0,0.01036538885288332
3155.0,0.010309256635521204
3154.0,0.010250448242270893
3153.0,0.010190793053486632
3152.0,0.010132457602538175
3151.0,0.01007699708362682
3150.0,0.010025166120672285
3149.0,0.00997614791822081
3148.0,0.009926973667610329
3147.0,0.009874796178795903
3146.0,0.009820328165933891
3145.0,0.009767123870053997
3144.0,0.009716849605739758
3143.0,0.0096673487587049
3142.0,0.009616250271889365
3141.0,0.009564417867862999
3140.0,0.009514458394647811
3139.0,0.009467382208594199
3138.0,0.009422233194760921
3137.0,0.009377644642103864
3136.0,0.0093322461419227
3135.0,0.009284743256818266
3134.0,0.009235089287105713
3133.0,0.00918507449080539
3132.0,0.00913687378793547
3131.0,0.009091389489959916
3130.0,0.009048205702137383
3129.0,0.009005972813043625
3128.0,0.008962496647324257
3127.0,0.00891599200421055
3126.0,0.008866831275276342
3125.0,0.008816962653671226
3124.0,0.008767691756915046
3123.0,0.008719584828175414
3122.0,0.008674480363440542
3121.0,0.008634973777917134
3120.0,0.008600815333358226
3119.0,0.008567929332592594
3118.0,0.00853206079880648
3117.0,0.008491841645585847
3116.0,0.00844789600505655
3115.0,0.008401367440527845
3114.0,0.008354754647445093
3113.0,0.008311724188779764
3112.0,0.008273616927016789
3111.0,0.008237654733654537
3110.0,0.008200433576631602
3109.0,0.008162112528351024
3108.0,0.008125571443857726
3107.0,0.008092282215027582
3106.0,0.008060804922587261
3105.0,0.008028457336905562
3104.0,0.00799279917565491
3103.0,0.007952520838581072
3102.0,0.007908868217793364
3101.0,0.00786598598295142
3100.0,0.00782800387192185
3099.0,0.007795243166786536
3098.0,0.007764299415243366
3097.0,0.007731726912934068
3096.0,0.007696865585401821
3095.0,0.007661274214911666
3094.0,0.007626088737914816
3093.0,0.007590603834630028
3092.0,0.007553790592527188
3091.0,0.007517021667921068
3090.0,0.007484171394312749
3089.0,0.007457892132158417
3088.0,0.007436157318939195
3087.0,0.007413819485900971
3086.0,0.007387659161424532
3085.0,0.007358371412476567
3084.0,0.007327890583232794
3083.0,0.007296735872754795
3082.0,0.007264447996013176
3081.0,0.007231073540203656
3080.0,0.007197061362800387
3079.0,0.007162640921646441
3078.0,0.0071279717958589
3077.0,0.007093315723607994
3076.0,0.007059033402094213
3075.0,0.007026239231554388
3074.0,0.006996928747205115
3073.0,0.006971682167437331
3072.0,0.0069474525185050165
3071.0,0.006919424962000099
3070.0,0.006885611034426095
3069.0,0.006848067074334204
3068.0,0.006809528379793389
3067.0,0.0067712260617949025
3066.0,0.006734179484187318
3065.0,0.00669996978654761
3064.0,0.006668534742130433
3063.0,0.0066372208977762285
3062.0,0.006603995911264257
3061.0,0.006570195401911013
3060.0,0.006538722515744449
3059.0,0.006510502332066302
3058.0,0.0064840814762772165
3057.0,0.0064577237925242765
3056.0,0.006430327765677222
3055.0,0.0064011537015388415
3054.0,0.006370315454529836
3053.0,0.006339502986679722
3052.0,0.006310913436899194
3051.0,0.006285032224509
3050.0,0.006259857929635171
3049.0,0.00623250898366874
3048.0,0.00620170340128723
3047.0,0.006168883537103959
3046.0,0.006137101000111771
3045.0,0.0061087709272175045
3044.0,0.00608441691254086
3043.0,0.006063378107882054
3042.0,0.0060448053085698245
3041.0,0.006027570379513332
3040.0,0.0060102665196293485
3039.0,0.005992362683118864
3038.0,0.005974662107177169
3037.0,0.005957765033924341
3036.0,0.0059411943810173
3035.0,0.005925497865559212
3034.0,0.005914089370388905
3033.0,0.005910285318943674
3032.0,0.005912663273565764
3031.0,0.005915464358677386
3030.0,0.005914666907687543
3029.0,0.005912329305105702
3028.0,0.005914442484784337
3027.0,0.0059258756411302415
3026.0,0.005947045138410125
3025.0,0.005974370879111718
3024.0,0.006003941955836401
3023.0,0.006035713371409024
3022.0,0.006074276339206244
3021.0,0.0061246882864245955
3020.0,0.006187839073277149
3019.0,0.006260411506725854
3018.0,0.0063380702315552345
3017.0,0.006418035327726437
3016.0,0.00650027071939065
3015.0,0.006588252407547219
3014.0,0.006687779377556758
3013.0,0.006802616252801022
3012.0,0.006931601331956571
3011.0,0.007071229425248988
3010.0,0.007219716631326222
3009.0,0.007376680813399272
3008.0,0.0075399264344994405
3007.0,0.0077055099537350034
3006.0,0.007870710098594382
3005.0,0.008035148406912275
3004.0,0.008199157373882542
3003.0,0.008362371264429272
3002.0,0.008523124089235588
3001.0,0.008677420096898298
3000.0,0.008819257262431199
2999.0,0.00894308289426907
2998.0,0.00904456163598761
2997.0,0.00911711423511024
2996.0,0.009149928427145161
2995.0,0.00913322207857967
2994.0,0.009064813125488123
2993.0,0.008949254754294053
2992.0,0.008791776516026502
2991.0,0.008596802267847372
2990.0,0.008371794838812934
2989.0,0.008128716331313934
2988.0,0.00788076158266168
2987.0,0.0076397346382575445
2986.0,0.007415274143184355
2985.0,0.007213202465833298
2984.0,0.007034410779281793
2983.0,0.00687828525016003
2982.0,0.0067472510729268634
2981.0,0.006644556037590338
2980.0,0.006568021833824459
2979.0,0.006509711868579926
2978.0,0.006462538268234825
2977.0,0.006423840069465726
2976.0,0.006392534990127904
2975.0,0.0063673255077924314
2974.0,0.006349246289705628
2973.0,0.00634174245302492
2972.0,0.006345567479713481
2971.0,0.006356176240209068
2970.0,0.006368330456917288
2969.0,0.006380891546673114
2968.0,0.006395952384734757
2967.0,0.00641558624037087
2966.0,0.006441025705112035
2965.0,0.006472623119588003
2964.0,0.006509030619116941
2963.0,0.0065485067851475
2962.0,0.00659210283222032
2961.0,0.006643500532411579
2960.0,0.006704457889377558
2959.0,0.006773081631033968
2958.0,0.006847933765147262
2957.0,0.006931414949811042
2956.0,0.00702722092269971
2955.0,0.007136332405193577
2954.0,0.007257074325233175
2953.0,0.00738731355199211
2952.0,0.007524700427979489
2951.0,0.007665469001437462
2950.0,0.007803985380102359
2949.0,0.007932648728520663
2948.0,0.008042041578228102
2947.0,0.008122177311101146
2946.0,0.008163797926431142
2945.0,0.008158488798161756
2944.0,0.008099516546238935
2943.0,0.007986161842790395
2942.0,0.007827474205388365
2941.0,0.007638809910194909
2940.0,0.007434363753656015
2939.0,0.007224506071843646
2938.0,0.007018733379860848
2937.0,0.006826263961626302
2936.0,0.006652625039955607
2935.0,0.006499358471925206
2934.0,0.006368221766700879
2933.0,0.006261551000026036
2932.0,0.006176254996262086
2931.0,0.0061020360891914874
2930.0,0.006029127173822589
2929.0,0.005955953240971293
2928.0,0.005887305014950517
2927.0,0.0058273821275378135
2926.0,0.005776448966303738
2925.0,0.005731906728964928
2924.0,0.00568978986360344
2923.0,0.005646105569532877
2922.0,0.005597930878097886
2921.0,0.005542972272905233
2920.0,0.005478935704280885
2919.0,0.005405496701563865
2918.0,0.005326029081461258
2917.0,0.005244170505750415
2916.0,0.0051597980736470496
2915.0,0.005071781626170396
2914.0,0.004983863708954226
2913.0,0.004903210696785587
2912.0,0.004832721440992715
2911.0,0.004769325711627229
2910.0,0.0047102914337775635
2909.0,0.0046571087881023005
2908.0,0.004611327766576297
2907.0,0.004570360167504605
2906.0,0.00453028877663311
2905.0,0.004490300730811658
2904.0,0.004452383629458115
2903.0,0.0044181011783417145
2902.0,0.004387030885422225
2901.0,0.00435741229065648
2900.0,0.004327242276031348
2899.0,0.004296053947608528
2898.0,0.004265798320252314
2897.0,0.004238254999758999
2896.0,0.004212078975249577
2895.0,0.00418522327207992
2894.0,0.00415978448793281
2893.0,0.004141138618667615
2892.0,0.00413183061776472
2891.0,0.004129274636855651
2890.0,0.004130297227894353
2889.0,0.004134232060077107
2888.0,0.004140790399540695
2887.0,0.004148702196954733
2886.0,0.0041582709255452615
2885.0,0.004172186574335279
2884.0,0.0041910480342802646
2883.0,0.00420992651564742
2882.0,0.0042215166846063835
2881.0,0.00422097308935772
2880.0,0.004206696668214214
2879.0,0.004178377632411287
2878.0,0.004136415706867811
2877.0,0.0040823776526732625
2876.0,0.004018725814901936
2875.0,0.003948700303453359
2874.0,0.0038767238433591554
2873.0,0.0038071765983469195
2872.0,0.003741555244012512
2871.0,0.0036780595902351177
2870.0,0.0036149148845726134
2869.0,0.0035532738474482193
2868.0,0.0034970539658812304
2867.0,0.0034509797321950627
2866.0,0.0034181817199974403
2865.0,0.0033975766235068063
2864.0,0.0033838362288791976
2863.0,0.0033722064454674797
2862.0,0.003362936207619266
2861.0,0.003359098193947426
2860.0,0.003360901037932092
2859.0,0.003365306927348353
2858.0,0.003370495060643188
2857.0,0.0033768686651205674
2856.0,0.003383973092855823
2855.0,0.0033898796562006404
2854.0,0.0033933962149367606
2853.0,0.003393134000700718
2852.0,0.0033843755542684417
2851.0,0.0033609768098182917
2850.0,0.0033210926260289196
2849.0,0.0032681222668606642
2848.0,0.0032059149507333217
2847.0,0.0031371942941137497
2846.0,0.0030666071511376613
2845.0,0.003000475726779471
2844.0,0.0029418252344029236
2843.0,0.002888961310565162
2842.0,0.0028400856240644767
2841.0,0.0027962739676239048
2840.0,0.00275906114817744
2839.0,0.0027279912977398266
2838.0,0.00270174686287882
2837.0,0.0026792281616903452
2836.0,0.0026585959713827925
2835.0,0.002637934859224688
2834.0,0.0026176967746216395
2833.0,0.0026000516691588264
2832.0,0.0025852014725976286
2831.0,0.0025709152564194647
2830.0,0.0025562267770628884
2829.0,0.002542587644650111
2828.0,0.0025306035000978878
2827.0,0.0025186139301480127
2826.0,0.0025054158270954
2825.0,0.0024915288773197015
2824.0,0.0024768936376207864
2823.0,0.0024601708423473718
2822.0,0.002441482140853474
2821.0,0.0024232493977211
2820.0,0.0024071127688311588
2819.0,0.002392187365030374
2818.0,0.002377117631507695
2817.0,0.0023615865371352305
2816.0,0.002345199328442792
2815.0,0.0023274410678671806
2814.0,0.002309462967586074
2813.0,0.002293429564400572
2812.0,0.0022795469981709156
2811.0,0.0022661120591394735
2810.0,0.0022526618740075443
2809.0,0.0022402240151389186
2808.0,0.002228116887426173
2807.0,0.0022138773836450566
2806.0,0.002197266502999265
2805.0,0.002181253016380126
2804.0,0.0021679736343027346
2803.0,0.0021564333054719708
2802.0,0.0021452763556730724
2801.0,0.0021349912917142623
2800.0,0.0021260060881742064
2799.0,0.002117161986793261
2798.0,0.002107343367660565
2797.0,0.0020965679372235823
2796.0,0.002084703722259762
2795.0,0.0020713433906699983
2794.0,0.002057543348781934
2793.0,0.002045388452597911
2792.0,0.0020354545668357805
2791.0,0.0020268664685478602
2790.0,0.002019630723214871
2789.0,0.002013989142637757
2788.0,0.0020076272154188842
2787.0,0.001997357700720428
2786.0,0.001984110252307224
2785.0,0.0019726772819470308
2784.0,0.001965530736900331
2783.0,0.0019599151214879126
2782.0,0.00195205714943455
2781.0,0.0019412941829129262
2780.0,0.001929174339838686
2779.0,0.0019176400098372122
2778.0,0.0019091311312948236
2777.0,0.0019051448015997363
2776.0,0.0019035531767533642
2775.0,0.0019003623958979655
2774.0,0.001894946001662868
2773.0,0.0018904364817528647
2772.0,0.0018880572500226634
2771.0,0.0018847025082922879
2770.0,0.0018776036324963312
2769.0,0.001868062812766469
2768.0,0.0018590690045965216
2767.0,0.0018521570804517279
2766.0,0.00184781038041358
2765.0,0.0018457372090499016
2764.0,0.0018432700438043518
2763.0,0.0018367781224569429
2762.0,0.0018268185378651166
2761.0,0.0018189626564617395
2760.0,0.0018173889068104753
2759.0,0.001819844839044044
2758.0,0.0018205856964908463
2757.0,0.0018163083577525429
2756.0,0.0018079098719122333
2755.0,0.0017989811442485092
2754.0,0.0017939300207719306
2753.0,0.001794838614008084
2752.0,0.0017984957903402574
2751.0,0.0017986306805479147
2750.0,0.00179238765298486
2749.0,0.001782872537982448
2748.0,0.001774557682937313
2747.0,0.0017687128504269827
2746.0,0.001764099925127086
2745.0,0.001759413363348158
2744.0,0.0017537989014413647
2743.0,0.0017471517176579805
2742.0,0.0017411232889748638
2741.0,0.0017378925528259538
2740.0,0.001737314065450959
2739.0,0.0017372686085706606
2738.0,0.001736781921735191
2737.0,0.001736090763185563
2736.0,0.0017336763984353797
2735.0,0.001726832630255018
2734.0,0.001716119212238681
2733.0,0.0017057915099719708
2732.0,0.001698476288307849
2731.0,0.001692537714951959
2730.0,0.0016857639911769748
2729.0,0.0016785495577818742
2728.0,0.0016721688665686575
2727.0,0.0016667979094246415
2726.0,0.0016625825208634575
2725.0,0.0016599079722394287
2724.0,0.001657435717343207
2723.0,0.0016525859757441403
2722.0,0.001645133776778174
2721.0,0.0016376700024052708
2720.0,0.0016316257732216979
2719.0,0.0016258514021996054
2718.0,0.0016199231247952704
2717.0,0.0016156728840270086
2716.0,0.0016142552700479653
2715.0,0.00161455194414514
2714.0,0.0016154197625320936
2713.0,0.0016165162097247308
2712.0,0.0016161666802299492
2711.0,0.0016118848249645175
2710.0,0.0016042324007607375
2709.0,0.001596784430638529
2708.0,0.0015912236258090414
2707.0,0.0015858930817990637
2706.0,0.0015803163192767045
2705.0,0.0015772314309724527
2704.0,0.0015781754051197349
2703.0,0.0015807210110748862
2702.0,0.0015820512471270548
2701.0,0.0015820146260480462
2700.0,0.0015807546787294055
2699.0,0.0015767684842390008
2698.0,0.0015697106497773261
2697.0,0.0015622750516886541
2696.0,0.001557001072874692
2695.0,0.0015537211700664213
2694.0,0.0015518027559210301
2693.0,0.0015518917281998074
2692.0,0.0015535602782692304
2691.0,0.0015541482323572033
2690.0,0.001552263125954151
2689.0,0.0015499185574178247
2688.0,0.0015492254201543024
2687.0,0.0015493899586507475
2686.0,0.0015487882758418892
2685.0,0.001547507994467637
2684.0,0.001546000654839984
2683.0,0.0015436240716418994
2682.0,0.0015403321766170037
2681.0,0.0015373896184376573
2680.0,0.0015348350529362687
2679.0,0.0015308446261190123
2678.0,0.001525220342437906
2677.0,0.001520872566009656
2676.0,0.0015199662572549883
2675.0,0.001521165123369983
2674.0,0.001522364421132058
2673.0,0.001523579265532282
2672.0,0.0015254119404716788
2671.0,0.0015272285032787057
2670.0,0.0015287999063289157
2669.0,0.0015313512873573597
2668.0,0.0015354315448557962
2667.0,0.0015403783117053562
2666.0,0.001547458947829522
2665.0,0.0015604680632645227
2664.0,0.001580870063774549
2663.0,0.0016048822236669074
2662.0,0.0016273598385274086
2661.0,0.001646360613007345
2660.0,0.001662106215576213
2659.0,0.0016743770556439455
2658.0,0.0016836276162735813
2657.0,0.0016922554885996936
2656.0,0.001702024053442045
2655.0,0.00171181378020943
2654.0,0.0017200740806793701
2653.0,0.0017275934565949005
2652.0,0.001735594893286662
2651.0,0.0017430994562684888
2650.0,0.001748516766735514
2649.0,0.0017521588545349256
2648.0,0.001754953149830769
2647.0,0.0017563154353736044
2646.0,0.0017554719525562125
2645.0,0.0017534243756128212
2644.0,0.0017516733596398219
2643.0,0.0017504742860016214
2642.0,0.0017500351434665213
2641.0,0.0017516608224282218
2640.0,0.00175592029627153
2639.0,0.0017611703100383026
2638.0,0.0017654572362625727
2637.0,0.001768275356938324
2636.0,0.0017692947332672315
2635.0,0.0017675114304175578
2634.0,0.0017630962054094907
2633.0,0.0017581076950590625
2632.0,0.0017540599349553407
2631.0,0.00175058922156745
2630.0,0.0017472835146624273
2629.0,0.00174429373449559
2628.0,0.0017403462993001006
2627.0,0.0017334098431256667
2626.0,0.0017246356449260643
2625.0,0.0017184771596493315
2624.0,0.0017171723029199635
2623.0,0.0017181648820405592
2622.0,0.00171852307868778
2621.0,0.0017184152064988818
2620.0,0.0017183858088472032
2619.0,0.0017167202021804984
2618.0,0.0017121596854404646
2617.0,0.0017064429343922089
2616.0,0.001701698917264967
2615.0,0.0016977736864556149
2614.0,0.0016940923473949719
2613.0,0.001691541993925538
2612.0,0.0016905255994716039
2611.0,0.0016896361665922825
2610.0,0.0016878849968054233
2609.0,0.0016857195866073098
2608.0,0.0016826817230421198
2607.0,0.0016771517195412744
2606.0,0.0016697269185370293
2605.0,0.0016635174270454337
2604.0,0.0016595778905002486
2603.0,0.0016554160788723362
2602.0,0.0016495101568898783
2601.0,0.0016437801479087448
2600.0,0.0016400822702267199
2599.0,0.001637949034162613
2598.0,0.0016372585745281147
2597.0,0.0016391846965884659
2596.0,0.0016427192710188165
2595.0,0.0016442654865815476
2594.0,0.0016426306946475697
2593.0,0.0016405858812610994
2592.0,0.001639873958903147
2591.0,0.0016387148803138306
2590.0,0.0016360010745838705
2589.0,0.0016335413978305871
2588.0,0.0016319073174928438
2587.0,0.0016284503158070045
2586.0,0.0016219567553310836
2585.0,0.0016152658103536035
2584.0,0.0016108635991768417
2583.0,0.0016076153932067347
2582.0,0.00160392185849674
2581.0,0.0016001505784897538
2580.0,0.001595869156760599
2579.0,0.0015889522527882684
2578.0,0.0015799436152785652
2577.0,0.001573404453733899
2576.0,0.0015723281925278823
2575.0,0.0015744085492503182
2574.0,0.0015755532048105764
2573.0,0.0015736473805250456
2572.0,0.0015679500704022923
2571.0,0.0015593319001793626
2570.0,0.0015523161605933544
2569.0,0.0015518579868813414
2568.0,0.0015562345894173716
2567.0,0.001557928742871172
2566.0,0.0015535059866622874
2565.0,0.0015474673711804463
2564.0,0.001544178740088087
2563.0,0.0015416974750856103
2562.0,0.0015365799530572466
2561.0,0.001529553377524254
2560.0,0.0015229712388162325
2559.0,0.0015170394408889633
2558.0,0.0015119179051231698
2557.0,0.0015095495963415864
2556.0,0.0015101948064164315
2555.0,0.0015107727573533977
2554.0,0.0015095122782594567
2553.0,0.001508873082688718
2552.0,0.001511378043117321
2551.0,0.0015158446257350908
2550.0,0.0015196621048860326
2549.0,0.001521440090235233
2548.0,0.001520008103501974
2547.0,0.0015145002404701804
2546.0,0.0015068488270766132
2545.0,0.0015006402899540464
2544.0,0.001496599781244768
2543.0,0.0014928902051516502
2542.0,0.001489862528450535
2541.0,0.0014896040824648076
2540.0,0.0014906200894970218
2539.0,0.0014888009310464708
2538.0,0.001484304568861027
2537.0,0.0014814128171387517
2536.0,0.0014808636292849397
2535.0,0.0014790111053451425
2534.0,0.0014760371952228736
2533.0,0.0014777685616527648
2532.0,0.0014864210317523181
2531.0,0.0014959083692839643
2530.0,0.0014994605800520977
2529.0,0.0014964460955616639
2528.0,0.001489352344452356
2527.0,0.00147993262666298
2526.0,0.0014711997865234404
2525.0,0.0014674029850595834
2524.0,0.0014685498121690041
2523.0,0.001469804307270205
2522.0,0.001468822192383073
2521.0,0.001468544610419567
2520.0,0.0014705824852193775
2519.0,0.0014716064100049337
2518.0,0.0014691896696022977
2517.0,0.001465898761688281
2516.0,0.0014645087109134171
2515.0,0.0014640233114545655
2514.0,0.0014631186954330564
2513.0,0.0014626350017410423
2512.0,0.0014622698709595172
2511.0,0.00145965569846878
2510.0,0.0014547732548454706
2509.0,0.0014504421659496706
2508.0,0.0014469572576494968
2507.0,0.0014418515447821064
2506.0,0.0014365233909250821
2505.0,0.0014365765898328017
2504.0,0.0014429899524419857
2503.0,0.0014491601762199487
2502.0,0.0014495541337502008
2501.0,0.0014454615078036976
2500.0,0.0014397167501992159
2499.0,0.001432175778667033
2498.0,0.0014236457171443908
2497.0,0.0014180047598751817
2496.0,0.0014163472141022941
2495.0,0.001414270935443507
2494.0,0.001408782910072054
2493.0,0.001403100791416373
2492.0,0.0014011814287928457
2491.0,0.001402235262143286
2490.0,0.0014039041185006
2489.0,0.0014060227810874346
2488.0,0.001407806294543786
2487.0,0.0014058109983195073
2486.0,0.0013982445094066797
2485.0,0.0013878831826894893
2484.0,0.0013783711142838948
2483.0,0.001371086685357612
2482.0,0.001366810736370385
2481.0,0.0013658057004992243
2480.0,0.0013648525450189412
2479.0,0.0013593359985202994
2478.0,0.001350004449956451
2477.0,0.0013427343713124542
2476.0,0.001340266409675324
2475.0,0.0013396429730174477
2474.0,0.0013390553880050172
2473.0,0.0013407973732469899
2472.0,0.0013453632444132004
2471.0,0.0013491521073922457
2470.0,0.0013508813862370156
2469.0,0.0013542091479740767
2468.0,0.00136070113488203
2467.0,0.001365609445388642
2466.0,0.0013641455914022232
2465.0,0.0013577418613271463
2464.0,0.0013515803404669105
2463.0,0.0013498296242773428
2462.0,0.0013546389584332254
2461.0,0.0013650246100349135
2460.0,0.0013755568376463802
2459.0,0.0013813830140713432
2458.0,0.0013854462089180212
2457.0,0.001394870392877515
2456.0,0.0014093767239762866
2455.0,0.001420192085981424
2454.0,0.0014221864712653171
2453.0,0.001419905010429821
2452.0,0.0014188753057215646
2451.0,0.00141800779238878
2450.0,0.0014143922373862916
2449.0,0.0014094570758656437
2448.0,0.0014060680225030063
2447.0,0.0014041425855009734
2446.0,0.0014024639375981053
2445.0,0.0014007835504438832
2444.0,0.0013981167605113132
2443.0,0.0013934307592397045
2442.0,0.001389264484386548
2441.0,0.001389471517325456
2440.0,0.001392352687591716
2439.0,0.0013918803084610864
2438.0,0.0013868337265529158
2437.0,0.0013824949293106418
2436.0,0.001382220333603151
2435.0,0.0013840750201282118
2434.0,0.0013869533404602117
2433.0,0.0013924127328355847
2432.0,0.0013983580843158218
2431.0,0.001398647579169152
2430.0,0.0013921066988678268
2429.0,0.001385163910517467
2428.0,0.001382670697337326
2427.0,0.001382646384733175
2426.0,0.0013825733345242887
2425.0,0.0013837184846427221
2424.0,0.0013860153873215802
2423.0,0.0013855896718290507
2422.0,0.0013812092232969428
2421.0,0.001377270697816121
2420.0,0.001377089985922407
2419.0,0.001378884244968674
2418.0,0.0013809835467532051
2417.0,0.0013849646936845096
2416.0,0.0013909575703528311
2415.0,0.0013957063118232279
2414.0,0.0013979452297151272
2413.0,0.0014003025631660834
2412.0,0.001403828892167678
2411.0,0.0014060930686134307
2410.0,0.0014059844083037967
2409.0,0.001404131028375705
2408.0,0.0013975999012033336
2407.0,0.0013820901924632663
2406.0,0.001361547550226481
2405.0,0.0013472789245759307
2404.0,0.0013443673739451344
2403.0,0.0013465770463687988
2402.0,0.0013474559418739502
2401.0,0.0013483272291051676
2400.0,0.0013514015779558894
2399.0,0.0013529345420228143
2398.0,0.0013488636911295911
2397.0,0.0013413968315180652
2396.0,0.001334826139103675
2395.0,0.0013296094023134194
2394.0,0.001324883113677166
2393.0,0.0013217767719099494
2392.0,0.0013199402753384685
2391.0,0.001315260396944072
2390.0,0.0013050399812998628
2389.0,0.0012921392379862397
2388.0,0.0012811560012688666
2387.0,0.001273753254714143
2386.0,0.0012693549653866921
2385.0,0.001265932736816814
2384.0,0.001258285402255071
2383.0,0.0012406760502575009
2382.0,0.0012138567951049738
2381.0,0.0011849875283399367
2380.0,0.001158013125093762
2379.0,0.001129719178105529
2378.0,0.0010991950654663666
2377.0,0.0010741220554692096
2376.0,0.0010614073605895917
2375.0,0.0010589280816798927
2374.0,0.0010635404404868306
2373.0,0.0010781131490784986
2372.0,0.0011006243800297402
2371.0,0.001115869290000424
2370.0,0.001111856121907375
2369.0,0.0010956190205990536
2368.0,0.0010796305054939213
2367.0,0.0010649395027013673
2366.0,0.0010520836829872725
2365.0,0.001052820403323807
2364.0,0.0010726707102412145
2363.0,0.001098680219506823
2362.0,0.0011233275073914662
2361.0,0.0011559383345865564
2360.0,0.001193810950325942
2359.0,0.001214296821650493
2358.0,0.001208172290481885
2357.0,0.0011922397473770722
2356.0,0.0011783111638947622
2355.0,0.0011577501353341316
2354.0,0.001127517321234182
2353.0,0.0011026990927423084
2352.0,0.0010975006443717716
2351.0,0.0011106406713910018
2350.0,0.0011323275451446291
2349.0,0.0011557579614269692
2348.0,0.0011740658344025824
2347.0,0.0011806663966447732
2346.0,0.0011779767022155252
2345.0,0.0011796972412728751
2344.0,0.001194840695735298
2343.0,0.0012119819221067711
2342.0,0.0012218320880946238
2341.0,0.0012338886619358714
2340.0,0.0012575119135268258
2339.0,0.0012845410505994146
2338.0,0.0013012482582376958
2337.0,0.001306992329818446
2336.0,0.0013086231246433242
2335.0,0.001307861034481453
2334.0,0.001303756653970147
2333.0,0.00129907992398034
2332.0,0.0012954820611554372
2331.0,0.001290767723078574
2330.0,0.0012886670334178955
2329.0,0.0013094946931764325
2328.0,0.0013745132140019429
2327.0,0.00148838482120588
2326.0,0.0016321876766475065
2325.0,0.001765383470061846
2324.0,0.0018403535587003346
2323.0,0.0018297459108245942
2322.0,0.00175624595808607
2321.0,0.0016743596428029674
2320.0,0.0016221440768495567
2319.0,0.0016003419171262568
2318.0,0.0015939722765866118
2317.0,0.001592952074508658
2316.0,0.0015888889633822502
2315.0,0.0015749127852644283
2314.0,0.0015537679159913199
2313.0,0.001537258747507343
2312.0,0.0015298897860023305
2311.0,0.001524946437133453
2310.0,0.0015186091325964822
2309.0,0.0015166947767442601
2308.0,0.001522539094046629
2307.0,0.0015304925933428966
2306.0,0.0015360264655785811
2305.0,0.0015415916343633612
2304.0,0.0015491296627791618
2303.0,0.0015557952694163941
2302.0,0.0015611753876127526
2301.0,0.0015693448604079392
2300.0,0.0015805434924024031
2299.0,0.001590572120202062
2298.0,0.0016013496661329324
2297.0,0.0016215101953522063
2296.0,0.0016521621943208923
2295.0,0.001682597037811473
2294.0,0.001705131333427716
2293.0,0.0017241106923344515
2292.0,0.0017457904727541805
2291.0,0.0017688466196730992
2290.0,0.0017907705125427584
2289.0,0.001813424612606014
2288.0,0.0018361311497968502
2287.0,0.0018517877066519482
2286.0,0.0018567122112024814
2285.0,0.0018557913662978142
2284.0,0.0018522936077545922
2283.0,0.0018412528967603802
2282.0,0.001819440669542947
2281.0,0.0017932096573697678
2280.0,0.001769858781322356
2279.0,0.0017499218438455082
2278.0,0.0017337720190263753
2277.0,0.0017259423881632624
2276.0,0.0017260669666497605
2275.0,0.0017259220186667437
2274.0,0.001722089903509828
2273.0,0.0017213036519986827
2272.0,0.0017270780693063635
2271.0,0.001732426241152024
2270.0,0.001732204592083575
2269.0,0.0017296290478418146
2268.0,0.001723951564857635
2267.0,0.0017056238110671603
2266.0,0.0016728449658267013
2265.0,0.0016404097723113364
2264.0,0.0016226438116765539
2263.0,0.0016197695561692782
2262.0,0.0016283638492778398
2261.0,0.0016507137679827007
2260.0,0.001683508174042389
2259.0,0.0017102961176682226
2258.0,0.0017167727722691524
2257.0,0.0017041659600994438
2256.0,0.0016808058901809212
2255.0,0.0016519531867830147
2254.0,0.0016247940311125203
2253.0,0.001609883345762007
2252.0,0.0016087650798244492
2251.0,0.001612080849531562
2250.0,0.0016157269859942217
2249.0,0.001625007254246518
2248.0,0.001637925537364595
2247.0,0.0016419521777653178
2246.0,0.0016350254818777495
2245.0,0.0016327771650680855
2244.0,0.0016453565071137698
2243.0,0.0016636635258414753
2242.0,0.001677859808143706
2241.0,0.0016913719216241246
2240.0,0.001706496340747704
2239.0,0.0017139405115335928
2238.0,0.001709248419615856
2237.0,0.001703614946285973
2236.0,0.0017057256828382477
2235.0,0.0017078745779152513
2234.0,0.0017018259629303374
2233.0,0.0016931042815730934
2232.0,0.001687765297291276
2231.0,0.0016805568117827332
2230.0,0.001668223598284682
2229.0,0.001659696001261496
2228.0,0.0016612693366555512
2227.0,0.0016657057587906332
2226.0,0.0016662457584794915
2225.0,0.0016666453238751878
2224.0,0.0016688415360274354
2223.0,0.0016668350330228
2222.0,0.001660649685564331
2221.0,0.001659097538679188
2220.0,0.0016608309712614173
2219.0,0.0016519225151045967
2218.0,0.0016305996610873686
2217.0,0.001614378085593458
2216.0,0.0016147330878226915
2215.0,0.0016250955534864886
2214.0,0.0016405062758986868
2213.0,0.001664338788473448
2212.0,0.0016876148325132075
2211.0,0.0016893788119600975
2210.0,0.0016689604383582314
2209.0,0.0016525417891918638
2208.0,0.0016554836232049155
2207.0,0.0016639468652527582
2206.0,0.001665704021828519
2205.0,0.0016698531634057252
2204.0,0.0016816701687120282
2203.0,0.0016876948776272719
2202.0,0.0016830446085135614
2201.0,0.0016849651761787952
2200.0,0.0017014030716399676
2199.0,0.0017145575045601508
2198.0,0.0017145001690867603
2197.0,0.0017201599381485243
2196.0,0.001744756281729305
2195.0,0.0017682814877833244
2194.0,0.0017689274333940457
2193.0,0.0017579258809260541
2192.0,0.0017592670282563542
2191.0,0.0017761864653547373
2190.0,0.0018003119121884513
2189.0,0.0018316577923370811
2188.0,0.001866981665105192
2187.0,0.0018891652893802847
2186.0,0.0018881911741411618
2185.0,0.0018724118449014674
2184.0,0.0018428169498470167
2183.0,0.0017839310285306614
2182.0,0.0017019251325485517
2181.0,0.001641527340201752
2180.0,0.0016361850323711577
2179.0,0.001666374087764124
2178.0,0.00169162482473868
2177.0,0.0016975208272655218
2176.0,0.0016902674876275957
2175.0,0.001673578678217691
2174.0,0.0016575938691690396
2173.0,0.0016676247964727592
2172.0,0.0017175863172966962
2171.0,0.0017928600960667943
2170.0,0.0018759945041578483
2169.0,0.001967070480295322
2168.0,0.0020627018846611197
2167.0,0.002139710614001116
2166.0,0.0021842501587192903
2165.0,0.0022194005659942517
2164.0,0.002277578314131028
2163.0,0.0023514349554139796
2162.0,0.0023800585887633206
2161.0,0.0022736242014223967
2160.0,0.0019685576987629873
2159.0,0.0015095291572373988
2158.0,0.0010732873416781199
2157.0,0.0008382722619384402
2156.0,0.0008249084744257406
2155.0,0.0009195509663474432
2154.0,0.0010226308473082273
2153.0,0.0011088120692620085
2152.0,0.0011756537519916634
2151.0,0.0012092865473920169
2150.0,0.0012131857584456729
2149.0,0.0012173002160800086
2148.0,0.001233443731992066
2147.0,0.0012398557162068948
2146.0,0.0012255153228461007
2145.0,0.0012116882505788559
2144.0,0.001213515273207681
2143.0,0.0012182193511282682
2142.0,0.0012178277066877876
2141.0,0.0012265004840082744
2140.0,0.0012482509774612263
2139.0,0.0012600343641543787
2138.0,0.0012428836190292519
2137.0,0.001201722393046185
2136.0,0.0011440578261648737
2135.0,0.0010715177521365556
2134.0,0.0010043714354769958
2133.0,0.0009793839484120897
2132.0,0.0010070603301423429
2131.0,0.001059949076343373
2130.0,0.0011133668463539814
2129.0,0.0011678396157674617
2128.0,0.0012242027586882843
2127.0,0.0012682334575927707
2126.0,0.0012941510409356992
2125.0,0.0013175319216717912
2124.0,0.0013493637737257615
2123.0,0.0013792916947951539
2122.0,0.0013979040778371048
2121.0,0.0014139600365800492
2120.0,0.0014362818646422402
2119.0,0.0014598815447113714
2118.0,0.0014829842636421909
2117.0,0.0015163075292133892
2116.0,0.0015611469738574372
2115.0,0.0015988837370223225
2114.0,0.001616888086198213
2113.0,0.0016256373676831234
2112.0,0.00163659917952059
2111.0,0.0016433879609533463
2110.0,0.001639835167763142
2109.0,0.001635854938730397
2108.0,0.0016386087046197674
2107.0,0.0016377496061972395
2106.0,0.0016262366199047095
2105.0,0.0016167942386367737
2104.0,0.0016209219140028942
2103.0,0.001630617134100964
2102.0,0.0016369832975923313
2101.0,0.0016467450935607937
2100.0,0.0016630703869816466
2099.0,0.0016689217828785893
2098.0,0.0016472924540059375
2097.0,0.001602598284685672
2096.0,0.0015485292765965583
2095.0,0.0014941103729026043
2094.0,0.0014554682655423413
2093.0,0.0014565628567129844
2092.0,0.0014995934299765047
2091.0,0.0015542330955118158
2090.0,0.001592349929363253
2089.0,0.0016163781649615016
2088.0,0.0016399277711286484
2087.0,0.0016614047823435617
2086.0,0.0016740910073773194
2085.0,0.001683722896228525
2084.0,0.0016973545071093394
2083.0,0.0017093176125924775
2082.0,0.0017137951180789045
2081.0,0.0017164665725459645
2080.0,0.001720411022590044
2079.0,0.001717431020021302
2078.0,0.001706360903011035
2077.0,0.001701036854466416
2076.0,0.0017067070455089037
2075.0,0.001708749123984575
2074.0,0.0016981381514219113
2073.0,0.001685819866248796
2072.0,0.0016789972327194377
2071.0,0.0016680249399653611
2070.0,0.0016513096279287297
2069.0,0.0016465168806508953
2068.0,0.0016596007691239585
2067.0,0.001669585865122177
2066.0,0.0016617124149511415
2065.0,0.0016493932544262952
2064.0,0.0016449802209841935
2063.0,0.0016374006868975005
2062.0,0.0016198417036419907
2061.0,0.0016096796553283928
2060.0,0.001620238428204013
2059.0,0.0016394451569486115
2058.0,0.0016534545358410583
2057.0,0.0016634127266840805
2056.0,0.0016658591688543257
2055.0,0.0016536233725442623
2054.0,0.001653504386922007
2053.0,0.0017171180106305504
2052.0,0.0018441820485438597
2051.0,0.0019544385969008215
2050.0,0.0019694746258346317
2049.0,0.0018989157020590358
2048.0,0.001812963160299333
2047.0,0.0017536466106456612
2046.0,0.0017195152341307098
2045.0,0.0017085259306418286
2044.0,0.001719210615706687
2043.0,0.0017308041033355468
2042.0,0.0017277999865442433
2041.0,0.0017275696276958649
2040.0,0.0017491827956094281
2039.0,0.0017776178658327328
2038.0,0.0017898383462129997
2037.0,0.0017850342014037854
2036.0,0.001761889202770385
2035.0,0.0017041664678009826
2034.0,0.001622442094302081
2033.0,0.0015705846126064704
2032.0,0.0015794217924057388
2031.0,0.0016145864548116615
2030.0,0.0016342867862027778
2029.0,0.0016408759465488239
2028.0,0.0016440570475751524
2027.0,0.0016250279879795992
2026.0,0.0015780015446714608
2025.0,0.0015404577078761861
2024.0,0.001540347367122855
2023.0,0.0015568178105096343
2022.0,0.001567443925210257
2021.0,0.0015861969714163302
2020.0,0.0016204292526847833
2019.0,0.0016397021534918365
2018.0,0.0016258710503757538
2017.0,0.0016098985258068245
2016.0,0.001617963133108024
2015.0,0.0016277945700176998
2014.0,0.0016180610033103226
2013.0,0.0016100461018734185
2012.0,0.0016246336196890524
2011.0,0.0016439396339606469
2010.0,0.0016480644835412685
2009.0,0.0016450039603120128
2008.0,0.0016334446467599927
2007.0,0.0015868465372481657
2006.0,0.0015089858818670427
2005.0,0.001452016263388053
2004.0,0.0014445427515458879
2003.0,0.0014561526028255259
2002.0,0.0014609491238536173
2001.0,0.0014794988856722774
2000.0,0.0015263343131044632
1999.0,0.001569204310086742
1998.0,0.0015791466056421387
1997.0,0.0015757242142553703
1996.0,0.00158624654285069
1995.0,0.0016024757622368044
1994.0,0.0016109432710748224
1993.0,0.0016257842407161982
1992.0,0.001655250216355519
1991.0,0.001674600793800561
1990.0,0.001672029122224894
1989.0,0.0016780698363730562
1988.0,0.0017146091880595753
1987.0,0.0017588899390212354
1986.0,0.0017888587768559185
1985.0,0.001822513256505306
1984.0,0.0018804127255847946
1983.0,0.0019511406626515947
1982.0,0.0020224209170661258
1981.0,0.0020979066286912177
1980.0,0.0021507175335638965
1979.0,0.002115308153460687
1978.0,0.001976556588537665
1977.0,0.0018183948888968462
1976.0,0.001722746293771345
1975.0,0.0016768198174899871
1974.0,0.0016365747525548277
1973.0,0.0016053140223087727
1972.0,0.0015935529324440623
1971.0,0.0015723093153086596
1970.0,0.001522189938207006
1969.0,0.0014754057741060461
1968.0,0.0014616176301553252
1967.0,0.0014594405090073994
1966.0,0.0014475727942214896
1965.0,0.001447952583663741
1964.0,0.0014708303892263012
1963.0,0.0014768435342548177
1962.0,0.0014347220503641192
1961.0,0.0013692752352500814
1960.0,0.0013154952362026309
1959.0,0.0012708359578688633
1958.0,0.0012305250285568749
1957.0,0.001217456141673494
1956.0,0.0012388408919437157
1955.0,0.0012607090227474047
1954.0,0.0012593235061678864
1953.0,0.0012548611469155135
1952.0,0.0012651637944537098
1951.0,0.001271077998671934
1950.0,0.0012566774814155135
1949.0,0.0012406017987502908
1948.0,0.0012370727025638156
1947.0,0.0012271180109100948
1946.0,0.0011988657185952587
1945.0,0.0011753744975645656
1944.0,0.0011731793606645474
1943.0,0.0011713908523806847
1942.0,0.001154939328828541
1941.0,0.001144707320799368
1940.0,0.0011505009981119493
1939.0,0.001148381021593787
1938.0,0.0011286401444533204
1937.0,0.0011184596035861058
1936.0,0.0011341770273156633
1935.0,0.0011496326055495643
1934.0,0.001140869524231072
1933.0,0.0011238180158343
1932.0,0.001118743767087018
1931.0,0.0011150970986393651
1930.0,0.001100273546894881
1929.0,0.0010876380592312427
1928.0,0.0010865034024314046
1927.0,0.001079814521815227
1926.0,0.0010585685225925662
1925.0,0.0010459774000715586
1924.0,0.0010624041581161257
1923.0,0.001092067743848492
1922.0,0.0011135687819324204
1921.0,0.0011322975627235466
1920.0,0.00115386031704684
1919.0,0.0011605496907743673
1918.0,0.0011435400767213497
1917.0,0.0011277538695353036
1916.0,0.0011283272957984397
1915.0,0.001124652998239493
1914.0,0.0011052427430878053
1913.0,0.0010918504128588468
1912.0,0.001101012097239358
1911.0,0.0011143376468344761
1910.0,0.0011128482553576695
1909.0,0.0011114379058924817
1908.0,0.0011258329888499902
1907.0,0.0011391404151080441
1906.0,0.0011331665699272585
1905.0,0.001120330545568494
1904.0,0.0011174007998193776
1903.0,0.001116247220584502
1902.0,0.0011068509474896596
1901.0,0.0011013487759595389
1900.0,0.0011087516050543645
1899.0,0.0011145382618880989
1898.0,0.001108522387570756
1897.0,0.0011047100251324459
1896.0,0.0011127189239424262
1895.0,0.0011159559798614533
1894.0,0.001104210833442614
1893.0,0.0010954646172543039
1892.0,0.0011013256917581013
1891.0,0.0011047558380127616
1890.0,0.0010928581249266731
1889.0,0.0010839344281990907
1888.0,0.001090804157283482
1887.0,0.0010940372737884478
1886.0,0.0010819379033752852
1885.0,0.001074403720366893
1884.0,0.0010861944050751888
1883.0,0.0011002098104392155
1882.0,0.0011002129551575663
1881.0,0.0010984017900445152
1880.0,0.0011048893034058475
1879.0,0.0011044893393370161
1878.0,0.0010893767726507556
1877.0,0.0010814025883245772
1876.0,0.0010959011323507602
1875.0,0.0011142465125400652
1874.0,0.0011177625346333606
1873.0,0.0011171746023228453
1872.0,0.0011245300268003054
1871.0,0.00112668181344974
1870.0,0.001111388731049204
1869.0,0.0010997347048085997
1868.0,0.001111669017642818
1867.0,0.0011262742471832936
1866.0,0.0011261813814396233
1865.0,0.001129412808657403
1864.0,0.0011479645667598942
1863.0,0.001162630078604847
1862.0,0.0011572711624224456
1861.0,0.0011477922224261666
1860.0,0.0011507230107484626
1859.0,0.001153445259261894
1858.0,0.001144603897185363
1857.0,0.0011414679044101296
1856.0,0.0011576989231383142
1855.0,0.001176062771012594
1854.0,0.001181314018894505
1853.0,0.001188383384716502
1852.0,0.0012102192371901016
1851.0,0.0012298977460493822
1850.0,0.0012322941912777316
1849.0,0.0012316899974221243
1848.0,0.001242205306667784
1847.0,0.0012518436482569244
1846.0,0.001252391023593616
1845.0,0.0012676550858191334
1844.0,0.0013107385481948802
1843.0,0.0013469630385173868
1842.0,0.0013542926154759168
1841.0,0.0013589532242825422
1840.0,0.0013819085604285318
1839.0,0.001408238886349834
1838.0,0.0014215553372106616
1837.0,0.0014367149372566518
1836.0,0.001468886543494345
1835.0,0.0015012878845338746
1834.0,0.001519202925023373
1833.0,0.0015386995162937197
1832.0,0.0015769494885195187
1831.0,0.0016210288243438682
1830.0,0.0016532640125479089
1829.0,0.0016858779897453802
1828.0,0.0017273369687670044
1827.0,0.0017582579633844374
1826.0,0.0017738342455747716
1825.0,0.0018020367164063899
1824.0,0.0018538207005676425
1823.0,0.0018967280927402823
1822.0,0.0019109439075089972
1821.0,0.001918547776382774
1820.0,0.0019365158007027317
1819.0,0.0019483699307989762
1818.0,0.001944172437898468
1817.0,0.0019516802348080948
1816.0,0.001990929979395143
1815.0,0.0020386899931296473
1814.0,0.00207341955480736
1813.0,0.0021116497077594484
1812.0,0.0021704943100957197
1811.0,0.0022297345016349013
1810.0,0.0022699905548583307
1809.0,0.0023129454148691758
1808.0,0.0023776260221381757
1807.0,0.002443557969648002
1806.0,0.0024935428556912224
1805.0,0.0025471413925807936
1804.0,0.0026219310302419436
1803.0,0.0026989853911549046
1802.0,0.0027622437168819316
1801.0,0.00283841987492944
1800.0,0.002949298019161442
1799.0,0.003068177321089237
1798.0,0.003175722666541149
1797.0,0.0032991999085380526
1796.0,0.003457548813732141
1795.0,0.0036305169420839433
1794.0,0.0038138494123153063
1793.0,0.004062530350176002
1792.0,0.0044076238252521134
1791.0,0.004783742077511838
1790.0,0.005144950643291222
1789.0,0.005535459006051938
1788.0,0.006000092945924429
1787.0,0.006539936280592844
1786.0,0.0071551889031972755
1785.0,0.00785874952815215
1784.0,0.008623631427122056
1783.0,0.00939644735485312
1782.0,0.010185488190350447
1781.0,0.011045721009515947
1780.0,0.011961117396837077
1779.0,0.012843075629992162
1778.0,0.013661862168660197
1777.0,0.014465540486400284
1776.0,0.015277310919856905
1775.0,0.016077611513968828
1774.0,0.0168843894363899
1773.0,0.017769286730275412
1772.0,0.018718503082067867
1771.0,0.019626527763896024
1770.0,0.020507166157492603
1769.0,0.02148994011847227
1768.0,0.022626924070806617
1767.0,0.023841244623397807
1766.0,0.025064569099280978
1765.0,0.02633579050325895
1764.0,0.027732454297138616
1763.0,0.029296573550066627
1762.0,0.03099937651758517
1761.0,0.0327239329365636
1760.0,0.03435277209631364
1759.0,0.03588254629931458
1758.0,0.037399641362741855
1757.0,0.038926972441504185
1756.0,0.040339235408824864
1755.0,0.041548006826721315
1754.0,0.04263154511456696
1753.0,0.04366537963524661
1752.0,0.0445537088359596
1751.0,0.045130971495776606
1750.0,0.045431504423762266
1749.0,0.04560903670844886
1748.0,0.04567262217282445
1747.0,0.045576400336084635
1746.0,0.045329703638435415
1745.0,0.044865580214486
1744.0,0.04404060768399534
1743.0,0.04285337223249568
1742.0,0.04140925413522653
1741.0,0.03958050550609266
1740.0,0.037138129084984
1739.0,0.03444095913373691
1738.0,0.03226533717931069
1737.0,0.030727626625299296
1736.0,0.02920223346749491
1735.0,0.02673657387966372
1734.0,0.02332784322586083
1733.0,0.020467788430445263
1732.0,0.018765618304246112
1731.0,0.017573618245185305
1730.0,0.016449361784817425
1729.0,0.015346187681582545
1728.0,0.014379769192454036
1727.0,0.013600583609256128
1726.0,0.012958129003103355
1725.0,0.012358468709993388
1724.0,0.011750121975423243
1723.0,0.011197709907606705
1722.0,0.01079241498878384
1721.0,0.010521402969278117
1720.0,0.010272034786131501
1719.0,0.00991162516141876
1718.0,0.009381412089049723
1717.0,0.008794250234717851
1716.0,0.008301741124860264
1715.0,0.007921915129280904
1714.0,0.007618771811472441
1713.0,0.007364016700628422
1712.0,0.00712826415784331
1711.0,0.00689655932188402
1710.0,0.006672542548469054
1709.0,0.006464149550714006
1708.0,0.006264365840502005
1707.0,0.00605517615654388
1706.0,0.005831214391572378
1705.0,0.005625090959819664
1704.0,0.005483701226440734
1703.0,0.005408993446244751
1702.0,0.005366026447273367
1701.0,0.005281694624262519
1700.0,0.005131868642215517
1699.0,0.00501700789156022
1698.0,0.004986659297075847
1697.0,0.004989268712639113
1696.0,0.004972465581100895
1695.0,0.0049451767491620075
1694.0,0.004944406844128536
1693.0,0.004966701938292941
1692.0,0.004994819372993943
1691.0,0.005022103701211535
1690.0,0.005054182360369314
1689.0,0.005096668057223298
1688.0,0.005145657875460378
1687.0,0.005198622110428238
1686.0,0.0052633179815295
1685.0,0.005334157522413866
1684.0,0.005385886154399812
1683.0,0.005428446578667621
1682.0,0.005485690676072153
1681.0,0.005553120459903285
1680.0,0.005617279178630502
1679.0,0.005675597850318403
1678.0,0.0057397366747470304
1677.0,0.005818187440508614
1676.0,0.005898872571572574
1675.0,0.005965082759214782
1674.0,0.006022285803181979
1673.0,0.006081670663182282
1672.0,0.0061422066325573605
1671.0,0.006201829803768756
1670.0,0.006263699537750331
1669.0,0.006330385333462456
1668.0,0.006393877984269253
1667.0,0.00644948059176425
1666.0,0.006505754000107638
1665.0,0.006569169975289277
1664.0,0.00663366156293776
1663.0,0.0066877276188298815
1662.0,0.006733290579622573
1661.0,0.006780057927238458
1660.0,0.006825440221945924
1659.0,0.006867012467828687
1658.0,0.006907457384923333
1657.0,0.006954573363420614
1656.0,0.00700396543329556
1655.0,0.00704801521347684
1654.0,0.007049245283773165
1653.0,0.007001365884282086
1652.0,0.006980699530313992
1651.0,0.006986781746745605
1650.0,0.006991274900656305
1649.0,0.006998281087192645
1648.0,0.0069908499105947
1647.0,0.006954363768783521
1646.0,0.006918671012448344
1645.0,0.006909400360695196
1644.0,0.006906636385217009
1643.0,0.006895308184081286
1642.0,0.0068773289368282715
1641.0,0.006854449489591999
1640.0,0.006827122588879716
1639.0,0.0067980651816076185
1638.0,0.0067696549511171425
1637.0,0.006729356289811799
1636.0,0.00665708515414389
1635.0,0.006576807017679597
1634.0,0.0065254511136530035
1633.0,0.006491970455230603
1632.0,0.006457675202396797
1631.0,0.0064163355321158215
1630.0,0.006363680929755071
1629.0,0.006296491230850032
1628.0,0.006216794192053095
1627.0,0.006137542040983767
1626.0,0.006066743718572265
1625.0,0.005993737471822302
1624.0,0.005898931582824702
1623.0,0.005785829433427547
1622.0,0.0056858880883574265
1621.0,0.005612187595523649
1620.0,0.005548867050618812
1619.0,0.005479990680119069
1618.0,0.005392452285936267
1617.0,0.005277112080104892
1616.0,0.0051512434370227286
1615.0,0.005044327809483646
1614.0,0.004959982638467335
1613.0,0.004882987355490814
1612.0,0.0047988466724426864
1611.0,0.004704387548229777
1610.0,0.004609732525132696
1609.0,0.004521645031476122
1608.0,0.004436522686455193
1607.0,0.004353749123868755
1606.0,0.004279501027780836
1605.0,0.004213145668804517
1604.0,0.004146168847394124
1603.0,0.00407705420931179
1602.0,0.004012459286977263
1601.0,0.003953678454825529
1600.0,0.0038958844760701595
1599.0,0.0038398360179372586
1598.0,0.0037903593597497526
1597.0,0.00374457266249365
1596.0,0.0036949342990840513
1595.0,0.0036431020040495633
1594.0,0.0035978592496335076
1593.0,0.0035596169282916205
1592.0,0.003520908591147995
1591.0,0.003481180613157054
1590.0,0.003447401984731968
1589.0,0.0034207456499999334
1588.0,0.003395184804404025
1587.0,0.0033695377513989584
1586.0,0.003348571379908975
1585.0,0.0033321639773551824
1584.0,0.003314139521061348
1583.0,0.0032939654795098965
1582.0,0.0032780871794445498
1581.0,0.0032666433943687873
1580.0,0.0032535962375456946
1579.0,0.003239343609898637
1578.0,0.003232126674979576
1577.0,0.00323263860299142
1576.0,0.003231492074722678
1575.0,0.003227040882145217
1574.0,0.003222908948663042
1573.0,0.0032178847006053835
1572.0,0.003210166000984937
1571.0,0.0032014039427198655
1570.0,0.0031983379162296498
1569.0,0.0032048427785717057
1568.0,0.003212915716082307
1567.0,0.003218588676961651
1566.0,0.003228781707743412
1565.0,0.0032456551149313657
1564.0,0.003258310971709052
1563.0,0.0032625022580162906
1562.0,0.0032639119084499173
1561.0,0.0032718497459844225
1560.0,0.003288890442277639
1559.0,0.0033153144188014143
1558.0,0.0033614902825025916
1557.0,0.003406211273306722
1556.0,0.003429091410184521
1555.0,0.003443510185239142
1554.0,0.0034621948160477286
1553.0,0.0034810505515192967
1552.0,0.0034938014386079403
1551.0,0.003504788775811781
1550.0,0.003522357501401856
1549.0,0.0035434462545471035
1548.0,0.003558632769282334
1547.0,0.0035663806677547804
1546.0,0.003574921246198383
1545.0,0.003586488033858722
1544.0,0.003591907648239614
1543.0,0.0035851920049445214
1542.0,0.0035752350869156374
1541.0,0.0035691098136580654
1540.0,0.003563544650982087
1539.0,0.0035622066633089035
1538.0,0.0035616046446518695
1537.0,0.0035510731201253073
1536.0,0.003533467445903585
1535.0,0.0035155018076839257
1534.0,0.003500913504801524
1533.0,0.003491175613481207
1532.0,0.0034819558665071266
1531.0,0.0034679216461147343
1530.0,0.003450603188331138
1529.0,0.0034353528807669923
1528.0,0.003422590012424974
1527.0,0.003408633261293174
1526.0,0.003394051296686076
1525.0,0.0033821513703803084
1524.0,0.003372045113253466
1523.0,0.003363041462370979
1522.0,0.0033588297532878954
1521.0,0.0033620127934729954
1520.0,0.0033635676965244905
1519.0,0.003353226237652299
1518.0,0.0033369222751032275
1517.0,0.0033227276288346763
1516.0,0.0033092161807560415
1515.0,0.0032931878262709813
1514.0,0.003275449599426647
1513.0,0.0032579006634038906
1512.0,0.0032367171377151
1511.0,0.00320851013971789
1510.0,0.003177543365980104
1509.0,0.0031543805391404736
1508.0,0.0031398237142303445
1507.0,0.0031249840994416046
1506.0,0.003123252466611903
1505.0,0.0031327288211927514
1504.0,0.003125749376984622
1503.0,0.0031023028013424134
1502.0,0.003077507899402959
1501.0,0.0030600623140773476
1500.0,0.003049853310937177
1499.0,0.0030417065934711936
1498.0,0.003038029846858153
1497.0,0.003045208685866865
1496.0,0.0030574126771880537
1495.0,0.0030598973915282753
1494.0,0.003052653001958192
1493.0,0.003046936427470146
1492.0,0.003045705004987341
1491.0,0.0030427476546149943
1490.0,0.003042040615791065
1489.0,0.003057825720645966
1488.0,0.0030865556440612136
1487.0,0.0031143319091264127
1486.0,0.003142260169387459
1485.0,0.0031779329262568976
1484.0,0.003217647654301991
1483.0,0.0032550699989078815
1482.0,0.0032976056204204567
1481.0,0.003356003264569933
1480.0,0.0034234926826915563
1479.0,0.003486791384525805
1478.0,0.003553583402632287
1477.0,0.0036452511121855226
1476.0,0.0037656081269351405
1475.0,0.003903165737777747
1474.0,0.0040767505889348415
1473.0,0.004331561302521883
1472.0,0.004648430507807671
1471.0,0.0049590346081646655
1470.0,0.0052600658643518925
1469.0,0.005591949447952418
1468.0,0.005976881048163499
1467.0,0.006433707984273335
1466.0,0.007011587425096764
1465.0,0.007736499949091414
1464.0,0.008508002018006064
1463.0,0.009201230977960977
1462.0,0.009817079156994042
1461.0,0.010412448868518928
1460.0,0.011014016804378171
1459.0,0.01162896716316966
1458.0,0.012286622909768657
1457.0,0.012929551514885099
1456.0,0.013387627068198743
1455.0,0.0136502209788349
1454.0,0.013831666061820848
1453.0,0.013966035675650964
1452.0,0.014023249477847553
1451.0,0.01398686585069369
1450.0,0.013861398166972263
1449.0,0.01360919553217592
1448.0,0.01318505083533958
1447.0,0.012640388335161115
1446.0,0.012064002700543185
1445.0,0.011454567757057587
1444.0,0.010760609275586266
1443.0,0.009982981207739747
1442.0,0.009183939318749518
1441.0,0.008435073412550766
1440.0,0.007779482572442159
1439.0,0.007217064595018186
1438.0,0.0066926830462724915
1437.0,0.006148818082723947
1436.0,0.005654965571189132
1435.0,0.005325101256823064
1434.0,0.00513248372175576
1433.0,0.004986981722192079
1432.0,0.0048477315193448
1431.0,0.004721383102345759
1430.0,0.004618906000452153
1429.0,0.004531010106647996
1428.0,0.004456384403345345
1427.0,0.0044043589021150326
1426.0,0.00436899210730919
1425.0,0.004329263785142956
1424.0,0.0042805319831148245
1423.0,0.004244387247545102
1422.0,0.004229980992454943
1421.0,0.004220569013803041
1420.0,0.004201642832195995
1419.0,0.0041790618160402245
1418.0,0.004159665017633314
1417.0,0.004134838731526001
1416.0,0.004106011751470752
1415.0,0.004086719636844993
1414.0,0.0040777469862256065
1413.0,0.004067343613243131
1412.0,0.004052531366408513
1411.0,0.004042650142357472
1410.0,0.0040388052350006825
1409.0,0.0040318955198415645
1408.0,0.004023360159930781
1407.0,0.004024724887225896
1406.0,0.004037062155232776
1405.0,0.004051370916488304
1404.0,0.004071499181751268
1403.0,0.004110612702176622
1402.0,0.004168876649793815
1401.0,0.004245210535752755
1400.0,0.004358963170135119
1399.0,0.004529290186550112
1398.0,0.00474499917328771
1397.0,0.004999290840069188
1396.0,0.005331553993026447
1395.0,0.0057770301962009555
1394.0,0.006295234647399858
1393.0,0.006816435611791092
1392.0,0.007324073680646265
1391.0,0.007836242143004941
1390.0,0.008366601734022542
1389.0,0.008928880379029582
1388.0,0.00953084575663875
1387.0,0.010131816618676502
1386.0,0.010656032612801469
1385.0,0.011070256749035607
1384.0,0.011382162028713795
1383.0,0.01158603441661075
1382.0,0.011659992781148664
1381.0,0.011591650649995016
1380.0,0.011382315480876853
1379.0,0.011050770793159827
1378.0,0.01065078288937186
1377.0,0.010253072439798696
1376.0,0.009907429477019848
1375.0,0.009651889138558002
1374.0,0.009537108480277192
1373.0,0.00958790904700217
1372.0,0.009764984251838986
1371.0,0.01000404642813924
1370.0,0.010256077193886362
1369.0,0.010485820402237956
1368.0,0.01067003585850055
1367.0,0.010807293871210192
1366.0,0.010912847770309255
1365.0,0.010998291670334719
1364.0,0.01106157465034632
1363.0,0.01109730048089983
1362.0,0.011113381031453387
1361.0,0.01112327191152498
1360.0,0.011125117210662092
1359.0,0.01110520050474726
1358.0,0.01105233987768524
1357.0,0.010959662308337536
1356.0,0.010820864683978196
1355.0,0.010634405507689015
1354.0,0.010409859101995099
1353.0,0.010161210800902933
1352.0,0.009895372666994648
1351.0,0.009613898264663334
1350.0,0.00932310211013205
1349.0,0.009034810684633762
1348.0,0.0087578868993715
1347.0,0.00849590692760395
1346.0,0.008251024775937156
1345.0,0.008025631421113273
1344.0,0.007821699918045856
1343.0,0.007639956690895663
1342.0,0.007475973423274265
1341.0,0.007317137470232321
1340.0,0.007152062259550673
1339.0,0.006988184629524796
1338.0,0.006845829402165872
1337.0,0.006731201016472974
1336.0,0.006633392004459646
1335.0,0.006543502677406195
1334.0,0.006461332915069279
1333.0,0.00638692707819662
1332.0,0.006316930471349121
1331.0,0.006251197392082869
1330.0,0.006194662467976257
1329.0,0.006149973673012828
1328.0,0.0061150705029840435
1327.0,0.006089080727101914
1326.0,0.006073360066316561
1325.0,0.006065429004732841
1324.0,0.006059003164381479
1323.0,0.0060519287946187005
1322.0,0.006047022956757868
1321.0,0.006043764847847618
1320.0,0.006036326723366741
1319.0,0.006022358055694366
1318.0,0.006006850250050184
1317.0,0.005994071066387182
1316.0,0.005982957217241335
1315.0,0.00597308005296727
1314.0,0.00596760087835336
1313.0,0.005967730161863198
1312.0,0.005970525769072635
1311.0,0.005974188660216527
1310.0,0.005979210336621601
1309.0,0.005982801560492971
1308.0,0.0059791531698721425
1307.0,0.005967404029069069
1306.0,0.005953117335271556
1305.0,0.005939223824674027
1304.0,0.005921674180793536
1303.0,0.005896699428848627
1302.0,0.0058657831002147534
1301.0,0.005830244507709169
1300.0,0.005786336920249646
1299.0,0.005729189889727213
1298.0,0.005657338018838002
1297.0,0.005571385405912809
1296.0,0.005473191258490206
1295.0,0.005368989082391362
1294.0,0.005269439525318586
1293.0,0.005185399302013138
1292.0,0.005127274448758418
1291.0,0.00510733621910826
1290.0,0.005136934999353758
1289.0,0.0052207830982551355
1288.0,0.005357768775206252
1287.0,0.0055464525019265345
1286.0,0.005785528407547151
1285.0,0.006069473627014345
1284.0,0.006388100977135994
1283.0,0.006731647210599819
1282.0,0.0070939184390947305
1281.0,0.0074693125223260284
1280.0,0.007849291044085186
1279.0,0.008224851361445778
1278.0,0.008590519332586042
1277.0,0.008941593636483756
1276.0,0.009269518703577468
1275.0,0.009565994164116175
1274.0,0.009830573222117103
1273.0,0.010067412662370876
1272.0,0.01027512154633272
1271.0,0.010446796331597074
1270.0,0.010579313739791547
1269.0,0.01067479032619766
1268.0,0.010733881161055184
1267.0,0.010756098881572562
1266.0,0.010745726778656334
1265.0,0.010709629264930156
1264.0,0.01065054487888845
1263.0,0.010568919428759463
1262.0,0.010468461388383098
1261.0,0.010353762152101775
1260.0,0.010226324964203592
1259.0,0.01008899789390732
1258.0,0.009949530808871109
1257.0,0.009813933871912293
1256.0,0.009682004265990913
1255.0,0.009554751778852932
1254.0,0.00944001468029156
1253.0,0.009344733366804647
1252.0,0.009267238846717187
1251.0,0.009203065301336967
1250.0,0.009153102411727808
1249.0,0.009120077576380942
1248.0,0.009101991626528071
1247.0,0.009095405349209964
1246.0,0.009101428185321813
1245.0,0.009122835079175292
1244.0,0.009158792542701886
1243.0,0.009207585161276732
1242.0,0.00927089888390531
1241.0,0.009350162621591012
1240.0,0.00944219692875448
1239.0,0.009543800660220548
1238.0,0.00965754945330448
1237.0,0.009787860352146118
1236.0,0.009934574137359955
1235.0,0.010096141520672638
1234.0,0.01027597547666435
1233.0,0.010479218022206067
1232.0,0.010705671964220663
1231.0,0.010952437658876716
1230.0,0.011221275095287229
1229.0,0.011516280881935998
1228.0,0.011836040855420954
1227.0,0.012175559396218201
1226.0,0.012534535285954437
1225.0,0.01291546231806109
1224.0,0.01331438312281557
1223.0,0.013722876128287287
1222.0,0.014139191234571776
1221.0,0.014567402505935573
1220.0,0.015005252049647609
1219.0,0.01544373418983255
1218.0,0.01587894981370677
1217.0,0.016311479100151297
1216.0,0.01673285319306655
1215.0,0.01712705560308463
1214.0,0.017487725938098175
1213.0,0.01781938546091498
1212.0,0.018120236350749327
1211.0,0.0183805467947915
1210.0,0.0186002447478055
1209.0,0.018790335498528796
1208.0,0.01895497810879104
1207.0,0.019090468202330384
1206.0,0.019203547827182532
1205.0,0.01931209379884693
1204.0,0.019426027728448935
1203.0,0.019545594206356744
1202.0,0.01967889311499573
1201.0,0.019842176967177744
1200.0,0.020041914599539162
1199.0,0.020275042508311705
1198.0,0.0205480021039919
1197.0,0.020876869866722013
1196.0,0.021267043056026766
1195.0,0.021711812285821787
1194.0,0.022213135327413907
1193.0,0.022784116627716105
1192.0,0.02342754543649162
1191.0,0.024132399718499113
1190.0,0.024895503018072303
1189.0,0.025723604692327658
1188.0,0.026607073166235895
1187.0,0.027514392510200353
1186.0,0.028418800067610293
1185.0,0.029302238956301425
1184.0,0.03012177628119356
1183.0,0.030799616057862612
1182.0,0.03125733515896089
1181.0,0.031431672916111444
1180.0,0.03125379405071663
1179.0,0.030661651713069088
1178.0,0.029651651145590513
1177.0,0.02828522520096516
1176.0,0.026645780352974498
1175.0,0.024826260868766718
1174.0,0.022943067104773316
1173.0,0.021110609359371736
1172.0,0.019397774618696333
1171.0,0.017831414303797987
1170.0,0.016426921650281565
1169.0,0.015192460238121368
1168.0,0.014118444608177332
1167.0,0.013187166121612911
1166.0,0.012388735881103341
1165.0,0.011715416470876334
1164.0,0.011149944206086261
1163.0,0.010672957923686659
1162.0,0.010275242129014652
1161.0,0.009952236483911595
1160.0,0.009693112534051447
1159.0,0.00948527755997277
1158.0,0.00932449163604127
1157.0,0.00921166499852123
1156.0,0.00914406600192158
1155.0,0.009118021811795626
1154.0,0.009136578105970657
1153.0,0.009206706002329174
1152.0,0.009331686288866265
1151.0,0.009513401133906797
1150.0,0.009760050153408938
1149.0,0.010084694510079324
1148.0,0.010496869759398206
1147.0,0.011000753434881752
1146.0,0.011599847274152397
1145.0,0.012296183043260198
1144.0,0.013083346185450345
1143.0,0.013945940520868774
1142.0,0.014867210228216396
1141.0,0.015829898282348577
1140.0,0.0168080991209129
1139.0,0.01777019217838064
1138.0,0.018695002687485036
1137.0,0.019573141029167674
1136.0,0.02039015939209369
1135.0,0.02112662713461091
1134.0,0.021779240255246
1133.0,0.02236027823576513
1132.0,0.022870401738242237
1131.0,0.02329326249320262
1130.0,0.023619268893467688
1129.0,0.02384824847457309
1128.0,0.023965208038558967
1127.0,0.023943959186032725
1126.0,0.023783177024215632
1125.0,0.023513566798115823
1124.0,0.023167754514416286
1123.0,0.022771211544091532
1122.0,0.0223610160351384
1121.0,0.021980849438012602
1120.0,0.021652685653720874
1119.0,0.021375864661629863
1118.0,0.021152491156444755
1117.0,0.02099176765170511
1116.0,0.020893105355429945
1115.0,0.020850368329948975
1114.0,0.02087371038260413
1113.0,0.020984808925049083
1112.0,0.02118982351248561
1111.0,0.02147847357812624
1110.0,0.021848950567510045
1109.0,0.022308937115574943
1108.0,0.02284948447378216
1107.0,0.023443006198374482
1106.0,0.024071913164204133
1105.0,0.024734715976990163
1104.0,0.025420192786878924
1103.0,0.02610515390373295
1102.0,0.026785322309907784
1101.0,0.027477716847988897
1100.0,0.02818309952999938
1099.0,0.028877522174204837
1098.0,0.029550269536456408
1097.0,0.03021613234826408
1096.0,0.03088012560475003
1095.0,0.03152729499272319
1094.0,0.03215805479703224
1093.0,0.03279418733594171
1092.0,0.03343791466143582
1091.0,0.03406447099517665
1090.0,0.03466548871893826
1089.0,0.035257251737467125
1088.0,0.035834681271797224
1087.0,0.03636240033335653
1086.0,0.03682424563800397
1085.0,0.037234059821038154
1084.0,0.03758465734869955
1083.0,0.03783688059466656
1082.0,0.037972487918163544
1081.0,0.038007092327989135
1080.0,0.037940888481029146
1079.0,0.037750056385134206
1078.0,0.037434414689374036
1077.0,0.037018085885051684
1076.0,0.03649638156475773
1075.0,0.035837125880143546
1074.0,0.035039672296067796
1073.0,0.03413933810651173
1072.0,0.033153369396384746
1071.0,0.03207735089420766
1070.0,0.030934623687732227
1069.0,0.02977733630805592
1068.0,0.02863934614459003
1067.0,0.027533622808372814
1066.0,0.02649217789451574
1065.0,0.02556644722889093
1064.0,0.024789146201413745
1063.0,0.02416780653175792
1062.0,0.02371077861448517
1061.0,0.02342780021655101
1060.0,0.02330473906359431
1059.0,0.023304322928244033
1058.0,0.02339362477144133
1057.0,0.023549053206146156
1056.0,0.023737517925697584
1055.0,0.023923396855244087
1054.0,0.024100948036282408
1053.0,0.02429446698470165
1052.0,0.024519286605032272
1051.0,0.024767567344330502
1050.0,0.02503551884588166
1049.0,0.025327646437817784
1048.0,0.025624932846536455
1047.0,0.025886686740484055
1046.0,0.02609081938939435
1045.0,0.02623849870587733
1044.0,0.026319316027317192
1043.0,0.026307255551022667
1042.0,0.026192971284104215
1041.0,0.025988005839649084
1040.0,0.025694793892435733
1039.0,0.02530405323391716
1038.0,0.02482468707692161
1037.0,0.024286841554882622
1036.0,0.023713738198789976
1035.0,0.023117044435050797
1034.0,0.022518458664675167
1033.0,0.021948248113592958
1032.0,0.021420221890302158
1031.0,0.020929886062147993
1030.0,0.020475681649489274
1029.0,0.02006098809148157
1028.0,0.01967640321131
1027.0,0.019300036088585576
1026.0,0.0189159165023836
1025.0,0.01851648078347101
1024.0,0.01809047144443252
1023.0,0.017626621975671317
1022.0,0.017128075680986586
1021.0,0.01660737207231889
1020.0,0.016069665382707026
1019.0,0.015515641031776096
1018.0,0.014956200606508076
1017.0,0.014408188243687945
1016.0,0.01387891091404457
1015.0,0.013368484566093878
1014.0,0.012883047450077227
1013.0,0.01243224379636439
1012.0,0.01201687868538166
1011.0,0.011630840782728842
1010.0,0.011272685243100123
1009.0,0.010945159547196348
1008.0,0.010645344636356373
1007.0,0.010364514041168933
1006.0,0.010096762208913338
1005.0,0.009840487075032264
1004.0,0.009593063543004028
1003.0,0.009351294654511212
1002.0,0.009116073202328764
1001.0,0.008890762205614704
1000.0,0.00867616265562144
999.0,0.008471208944972462
998.0,0.00827606124003163
997.0,0.00809045694272522
996.0,0.007911920434243606
995.0,0.007739396442633285
994.0,0.0075753618936638175
993.0,0.007420642924373709
992.0,0.00727093340188268
991.0,0.0071226414247429135
990.0,0.006978477038492336
989.0,0.006842806022439412
988.0,0.006714923511888038
987.0,0.006591238970065013
986.0,0.0064708681607425645
985.0,0.0063546432754277215
984.0,0.006241104779207103
983.0,0.006127550104639518
982.0,0.006013319987200607
981.0,0.005899244371522593
980.0,0.00578615107219617
979.0,0.005676367001398346
978.0,0.005573635468039692
977.0,0.005478614122486773
976.0,0.005387131484218079
975.0,0.005295409634434306
974.0,0.005204381404816159
973.0,0.00511678594535624
972.0,0.005033243468729839
971.0,0.0049539668675989
970.0,0.004881753939127095
969.0,0.004820699456226424
968.0,0.004774070547256735
967.0,0.004745632037442729
966.0,0.004741119827374601
965.0,0.004766233419608611
964.0,0.004823774289933426
963.0,0.004912637371435371
962.0,0.005027223249985812
961.0,0.005156822998578175
960.0,0.0052870547225681505
959.0,0.005402963368939417
958.0,0.005490834062251868
957.0,0.00553892150731165
956.0,0.005540593284677413
955.0,0.005498789399246204
954.0,0.00542463116247173
953.0,0.005329404258785165
952.0,0.005220003317576144
951.0,0.005102481144690317
950.0,0.004984651570747539
949.0,0.004872278954254205
948.0,0.0047665980859874345
947.0,0.004667884403083244
946.0,0.004577699480631876
945.0,0.004495797530164837
944.0,0.004419092430381612
943.0,0.004346303128944706
942.0,0.004280338047609297
941.0,0.004223927061191373
940.0,0.0041759619289100155
939.0,0.0041338596505626326
938.0,0.004096233168482855
937.0,0.004061445503110598
936.0,0.0040268939270555046
935.0,0.003992085404940043
934.0,0.003959936294474684
933.0,0.003933161346713625
932.0,0.00391147146021409
931.0,0.0038933097103646614
930.0,0.003877755685946333
929.0,0.003863747519866935
928.0,0.00385013187054015
927.0,0.0038376383722075642
926.0,0.003828452297824919
925.0,0.003823113750376102
924.0,0.003820145653398159
923.0,0.0038187001860185395
922.0,0.0038185931942777054
921.0,0.003818048231862347
920.0,0.0038152344942790394
919.0,0.0038120151428782155
918.0,0.00381168785356064
917.0,0.0038124549397544156
916.0,0.0038080535367467517
915.0,0.003796217368398821
914.0,0.0037815864214295024
913.0,0.0037681565982088773
912.0,0.0037538304466310825
911.0,0.0037353374582789573
910.0,0.003713668302075624
909.0,0.0036907341150881484
908.0,0.0036648754757604594
907.0,0.0036344024228212
906.0,0.003602648833720772
905.0,0.0035749803893731407
904.0,0.0035525774718592057
903.0,0.003532826457336921
902.0,0.003514621904662356
901.0,0.0035002872285944562
900.0,0.0034927101468253743
899.0,0.003492027754086296
898.0,0.0034941450557596015
897.0,0.0034919903433476207
896.0,0.003480012014412244
895.0,0.00345816425609281
894.0,0.0034296432342194984
893.0,0.0033947666748948245
892.0,0.0033501944734136008
891.0,0.003294652632234646
890.0,0.0032322519241568762
889.0,0.00317029466783443
888.0,0.003118607864679923
887.0,0.0030918710360355994
886.0,0.0031066118077369455
885.0,0.003172408054646211
884.0,0.0032889119598151625
883.0,0.0034526421298694786
882.0,0.0036630484766063494
881.0,0.003920383904944782
880.0,0.0042210526081053155
879.0,0.004556931259677658
878.0,0.004915977554264045
877.0,0.005280988882494672
876.0,0.005631334184868121
875.0,0.005951049612123706
874.0,0.006233846277562336
873.0,0.0064757178426628065
872.0,0.006666484654127522
871.0,0.006797112460202655
870.0,0.0068730873206232605
869.0,0.006910723045152521
868.0,0.006920692839368355
867.0,0.0069036229981912275
866.0,0.006859552027824062
865.0,0.006790560295394897
864.0,0.006692656116476631
863.0,0.006554456021191009
862.0,0.006367709639989442
861.0,0.006134097267252005
860.0,0.005860966485645258
859.0,0.005556614538073568
858.0,0.005231622752834304
857.0,0.00490115956399851
856.0,0.0045847715377544925
855.0,0.004304018390452426
854.0,0.00407605694409827
853.0,0.0039060323736473173
852.0,0.00378683666218714
851.0,0.0037062082232057836
850.0,0.0036508628592970896
849.0,0.0036045228139369705
848.0,0.00354907272619051
847.0,0.0034731924892823385
846.0,0.0033781511520933217
845.0,0.00327203371430608
844.0,0.0031606905380657324
843.0,0.0030471472620824296
842.0,0.0029362135296479713
841.0,0.0028344085169502123
840.0,0.002745585270102504
839.0,0.002669238444038866
838.0,0.00260285269678677
837.0,0.002544861361763873
836.0,0.0024960640218922784
835.0,0.0024583264778263343
834.0,0.002430520754585325
833.0,0.002406498481197609
832.0,0.0023800752233137704
831.0,0.002352136473083125
830.0,0.002329349303514838
829.0,0.002315108530238857
828.0,0.0023060692968264406
827.0,0.002299243709235203
826.0,0.0022966353324960042
825.0,0.002298502646222217
824.0,0.0022979028399656358
823.0,0.0022889732723503546
822.0,0.0022763633274085577
821.0,0.0022690186842594293
820.0,0.002267781008472087
819.0,0.0022654548380077848
818.0,0.0022574853893554646
817.0,0.0022480088625246655
816.0,0.002245162748459997
815.0,0.002252594420114065
814.0,0.0022660271929666248
813.0,0.0022774374287811957
812.0,0.0022822316506509715
811.0,0.0022822641607800173
810.0,0.0022821080144206233
809.0,0.002284007514839907
808.0,0.002288108827920323
807.0,0.002295592924822773
806.0,0.0023074878795068354
805.0,0.002320720061152005
804.0,0.002329982892037094
803.0,0.002334980031183671
802.0,0.002341931863185189
801.0,0.002355809759551211
800.0,0.002374507051544182
799.0,0.0023930764696775985
798.0,0.002410619547538818
797.0,0.0024302127222207448
796.0,0.0024547353948631175
795.0,0.0024858605309551903
794.0,0.0025247897461613588
793.0,0.002570647908504676
792.0,0.002619955761289435
791.0,0.002670977816968406
790.0,0.002727320556911968
789.0,0.00279434676654942
788.0,0.0028731884223562676
787.0,0.0029605787705907997
786.0,0.0030525169745907934
785.0,0.0031450191994424545
784.0,0.0032335673479131407
783.0,0.0033167154535381693
782.0,0.0033994252349803453
781.0,0.0034877657265523507
780.0,0.0035804752931724937
779.0,0.0036710300822502028
778.0,0.003758436330372663
777.0,0.0038502479900831433
776.0,0.0039531527379445455
775.0,0.004065863786041586
774.0,0.0041840677293855655
773.0,0.004307594250338101
772.0,0.004438533386908848
771.0,0.004575969510420937
770.0,0.0047178879018678595
769.0,0.004867243578755787
768.0,0.005031524488240551
767.0,0.005215043332539073
766.0,0.005413637563576713
765.0,0.005618066181751886
764.0,0.0058223739626730945
763.0,0.006028588818979978
762.0,0.006241882955075186
761.0,0.006459868289800263
760.0,0.006668688647563431
759.0,0.006852546134538399
758.0,0.007004886404465041
757.0,0.007125917396654335
756.0,0.007212402548515644
755.0,0.007258106723072177
754.0,0.007263849238189976
753.0,0.007238287084817519
752.0,0.0071875646072826985
751.0,0.007113037718821765
750.0,0.0070214607875237894
749.0,0.0069283692727385385
748.0,0.006846134473051638
747.0,0.006773556504075977
746.0,0.006700850550741981
745.0,0.0066206514314270095
744.0,0.0065309688618963805
743.0,0.006431667694814694
742.0,0.006322461673621328
741.0,0.006202917120025403
740.0,0.00607176357392415
739.0,0.005926474958299798
738.0,0.005763842952672813
737.0,0.005580288423817247
736.0,0.00537340053724707
735.0,0.005146358998464235
734.0,0.004910381614121998
733.0,0.004680382691161093
732.0,0.004469301081283499
731.0,0.004288223468065265
730.0,0.004147879595514887
729.0,0.0040542743034531065
728.0,0.00400390962196385
727.0,0.003989234914261719
726.0,0.004009156759896659
725.0,0.0040681187047309445
724.0,0.004164028939378407
723.0,0.004283823373931535
722.0,0.004413171776843867
721.0,0.0045452727982085465
720.0,0.004678480539422758
719.0,0.004811212505870229
718.0,0.004942590200787563
717.0,0.00507338708055457
716.0,0.0052027358146426415
715.0,0.005326032792098344
714.0,0.005437259628210648
713.0,0.005531337448681105
712.0,0.0056049920066693825
711.0,0.0056599335820748655
710.0,0.005704562181610022
709.0,0.005746916059268452
708.0,0.005785837939651567
707.0,0.005813793779576705
706.0,0.005827819326160042
705.0,0.005832051416899527
704.0,0.005830764493399651
703.0,0.00582642954588493
702.0,0.005823830689413035
701.0,0.005827556625800417
700.0,0.005834093342043725
699.0,0.005833345806046451
698.0,0.005820489774938565
697.0,0.00580095981782578
696.0,0.005782805048282307
695.0,0.005769957475886037
694.0,0.005762106420236356
693.0,0.0057537473412135895
692.0,0.005733087516003201
691.0,0.005690267317071261
690.0,0.005630393428643652
689.0,0.005572908382716349
688.0,0.0055350001170064375
687.0,0.00551957192161088
686.0,0.005518929095583011
685.0,0.005521051518259198
684.0,0.005512009808480093
683.0,0.005484948580736411
682.0,0.005450625841362585
681.0,0.005429174158471145
680.0,0.005426682343434983
679.0,0.0054271645821233625
678.0,0.005411546729102917
677.0,0.00537634660100019
676.0,0.0053302069971845525
675.0,0.0052851676572468155
674.0,0.005254923160568982
673.0,0.005249769137590464
672.0,0.00526767986281684
671.0,0.005294954663453654
670.0,0.005313802736811755
669.0,0.00529660817654927
668.0,0.005235027895404846
667.0,0.005183311334105274
666.0,0.005160408385575833
665.0,0.005146699986053828
664.0,0.00513228262302255
663.0,0.005101205134315113
662.0,0.00504468723946233
661.0,0.004980769704917187
660.0,0.004940888644350581
659.0,0.0049401325875435545
658.0,0.004964610694632263
657.0,0.004986391995981818
656.0,0.004984621721695609
655.0,0.004954878387583342
654.0,0.004905769867509805
653.0,0.004848553525827415
652.0,0.004791329339679593
651.0,0.0047405777448130395
650.0,0.004697046829812283
649.0,0.004648683267086465
648.0,0.004581607265545074
647.0,0.004505773514983516
646.0,0.00445484235212574
645.0,0.0044476433600845995
644.0,0.0044632571339608875
643.0,0.004464389253078647
642.0,0.004436932161267391
641.0,0.004391245838206764
640.0,0.004330023089014706
639.0,0.004243290473050445
638.0,0.00413922946743018
637.0,0.004051480527337305
636.0,0.004003633353019832
635.0,0.003982609933021167
634.0,0.003957926827446204
633.0,0.003918461503712154
632.0,0.00387569020693541
631.0,0.0038407167195099153
630.0,0.00381332014040869
629.0,0.003790227839239795
628.0,0.003769500897987637
627.0,0.0037401772991509895
626.0,0.003677640838853951
625.0,0.0035633609116048903
624.0,0.0034142428048467297
623.0,0.0032851150469550413
622.0,0.0032237261369577304
621.0,0.003223272766611881
620.0,0.0032345852434580167
619.0,0.0032141641486366857
618.0,0.003151934192180947
617.0,0.0030633658026534482
616.0,0.0029754441960254865
615.0,0.0029226371035730196
614.0,0.002925003830955679
613.0,0.0029585535453835205
612.0,0.0029651809908452283
611.0,0.002905786966534249
610.0,0.0028060532555725746
609.0,0.002733840443342391
608.0,0.002734712259134287
607.0,0.002794796098408653
606.0,0.0028588565374466045
605.0,0.002885297461129461
604.0,0.0028745978465300514
603.0,0.0028515196929243883
602.0,0.0028350306303102507
601.0,0.002829263232033299
600.0,0.002835255756340788
599.0,0.0028504590633373697
598.0,0.0028514439867898525
597.0,0.002798052962592469
596.0,0.0026753858050251045
595.0,0.0025320894236460587
594.0,0.002448489985017149
593.0,0.0024525145401338073
592.0,0.0024938750417308584
591.0,0.0025057566228614317
590.0,0.002472935353060195
589.0,0.0024198762841060287
588.0,0.002356078357250193
587.0,0.0022735147518539904
586.0,0.0021812690083003604
585.0,0.0021054234490531
584.0,0.0020504722189655725
583.0,0.001984910576076405
582.0,0.001881317770109059
581.0,0.0017639990028215035
580.0,0.0017010210415535575
579.0,0.0017301916273315806
578.0,0.0017941430903919203
577.0,0.0017903848253936188
576.0,0.0016811337165362188
575.0,0.0015354784914654016
574.0,0.001441054122178456
573.0,0.0013985587784558773
572.0,0.0013664459067828827
571.0,0.0013542515638095415
570.0,0.001405799215653196
569.0,0.0015043514031311072
568.0,0.0015604319118578429
567.0,0.0015114437351407026
566.0,0.0014036399791878353
565.0,0.00133461658643851
564.0,0.0013390783596664972
563.0,0.0013681746477800898
562.0,0.0013706591272051546
561.0,0.0013680155545407972
560.0,0.0014163488619222267
559.0,0.0015077409098649282
558.0,0.0015574022855360322
557.0,0.0015205983773995506
556.0,0.001463079980769492
555.0,0.0014684312042165374
554.0,0.0015000166681003505
553.0,0.00143156984926382
552.0,0.001224349941227896
551.0,0.001010426406820341
550.0,0.0009467954803322187
