cm-1,A
4000.0,0.0026926715424443193
3999.0,0.0026770695617891744
3998.0,0.002665689490522554
3997.0,0.0026643388080408287
3996.0,0.002671802049093161
3995.0,0.0026817346976336504
3994.0,0.002688437175527292
3993.0,0.002690659827292444
3992.0,0.002691616013616715
3991.0,0.0026946717367311926
3990.0,0.0027005749224052996
3989.0,0.002708348594447705
3988.0,0.002717507416828774
3987.0,0.002728845075709449
3986.0,0.0027425784652255637
3985.0,0.002757452145532554
3984.0,0.0027716027296815155
3983.0,0.0027830674067545304
3982.0,0.002789491199554798
3981.0,0.0027877806075486985
3980.0,0.002776368713880412
3979.0,0.002758137181592917
3978.0,0.0027399398342503427
3977.0,0.0027277125685093943
3976.0,0.0027225638387139085
3975.0,0.002721806663230484
3974.0,0.002722551354497522
3973.0,0.002724452785539759
3972.0,0.002728578866838692
3971.0,0.0027352365052170794
3970.0,0.0027430554235092558
3969.0,0.0027492331080718924
3968.0,0.002750941641310418
3967.0,0.0027470795654656586
3966.0,0.0027395650167971004
3965.0,0.0027322587482692053
3964.0,0.002728403069284851
3963.0,0.0027290470865335816
3962.0,0.0027328107012464507
3961.0,0.002737388262069223
3960.0,0.002740947432307695
3959.0,0.0027419774112497513
3958.0,0.002738771647224294
3957.0,0.0027297084200376643
3956.0,0.002714462564541422
3955.0,0.002695807908816303
3954.0,0.002679534423467016
3953.0,0.00267127640097977
3952.0,0.002672850098253858
3951.0,0.0026807508344358745
3950.0,0.002690399228084336
3949.0,0.0027002115003439534
3948.0,0.002711520907150437
3947.0,0.002724939538002602
3946.0,0.002738032431775736
3945.0,0.0027496761460718807
3944.0,0.0027595581801226382
3943.0,0.002763823648714538
3942.0,0.0027588546552161698
3941.0,0.0027463262130847403
3940.0,0.0027327903003322067
3939.0,0.002724589925547162
3938.0,0.0027248467711830497
3937.0,0.002732766553330903
3936.0,0.002744031384866961
3935.0,0.0027548981493902077
3934.0,0.002763896041724156
3933.0,0.0027707261576986188
3932.0,0.00277293325346396
3931.0,0.0027675205569822957
3930.0,0.002754687477195433
3929.0,0.002737330860108602
3928.0,0.002719712626358536
3927.0,0.0027068763889892718
3926.0,0.0027034499825088075
3925.0,0.0027063934810206405
3924.0,0.0027072679924173616
3923.0,0.0027020528126939993
3922.0,0.002691806329381859
3921.0,0.0026813963068781964
3920.0,0.0026777413576754227
3919.0,0.002686398804054518
3918.0,0.002705301290456342
3917.0,0.002723406071635244
3916.0,0.00273347030324782
3915.0,0.002737997016042873
3914.0,0.002742022203812374
3913.0,0.002747511952748097
3912.0,0.0027524513398702604
3911.0,0.002753243462293813
3910.0,0.002747807537692174
3909.0,0.0027368379911787855
3908.0,0.0027246901232927815
3907.0,0.0027170233280320853
3906.0,0.0027150233397211414
3905.0,0.00270787805229166
3904.0,0.0026815872849109638
3903.0,0.00264186409804999
3902.0,0.002613653711847649
3901.0,0.0026165852190134296
3900.0,0.0026479232563221965
3899.0,0.0026909715748880806
3898.0,0.002730747513237511
3897.0,0.0027583307160917027
3896.0,0.0027704070055566666
3895.0,0.002767667759262717
3894.0,0.0027550680218439805
3893.0,0.0027396706139618905
3892.0,0.002725072574209311
3891.0,0.0027127907944439577
3890.0,0.002704061634885946
3889.0,0.0026967969166088387
3888.0,0.002693603758859189
3887.0,0.0027024764008010452
3886.0,0.002719842911595177
3885.0,0.0027251044004554916
3884.0,0.0027055059138878096
3883.0,0.002669877786785843
3882.0,0.002637956864702961
3881.0,0.002626801726676175
3880.0,0.0026407138163374233
3879.0,0.002667781381297236
3878.0,0.002684294412527864
3877.0,0.0026735626375678657
3876.0,0.0026413464913442623
3875.0,0.0026108000261733074
3874.0,0.0026027551578702893
3873.0,0.0026203663618151597
3872.0,0.002651902043918886
3871.0,0.0026774358560807112
3870.0,0.0026779953372961175
3869.0,0.002653973320140209
3868.0,0.0026212854128830417
3867.0,0.0025915279100286507
3866.0,0.0025751261115934967
3865.0,0.0025799672650704962
3864.0,0.0026015691811356752
3863.0,0.002627608155812694
3862.0,0.002653084976585809
3861.0,0.00267417468106352
3860.0,0.00268478015648415
3859.0,0.002684475202349742
3858.0,0.002680599388537655
3857.0,0.002679870678776643
3856.0,0.0026800438618165444
3855.0,0.0026742144316053837
3854.0,0.0026657560955084033
3853.0,0.002662210451305799
3852.0,0.002673526386653643
3851.0,0.0026979361675093473
3850.0,0.0027221053610113287
3849.0,0.002739770651368901
3848.0,0.0027453334305414623
3847.0,0.0027353106069350533
3846.0,0.002712270609595507
3845.0,0.002683164840178803
3844.0,0.0026548573371750076
3843.0,0.0026276836676159543
3842.0,0.002599189617852125
3841.0,0.0025691494429002813
3840.0,0.002540500798429619
3839.0,0.0025219673385867385
3838.0,0.002527189179834993
3837.0,0.0025570671262655836
3836.0,0.002593958294956225
3835.0,0.0026211085483807206
3834.0,0.0026355637193573524
3833.0,0.0026422467433370846
3832.0,0.0026448042882472114
3831.0,0.002643276246939262
3830.0,0.002635613648581568
3829.0,0.002621175176686249
3828.0,0.0026058508648236427
3827.0,0.002600150744831578
3826.0,0.002608730612876599
3825.0,0.002624427662285283
3824.0,0.002635135647253651
3823.0,0.002634094922647678
3822.0,0.00262348316402781
3821.0,0.0026047053946649853
3820.0,0.002585454322124828
3819.0,0.002577676371709118
3818.0,0.002580816556898648
3817.0,0.002592462197525047
3816.0,0.0026096347695548005
3815.0,0.00262604746566369
3814.0,0.002637735854782228
3813.0,0.0026444509034492755
3812.0,0.0026483072276975066
3811.0,0.0026495867649923605
3810.0,0.0026491050118786566
3809.0,0.0026513303624178283
3808.0,0.00265960241958412
3807.0,0.002667969068341588
3806.0,0.0026644370011006556
3805.0,0.0026454244039418
3804.0,0.0026197182404445194
3803.0,0.0026001147407579027
3802.0,0.002591263834974065
3801.0,0.0025852683726894222
3800.0,0.00257881038583425
3799.0,0.0025732074143560435
3798.0,0.0025736169704242006
3797.0,0.0025898464031815305
3796.0,0.002621732421964316
3795.0,0.0026567994550962663
3794.0,0.0026801389853636694
3793.0,0.0026845815109584393
3792.0,0.002672963397644123
3791.0,0.0026532741283625785
3790.0,0.0026338100562006213
3789.0,0.0026199260025142946
3788.0,0.0026126502276607173
3787.0,0.002611316442400289
3786.0,0.002614499197211632
3785.0,0.0026187136800320176
3784.0,0.0026197055987417666
3783.0,0.002613518003711529
3782.0,0.0025968649421273093
3781.0,0.002573536216829574
3780.0,0.0025571224464269724
3779.0,0.002562250463492378
3778.0,0.002589628181730313
3777.0,0.0026225814822234475
3776.0,0.0026421918736976545
3775.0,0.0026417477385443566
3774.0,0.0026286292584530844
3773.0,0.0026148648231467367
3772.0,0.00260843528293393
3771.0,0.0026073917686254087
3770.0,0.002603906741459934
3769.0,0.0025947427563600264
3768.0,0.0025826436282981994
3767.0,0.0025701081804612893
3766.0,0.0025605324159635964
3765.0,0.0025579314353350183
3764.0,0.002561759460377874
3763.0,0.0025651771564171324
3762.0,0.0025610267093026957
3761.0,0.0025478342783858536
3760.0,0.0025293220046644074
3759.0,0.002511696458292269
3758.0,0.002502487410115743
3757.0,0.0025044699586534865
3756.0,0.002511162098837162
3755.0,0.0025152076317675486
3754.0,0.002514579126786208
3753.0,0.0025180200446456194
3752.0,0.0025396596099236195
3751.0,0.002573486999728534
3750.0,0.0025973713374203514
3749.0,0.0026019267270370717
3748.0,0.0025850734317976387
3747.0,0.0025524340377746087
3746.0,0.0025195782284917327
3745.0,0.002511786259909878
3744.0,0.002548260058896853
3743.0,0.002606956780382347
3742.0,0.002650735378653853
3741.0,0.0026669780964101246
3740.0,0.002656745007645479
3739.0,0.002626086011162105
3738.0,0.0025944203161031914
3737.0,0.0025898587907823584
3736.0,0.002610628645135697
3735.0,0.002609966308164879
3734.0,0.0025811659461670664
3733.0,0.002569670114014921
3732.0,0.002591767391718445
3731.0,0.0026232609353935097
3730.0,0.00264009323167329
3729.0,0.0026405136694349794
3728.0,0.0026372637711568492
3727.0,0.0026414961385654804
3726.0,0.0026527234946373563
3725.0,0.0026606256663245682
3724.0,0.0026553364056687433
3723.0,0.002635745336008153
3722.0,0.0026125917573251497
3721.0,0.002600485605158594
3720.0,0.002605174767114462
3719.0,0.0026216448426571617
3718.0,0.0026414630574572652
3717.0,0.0026570202920222653
3716.0,0.0026629452651244045
3715.0,0.002656505275527798
3714.0,0.002640007197325639
3713.0,0.002625696563083042
3712.0,0.0026289147593313114
3711.0,0.0026491962591553946
3710.0,0.0026814808799584867
3709.0,0.0027279624671277107
3708.0,0.0027840467276192293
3707.0,0.002839298544558833
3706.0,0.002884000758367827
3705.0,0.002912716205203218
3704.0,0.002927536056686566
3703.0,0.0029420697820307625
3702.0,0.0029742945043110887
3701.0,0.0030291135507489316
3700.0,0.0030926490632293283
3699.0,0.0031456829064647114
3698.0,0.0031778187351622494
3697.0,0.003186766538258284
3696.0,0.0031715529638780557
3695.0,0.0031313435087783562
3694.0,0.0030690087680510496
3693.0,0.0029972273943397482
3692.0,0.0029411514483870683
3691.0,0.0029256275361498954
3690.0,0.002941606353302341
3689.0,0.002953829072784018
3688.0,0.002953198038172895
3687.0,0.002948336355020492
3686.0,0.002941046218751543
3685.0,0.0029332871997390935
3684.0,0.0029262582908828423
3683.0,0.0029184162628576055
3682.0,0.002910498439075928
3681.0,0.002906101625082703
3680.0,0.0029048082610689217
3679.0,0.0028995302715714567
3678.0,0.002883263769245481
3677.0,0.0028545538158011407
3676.0,0.002812753427442324
3675.0,0.00277237888414979
3674.0,0.00276163806961192
3673.0,0.0027778199869394516
3672.0,0.002808234161387336
3671.0,0.00285252612224523
3670.0,0.0028996244712487466
3669.0,0.0029353624329141025
3668.0,0.002969498186647675
3667.0,0.003007499386718913
3666.0,0.003046524100385727
3665.0,0.0030836222842006407
3664.0,0.003116039896341779
3663.0,0.0031416327338776454
3662.0,0.003160756032787144
3661.0,0.003175306242701116
3660.0,0.003186416455444075
3659.0,0.0031942881665296594
3658.0,0.0031995806059503195
3657.0,0.0032030419944910488
3656.0,0.0032039638821754622
3655.0,0.0032015240809352506
3654.0,0.003195848790208733
3653.0,0.003191413721165948
3652.0,0.003200692781562102
3651.0,0.0032356253360466634
3650.0,0.003270442551190866
3649.0,0.0032444330666551607
3648.0,0.0031885022230965852
3647.0,0.003184602930937832
3646.0,0.003238298444158471
3645.0,0.003309960243145854
3644.0,0.0033705057991101697
3643.0,0.0034135217974362517
3642.0,0.003447061775252646
3641.0,0.0034813955390187606
3640.0,0.003518217307079875
3639.0,0.0035491664209965986
3638.0,0.0035650356024415704
3637.0,0.003565064889245123
3636.0,0.0035576001255302647
3635.0,0.0035534178747573296
3634.0,0.00355790761822094
3633.0,0.003569616701849654
3632.0,0.003585152758664439
3631.0,0.00360411492814621
3630.0,0.003628184143847049
3629.0,0.0036493411630305964
3628.0,0.003668010965706964
3627.0,0.0037035917631381846
3626.0,0.0037522323027444878
3625.0,0.003800489342597999
3624.0,0.003841382586097469
3623.0,0.0038748840090547243
3622.0,0.003908982046540295
3621.0,0.003951233742462758
3620.0,0.003990788380026483
3619.0,0.004000733826124047
3618.0,0.0039797984104344725
3617.0,0.003955339990452868
3616.0,0.003948986842045284
3615.0,0.0039676870238131556
3614.0,0.0040033356687398484
3613.0,0.004038867213136013
3612.0,0.004066302534265478
3611.0,0.0040907676075451135
3610.0,0.004120663171832206
3609.0,0.004159306115695206
3608.0,0.00420428407070893
3607.0,0.0042540408233088045
3606.0,0.004308649662153446
3605.0,0.004359035177283667
3604.0,0.004389325125929143
3603.0,0.0043909279068285725
3602.0,0.004371964794033502
3601.0,0.004351710806918423
3600.0,0.004345316793327908
3599.0,0.0043526167659693055
3598.0,0.004361042286545201
3597.0,0.004357988609234926
3596.0,0.004341553849712158
3595.0,0.004321349601365328
3594.0,0.00431089365298822
3593.0,0.004316935448952543
3592.0,0.004336999541606621
3591.0,0.004366606316275965
3590.0,0.004404734052628429
3589.0,0.004442671978500285
3588.0,0.0044478403995163755
3587.0,0.004402766019775031
3586.0,0.004354881400629308
3585.0,0.004349511488461133
3584.0,0.004380547138023654
3583.0,0.004423208633628457
3582.0,0.004463958092610826
3581.0,0.004502409540333011
3580.0,0.00454182101375133
3579.0,0.004580051804348325
3578.0,0.004610539659175668
3577.0,0.004629148910051919
3576.0,0.00463848089769609
3575.0,0.00464697092574137
3574.0,0.004662471391269095
3573.0,0.004685030261671882
3572.0,0.004705659967765318
3571.0,0.0047146814129492304
3570.0,0.004712350098692153
3569.0,0.004711494206951365
3568.0,0.004719646260576509
3567.0,0.004720355493126246
3566.0,0.004708557068347311
3565.0,0.004710823708921691
3564.0,0.004739206591293781
3563.0,0.004781168333717881
3562.0,0.004820352983978146
3561.0,0.004849086749975745
3560.0,0.00487001383802958
3559.0,0.004890992305867265
3558.0,0.004915666623893617
3557.0,0.004939063716084529
3556.0,0.004953869661052301
3555.0,0.00495918176100802
3554.0,0.004960911773026456
3553.0,0.004963730710483079
3552.0,0.004967905133867077
3551.0,0.004975380526762955
3550.0,0.004991875614947707
3549.0,0.005022843862106643
3548.0,0.005068164175556892
3547.0,0.005115770514344128
3546.0,0.00514365258727713
3545.0,0.005138526516902916
3544.0,0.005111737322681168
3543.0,0.005088697274725319
3542.0,0.005089021884358401
3541.0,0.005116907455130355
3540.0,0.005163341001623943
3539.0,0.005216021927909
3538.0,0.005266947696354408
3537.0,0.005309937517843399
3536.0,0.0053377979143679035
3535.0,0.005348375837640872
3534.0,0.005350580097771223
3533.0,0.005358991349884472
3532.0,0.005383167953878224
3531.0,0.005420876714270866
3530.0,0.005460013838835673
3529.0,0.005486813699499249
3528.0,0.005495619927706055
3527.0,0.0054945830886262955
3526.0,0.005498992084988636
3525.0,0.005515905934873938
3524.0,0.005535573450501369
3523.0,0.005542880709471481
3522.0,0.005537446306128678
3521.0,0.005534079923942288
3520.0,0.005544716303649786
3519.0,0.005568151206493583
3518.0,0.00559537259774266
3517.0,0.005619458093273041
3516.0,0.005638459151790081
3515.0,0.00565217286366503
3514.0,0.0056617236243216755
3513.0,0.005671456706599655
3512.0,0.005686184255210553
3511.0,0.005703544755282515
3510.0,0.005713724991159143
3509.0,0.00571220920839566
3508.0,0.0057097971035347285
3507.0,0.005723358677058446
3506.0,0.0057592247336329715
3505.0,0.005805975284239034
3504.0,0.0058403205261277295
3503.0,0.005846439409627043
3502.0,0.005833095120020874
3501.0,0.005821933180917164
3500.0,0.005823460590292925
3499.0,0.005834875330536301
3498.0,0.005852003505337615
3497.0,0.0058749165085907225
3496.0,0.005904286600538671
3495.0,0.005937068102808174
3494.0,0.005968097136455418
3493.0,0.00599480678829528
3492.0,0.0060187399139538765
3491.0,0.00604253284285198
3490.0,0.0060659314681992815
3489.0,0.006084486435710094
3488.0,0.006093460337379633
3487.0,0.006094050179646442
3486.0,0.0060934483201429005
3485.0,0.0060981376130011195
3484.0,0.0061092662337036896
3483.0,0.006123677609970714
3482.0,0.006137987675301996
3481.0,0.006151579006273174
3480.0,0.006166372250595057
3479.0,0.00618399282632441
3478.0,0.006202923897308133
3477.0,0.0062185531687987015
3476.0,0.006227463253238258
3475.0,0.006233038206421141
3474.0,0.006244330671879124
3473.0,0.0062665594581897705
3472.0,0.006294561929101002
3471.0,0.006317702315152345
3470.0,0.006329423200360257
3469.0,0.006330795435799848
3468.0,0.006327723140859553
3467.0,0.006327770257464803
3466.0,0.0063374461392067625
3465.0,0.006358206295150595
3464.0,0.006384594047619952
3463.0,0.006408811764843174
3462.0,0.006428351027303327
3461.0,0.006447907596896182
3460.0,0.0064733909244120025
3459.0,0.0065049624069950475
3458.0,0.0065351731466927855
3457.0,0.006553587712987387
3456.0,0.0065555476816341095
3455.0,0.006547330703923793
3454.0,0.006541282207433178
3453.0,0.006544432216525097
3452.0,0.006554711070743337
3451.0,0.006568707930411066
3450.0,0.00658766614991081
3449.0,0.006611022314814578
3448.0,0.006627572820624547
3447.0,0.006623781494282978
3446.0,0.006603226651421982
3445.0,0.006585363311393792
3444.0,0.0065836285620802125
3443.0,0.006595282371440989
3442.0,0.006610659799742877
3441.0,0.00662562318871884
3440.0,0.006642457239428207
3439.0,0.006661410873147411
3438.0,0.0066768084669517735
3437.0,0.006682596930889035
3436.0,0.0066798881489288095
3435.0,0.006677928187543475
3434.0,0.006687484746412869
3433.0,0.006712165293497223
3432.0,0.006746255201024653
3431.0,0.006780055072243456
3430.0,0.006805691542659514
3429.0,0.006818127968677161
3428.0,0.006815037924589859
3427.0,0.006800685890148155
3426.0,0.006788189862930037
3425.0,0.006792379405252174
3424.0,0.006818170825032014
3423.0,0.006856591419945644
3422.0,0.006891375909275551
3421.0,0.006908796802695701
3420.0,0.0069047181628055995
3419.0,0.006887008219786442
3418.0,0.00687214392766022
3417.0,0.0068747556634428456
3416.0,0.006895740128985167
3415.0,0.00692108046626801
3414.0,0.006935838253996464
3413.0,0.006938934146577785
3412.0,0.0069410220861347675
3411.0,0.006949881693488642
3410.0,0.006962502642916356
3409.0,0.00697167874312695
3408.0,0.006976130971506732
3407.0,0.006981178473275427
3406.0,0.006991234630208182
3405.0,0.007005090615728257
3404.0,0.007018411027520593
3403.0,0.007027924570934416
3402.0,0.007032148366536215
3401.0,0.007030125537573115
3400.0,0.0070226837155886205
3399.0,0.007014840201347383
3398.0,0.007014043168049945
3397.0,0.007024260247099709
3396.0,0.007043063908069605
3395.0,0.007065205098163758
3394.0,0.007086458896486377
3393.0,0.007102733939259059
3392.0,0.007109295800519523
3391.0,0.007105016991207934
3390.0,0.007095819477669613
3389.0,0.007090713198509411
3388.0,0.007094302796470046
3387.0,0.007104077507596076
3386.0,0.0071145881201103035
3385.0,0.007122979748043468
3384.0,0.007130212185997968
3383.0,0.007138024363346322
3382.0,0.007146081935926586
3381.0,0.007152515171187084
3380.0,0.007157816015360237
3379.0,0.007167314083241518
3378.0,0.007186855962270187
3377.0,0.007214507218773737
3376.0,0.0072391482804256045
3375.0,0.0072502760593473065
3374.0,0.007247801433602057
3373.0,0.007239964074110939
3372.0,0.007233395952128295
3371.0,0.007228464532671022
3370.0,0.0072232790108324955
3369.0,0.0072186751508234274
3368.0,0.007218114251329145
3367.0,0.0072245442124393095
3366.0,0.0072377879217230545
3365.0,0.007253461231603269
3364.0,0.007264437994832435
3363.0,0.007265237968198662
3362.0,0.00725606564292051
3361.0,0.007242491794365474
3360.0,0.007231499419490552
3359.0,0.007227736300805455
3358.0,0.0072317500227418036
3357.0,0.007239975582247112
3356.0,0.007247237838505359
3355.0,0.007250836040156737
3354.0,0.007251505891045478
3353.0,0.007250365045661107
3352.0,0.007247681701914988
3351.0,0.007245849404777443
3350.0,0.007249705365397994
3349.0,0.00726014627302323
3348.0,0.007269775304240971
3347.0,0.007269811157992746
3346.0,0.007261040177050923
3345.0,0.0072536458577182935
3344.0,0.007256120788537663
3343.0,0.007268014194247981
3342.0,0.007284262307549885
3341.0,0.007302785225203594
3340.0,0.007325198905714836
3339.0,0.007351079581264004
3338.0,0.00737376012222171
3337.0,0.007383780426562786
3336.0,0.007378325385297088
3335.0,0.007366421512005716
3334.0,0.00736094868189094
3333.0,0.007364471963852941
3332.0,0.007366701018447435
3331.0,0.007357994980166177
3330.0,0.007341852475205478
3329.0,0.007330518489199068
3328.0,0.0073310233652528235
3327.0,0.007340179693589153
3326.0,0.0073516421997296974
3325.0,0.0073618775378174175
3324.0,0.007368918858671014
3323.0,0.007370930222668186
3322.0,0.007368163487519645
3321.0,0.007362756479976449
3320.0,0.007355645693590741
3319.0,0.007347525502350789
3318.0,0.00734360371430591
3317.0,0.007352204920578093
3316.0,0.00737571260082061
3315.0,0.007405812674844185
3314.0,0.007430080005983993
3313.0,0.007441533770779571
3312.0,0.007440906752050687
3311.0,0.007432833485160383
3310.0,0.007422746159063059
3309.0,0.007415370442364404
3308.0,0.0074128045419850335
3307.0,0.007414053492716952
3306.0,0.007417271115380687
3305.0,0.007421050075370995
3304.0,0.007423038215693713
3303.0,0.007420410233509602
3302.0,0.007414302526952483
3301.0,0.007411633370646464
3300.0,0.0074192247470150924
3299.0,0.007436349054618084
3298.0,0.007455321030794228
3297.0,0.007469157395630576
3296.0,0.007476806452807818
3295.0,0.007480986711610601
3294.0,0.007483500190502158
3293.0,0.007483948180425834
3292.0,0.007481442548920779
3291.0,0.007475718343580016
3290.0,0.007466833384849712
3289.0,0.0074556339247541965
3288.0,0.007445447727434853
3287.0,0.0074416831075955255
3286.0,0.007447195135526993
3285.0,0.00745765873676767
3284.0,0.007463621876634854
3283.0,0.00745870156543575
3282.0,0.007444652368784844
3281.0,0.00742754195361275
3280.0,0.0074110417892940175
3279.0,0.00739552589455079
3278.0,0.007381616222278627
3277.0,0.007370709646652541
3276.0,0.007361937301140536
3275.0,0.007351804636382243
3274.0,0.007338158072035047
3273.0,0.007322508757135174
3272.0,0.007307311274066203
3271.0,0.00729281086828858
3270.0,0.007278283394879901
3269.0,0.007265272837292266
3268.0,0.007257284672788009
3267.0,0.007254835994665831
3266.0,0.007251150156797696
3265.0,0.007235310778530244
3264.0,0.007202775468010828
3263.0,0.007162797080767401
3262.0,0.007131898716498918
3261.0,0.007118167748934061
3260.0,0.007113825987729049
3259.0,0.0071050999806533035
3258.0,0.007086640041323216
3257.0,0.007062781400057256
3256.0,0.00703713098018157
3255.0,0.0070070363098989384
3254.0,0.00697004539154864
3253.0,0.00693140970314338
3252.0,0.006901623293092955
3251.0,0.006887484346215186
3250.0,0.006887314502087561
3249.0,0.0068934560920945
3248.0,0.006897505809428023
3247.0,0.0068936347131172545
3246.0,0.00687940149784952
3245.0,0.006856306109449552
3244.0,0.0068302748946064895
3243.0,0.006808769402421708
3242.0,0.006794366024991164
3241.0,0.006781703647967834
3240.0,0.006763147241868989
3239.0,0.006737496949971328
3238.0,0.006709985509872545
3237.0,0.0066835616357541275
3236.0,0.0066552879670695045
3235.0,0.006624259391193499
3234.0,0.006598342602152872
3233.0,0.0065874649580732305
3232.0,0.00659203605612017
3231.0,0.006602408125502083
3230.0,0.006608739955655025
3229.0,0.006606943781626625
3228.0,0.006595746186132457
3227.0,0.006573761840532231
3226.0,0.006541783199879504
3225.0,0.0065051841514919195
3224.0,0.006472063008205241
3223.0,0.006449000458255335
3222.0,0.006437263055927474
3221.0,0.006431517202770571
3220.0,0.006423718612640418
3219.0,0.006410801031168955
3218.0,0.006396946278461195
3217.0,0.006386331478526375
3216.0,0.006376605800791142
3215.0,0.006362914427001633
3214.0,0.006345452826429516
3213.0,0.006327490344951231
3212.0,0.00630746072470498
3211.0,0.006280369359876726
3210.0,0.0062482465622338956
3209.0,0.006222262477159205
3208.0,0.006210144774413695
3207.0,0.006206006938940939
3206.0,0.006197354507233533
3205.0,0.006179747995326149
3204.0,0.006160110024024715
3203.0,0.0061463229132221065
3202.0,0.00613765502911078
3201.0,0.006127367894314612
3200.0,0.0061122942805876155
3199.0,0.006096731351413077
3198.0,0.006085875410897204
3197.0,0.006077598019864408
3196.0,0.006064144411294971
3195.0,0.006041964399253025
3194.0,0.006016011345753475
3193.0,0.005992692802304209
3192.0,0.005971819752408544
3191.0,0.005948549279680434
3190.0,0.0059217030506394115
3189.0,0.005896368942852027
3188.0,0.0058779447107038365
3187.0,0.005866106644321075
3186.0,0.005854812276570677
3185.0,0.005837317875337042
3184.0,0.005812197365274715
3183.0,0.00578599141595345
3182.0,0.005767833386383447
3181.0,0.005759092724766837
3180.0,0.00575014463171373
3179.0,0.005730706507711585
3178.0,0.005702434745610179
3177.0,0.005677151453969037
3176.0,0.00566277730107285
3175.0,0.005655598724010405
3174.0,0.0056467600858617585
3173.0,0.005631513331884534
3172.0,0.005610521229340717
3171.0,0.005585700093523131
3170.0,0.005557904508437026
3169.0,0.005527967066641664
3168.0,0.005498452459722006
3167.0,0.005473647526900192
3166.0,0.005456185408130556
3165.0,0.00544288000362823
3164.0,0.005426290911291857
3163.0,0.005403238569358255
3162.0,0.005379915433846251
3161.0,0.005364523917118967
3160.0,0.005355755915085855
3159.0,0.00534350019594174
3158.0,0.005321728233457807
3157.0,0.005296103762199115
3156.0,0.00527673231049947
3155.0,0.005266590425130479
3154.0,0.005259524694668967
3153.0,0.005247442461601965
3152.0,0.005227241877111986
3151.0,0.005202025971713489
3150.0,0.005177682867368894
3149.0,0.005158343148637107
3148.0,0.00514422832762102
3147.0,0.005133100278470988
3146.0,0.005122403435862624
3145.0,0.0051093424142856815
3144.0,0.005091332789451587
3143.0,0.005069235129283166
3142.0,0.005048789699846894
3141.0,0.005035277971427518
3140.0,0.005026942665459872
3139.0,0.005016578781848328
3138.0,0.00499995047102382
3137.0,0.004979561807480963
3136.0,0.004960416009239792
3135.0,0.0049457282729762735
3134.0,0.004936588094869435
3133.0,0.004931545600263843
3132.0,0.004925583523009429
3131.0,0.004913279130433728
3130.0,0.004894962166125704
3129.0,0.004877162290394312
3128.0,0.004865426205716513
3127.0,0.004858950669523503
3126.0,0.004853476759917162
3125.0,0.004846503621038292
3124.0,0.004837508531629906
3123.0,0.004825687536022151
3122.0,0.004810833713462305
3121.0,0.004795482607594864
3120.0,0.004783165523934728
3119.0,0.004774454020809229
3118.0,0.004766163020671834
3117.0,0.004754648012324424
3116.0,0.004739754991398433
3115.0,0.004725763661918397
3114.0,0.0047180267899058475
3113.0,0.0047175348382411195
3112.0,0.004719365103877849
3111.0,0.004717873234007072
3110.0,0.0047127222549692245
3109.0,0.0047081684638277275
3108.0,0.004707391436483297
3107.0,0.004710539484892016
3106.0,0.0047180954780697126
3105.0,0.0047312097207360465
3104.0,0.004746552845682204
3103.0,0.004755164349499106
3102.0,0.0047503343506686176
3101.0,0.004736099274069616
3100.0,0.004725126048556086
3099.0,0.004728133563812665
3098.0,0.0047468310771313785
3097.0,0.0047742715129300735
3096.0,0.004798707025204169
3095.0,0.0048098794241353176
3094.0,0.004806325322402464
3093.0,0.004796846561712794
3092.0,0.004792707433562133
3091.0,0.004797822142981476
3090.0,0.004806529740566556
3089.0,0.004809625387355812
3088.0,0.004801767111675704
3087.0,0.0047849566088678
3086.0,0.004767447391459999
3085.0,0.0047581632367055884
3084.0,0.004759243885555779
3083.0,0.004764047227492236
3082.0,0.0047643099874092225
3081.0,0.00475927669255337
3080.0,0.004754873555963746
3079.0,0.004754438757432196
3078.0,0.004754323274011226
3077.0,0.004749436015241483
3076.0,0.004739599345706964
3075.0,0.004728140277036034
3074.0,0.00471736013539795
3073.0,0.0047084686250038
3072.0,0.004703500008102253
3071.0,0.0047036860513806214
3070.0,0.004706227249809341
3069.0,0.004705920732494125
3068.0,0.004700358441978518
3067.0,0.0046912670134370265
3066.0,0.004681203836046796
3065.0,0.004671479050406406
3064.0,0.00466362898021982
3063.0,0.004659430546755061
3062.0,0.004657942786693855
3061.0,0.0046553976802102505
3060.0,0.004649439542171239
3059.0,0.004641754403000041
3058.0,0.004634932592803908
3057.0,0.004628993449743288
3056.0,0.004622765112564178
3055.0,0.004616187533700911
3054.0,0.004609202598910218
3053.0,0.004600711399832061
3052.0,0.004591873559500797
3051.0,0.004587373756067068
3050.0,0.004589373297382344
3049.0,0.004592050507009366
3048.0,0.004588209285028895
3047.0,0.004580696941810998
3046.0,0.0045801923832169715
3045.0,0.004591089485549363
3044.0,0.004604655482307401
3043.0,0.004610132392654558
3042.0,0.004606979758490917
3041.0,0.004602564224667023
3040.0,0.0046014486424660805
3039.0,0.00460178932465445
3038.0,0.004600931186473231
3037.0,0.0045992062647664715
3036.0,0.004598462085822211
3035.0,0.004599625706794151
3034.0,0.00460172336399739
3033.0,0.004601404235733298
3032.0,0.0045944860857171635
3031.0,0.004580089407120088
3030.0,0.004562779336176903
3029.0,0.004548157180372816
3028.0,0.004538048680123351
3027.0,0.0045313147337842
3026.0,0.004527219596557466
3025.0,0.0045258066708391215
3024.0,0.004526233741840189
3023.0,0.004527038512159246
3022.0,0.004526950332088926
3021.0,0.004524160944174618
3020.0,0.004516943793520493
3019.0,0.004506821583228105
3018.0,0.004498567729679244
3017.0,0.0044940526694866026
3016.0,0.004488363374067363
3015.0,0.004475995091256244
3014.0,0.0044590622190424116
3013.0,0.004445806177810588
3012.0,0.00444116807207304
3011.0,0.004443270538351511
3010.0,0.004448104683920546
3009.0,0.004454010160945085
3008.0,0.00446091620982019
3007.0,0.004468732585433137
3006.0,0.00447720641486858
3005.0,0.004485269102187882
3004.0,0.004491070895831169
3003.0,0.004495248062279039
3002.0,0.00450326318313264
3001.0,0.004520965528357111
3000.0,0.004547006551258011
2999.0,0.004573262843628714
2998.0,0.004593035831225147
2997.0,0.004607383399250325
2996.0,0.00462235643450653
2995.0,0.0046429141483694016
2994.0,0.004670050715375741
2993.0,0.004701564937470996
2992.0,0.00473468651647101
2991.0,0.004768980156291144
2990.0,0.004807125958208752
2989.0,0.004851339884762213
2988.0,0.004899737659675301
2987.0,0.004948220064073412
2986.0,0.004995679415277099
2985.0,0.00504478932260397
2984.0,0.005098069338669614
2983.0,0.0051561800150050656
2982.0,0.005219985588027671
2981.0,0.00529102260827064
2980.0,0.005369043438443188
2979.0,0.005451848271953873
2978.0,0.005538792152229563
2977.0,0.005631958658344639
2976.0,0.005733265797098412
2975.0,0.005842547246297642
2974.0,0.005959786752679459
2973.0,0.006086504617885282
2972.0,0.006223822048436593
2971.0,0.0063712521729377795
2970.0,0.006529131962207423
2969.0,0.006699921624945987
2968.0,0.006885248432731324
2967.0,0.007082823095907411
2966.0,0.007287741856025336
2965.0,0.007495276871108262
2964.0,0.007701366710807791
2963.0,0.0079024219045769
2962.0,0.008097315956355874
2961.0,0.008289256792852593
2960.0,0.008483268434794496
2959.0,0.008681729315858195
2958.0,0.008882568079253809
2957.0,0.009081600110022653
2956.0,0.009275759041500522
2955.0,0.009466000969382734
2954.0,0.009659360995329333
2953.0,0.00986792287350054
2952.0,0.010104225424302529
2951.0,0.010376861842804945
2950.0,0.010692753806521835
2949.0,0.01106385181483637
2948.0,0.011510099124541892
2947.0,0.012053208827321018
2946.0,0.012707696612006443
2945.0,0.013477885848768148
2944.0,0.01436472692966583
2943.0,0.015372579181335687
2942.0,0.016508879279007082
2941.0,0.01777808179407956
2940.0,0.01917941300338029
2939.0,0.020712113489403366
2938.0,0.022382053129685924
2937.0,0.024201378944266216
2936.0,0.026182979880144924
2935.0,0.02833639298272398
2934.0,0.030670047344127618
2933.0,0.03319673144113401
2932.0,0.0359336840094813
2931.0,0.03889701991384
2930.0,0.042100822480794726
2929.0,0.045570144970699424
2928.0,0.04935623879949667
2927.0,0.0535345762145173
2926.0,0.058183588842489864
2925.0,0.06337017061569013
2924.0,0.06914802873730852
2923.0,0.07554856573135366
2922.0,0.08256424034722241
2921.0,0.09014086970435564
2920.0,0.09816659199111744
2919.0,0.10640973838751754
2918.0,0.11440009300279678
2917.0,0.12137381912914696
2916.0,0.1263915402053973
2915.0,0.12862692662384803
2914.0,0.12768983224072222
2913.0,0.1238156188638381
2912.0,0.11778453248542321
2911.0,0.11060281283784375
2910.0,0.10318236505430611
2909.0,0.09614020958471918
2908.0,0.08980604875729821
2907.0,0.08428721574502614
2906.0,0.07955897184404181
2905.0,0.07553423969071575
2904.0,0.07211529221887729
2903.0,0.06920482400216649
2902.0,0.0666984193230134
2901.0,0.06449211061726677
2900.0,0.06250520765934775
2899.0,0.060684864415208664
2898.0,0.05898676432838712
2897.0,0.05736240961899822
2896.0,0.05576944474569932
2895.0,0.05418458499775008
2894.0,0.052601675389291176
2893.0,0.051018291489156355
2892.0,0.04942948681909059
2891.0,0.04782868595385728
2890.0,0.046210728557056456
2889.0,0.044576606145718005
2888.0,0.042935253083532375
2887.0,0.04129713894109274
2886.0,0.03966512539556781
2885.0,0.0380340780220223
2884.0,0.03639943631345802
2883.0,0.03476265987667229
2882.0,0.033128093145256346
2881.0,0.031501849812060216
2880.0,0.02989664835573533
2879.0,0.02833556073133466
2878.0,0.026846161127266895
2877.0,0.02545183155330381
2876.0,0.024170219956612206
2875.0,0.023017495764683524
2874.0,0.022009803386947264
2873.0,0.021158316089582
2872.0,0.02046606038065768
2871.0,0.019930325763293535
2870.0,0.01954982175131195
2869.0,0.019330066936663812
2868.0,0.019285658083755153
2867.0,0.019438384787639505
2866.0,0.019812144472522768
2865.0,0.020430655529977155
2864.0,0.021322722347016664
2863.0,0.02253037051888918
2862.0,0.024107656373773254
2861.0,0.026114782447112073
2860.0,0.028616644953620766
2859.0,0.03169033796461734
2858.0,0.0354315251544298
2857.0,0.03996184645460034
2856.0,0.04544507942746593
2855.0,0.05209867958987966
2854.0,0.060162232291877234
2853.0,0.06979676683206112
2852.0,0.08087573894338725
2851.0,0.09271853624302993
2850.0,0.10386687675015159
2849.0,0.11226815377249519
2848.0,0.11601610533172001
2847.0,0.11432135310256221
2846.0,0.10787681581948436
2845.0,0.09842128208807031
2844.0,0.0878347348822479
2843.0,0.07753158818955408
2842.0,0.0682760196751465
2841.0,0.06034239328476738
2840.0,0.053705501886924266
2839.0,0.04821154846744563
2838.0,0.043653956076531275
2837.0,0.03985001642696924
2836.0,0.03665438902420644
2835.0,0.03395551679298412
2834.0,0.03165651441184908
2833.0,0.029674184617148568
2832.0,0.027945671893345132
2831.0,0.02642771740761216
2830.0,0.025089080655365383
2829.0,0.023903429542167114
2828.0,0.02284670787421902
2827.0,0.02189660566769516
2826.0,0.021033493649780837
2825.0,0.020242517754733222
2824.0,0.019515803573008757
2823.0,0.01885064873730434
2822.0,0.018244539665816708
2821.0,0.01769008888568322
2820.0,0.01717578038396038
2819.0,0.016691923567950476
2818.0,0.01623588146329995
2817.0,0.01580965857250658
2816.0,0.015413350559795423
2815.0,0.01504283670280873
2814.0,0.014694071707946036
2813.0,0.014366063570203872
2812.0,0.014057784889242099
2811.0,0.01376429404836348
2810.0,0.013479281876882025
2809.0,0.013200732694348129
2808.0,0.01293196031417776
2807.0,0.012676771723779798
2806.0,0.012435867641876376
2805.0,0.012207767278880073
2804.0,0.01199107752008367
2803.0,0.011784574335960267
2802.0,0.01158615180714409
2801.0,0.011393516512235486
2800.0,0.01120611318782641
2799.0,0.011025329299622535
2798.0,0.010851953890109466
2797.0,0.010683729734804479
2796.0,0.01051629843025616
2795.0,0.010346796686318787
2794.0,0.010175497627807922
2793.0,0.01000403332492244
2792.0,0.009833522922515572
2791.0,0.009665209964570081
2790.0,0.00950125225211491
2789.0,0.00934297204538294
2788.0,0.00918927645396412
2787.0,0.009038938374455692
2786.0,0.008893769585630441
2785.0,0.008757095876980044
2784.0,0.008628890964602261
2783.0,0.00850466350120222
2782.0,0.008380194319913142
2781.0,0.008256057662883242
2780.0,0.008136756543389686
2779.0,0.008026246369247926
2778.0,0.007925045091622193
2777.0,0.007830358651118531
2776.0,0.007737808225981537
2775.0,0.007643645341093384
2774.0,0.007546431114476099
2773.0,0.007447492250235564
2772.0,0.007350393341118432
2771.0,0.007259666078117583
2770.0,0.00717809817297411
2769.0,0.007104102110217795
2768.0,0.007032460214843325
2767.0,0.006959175105538183
2766.0,0.006885327783426463
2765.0,0.006815077132431252
2764.0,0.006750342592931228
2763.0,0.0066891190925473555
2762.0,0.006628676865868293
2761.0,0.006568576567439907
2760.0,0.006510176633092648
2759.0,0.006454184504003102
2758.0,0.006399255496810934
2757.0,0.00634313073378872
2756.0,0.0062855857365788255
2755.0,0.0062302676279434475
2754.0,0.006182158941501782
2753.0,0.006142310502911607
2752.0,0.006106433810111939
2751.0,0.00606984856797929
2750.0,0.0060320649195974504
2749.0,0.005995207196559535
2748.0,0.005959889085261132
2747.0,0.005925298845103221
2746.0,0.005892243510854638
2745.0,0.0058632356368488485
2744.0,0.005839643241291062
2743.0,0.005820459923970762
2742.0,0.005803413339590798
2741.0,0.005785434435579759
2740.0,0.005762703857784726
2739.0,0.005732610723133811
2738.0,0.0056956490049011625
2737.0,0.005654025407920013
2736.0,0.005609511714848831
2735.0,0.005564387980355294
2734.0,0.005522832470066558
2733.0,0.005488048438278477
2732.0,0.005458033914388046
2731.0,0.005427378703056995
2730.0,0.005393561039516795
2729.0,0.005358806239738873
2728.0,0.005325260835250602
2727.0,0.0052914014721590266
2726.0,0.005254652131456444
2725.0,0.0052156226389455385
2724.0,0.005178003650401284
2723.0,0.005145005134880296
2722.0,0.005116498531200942
2721.0,0.005088945020546493
2720.0,0.005058293950466836
2719.0,0.005023971503426629
2718.0,0.004989896910421389
2717.0,0.004960220115088528
2716.0,0.004934507472974794
2715.0,0.00490864172154735
2714.0,0.004880083926853618
2713.0,0.004850224022760131
2712.0,0.004821586538550041
2711.0,0.00479489917766933
2710.0,0.004769323038321461
2709.0,0.0047437334222574816
2708.0,0.004717190469249495
2707.0,0.004689711928478484
2706.0,0.0046630977407808825
2705.0,0.004639565257168172
2704.0,0.004618836058932807
2703.0,0.0045976357536912085
2702.0,0.004572459347271717
2701.0,0.004542379367323794
2700.0,0.004509498139138445
2699.0,0.004477947038375299
2698.0,0.004452014973115601
2697.0,0.004433396493066545
2696.0,0.004419823791260849
2695.0,0.004407346501364014
2694.0,0.004393965966279122
2693.0,0.0043798527753739205
2692.0,0.004364637283548013
2691.0,0.004346737169022903
2690.0,0.004326216502056078
2689.0,0.0043070662054243754
2688.0,0.004295372410641144
2687.0,0.004294588185037964
2686.0,0.004302004897888023
2685.0,0.004309587914305552
2684.0,0.004309610607052207
2683.0,0.004300834442166112
2682.0,0.0042886381673891945
2681.0,0.004278947393069124
2680.0,0.0042733373284169944
2679.0,0.00427059671625491
2678.0,0.004270286730511008
2677.0,0.0042723338317948245
2676.0,0.004275296663049999
2675.0,0.004278192149988944
2674.0,0.004283058640931864
2673.0,0.004292580187076991
2672.0,0.004305849846525163
2671.0,0.004319605542746352
2670.0,0.0043331418030928825
2669.0,0.004348551673010136
2668.0,0.004365737146538449
2667.0,0.004381080991950996
2666.0,0.0043923513294451075
2665.0,0.004402208939531754
2664.0,0.004414732670326267
2663.0,0.004430357746957755
2662.0,0.004445828192672346
2661.0,0.004457658554031859
2660.0,0.004463820653924313
2659.0,0.004462998860578834
2658.0,0.00445467508317415
2657.0,0.004440653002778768
2656.0,0.004425655655235019
2655.0,0.004415068821914659
2654.0,0.004411045605094941
2653.0,0.004410240974323263
2652.0,0.004405970485158649
2651.0,0.004393860162098543
2650.0,0.004375850482467291
2649.0,0.004359246602687161
2648.0,0.004352014443001695
2647.0,0.004358286216712906
2646.0,0.0043759253720830164
2645.0,0.004397248532344115
2644.0,0.004414304172252646
2643.0,0.004425453864892515
2642.0,0.0044359425023627165
2641.0,0.0044507626727974025
2640.0,0.004468363616800119
2639.0,0.004483019033758727
2638.0,0.004491231149174514
2637.0,0.004493251738853299
2636.0,0.0044899310063207165
2635.0,0.00448174690499224
2634.0,0.004470502891860563
2633.0,0.004458815674072723
2632.0,0.004447127344606989
2631.0,0.00443297788120513
2630.0,0.004413258611124732
2629.0,0.004385860967015128
2628.0,0.004350255547674919
2627.0,0.004308912242892211
2626.0,0.00426750248338268
2625.0,0.004231232710563323
2624.0,0.004200687157228245
2623.0,0.004172805053611162
2622.0,0.004144867594211623
2621.0,0.004115780071542065
2620.0,0.004085349539740812
2619.0,0.004054806019068183
2618.0,0.00402629997492252
2617.0,0.003999134539634521
2616.0,0.003969214420251655
2615.0,0.003936300601692994
2614.0,0.003908943756559104
2613.0,0.0038955312871279835
2612.0,0.0038913558422098097
2611.0,0.00388185134342408
2610.0,0.003859684896815781
2609.0,0.003832182938776783
2608.0,0.0038094694396532815
2607.0,0.003791436334180922
2606.0,0.0037710664041436105
2605.0,0.00374585323765965
2604.0,0.0037208271549486176
2603.0,0.0037021019466481407
2602.0,0.0036912963730866607
2601.0,0.0036855091954360753
2600.0,0.0036799342136819
2599.0,0.0036712087632799176
2598.0,0.0036596452787871353
2597.0,0.003647507497232032
2596.0,0.0036346813444503388
2595.0,0.0036180769903074515
2594.0,0.0035963760371074847
2593.0,0.003572748175851458
2592.0,0.0035509905595281837
2591.0,0.003530559376575138
2590.0,0.003507479745125239
2589.0,0.0034795366420962196
2588.0,0.0034495251824023456
2587.0,0.003423948556524897
2586.0,0.0034081980754418974
2585.0,0.0034010281907910335
2584.0,0.0033936705627894657
2583.0,0.003376941376769082
2582.0,0.0033507501881594173
2581.0,0.003324868451943782
2580.0,0.0033086737960981304
2579.0,0.003301424276415665
2578.0,0.0032934655115474413
2577.0,0.003276293326659893
2576.0,0.0032511821432428885
2575.0,0.0032282641223532384
2574.0,0.0032167196632860904
2573.0,0.0032150175615169854
2572.0,0.0032117979532598614
2571.0,0.003197949661105022
2570.0,0.00317603224783734
2569.0,0.003155292194164078
2568.0,0.0031400015245947573
2567.0,0.00312736994534553
2566.0,0.003116124828299172
2565.0,0.0031106051412478075
2564.0,0.003113257277506917
2563.0,0.0031175802489722152
2562.0,0.003112993583214862
2561.0,0.0030956308153149113
2560.0,0.003071779216312258
2559.0,0.0030512166094582662
2558.0,0.0030389875240377324
2557.0,0.0030327865837864064
2556.0,0.0030261550060131266
2555.0,0.003014353737723681
2554.0,0.0029986406698444853
2553.0,0.0029853459334708366
2552.0,0.00298050701739543
2551.0,0.0029850827741152684
2550.0,0.0029943585189724357
2549.0,0.0030005431228026635
2548.0,0.002996092589358306
2547.0,0.002976768053776337
2546.0,0.002943929804113144
2545.0,0.0029048438035780746
2544.0,0.0028697641227654544
2543.0,0.002846350213017667
2542.0,0.0028345818769266386
2541.0,0.002826629797643522
2540.0,0.0028133439307432297
2539.0,0.002792281813000383
2538.0,0.002769254006760738
2537.0,0.0027521144095833724
2536.0,0.002744115699082338
2535.0,0.0027432285211353483
2534.0,0.002745728773977554
2533.0,0.0027487521003790832
2532.0,0.0027505349355125964
2531.0,0.0027503986596719
2530.0,0.0027490997036787807
2529.0,0.0027485037243716354
2528.0,0.0027500113020114047
2527.0,0.0027522119626297676
2526.0,0.0027500146178124096
2525.0,0.0027384565127644544
2524.0,0.0027194754630569134
2523.0,0.0027028606046025994
2522.0,0.0026969090416901907
2521.0,0.0026987517869767855
2520.0,0.0026971471733733734
2519.0,0.002684392446007423
2518.0,0.0026620623413009616
2517.0,0.0026362406762773394
2516.0,0.002612590850657508
2515.0,0.0025964831490967043
2514.0,0.0025915643122714676
2513.0,0.0025951603833577874
2512.0,0.0025993227544777657
2511.0,0.0025987543501314347
2510.0,0.002593876050937401
2509.0,0.0025850806766100167
2508.0,0.0025700685180860753
2507.0,0.002550081192386499
2506.0,0.002532893428127598
2505.0,0.0025245733774504624
2504.0,0.0025223823459660255
2503.0,0.002520552614706815
2502.0,0.0025190012184591196
2501.0,0.0025209376366693184
2500.0,0.002525299459127956
2499.0,0.002527662633084833
2498.0,0.0025268156160716477
2497.0,0.0025250745704506897
2496.0,0.002523271438519731
2495.0,0.0025202150851170242
2494.0,0.002516098309855755
2493.0,0.0025117036947989147
2492.0,0.0025045132246148756
2491.0,0.002489895680597775
2490.0,0.00246682034536264
2489.0,0.0024399093972259246
2488.0,0.002416141618108577
2487.0,0.00240159318765276
2486.0,0.0023999612876616965
2485.0,0.0024105820772276805
2484.0,0.0024272656575818567
2483.0,0.002441079100274842
2482.0,0.002445353455823379
2481.0,0.0024390839235921714
2480.0,0.002427615050406322
2479.0,0.002419719593754999
2478.0,0.00242059120162125
2477.0,0.0024267345381804484
2476.0,0.0024307511293681135
2475.0,0.002431309932015662
2474.0,0.002433502839113267
2473.0,0.002438146518341724
2472.0,0.002436987268750375
2471.0,0.002422478842605793
2470.0,0.0023976725402985784
2469.0,0.0023720703253486113
2468.0,0.0023512302019857026
2467.0,0.002334574536381061
2466.0,0.002320186418882878
2465.0,0.002307274155549743
2464.0,0.0022960801323037914
2463.0,0.002288804259161139
2462.0,0.0022882172809059694
2461.0,0.0022925549911648906
2460.0,0.0022951219962309482
2459.0,0.002292248069687747
2458.0,0.002288129592971755
2457.0,0.002288281711731915
2456.0,0.002291867438871115
2455.0,0.002294526945094825
2454.0,0.002295351030673396
2453.0,0.002296665192850151
2452.0,0.0022998056066596993
2451.0,0.002305070860874631
2450.0,0.0023126274979896324
2449.0,0.002319268817816312
2448.0,0.0023177220086590795
2447.0,0.002304044074060926
2446.0,0.0022830632189625804
2445.0,0.0022623163144768915
2444.0,0.002243684898978347
2443.0,0.002225425659974883
2442.0,0.00220903934544308
2441.0,0.0021985581592957426
2440.0,0.0021950424593904574
2439.0,0.0021964761008716797
2438.0,0.002201043419790369
2437.0,0.002206280312378718
2436.0,0.0022076362756650674
2435.0,0.0022026087971866054
2434.0,0.002194177096327454
2433.0,0.0021860312896934925
2432.0,0.00217704829521061
2431.0,0.0021650298893305625
2430.0,0.002153171946368181
2429.0,0.0021474932192336754
2428.0,0.002149431233925092
2427.0,0.0021555823895467218
2426.0,0.0021631990689770317
2425.0,0.002171517528099265
2424.0,0.0021789681472068807
2423.0,0.002183305118027306
2422.0,0.002184136218950882
2421.0,0.0021828677911019806
2420.0,0.0021812785908077274
2419.0,0.002181354297624105
2418.0,0.002183696733414307
2417.0,0.0021847800387910935
2416.0,0.0021797043720800805
2415.0,0.0021693495024033838
2414.0,0.0021601002534734955
2413.0,0.0021545398119300735
2412.0,0.002148105378830869
2411.0,0.0021375970066592966
2410.0,0.002126125436738801
2409.0,0.00211541528849317
2408.0,0.002100653189097355
2407.0,0.002079549894241425
2406.0,0.002059765094782535
2405.0,0.002049289052585551
2404.0,0.002044962082078876
2403.0,0.002039038564090659
2402.0,0.0020325989523343672
2401.0,0.002033270712667106
2400.0,0.002041884025775914
2399.0,0.0020498795646257686
2398.0,0.0020493468235716922
2397.0,0.0020389373250716686
2396.0,0.002020885017601411
2395.0,0.001998753200745
2394.0,0.0019778372723751147
2393.0,0.001962352158582229
2392.0,0.0019524765662035778
2391.0,0.001947527843417674
2390.0,0.0019492847401866022
2389.0,0.00195771980720965
2388.0,0.0019670843484595906
2387.0,0.001972544666378084
2386.0,0.001977872176748753
2385.0,0.001989760612914364
2384.0,0.002006759876738146
2383.0,0.002021157718640181
2382.0,0.0020304473539107934
2381.0,0.002038727353277658
2380.0,0.0020456732165457445
2379.0,0.00204243092531641
2378.0,0.002023175286693917
2377.0,0.001994575646212087
2376.0,0.0019688754311619166
2375.0,0.0019522561486059256
2374.0,0.0019440670684816898
2373.0,0.001942908564804415
2372.0,0.0019491110870972386
2371.0,0.0019645806502299724
2370.0,0.0019919139572706535
2369.0,0.0020292936302825255
2368.0,0.002067328999534933
2367.0,0.002097647293569375
2366.0,0.0021209849771148055
2365.0,0.0021372396305243202
2364.0,0.0021354661733871774
2363.0,0.0021108734946686364
2362.0,0.002082822572909881
2361.0,0.0020774903567880483
2360.0,0.0020979819255351802
2359.0,0.002128871771379596
2358.0,0.002163084349855872
2357.0,0.0021986393446862445
2356.0,0.0022212453804996064
2355.0,0.002218822109308749
2354.0,0.0022041821451569688
2353.0,0.002201147930784969
2352.0,0.002213652422716055
2351.0,0.0022281998742519774
2350.0,0.0022361965068449573
2349.0,0.0022396649841656025
2348.0,0.0022449507462988442
2347.0,0.0022568255488256074
2346.0,0.0022781090005810135
2345.0,0.002308143866183591
2344.0,0.002339746603092251
2343.0,0.0023603761963792314
2342.0,0.0023593210516112055
2341.0,0.0023371468206558953
2340.0,0.0023058317954794847
2339.0,0.002284984469616044
2338.0,0.002290723820315924
2337.0,0.002319760592707039
2336.0,0.002349252962983584
2335.0,0.0023625700690987246
2334.0,0.0023677978136373906
2333.0,0.0023820490323776806
2332.0,0.0024043382824882253
2331.0,0.002415811793891367
2330.0,0.0024047624372698284
2329.0,0.0023792933157606015
2328.0,0.0023614382969136946
2327.0,0.002373010580510602
2326.0,0.002424313438125005
2325.0,0.0024990082427670704
2324.0,0.002556649541139528
2323.0,0.002562155215020603
2322.0,0.002516904886809738
2321.0,0.0024520877336914595
2320.0,0.0023948931692384726
2319.0,0.0023559256498731293
2318.0,0.002337877166535908
2317.0,0.002337846161195832
2316.0,0.0023430699977777065
2315.0,0.0023404160653869585
2314.0,0.002332118503255913
2313.0,0.002330270145122703
2312.0,0.002336367762424745
2311.0,0.0023373533206480163
2310.0,0.0023252101162763903
2309.0,0.002307013656629941
2308.0,0.0022935383402916567
2307.0,0.0022858912178165248
2306.0,0.002278534748002843
2305.0,0.002267818216798796
2304.0,0.002255423057239929
2303.0,0.0022459231136189805
2302.0,0.0022431219151538553
2301.0,0.002244956339752186
2300.0,0.0022442744535623583
2299.0,0.0022364635609522965
2298.0,0.002225021128869332
2297.0,0.0022149797774572363
2296.0,0.002206770917434941
2295.0,0.0022004669962784155
2294.0,0.0022009105909624365
2293.0,0.0022094564453501117
2292.0,0.002216948623812159
2291.0,0.00221527832604616
2290.0,0.0022129332929123197
2289.0,0.0022264389805984226
2288.0,0.0022573287156001476
2287.0,0.002288504981277666
2286.0,0.002304685070881026
2285.0,0.0023048134268669005
2284.0,0.002294050595697028
2283.0,0.00227528642181354
2282.0,0.002253403698654236
2281.0,0.002237831817841073
2280.0,0.002234099960001419
2279.0,0.002238269039014144
2278.0,0.0022423209611023556
2277.0,0.0022408657289795285
2276.0,0.002232785860126654
2275.0,0.00222341984320293
2274.0,0.0022237840202866494
2273.0,0.0022386098765540207
2272.0,0.002255769229064491
2271.0,0.0022566241538155103
2270.0,0.0022363572266352588
2269.0,0.002205348741956937
2268.0,0.0021738298735024296
2267.0,0.00214698018129021
2266.0,0.002132517756157819
2265.0,0.002136924491008333
2264.0,0.0021522701380205125
2263.0,0.00216039219430771
2262.0,0.0021539236783765913
2261.0,0.0021418593728845573
2260.0,0.002133595745948134
2259.0,0.0021291601847736588
2258.0,0.0021266477195106166
2257.0,0.002125560397379318
2256.0,0.002120023051337074
2255.0,0.002101895191309603
2254.0,0.0020750319211066976
2253.0,0.0020549007888018434
2252.0,0.0020502936357148713
2251.0,0.002055756910914231
2250.0,0.0020646180283072323
2249.0,0.0020775067675673493
2248.0,0.002095627974733673
2247.0,0.0021155250752487097
2246.0,0.002133997488012053
2245.0,0.0021481274524971627
2244.0,0.0021502183199167374
2243.0,0.0021344318716206147
2242.0,0.0021094458662646257
2241.0,0.0020922017281355416
2240.0,0.0020864604233367954
2239.0,0.002080141687330312
2238.0,0.0020654747612846177
2237.0,0.0020490241949164345
2236.0,0.0020386460375473904
2235.0,0.00203372973818579
2234.0,0.002032402659276454
2233.0,0.0020358447107748493
2232.0,0.0020412320966678066
2231.0,0.002042310509942255
2230.0,0.0020414047732353812
2229.0,0.002049071778236029
2228.0,0.0020672751614203497
2227.0,0.002083250219651668
2226.0,0.0020846026140371177
2225.0,0.0020719227797188784
2224.0,0.002053835497444742
2223.0,0.0020386741905800846
2222.0,0.0020322374597889054
2221.0,0.002034292239711141
2220.0,0.002036116223667511
2219.0,0.00203089659777878
2218.0,0.0020256541305132434
2217.0,0.00203210132611176
2216.0,0.0020485101406130498
2215.0,0.002064029979050691
2214.0,0.002077886117425187
2213.0,0.0020979264247016557
2212.0,0.0021201065765036895
2211.0,0.0021273289630282526
2210.0,0.0021119131350649132
2209.0,0.0020850477245007598
2208.0,0.0020610469368382194
2207.0,0.002046585164295448
2206.0,0.0020475739008326923
2205.0,0.002069753289312211
2204.0,0.002105393919254871
2203.0,0.002132875606481808
2202.0,0.002136953004525228
2201.0,0.0021207188944201436
2200.0,0.0020971820562274614
2199.0,0.0020787504557658073
2198.0,0.002075999624480782
2197.0,0.002094031584459941
2196.0,0.002125117218616514
2195.0,0.002154089778210871
2194.0,0.0021716624953420052
2193.0,0.002175024787539182
2192.0,0.0021609989982946196
2191.0,0.0021327456558847984
2190.0,0.0021103730286316123
2189.0,0.0021171327917394295
2188.0,0.0021521237199507042
2187.0,0.002189631302596387
2186.0,0.0022065701605248405
2185.0,0.002198597821448447
2184.0,0.0021715313835447337
2183.0,0.002133408090006832
2182.0,0.002096594468485734
2181.0,0.0020725299627048274
2180.0,0.0020599560866833267
2179.0,0.002048932263467987
2178.0,0.0020353951987736357
2177.0,0.0020209804372734092
2176.0,0.0020037411758994004
2175.0,0.0019835135301561804
2174.0,0.001972657836458504
2173.0,0.0019864235499506234
2172.0,0.002025672483253383
2171.0,0.00208264618877736
2170.0,0.0021565268947951483
2169.0,0.0022463902187835646
2168.0,0.0023340838668754354
2167.0,0.002390815538828717
2166.0,0.0024011117642351292
2165.0,0.00237161249040174
2164.0,0.0023240633971740037
2163.0,0.0022878412967958185
2162.0,0.0022810927225198245
2161.0,0.0022767034899538034
2160.0,0.0022018632622670506
2159.0,0.002013641583832322
2158.0,0.001770250763445069
2157.0,0.001584823212973206
2156.0,0.0015164191587931477
2155.0,0.0015477246996052098
2154.0,0.0016395311597281552
2153.0,0.0017540025504866434
2152.0,0.0018466659525166963
2151.0,0.0018828566256354467
2150.0,0.001867386848997084
2149.0,0.0018366306483640884
2148.0,0.0018185360798746244
2147.0,0.0018146736794257207
2146.0,0.0018153326844191032
2145.0,0.001813358524311142
2144.0,0.0018039971351840245
2143.0,0.0017881547054612787
2142.0,0.001774521365500731
2141.0,0.0017679157270288931
2140.0,0.0017610316270265537
2139.0,0.0017473261322319795
2138.0,0.001731044815769393
2137.0,0.0017123993747029573
2136.0,0.0016777626141432935
2135.0,0.0016224028188751528
2134.0,0.0015697188698127254
2133.0,0.0015465574483431593
2132.0,0.0015507570826705681
2131.0,0.0015618604005702562
2130.0,0.0015722871717719887
2129.0,0.0015864831359041222
2128.0,0.0016005891375232577
2127.0,0.0016052760170369817
2126.0,0.0016038706862502923
2125.0,0.0016077157195858519
2124.0,0.0016170768781453022
2123.0,0.0016252780658080669
2122.0,0.0016378955137429081
2121.0,0.0016669264853140333
2120.0,0.001705846799752119
2119.0,0.0017309674106673499
2118.0,0.0017307179547841633
2117.0,0.0017184911073587265
2116.0,0.001713494000563955
2115.0,0.0017228632741173803
2114.0,0.001743411164920216
2113.0,0.0017662006698241069
2112.0,0.0017765406710879492
2111.0,0.0017635430963372982
2110.0,0.0017336856242832375
2109.0,0.001705291469027502
2108.0,0.001688579030214571
2107.0,0.0016821460009566877
2106.0,0.0016864702453046635
2105.0,0.0017053273735988075
2104.0,0.0017327889387229007
2103.0,0.0017541875368963346
2102.0,0.0017628568358829227
2101.0,0.0017639326909229484
2100.0,0.0017614912939517586
2099.0,0.001753962782611495
2098.0,0.00174211705308621
2097.0,0.0017284098008273593
2096.0,0.001709144814090866
2095.0,0.0016810255574556366
2094.0,0.0016545655321689823
2093.0,0.001645796544729859
2092.0,0.001655064395180658
2091.0,0.001668265710765197
2090.0,0.0016780041668886434
2089.0,0.0016896424785559918
2088.0,0.0017064951581516213
2087.0,0.0017237433561294259
2086.0,0.0017382611829324986
2085.0,0.001751889305129838
2084.0,0.0017643632962358708
2083.0,0.00177416602573362
2082.0,0.001785098101188251
2081.0,0.0018001618148129862
2080.0,0.001811437629261148
2079.0,0.0018100890435651163
2078.0,0.0018036321643477087
2077.0,0.0018077794350513689
2076.0,0.001822924041101191
2075.0,0.0018351317675899897
2074.0,0.0018388916275843944
2073.0,0.001840532580876475
2072.0,0.001839767827857826
2071.0,0.0018269724456058327
2070.0,0.0018014413775892537
2069.0,0.00177595069806904
2068.0,0.0017612423218270536
2067.0,0.001760027196206557
2066.0,0.0017736086469866067
2065.0,0.0017952325627397508
2064.0,0.0018013497924228824
2063.0,0.0017735694525666116
2062.0,0.0017272692163590223
2061.0,0.001698794898150213
2060.0,0.0017062320492315893
2059.0,0.001739329058725251
2058.0,0.0017834688451488915
2057.0,0.0018278436298570478
2056.0,0.0018540975478330624
2055.0,0.0018500885575212043
2054.0,0.0018400213522363992
2053.0,0.0018677977014811074
2052.0,0.0019386889016895824
2051.0,0.0020044811979599885
2050.0,0.0020186831621080816
2049.0,0.001986559919587897
2048.0,0.0019473638673608634
2047.0,0.0019253277498627957
2046.0,0.0019196392022114213
2045.0,0.0019237357868563574
2044.0,0.0019288678541590982
2043.0,0.0019217414393566635
2042.0,0.001899061776550746
2041.0,0.0018772162709786377
2040.0,0.001874371618009842
2039.0,0.0018910753496865415
2038.0,0.001916808820937854
2037.0,0.0019408060841551531
2036.0,0.001951391690795903
2035.0,0.001942109538137709
2034.0,0.0019247513363254657
2033.0,0.0019209254740334006
2032.0,0.0019344870435609716
2031.0,0.0019473744018838623
2030.0,0.001944379557536753
2029.0,0.0019253388417537947
2028.0,0.0018948248231013063
2027.0,0.0018587552952653973
2026.0,0.0018320474382232384
2025.0,0.0018313683458365231
2024.0,0.001858802719893946
2023.0,0.0019067249668796155
2022.0,0.001969681983827783
2021.0,0.0020314778151087733
2020.0,0.002054857669994047
2019.0,0.002014045108258412
2018.0,0.0019353723430003314
2017.0,0.0018787873606879411
2016.0,0.0018699367875469844
2015.0,0.0018805413892319304
2014.0,0.0018799623557397764
2013.0,0.0018688963773265022
2012.0,0.0018614428716979847
2011.0,0.001861074036790465
2010.0,0.0018579125758321046
2009.0,0.0018326999549628594
2008.0,0.0017683264565545212
2007.0,0.0016772641575933621
2006.0,0.001608285950682412
2005.0,0.0016011217969283454
2004.0,0.0016418451945287727
2003.0,0.0016880081405823485
2002.0,0.00172365806403735
2001.0,0.0017608161412758113
2000.0,0.0017983782494822437
1999.0,0.0018141104689852997
1998.0,0.0017999786237618152
1997.0,0.001777101865347033
1996.0,0.0017694981122948325
1995.0,0.001783915963316458
1994.0,0.0018162533220157091
1993.0,0.0018518915801434375
1992.0,0.0018613150393423671
1991.0,0.0018285271586803082
1990.0,0.0017802280019646774
1989.0,0.0017591479328122744
1988.0,0.001776745394935219
1987.0,0.0018089476673083169
1986.0,0.0018331035405405973
1985.0,0.0018484627494422996
1984.0,0.0018632550951259428
1983.0,0.001886956808243975
1982.0,0.0019335164418928163
1981.0,0.0020050554204645056
1980.0,0.0020702653963221183
1979.0,0.0020857822358539184
1978.0,0.0020453508332841947
1977.0,0.001982007895882311
1976.0,0.0019172495543692371
1975.0,0.0018449798265461885
1974.0,0.0017708031111189138
1973.0,0.0017229534288658289
1972.0,0.0017121045440166964
1971.0,0.0017140971900308267
1970.0,0.001704152761180003
1969.0,0.0016833395161593542
1968.0,0.0016653958517057514
1967.0,0.0016572915254177466
1966.0,0.001657129441124292
1965.0,0.0016544423406077203
1964.0,0.0016333815590620358
1963.0,0.0015926305974047
1962.0,0.0015577920848098047
1961.0,0.0015549224851805954
1960.0,0.001574385232440057
1959.0,0.0015835875402499938
1958.0,0.0015692794344919557
1957.0,0.00154433282157748
1956.0,0.0015227307603640006
1955.0,0.0015115948943914125
1954.0,0.0015192084492417475
1953.0,0.0015451425562827419
1952.0,0.0015674658237921728
1951.0,0.0015630539981452837
1950.0,0.0015374369118384917
1949.0,0.0015159251823188451
1948.0,0.0015089518997880918
1947.0,0.001505347291392429
1946.0,0.0014966309671691099
1945.0,0.0014876876122655275
1944.0,0.001484482974928204
1943.0,0.0014893127300548193
1942.0,0.001506146561355387
1941.0,0.00153144126117939
1940.0,0.0015464392458121562
1939.0,0.0015391767405856145
1938.0,0.0015232435756506832
1937.0,0.0015199817645544374
1936.0,0.0015280658450083973
1935.0,0.0015278907040070905
1934.0,0.001511564416992544
1933.0,0.001488569449457738
1932.0,0.001467074059340936
1931.0,0.0014504851242798757
1930.0,0.0014474488823544732
1929.0,0.0014634147253493165
1928.0,0.001483331893274087
1927.0,0.0014830699467595105
1926.0,0.0014590402190276044
1925.0,0.0014315305139911984
1924.0,0.0014204209732827555
1923.0,0.001427498190458511
1922.0,0.0014435363751621796
1921.0,0.0014606392841505843
1920.0,0.001472979303637434
1919.0,0.0014794955962734101
1918.0,0.001487668134525683
1917.0,0.0015028081296387693
1916.0,0.0015145171445629215
1915.0,0.0015108724939595366
1914.0,0.001496805498547945
1913.0,0.0014851340125056679
1912.0,0.001479090221401226
1911.0,0.0014754646280053163
1910.0,0.0014788734169557203
1909.0,0.0014960546070979972
1908.0,0.001518567053528328
1907.0,0.0015310138284899337
1906.0,0.0015333281541989676
1905.0,0.0015380237986375056
1904.0,0.0015490462064095623
1903.0,0.0015578157540141555
1902.0,0.0015600261938602065
1901.0,0.0015622452127872697
1900.0,0.0015689898812833959
1899.0,0.0015762462296287456
1898.0,0.0015808104764171323
1897.0,0.0015841030567292453
1896.0,0.001585799187517315
1895.0,0.0015827782703164862
1894.0,0.0015754709282750985
1893.0,0.0015654940852348085
1892.0,0.0015499174934329187
1891.0,0.001528501264199468
1890.0,0.0015116150545868548
1889.0,0.0015087403378930043
1888.0,0.0015101966625974538
1887.0,0.001499060575897177
1886.0,0.0014755590211069326
1885.0,0.0014527059041310885
1884.0,0.001435384640810525
1883.0,0.001419392944887999
1882.0,0.0014068583157064835
1881.0,0.0014047701959072482
1880.0,0.0014079864055462129
1879.0,0.0014029546309359405
1878.0,0.0013895584608311592
1877.0,0.0013817290649632019
1876.0,0.0013849974677124174
1875.0,0.0013902855025497204
1874.0,0.0013905253664389084
1873.0,0.001387376731067539
1872.0,0.0013802263332178496
1871.0,0.001362642781363614
1870.0,0.0013341462844078315
1869.0,0.0013083688070094192
1868.0,0.0012984595528783022
1867.0,0.0013006142858414103
1866.0,0.001306390070021635
1865.0,0.0013141810965986872
1864.0,0.0013203222949912526
1863.0,0.0013171281558501601
1862.0,0.0013049050650430416
1861.0,0.001294547046156802
1860.0,0.001293027903334799
1859.0,0.001296252851702981
1858.0,0.0012992356994391417
1857.0,0.0013020551133344886
1856.0,0.0013036973402181528
1855.0,0.0013007082774178715
1854.0,0.0012950508487647515
1853.0,0.0012927504822993197
1852.0,0.0012924359312442878
1851.0,0.0012868298597816382
1850.0,0.001276400170948464
1849.0,0.0012690955491312143
1848.0,0.0012670767145246148
1847.0,0.0012663579431545502
1846.0,0.0012695889208794906
1845.0,0.0012840145815048922
1844.0,0.0013023628421925226
1843.0,0.0013050498699822078
1842.0,0.0012877655909305052
1841.0,0.0012643962434892963
1840.0,0.0012466284991351495
1839.0,0.00123545451569511
1838.0,0.00123107698427225
1837.0,0.0012364978795689353
1836.0,0.0012468633884742566
1835.0,0.0012491589339146576
1834.0,0.0012388440611373923
1833.0,0.0012246799088408982
1832.0,0.0012153043674191866
1831.0,0.0012115073161305936
1830.0,0.0012126858032122355
1829.0,0.0012214241059374153
1828.0,0.0012323649819969257
1827.0,0.0012369708006520097
1826.0,0.001241317783888917
1825.0,0.0012570343682494593
1824.0,0.0012800805830378633
1823.0,0.001294599878363618
1822.0,0.0012946849712341044
1821.0,0.0012856709695818111
1820.0,0.0012697822352726088
1819.0,0.0012458174149699867
1818.0,0.0012204606608592385
1817.0,0.0012067762991857679
1816.0,0.0012080877461905857
1815.0,0.001213992293768516
1814.0,0.0012160807879364967
1813.0,0.001215748194766316
1812.0,0.0012149940503228321
1811.0,0.0012123611855493768
1810.0,0.001209862529689299
1809.0,0.0012118511087513995
1808.0,0.0012174339629716746
1807.0,0.0012219865023247118
1806.0,0.0012234604819042086
1805.0,0.0012221566518116195
1804.0,0.0012168922479994166
1803.0,0.0012069863622116118
1802.0,0.0011980851146041701
1801.0,0.0011987691792587245
1800.0,0.0012094870290336541
1799.0,0.0012221137894891198
1798.0,0.0012288500845259924
1797.0,0.001227045300441573
1796.0,0.0012173618361476317
1795.0,0.0012041685145834581
1794.0,0.001197720884783615
1793.0,0.001206398581148172
1792.0,0.0012215183141395405
1791.0,0.0012273099451453697
1790.0,0.0012240513046973146
1789.0,0.0012194383525527981
1788.0,0.0012165267429183537
1787.0,0.0012144399206413048
1786.0,0.0012145146821470878
1785.0,0.0012192240347973355
1784.0,0.001223757788912568
1783.0,0.001219676274707744
1782.0,0.0012100032090906453
1781.0,0.0012057789476347491
1780.0,0.0012069287856625757
1779.0,0.0012031420884966591
1778.0,0.001191028998593416
1777.0,0.0011776050166132294
1776.0,0.0011692458335300418
1775.0,0.0011671076989414957
1774.0,0.0011757705762070344
1773.0,0.001200577065896746
1772.0,0.0012278807207641187
1771.0,0.0012377081228306175
1770.0,0.0012355125282074422
1769.0,0.0012396348468604727
1768.0,0.001256173660495115
1767.0,0.0012719144864830202
1766.0,0.0012757562423896072
1765.0,0.0012729404557067026
1764.0,0.0012754967005502579
1763.0,0.001288619238893224
1762.0,0.0013099353339991618
1761.0,0.0013342695830718756
1760.0,0.0013509845424031952
1759.0,0.0013556029110963776
1758.0,0.0013628424470588285
1757.0,0.0013919183693487465
1756.0,0.0014371543541329156
1755.0,0.001472347534261911
1754.0,0.001490579067243495
1753.0,0.0015109012853277988
1752.0,0.0015484628439863606
1751.0,0.0015940355428630687
1750.0,0.0016345898575321378
1749.0,0.0016761655270816852
1748.0,0.0017190265557462915
1747.0,0.0017503335709349083
1746.0,0.0017699273617140558
1745.0,0.0017889993299775172
1744.0,0.0018099577336996337
1743.0,0.0018270587366433551
1742.0,0.001847732953935735
1741.0,0.001888969467012448
1740.0,0.0019452262019407096
1739.0,0.001982194635042656
1738.0,0.0019844621957129326
1737.0,0.001974819166337481
1736.0,0.0019798846510095387
1735.0,0.0020010609715475766
1734.0,0.002017139704229137
1733.0,0.0020264800436780865
1732.0,0.0020269311737581446
1731.0,0.0020131865204266472
1730.0,0.0020024590698686875
1729.0,0.002013412039619026
1728.0,0.002040400134660165
1727.0,0.002061381109775866
1726.0,0.002068575327626154
1725.0,0.002069646953512267
1724.0,0.002066820574453625
1723.0,0.0020513403554783707
1722.0,0.0020215453266399807
1721.0,0.0019887093916569707
1720.0,0.0019617881257838034
1719.0,0.0019405814542406868
1718.0,0.0019286316187995098
1717.0,0.001937460236468151
1716.0,0.0019583168880005206
1715.0,0.0019661796519565428
1714.0,0.001959686815635795
1713.0,0.001953380424516462
1712.0,0.001951063692099578
1711.0,0.001949098155751846
1710.0,0.0019510261100484936
1709.0,0.001965667882256264
1708.0,0.0019933321998743393
1707.0,0.002026188556983404
1706.0,0.002058977616780758
1705.0,0.002091218900388644
1704.0,0.0021202710125685425
1703.0,0.002149863237188675
1702.0,0.0022074318149724963
1701.0,0.0023229796787363494
1700.0,0.002458959709502205
1699.0,0.0025247387468451585
1698.0,0.0025280602169342106
1697.0,0.002549851117365154
1696.0,0.0026265140501161837
1695.0,0.0027227195502771027
1694.0,0.0027918510361703815
1693.0,0.0028344266409547525
1692.0,0.002879453209998039
1691.0,0.0029376813141297623
1690.0,0.0030010613606683027
1689.0,0.003059284698349198
1688.0,0.003107367495819183
1687.0,0.0031500541928412154
1686.0,0.003206381158563248
1685.0,0.0032936649285398812
1684.0,0.0033858239944168167
1683.0,0.0034542478348905453
1682.0,0.0035058218851958503
1681.0,0.003552411037495224
1680.0,0.0036049833929482837
1679.0,0.0036589648941150682
1678.0,0.0037195615249254804
1677.0,0.003804582476702592
1676.0,0.003913294360437338
1675.0,0.004003887604293087
1674.0,0.004050785853920658
1673.0,0.004083414987706291
1672.0,0.004134381410725567
1671.0,0.004202091098151858
1670.0,0.00425574754953528
1669.0,0.004289412559964934
1668.0,0.0043255206040124766
1667.0,0.004363735597267269
1666.0,0.004406977275282219
1665.0,0.004469256991935003
1664.0,0.004545464300551845
1663.0,0.0045988916904409136
1662.0,0.004612920280771419
1661.0,0.004624790488312984
1660.0,0.004656575765563201
1659.0,0.004696223132847676
1658.0,0.004730850248578183
1657.0,0.004765236567105038
1656.0,0.004816354569182348
1655.0,0.004888410402974124
1654.0,0.004908466974710175
1653.0,0.0047979613860700526
1652.0,0.0047477486094471355
1651.0,0.004749867887657056
1650.0,0.004754763219656837
1649.0,0.004786564014824061
1648.0,0.004823217345462525
1647.0,0.0047826850300753555
1646.0,0.004687238862036632
1645.0,0.004647204968539429
1644.0,0.004644116203482335
1643.0,0.0046399363083404685
1642.0,0.004628348111771973
1641.0,0.004614943885957155
1640.0,0.004602830536615787
1639.0,0.004591467385510706
1638.0,0.0045809527475316894
1637.0,0.004556537733433698
1636.0,0.00447853253257404
1635.0,0.004380691875010382
1634.0,0.004331221779480736
1633.0,0.004309312470782781
1632.0,0.004295862133302863
1631.0,0.004284068861940329
1630.0,0.0042624883736568035
1629.0,0.00421892343704872
1628.0,0.004150946235849035
1627.0,0.004074933650086548
1626.0,0.004012705725125603
1625.0,0.003964459044276338
1624.0,0.0038983023086323855
1623.0,0.0037857841589828464
1622.0,0.003664090875647162
1621.0,0.003580679300495212
1620.0,0.0035306909690836917
1619.0,0.003489737454187723
1618.0,0.0034288926615696326
1617.0,0.0033221954441400923
1616.0,0.003192555046471884
1615.0,0.0030875300061992228
1614.0,0.0030115249638496657
1613.0,0.0029533711736830655
1612.0,0.0028993528265275673
1611.0,0.0028344176095151763
1610.0,0.002758177259454611
1609.0,0.0026851388478090037
1608.0,0.002623092104862043
1607.0,0.002570079388777521
1606.0,0.002529031838150658
1605.0,0.002502255322551849
1604.0,0.00247827334388825
1603.0,0.0024424705731746457
1602.0,0.002397697375876316
1601.0,0.002358372726123774
1600.0,0.002327183443413772
1599.0,0.002297444642064074
1598.0,0.002270525896500227
1597.0,0.002251795010279912
1596.0,0.002235584589499895
1595.0,0.002211998636600826
1594.0,0.0021861879735074366
1593.0,0.002171532115680061
1592.0,0.002166252429908071
1591.0,0.0021574314882013895
1590.0,0.002142222565093045
1589.0,0.0021290341374949734
1588.0,0.00211998657426909
1587.0,0.0021098215209684615
1586.0,0.0021003755237287386
1585.0,0.0020990367510829917
1584.0,0.0021033476800025193
1583.0,0.0021044644768012997
1582.0,0.002102871226052135
1581.0,0.002104109787532567
1580.0,0.00210494563342944
1579.0,0.0021006393325219744
1578.0,0.00209903835903013
1577.0,0.002109282340764794
1576.0,0.0021163388297223457
1575.0,0.0021072451017388662
1574.0,0.0020930373288129953
1573.0,0.0020873649818695526
1572.0,0.0020973672568838915
1571.0,0.002115102877936483
1570.0,0.002126037428565136
1569.0,0.00213392214647219
1568.0,0.002145219908680466
1567.0,0.002150520584645854
1566.0,0.0021536024605163175
1565.0,0.002164570636741128
1564.0,0.0021767899427946294
1563.0,0.002178311290310492
1562.0,0.002178199496237047
1561.0,0.0021984043273159384
1560.0,0.0022360254190813625
1559.0,0.002231770042184103
1558.0,0.0022401217908406754
1557.0,0.0023165883133735104
1556.0,0.0023650618711841902
1555.0,0.0023796354238527963
1554.0,0.0023843308366766937
1553.0,0.0023981193844096957
1552.0,0.002413320520986601
1551.0,0.00241701021420952
1550.0,0.0024129525472772594
1549.0,0.0024209693364596547
1548.0,0.002444842879171292
1547.0,0.0024701688641043536
1546.0,0.002495731506077542
1545.0,0.002531148097401961
1544.0,0.002568406590585869
1543.0,0.0025836514628931237
1542.0,0.002577010407762063
1541.0,0.0025472614460503615
1540.0,0.002456909566585946
1539.0,0.0023796768803044702
1538.0,0.0023692465974848543
1537.0,0.0023769413231415864
1536.0,0.0023847214511889376
1535.0,0.0023798948454036455
1534.0,0.0023481876641445825
1533.0,0.0023070307666111754
1532.0,0.002284189136112703
1531.0,0.002267186529353841
1530.0,0.0022472289240391776
1529.0,0.0022325721892991223
1528.0,0.002218650125135733
1527.0,0.0021873418958355826
1526.0,0.0021462429807665804
1525.0,0.0021258899024601476
1524.0,0.002122478984955289
1523.0,0.0021006528582757774
1522.0,0.00204373540431161
1521.0,0.0019952815601090735
1520.0,0.001984893894235889
1519.0,0.0019707107491234613
1518.0,0.0019429892604005984
1517.0,0.0019219483508607492
1516.0,0.0019012776781628985
1515.0,0.0018681336864343648
1514.0,0.0018370879563184815
1513.0,0.0018278170524658759
1512.0,0.0018271727166983684
1511.0,0.001798913124307914
1510.0,0.0017436227166642768
1509.0,0.001711016077563576
1508.0,0.0017159309216031506
1507.0,0.0016437137171051396
1506.0,0.0015768153032454542
1505.0,0.0016233125001398308
1504.0,0.0016398148211883038
1503.0,0.0015938589626775111
1502.0,0.0015268781963511911
1501.0,0.0014830822875093893
1500.0,0.0014664843882179375
1499.0,0.0014389077606324328
1498.0,0.0013943455385774335
1497.0,0.0013849451395072199
1496.0,0.0014058748005761742
1495.0,0.0013907739615066305
1494.0,0.0013518929987609543
1493.0,0.001346288789798237
1492.0,0.0013762994663466298
1491.0,0.0013841847356585238
1490.0,0.001362326083545493
1489.0,0.001398657692840961
1488.0,0.001485190409200975
1487.0,0.0015401940065178934
1486.0,0.0015792785883193845
1485.0,0.0016590722468271513
1484.0,0.0017738071798941374
1483.0,0.001897297162329459
1482.0,0.002071531874906758
1481.0,0.002365356396138531
1480.0,0.002769564962055584
1479.0,0.003313792348478144
1478.0,0.00428493739626797
1477.0,0.006170748017158674
1476.0,0.009242640219926006
1475.0,0.01331717905491304
1474.0,0.017920398798761877
1473.0,0.021543516446266352
1472.0,0.022000827101361517
1471.0,0.02012750871317016
1470.0,0.018094840756033695
1469.0,0.01661134918684846
1468.0,0.015658356114709077
1467.0,0.015341644917661086
1466.0,0.016212661092874385
1465.0,0.018740070639138115
1464.0,0.02188758587849758
1463.0,0.023771306551343817
1462.0,0.023736824348755906
1461.0,0.02209462435676912
1460.0,0.019337193007227537
1459.0,0.015983830122302974
1458.0,0.012563196786274773
1457.0,0.009790631940382526
1456.0,0.0082515232224621
1455.0,0.007521574466843076
1454.0,0.007029890434626192
1453.0,0.006538710094548378
1452.0,0.006037018534745089
1451.0,0.0056212243716906645
1450.0,0.005319856910737614
1449.0,0.005056995321873843
1448.0,0.0047938056738232844
1447.0,0.004588190693077553
1446.0,0.004457694775395356
1445.0,0.004344734010086453
1444.0,0.00422474723676737
1443.0,0.004121647128608005
1442.0,0.004038196056532535
1441.0,0.003945221546887409
1440.0,0.0038418977458972345
1439.0,0.003760359062962594
1438.0,0.0036982140499733857
1437.0,0.0035911079921955684
1436.0,0.0034259527301578694
1435.0,0.003282196456210584
1434.0,0.0031700677203789886
1433.0,0.003046422983983137
1432.0,0.0028992479132496653
1431.0,0.0027497484027715867
1430.0,0.0026057951182816104
1429.0,0.002455174432524855
1428.0,0.002314260972116097
1427.0,0.002211286570100182
1426.0,0.0021357440077176063
1425.0,0.0020515044697459474
1424.0,0.001953474789398366
1423.0,0.001880947851357477
1422.0,0.0018472372630588308
1421.0,0.0018231867466680428
1420.0,0.0017873521942712589
1419.0,0.0017470922750799495
1418.0,0.001708733930890602
1417.0,0.0016627656690987604
1416.0,0.0016207885933650597
1415.0,0.0016020726685708924
1414.0,0.0015972299009289143
1413.0,0.0015818790217691234
1412.0,0.0015556280717803936
1411.0,0.0015387968876843894
1410.0,0.0015320702310059216
1409.0,0.0015153314791855005
1408.0,0.0014858888681307354
1407.0,0.0014606303576637494
1406.0,0.0014436871084101692
1405.0,0.0014215661661927724
1404.0,0.001397822076386025
1403.0,0.0013908884702755293
1402.0,0.0013942305894200425
1401.0,0.0013864634046846795
1400.0,0.0013642207689053693
1399.0,0.0013445162453993972
1398.0,0.0013322610267764653
1397.0,0.001313604715930846
1396.0,0.0012911798579393916
1395.0,0.0012842563556373662
1394.0,0.0012928521216398275
1393.0,0.0012981143218409523
1392.0,0.0012973438135316009
1391.0,0.0013032710797960573
1390.0,0.0013166722618117245
1389.0,0.0013248162882163403
1388.0,0.001325642130338361
1387.0,0.0013326007443318424
1386.0,0.001347421958782729
1385.0,0.0013603368070406715
1384.0,0.0013783477754270388
1383.0,0.0014188817581542751
1382.0,0.0014820691429009798
1381.0,0.0015509107191528562
1380.0,0.001615381770680645
1379.0,0.001672812014734041
1378.0,0.001710754616570252
1377.0,0.001717120484913783
1376.0,0.0017037344429092491
1375.0,0.0017005756343670053
1374.0,0.0017239090851564251
1373.0,0.0017653916799112294
1372.0,0.0018165995914885978
1371.0,0.0018745114182631378
1370.0,0.0019268267325920907
1369.0,0.0019534517331585336
1368.0,0.0019484038655666655
1367.0,0.0019251079725270933
1366.0,0.0018909799126577641
1365.0,0.0018406475674161774
1364.0,0.0017746444247359662
1363.0,0.0017077681234332895
1362.0,0.001653750262562683
1361.0,0.0016141461890630845
1360.0,0.0015874977809694063
1359.0,0.0015732524813098893
1358.0,0.0015651824072533199
1357.0,0.0015552307708303229
1356.0,0.0015464657311582
1355.0,0.0015493886201926011
1354.0,0.001562242851561112
1353.0,0.0015703154937337007
1352.0,0.0015664374595747413
1351.0,0.001554894056742506
1350.0,0.0015363713953146043
1349.0,0.0015071352228159256
1348.0,0.00147169708977556
1347.0,0.001440163101755033
1346.0,0.0014130036827902945
1345.0,0.0013832876772145435
1344.0,0.001351791313833983
1343.0,0.0013258452476525378
1342.0,0.0013045186705068622
1341.0,0.0012773663190868284
1340.0,0.0012390681485366477
1339.0,0.0011983854961320904
1338.0,0.0011655902207450147
1337.0,0.0011401130911818963
1336.0,0.0011199666695554304
1335.0,0.0011065413218912304
1334.0,0.0010965252404848316
1333.0,0.0010834490366268912
1332.0,0.001068846795833924
1331.0,0.001060557510344465
1330.0,0.0010595450786734122
1329.0,0.0010602159212398676
1328.0,0.0010632383115664204
1327.0,0.0010748023221042507
1326.0,0.0010932707706611054
1325.0,0.0011103314443146927
1324.0,0.0011247077793545954
1323.0,0.0011432022370474377
1322.0,0.00116777276336988
1321.0,0.0011926808744400306
1320.0,0.001214790925183679
1319.0,0.0012362992070251652
1318.0,0.0012567624449673113
1317.0,0.0012736685491831507
1316.0,0.0012910136637391612
1315.0,0.0013157042559864684
1314.0,0.0013455502575106853
1313.0,0.0013704810998004635
1312.0,0.0013876585706237652
1311.0,0.0014043958715663008
1310.0,0.0014243882423954437
1309.0,0.001442862056322639
1308.0,0.0014558178556152391
1307.0,0.0014648222519559237
1306.0,0.0014712177134335517
1305.0,0.0014741280103172444
1304.0,0.0014750633390699713
1303.0,0.001477646604782383
1302.0,0.0014815571671601211
1301.0,0.0014831078156285842
1300.0,0.0014815582496632159
1299.0,0.0014786202296972178
1298.0,0.001473039525410502
1297.0,0.0014627401525389824
1296.0,0.0014509584255646272
1295.0,0.001442239551447447
1294.0,0.001434278898718675
1293.0,0.0014221751445948384
1292.0,0.0014087162540063634
1291.0,0.0014013011867949543
1290.0,0.0013997084874464267
1289.0,0.001396317767370181
1288.0,0.0013885207769994481
1287.0,0.001381430348228156
1286.0,0.0013779586353655454
1285.0,0.001375972938333466
1284.0,0.0013756466531556289
1283.0,0.001380004860965333
1282.0,0.0013872379916067012
1281.0,0.0013911358097076039
1280.0,0.0013905712147893113
1279.0,0.0013906881505182619
1278.0,0.0013940744751739797
1277.0,0.00139836260845073
1276.0,0.0014031191059051473
1275.0,0.0014112208965357954
1274.0,0.001422915483510582
1273.0,0.001435755986753841
1272.0,0.00145086561746053
1271.0,0.0014723159677871521
1270.0,0.0015000644814642428
1269.0,0.0015307282786554206
1268.0,0.0015648110674200467
1267.0,0.0016054766312939867
1266.0,0.0016510457869993841
1265.0,0.001695723869265399
1264.0,0.0017367425968093733
1263.0,0.0017734998569764891
1262.0,0.0018011977534966965
1261.0,0.0018136936132599835
1260.0,0.0018127826332911233
1259.0,0.0018067838387390278
1258.0,0.0017999320372237896
1257.0,0.001790801079656687
1256.0,0.0017807089805174897
1255.0,0.0017751253718647597
1254.0,0.0017761883229790308
1253.0,0.0017811063995006283
1252.0,0.0017888380639794923
1251.0,0.0018014780344749225
1250.0,0.0018187026550462327
1249.0,0.0018376342807449977
1248.0,0.0018584176101350974
1247.0,0.001883371173630564
1246.0,0.001910800893576951
1245.0,0.0019359569122775063
1244.0,0.001958128766256907
1243.0,0.001980810046962133
1242.0,0.0020053383425107803
1241.0,0.002030570724761662
1240.0,0.0020579150327714674
1239.0,0.0020898009906740907
1238.0,0.0021235356026516033
1237.0,0.002153521475122337
1236.0,0.002179703383044609
1235.0,0.0022075292924058844
1234.0,0.002239525693667914
1233.0,0.0022728111171612607
1232.0,0.0023047298978858145
1231.0,0.002334978225280951
1230.0,0.0023624903627201977
1229.0,0.002386150639512496
1228.0,0.0024084930451225284
1227.0,0.0024332012703189806
1226.0,0.0024592434035030576
1225.0,0.0024829976626607954
1224.0,0.0025056232454196575
1223.0,0.0025321707822488857
1222.0,0.0025635524268312073
1221.0,0.002595548259165045
1220.0,0.002625911212173961
1219.0,0.002656748624226572
1218.0,0.0026897199710263454
1217.0,0.0027242309539588887
1216.0,0.002760623292587814
1215.0,0.002800000097423834
1214.0,0.002840753146180191
1213.0,0.002880125896310402
1212.0,0.002919219185837443
1211.0,0.0029619423633086717
1210.0,0.003009100323447484
1209.0,0.003057836541916566
1208.0,0.0031060546444062307
1207.0,0.003152889725499724
1206.0,0.0031960534534635245
1205.0,0.003233532411174406
1204.0,0.0032671446538033652
1203.0,0.0033001385049966463
1202.0,0.003332343411127742
1201.0,0.0033617953914168905
1200.0,0.0033895265068467654
1199.0,0.00341811597178988
1198.0,0.003446950769157722
1197.0,0.0034736772802796082
1196.0,0.00349925637505682
1195.0,0.003526920734211472
1194.0,0.003557186092912981
1193.0,0.0035885351016429604
1192.0,0.00362188151658309
1191.0,0.003659513843728964
1190.0,0.0037005888350041044
1189.0,0.003742355988984308
1188.0,0.0037847383916063447
1187.0,0.0038290786191857184
1186.0,0.003873888582356035
1185.0,0.003917068262029275
1184.0,0.00396122217647208
1183.0,0.00401125345949076
1182.0,0.00406711313585016
1181.0,0.004124170895820662
1180.0,0.0041807521379858565
1179.0,0.004239834995254582
1178.0,0.004302561033811949
1177.0,0.0043650708081824224
1176.0,0.004423029999335335
1175.0,0.0044755590897749
1174.0,0.004523834477807448
1173.0,0.004568784274750824
1172.0,0.0046107539675312136
1171.0,0.0046491835316842456
1170.0,0.004682446092810994
1169.0,0.004710026138629098
1168.0,0.004734537523968496
1167.0,0.004759452212523659
1166.0,0.004785242463043191
1165.0,0.004809989973085988
1164.0,0.004833229314656409
1163.0,0.004856415660770158
1162.0,0.004879815999463337
1161.0,0.004901841241855654
1160.0,0.004921886946705475
1159.0,0.004941428211623574
1158.0,0.004961769337118307
1157.0,0.004982641669269344
1156.0,0.0050035273240442765
1155.0,0.005024700531005987
1154.0,0.0050465473929347925
1153.0,0.0050691649049123
1152.0,0.005092626205883933
1151.0,0.005116206269666249
1150.0,0.005137474186742824
1149.0,0.005153931198061234
1148.0,0.005165914791154242
1147.0,0.005176648457955258
1146.0,0.005188995143477568
1145.0,0.005203036369220585
1144.0,0.005216992648262804
1143.0,0.005229391329561107
1142.0,0.005239889513198241
1141.0,0.005248830004959869
1140.0,0.00525676376029135
1139.0,0.0052643600312859695
1138.0,0.005272419196332091
1137.0,0.005281715585543196
1136.0,0.005292590216534204
1135.0,0.00530466507266286
1134.0,0.005317260922917583
1133.0,0.005329951352632909
1132.0,0.0053419197697338605
1131.0,0.005350796496100492
1130.0,0.005353685065109497
1129.0,0.0053506448401050115
1128.0,0.005346525927790234
1127.0,0.0053476589471489755
1126.0,0.005355967961852013
1125.0,0.00536729391070475
1124.0,0.00537644687931025
1123.0,0.005383237806356485
1122.0,0.005392436699371698
1121.0,0.005407881363873925
1120.0,0.005428025877387746
1119.0,0.005448074710755126
1118.0,0.005465483791105454
1117.0,0.005482056722611538
1116.0,0.0055010052250798
1115.0,0.005523344084400992
1114.0,0.005547010134740983
1113.0,0.005568044537422636
1112.0,0.005582700626020038
1111.0,0.005590318273256039
1110.0,0.005594429263768282
1109.0,0.005598883118920607
1108.0,0.0056025818559413305
1107.0,0.005601155900138176
1106.0,0.005594378724028582
1105.0,0.005588218925191094
1104.0,0.0055873125425228536
1103.0,0.005588210162364629
1102.0,0.0055828235614990875
1101.0,0.005567132435522051
1100.0,0.005543643166196256
1099.0,0.005517919246587558
1098.0,0.005493807779778702
1097.0,0.005471670535420722
1096.0,0.005448225667508738
1095.0,0.005418620056951584
1094.0,0.005380841121530598
1093.0,0.005338069786967281
1092.0,0.0052953170905599345
1091.0,0.005254296374210464
1090.0,0.0052129008591530355
1089.0,0.005169146080384969
1088.0,0.005123837993149709
1087.0,0.005079079760734281
1086.0,0.005035452170676756
1085.0,0.004991187967050952
1084.0,0.004943298173669912
1083.0,0.00488912074776551
1082.0,0.00482759114711599
1081.0,0.004759638441345468
1080.0,0.004687333804193336
1079.0,0.004612788297896745
1078.0,0.004538080759340342
1077.0,0.004465707371746961
1076.0,0.004397785136662195
1075.0,0.004334076036855836
1074.0,0.004271820355129552
1073.0,0.004208976288416179
1072.0,0.004146952665728324
1071.0,0.0040887215957064295
1070.0,0.004035188987464552
1069.0,0.003985507292731251
1068.0,0.003940021649383534
1067.0,0.0038997517503921767
1066.0,0.0038631199810960663
1065.0,0.0038266673075182224
1064.0,0.003789767766321418
1063.0,0.0037555918834303414
1062.0,0.003726438111802564
1061.0,0.0037009805865069537
1060.0,0.0036774326395839075
1059.0,0.003656425485946467
1058.0,0.003638762788151924
1057.0,0.003622879941211448
1056.0,0.0036070631277651272
1055.0,0.003592668767550415
1054.0,0.003582928321422519
1053.0,0.003579166642407104
1052.0,0.0035797465030590436
1051.0,0.0035820758664080626
1050.0,0.0035840040696927134
1049.0,0.003583572441586045
1048.0,0.0035792928148874344
1047.0,0.003571560530705303
1046.0,0.0035630985414335003
1045.0,0.0035568244599097987
1044.0,0.0035524248449361156
1043.0,0.0035449576925334994
1042.0,0.0035280879541307497
1041.0,0.0034999171213274173
1040.0,0.0034652198489963384
1039.0,0.003431372393468876
1038.0,0.0034025457474831464
1037.0,0.0033779431369918237
1036.0,0.0033539077046813885
1035.0,0.003325977281761197
1034.0,0.003290303947212811
1033.0,0.0032457410101244177
1032.0,0.0031946531677629017
1031.0,0.0031400016787088312
1030.0,0.0030820717777740934
1029.0,0.00302013726540187
1028.0,0.0029568667330052032
1027.0,0.0028979922686559493
1026.0,0.0028465314174991475
1025.0,0.0027995551827605355
1024.0,0.002751794017434726
1023.0,0.002700874446786177
1022.0,0.002648543921315951
1021.0,0.0025983181548973316
1020.0,0.00255223088041692
1019.0,0.0025085486000930137
1018.0,0.0024629616121708154
1017.0,0.0024139834933352925
1016.0,0.002366378095478484
1015.0,0.0023264617203998415
1014.0,0.0022943857982441543
1013.0,0.002264138498147056
1012.0,0.002230943391906099
1011.0,0.0021952874353695353
1010.0,0.002159812979319714
1009.0,0.0021259537898194515
1008.0,0.0020941798609366434
1007.0,0.0020638893063037894
1006.0,0.002032068160170955
1005.0,0.0019954655568623727
1004.0,0.001955232684864374
1003.0,0.0019163630493917708
1002.0,0.0018816685351880262
1001.0,0.001849349537878124
1000.0,0.0018171897855744218
999.0,0.0017855491871821025
998.0,0.001755046554932518
997.0,0.001724726577324406
996.0,0.001694141211513553
995.0,0.0016646072349225463
994.0,0.001637240625166067
993.0,0.0016121635108996629
992.0,0.001590095684144417
991.0,0.00157164646609622
990.0,0.00155466524101339
989.0,0.0015359544641829783
988.0,0.001516284420288221
987.0,0.0015000661683425838
986.0,0.001489397394630806
985.0,0.0014823392034905736
984.0,0.0014778525300469534
983.0,0.0014779378547759808
982.0,0.0014831571715220198
981.0,0.0014901215616751476
980.0,0.0014958348731849288
979.0,0.0015015612434033697
978.0,0.0015103750470995326
977.0,0.0015231955917032285
976.0,0.0015386033331324645
975.0,0.001554466887789739
974.0,0.0015692931891526252
973.0,0.0015843729808466098
972.0,0.0016042136662367233
971.0,0.0016314602817432491
970.0,0.0016615264920248295
969.0,0.0016862552010442082
968.0,0.0017033509866854534
967.0,0.001718347679346278
966.0,0.0017369198418390821
965.0,0.0017596681957124116
964.0,0.0017855624131811814
963.0,0.0018155183192006172
962.0,0.0018498961531936327
961.0,0.0018859799499387896
960.0,0.0019203725698791897
959.0,0.001951494916419103
958.0,0.0019786006392578754
957.0,0.0020013823569092143
956.0,0.002021995706047446
955.0,0.0020444550801373717
954.0,0.002070154367947958
953.0,0.002096344910817751
952.0,0.002120342003605414
951.0,0.002142626957987938
950.0,0.0021647932409029017
949.0,0.0021876438657670145
948.0,0.0022128488352697725
947.0,0.0022431760375516787
946.0,0.0022787275002430323
945.0,0.0023152818421925325
944.0,0.0023482446118968836
943.0,0.00237636852029741
942.0,0.002400659082664788
941.0,0.00242232996297332
940.0,0.002443302611829665
939.0,0.0024658359649179424
938.0,0.0024893328379479466
937.0,0.0025096096994911593
936.0,0.0025234602718149186
935.0,0.002532196749897136
934.0,0.0025390163997113984
933.0,0.0025448846286922296
932.0,0.0025489126934788446
931.0,0.002550624201805385
930.0,0.0025494970426464592
929.0,0.0025441290615793926
928.0,0.0025344190459120276
927.0,0.0025231784295264245
926.0,0.0025131185709463687
925.0,0.002503412396602719
924.0,0.0024915222258024947
923.0,0.0024771481644494356
922.0,0.0024620646664039957
921.0,0.002447321269376885
920.0,0.002432955034143371
919.0,0.002419096630495443
918.0,0.0024047499349395055
917.0,0.0023867029837189575
916.0,0.002362568179873795
915.0,0.002334367758910508
914.0,0.002306608554757398
913.0,0.0022812231941126424
912.0,0.0022565073334376534
911.0,0.0022299746416290333
910.0,0.0021995442710772647
909.0,0.0021628751183467012
908.0,0.0021187765315685446
907.0,0.002069206873858377
906.0,0.0020172088739971866
905.0,0.0019630995403831088
904.0,0.001905354795824196
903.0,0.0018449000306784789
902.0,0.0017856568379703336
901.0,0.001730803875155879
900.0,0.0016809374776362164
899.0,0.0016356279315015317
898.0,0.0015940018351066124
897.0,0.0015538869838046822
896.0,0.0015126894394926651
895.0,0.0014696050405585475
894.0,0.0014258475225452593
893.0,0.0013833481068690852
892.0,0.0013444026933878276
891.0,0.0013109510345926032
890.0,0.0012818453367056974
889.0,0.0012517954341293967
888.0,0.0012153249446932599
887.0,0.0011716410877708344
886.0,0.0011247562030315406
885.0,0.001080126476604194
884.0,0.0010422802267256999
883.0,0.0010133340030727216
882.0,0.0009910547629991913
881.0,0.0009696353278035425
880.0,0.0009445521612860808
879.0,0.0009157478964222558
878.0,0.0008854041274625116
877.0,0.000855250570851909
876.0,0.000827367190749092
875.0,0.0008039108605210231
874.0,0.0007835635863611158
873.0,0.000761862663199422
872.0,0.000737767791128252
871.0,0.0007162935009247788
870.0,0.0007017931714745207
869.0,0.0006921204627243367
868.0,0.0006822580509440236
867.0,0.0006700594604534575
866.0,0.0006556677115219105
865.0,0.0006392392535373431
864.0,0.0006228469884267209
863.0,0.0006112298054465932
862.0,0.0006065847189395949
861.0,0.0006051706084934551
860.0,0.0006024744422901639
859.0,0.0005987609726594338
858.0,0.0005959472087165578
857.0,0.0005923218309103734
856.0,0.0005851383455445784
855.0,0.0005760772648691673
854.0,0.0005691306340814614
853.0,0.0005645230728198817
852.0,0.0005595140924482819
851.0,0.000554276665279714
850.0,0.0005524668280951698
849.0,0.0005562676806230029
848.0,0.0005644251624122102
847.0,0.0005745510750710559
846.0,0.0005842035362915561
845.0,0.0005907370876094625
844.0,0.0005933998344063259
843.0,0.0005948321710527914
842.0,0.0005977073034076629
841.0,0.0006009869246087455
840.0,0.0006022230184032035
839.0,0.0006016974334411757
838.0,0.000600830678937571
837.0,0.0005983130010983639
836.0,0.0005921753815239411
835.0,0.0005848009520052646
834.0,0.0005814546106818901
833.0,0.0005837446887756506
832.0,0.0005882352065378131
831.0,0.000591476582301507
830.0,0.0005929709142298183
829.0,0.0005933376137210519
828.0,0.0005933289177159302
827.0,0.0005950883377186158
826.0,0.0006007442211334879
825.0,0.0006094343278554669
824.0,0.0006190590758581932
823.0,0.0006298253967843817
822.0,0.0006418524331509677
821.0,0.0006514330508470558
820.0,0.0006548095879045244
819.0,0.0006538479625156147
818.0,0.0006535221562234559
817.0,0.0006554256138382577
816.0,0.0006579194453610045
815.0,0.0006612077524789929
814.0,0.0006674576344568269
813.0,0.0006761985455082462
812.0,0.0006843424132822848
811.0,0.0006911719656752025
810.0,0.0006991105382573573
809.0,0.0007088707359606882
808.0,0.0007177485737540447
807.0,0.0007235922105853664
806.0,0.0007269698805871727
805.0,0.0007287969313197555
804.0,0.0007291866379540288
803.0,0.0007289359993954654
802.0,0.0007287165048818489
801.0,0.0007266870844977005
800.0,0.0007206363434834384
799.0,0.0007123327726500839
798.0,0.0007055268984338741
797.0,0.000699727489479463
796.0,0.0006908278396881247
795.0,0.0006782483038924087
794.0,0.000666167216087628
793.0,0.000656663940154818
792.0,0.0006470163243730923
791.0,0.000635152490937884
790.0,0.0006225051701611137
789.0,0.00060992135554779
788.0,0.0005958449417245357
787.0,0.0005803286167654581
786.0,0.0005660532551104785
785.0,0.0005538494545143412
784.0,0.000542209303267092
783.0,0.0005325299445110868
782.0,0.0005291793868506603
781.0,0.000532593436300935
780.0,0.0005380515145068409
779.0,0.0005429980959933738
778.0,0.0005492489239869631
777.0,0.000556089303408596
776.0,0.0005585915574348268
775.0,0.0005560587472598954
774.0,0.0005548914054420153
773.0,0.0005586501907437239
772.0,0.0005622882345974033
771.0,0.0005612965034237745
770.0,0.0005598324506206498
769.0,0.0005637957797205473
768.0,0.0005718359442571916
767.0,0.0005796119013126146
766.0,0.000587303863270734
765.0,0.0005962977212863968
764.0,0.00060355230692987
763.0,0.0006058518881424279
762.0,0.0006053077340524573
761.0,0.0006050978914046745
760.0,0.0006048672058491303
759.0,0.000605880448005489
758.0,0.0006142577406298713
757.0,0.0006321315550088763
756.0,0.000651968319970562
755.0,0.0006669771800952685
754.0,0.0006804825056664704
753.0,0.0006970337282022677
752.0,0.0007119103890971122
751.0,0.0007194772489164329
750.0,0.0007249240200779151
749.0,0.0007369189212618603
748.0,0.0007546070613406257
747.0,0.0007723448109927785
746.0,0.0007908632666621136
745.0,0.0008130244396700944
744.0,0.0008363208325831528
743.0,0.0008617529464515328
742.0,0.0009014941780622929
741.0,0.0009647036732719343
740.0,0.0010472371376422105
739.0,0.0011516725670692343
738.0,0.0013063859413039232
737.0,0.0015566227672511464
736.0,0.001975268045044393
735.0,0.0027210336679041884
734.0,0.004032317752140042
733.0,0.006028349309564781
732.0,0.008416405638694667
731.0,0.010433896872752865
730.0,0.011273230350656718
729.0,0.01072068958657994
728.0,0.009317943662066036
727.0,0.007870121806068275
726.0,0.006905306738192073
725.0,0.0065729081507992886
724.0,0.006895109460544804
723.0,0.007994469629998445
722.0,0.010014786520428197
721.0,0.012764980967295675
720.0,0.015446578769740349
719.0,0.016968161495202274
718.0,0.016763271871603338
717.0,0.015150817447285244
716.0,0.012874715978136504
715.0,0.010556150729425007
714.0,0.008531916108413062
713.0,0.006932023751088275
712.0,0.005762589351507577
711.0,0.0049407796025209795
710.0,0.004342585153701347
709.0,0.0038738096857963878
708.0,0.0034972976955791927
707.0,0.0031983409659366723
706.0,0.0029545402100483757
705.0,0.0027476834392283957
704.0,0.002575712686269481
703.0,0.0024355676236638706
702.0,0.0023128277531242704
701.0,0.002199263569852796
700.0,0.0021014423818487564
699.0,0.002021201068091722
698.0,0.0019448890685309045
697.0,0.0018632140196739155
696.0,0.0017852590773072261
695.0,0.001721089308328257
694.0,0.0016662668118063565
693.0,0.001614723904386436
692.0,0.0015717968909962255
691.0,0.0015420821552593774
690.0,0.0015169093702004344
689.0,0.001486745912732764
688.0,0.0014554325059707685
687.0,0.001428942842102975
686.0,0.0014027634435010577
685.0,0.0013741627095704588
684.0,0.0013517325015450247
683.0,0.0013398949433924383
682.0,0.0013274625991518626
681.0,0.0013029964770039989
680.0,0.0012706573735717266
679.0,0.0012401879816918598
678.0,0.001211695323889277
677.0,0.001182140519882099
676.0,0.001156296394151065
675.0,0.0011378403084900176
674.0,0.001121872771328951
673.0,0.0011059850269294048
672.0,0.0010969780273904644
671.0,0.001097598231261333
670.0,0.0010968581541471157
669.0,0.0010758088993755778
668.0,0.0010296880431830376
667.0,0.000992253538566361
666.0,0.0009819982421714018
665.0,0.0009777878031385948
664.0,0.0009694030426197074
663.0,0.0009589634268608684
662.0,0.0009436372724565214
661.0,0.0009185950229386388
660.0,0.0008903528915761943
659.0,0.0008717113422274046
658.0,0.0008652818455875633
657.0,0.0008637867146089359
656.0,0.00086352344020756
655.0,0.0008634088814141517
654.0,0.0008586659625739038
653.0,0.0008479768620137787
652.0,0.0008391490369897857
651.0,0.0008364129029075112
650.0,0.0008308364427613235
649.0,0.0008150151095065989
648.0,0.0007968181347956234
647.0,0.0007854067135327044
646.0,0.0007754552488094317
645.0,0.0007600487625458735
644.0,0.0007466433534974368
643.0,0.0007437533238398655
642.0,0.0007429693604395671
641.0,0.0007325953524734236
640.0,0.0007188386870389118
639.0,0.000713748245176385
638.0,0.0007109492616214443
637.0,0.000696478709050243
636.0,0.0006761874347397334
635.0,0.0006683774332497286
634.0,0.0006733343669084236
633.0,0.0006733313948869005
632.0,0.000659941151047748
631.0,0.000638946546238026
630.0,0.0006149808617505314
629.0,0.0005891483431532596
628.0,0.0005674878944143093
627.0,0.0005558750595015187
626.0,0.000549291001996121
625.0,0.0005427425545618831
624.0,0.0005456432251502073
623.0,0.0005624239042837522
622.0,0.0005707616264482573
621.0,0.0005476779375134203
620.0,0.000504858898219135
619.0,0.0004717074947407166
618.0,0.0004527124874257814
617.0,0.00043034289818393446
616.0,0.00040416268527077064
615.0,0.000390252881007245
614.0,0.0003906389814763077
613.0,0.0003992615795554207
612.0,0.00042303541720863205
611.0,0.0004627090463792342
610.0,0.0004901126922863272
609.0,0.0004844925462037648
608.0,0.00047549675979139576
607.0,0.0005109603935463807
606.0,0.0005891047291798062
605.0,0.0006613226212088632
604.0,0.0006997690128812973
603.0,0.000721948853801282
602.0,0.0007524370647346637
601.0,0.0007918650443862913
600.0,0.0008260201286653709
599.0,0.0008427659106068047
598.0,0.0008396284082833439
597.0,0.0008261585933582635
596.0,0.0008196173151865225
595.0,0.0008324383331053884
594.0,0.0008614387273036779
593.0,0.0008922478007630873
592.0,0.0009068990088746816
591.0,0.0008838808743359747
590.0,0.0008151243327579169
589.0,0.0007277487309485501
588.0,0.0006679714865116623
587.0,0.0006618400060619738
586.0,0.0006909379382409361
585.0,0.0007162510698406425
584.0,0.0007204560358558966
583.0,0.0007063521554337439
582.0,0.0006769885426830536
581.0,0.0006428966949052927
580.0,0.0006296176508303252
579.0,0.0006464245782507105
578.0,0.0006597657298250221
577.0,0.0006312476448487385
576.0,0.0005664330901500657
575.0,0.0005042859844517424
574.0,0.0004680262672657166
573.0,0.0004519907322432807
572.0,0.0004497120733865294
571.0,0.00045684292207747113
570.0,0.0004630434057944801
569.0,0.00047068922915593657
568.0,0.0005013843644890253
567.0,0.0005570235640283027
566.0,0.0005991744850295734
565.0,0.0006042459368984207
564.0,0.0005939912559199349
563.0,0.0005900121999394479
562.0,0.0005733541049679797
561.0,0.0005167082119552365
560.0,0.00043105283893453026
559.0,0.00035121209108568934
558.0,0.00029700277784302923
557.0,0.0002704414426732898
556.0,0.00027782047909875776
555.0,0.00031665158635383293
554.0,0.00035680981251480916
553.0,0.00037737790003138853
552.0,0.0003950004370266693
551.0,0.00041729330986513486
550.0,0.00040592985394924044
