cm-1,A
4000.0,0.001877314577200688
3999.0,0.0018898058132763252
3998.0,0.0019121756705843297
3997.0,0.0019341598680633941
3996.0,0.0019484286485277492
3995.0,0.0019535827937252562
3994.0,0.0019515439392378117
3993.0,0.0019439971537763938
3992.0,0.0019327184555701154
3991.0,0.0019221051222199715
3990.0,0.001917624246331089
3989.0,0.0019211894894719164
3988.0,0.0019293353904512034
3987.0,0.0019365181797638036
3986.0,0.0019396393964489465
3985.0,0.0019389561252498256
3984.0,0.0019360069499307839
3983.0,0.001932331340697993
3982.0,0.0019298514699777796
3981.0,0.0019308614870740962
3980.0,0.0019357657011289603
3979.0,0.0019408066746619684
3978.0,0.0019388587801606868
3977.0,0.0019248899928780913
3976.0,0.0019021617536486967
3975.0,0.0018822832769190192
3974.0,0.0018766647954887826
3973.0,0.0018855833766392377
3972.0,0.0018982978752970494
3971.0,0.001904309570078178
3970.0,0.0019038364877554167
3969.0,0.0019068058604695048
3968.0,0.0019201165828874834
3967.0,0.0019387274490636885
3966.0,0.001949542407128896
3965.0,0.0019434012709911809
3964.0,0.0019240565671027532
3963.0,0.001905518198702067
3962.0,0.0019014249272747523
3961.0,0.001913934518143966
3960.0,0.001932468554264575
3959.0,0.0019435938930546532
3958.0,0.0019395568038357985
3957.0,0.0019216029034865327
3956.0,0.00189720279487201
3955.0,0.0018743888794543664
3954.0,0.0018587864967688494
3953.0,0.0018534482153121342
3952.0,0.0018607011360221694
3951.0,0.001883183297172161
3950.0,0.0019216597676616392
3949.0,0.001970178651806649
3948.0,0.002015337196813632
3947.0,0.0020429611637850127
3946.0,0.0020470695718674305
3945.0,0.0020318217362466353
3944.0,0.0020076818751048045
3943.0,0.0019857828260939807
3942.0,0.0019707408100452777
3941.0,0.001960800029793393
3940.0,0.0019533167397530844
3939.0,0.0019468911661908363
3938.0,0.0019408275454131972
3937.0,0.0019349472769453853
3936.0,0.0019309635854749107
3935.0,0.0019325508938195148
3934.0,0.001941893900043787
3933.0,0.001956079718269289
3932.0,0.0019694587294401614
3931.0,0.00198132885281789
3930.0,0.001995364965322502
3929.0,0.0020100072715835866
3928.0,0.002016558811804697
3927.0,0.0020068329160211834
3926.0,0.0019813993645040415
3925.0,0.0019518307752979195
3924.0,0.001931171050701199
3923.0,0.0019236131743026194
3922.0,0.0019264501505009768
3921.0,0.0019365700389972372
3920.0,0.001951781736411205
3919.0,0.0019679474853033655
3918.0,0.0019790481497244036
3917.0,0.001981267639004659
3916.0,0.001974893724698192
3915.0,0.0019612928121340483
3914.0,0.0019413976990524003
3913.0,0.0019189694355858317
3912.0,0.0019021873226494727
3911.0,0.0018992143531667595
3910.0,0.001910956850639042
3909.0,0.0019297093291863326
3908.0,0.0019456599439665809
3907.0,0.001954124320257252
3906.0,0.0019590337491465085
3905.0,0.001970540934860438
3904.0,0.0019932994574667637
3903.0,0.002017726645795367
3902.0,0.0020285515588448245
3901.0,0.002018062617629094
3900.0,0.001991665389952266
3899.0,0.0019639408105946088
3898.0,0.0019476541416736859
3897.0,0.0019460607992616025
3896.0,0.001953593259061975
3895.0,0.0019606479952526132
3894.0,0.001958732836705483
3893.0,0.0019455989764062317
3892.0,0.0019296253337279133
3891.0,0.001924498952937598
3890.0,0.001934434595436978
3889.0,0.0019509925516460833
3888.0,0.001961098951783066
3887.0,0.0019602412865995927
3886.0,0.0019611696332366797
3885.0,0.001974906350413052
3884.0,0.001989218745954551
3883.0,0.0019833576957779576
3882.0,0.0019504837843015745
3881.0,0.0019115692622954086
3880.0,0.0019003377967903652
3879.0,0.001921092184654569
3878.0,0.0019509367634763224
3877.0,0.001966900534332022
3876.0,0.0019578905526386374
3875.0,0.0019331307267811335
3874.0,0.0019153279151119976
3873.0,0.0019179073583360283
3872.0,0.0019358462776857006
3871.0,0.0019559387217254025
3870.0,0.0019676041979228825
3869.0,0.00196807081606825
3868.0,0.001962262358335594
3867.0,0.0019557954978923014
3866.0,0.001950600631581578
3865.0,0.0019509528190254882
3864.0,0.001955614696455524
3863.0,0.0019491390471379315
3862.0,0.0019243602476076297
3861.0,0.0018926613464777214
3860.0,0.001869544863630127
3859.0,0.0018632415418368335
3858.0,0.0018704602782332758
3857.0,0.0018809864608080856
3856.0,0.001888085398653927
3855.0,0.0019004256615177241
3854.0,0.0019357436112326463
3853.0,0.001975623419061722
3852.0,0.0019885161694861457
3851.0,0.0019926497094247273
3850.0,0.0020041962177358794
3849.0,0.0020136808909820107
3848.0,0.002016793164952243
3847.0,0.002015477878897916
3846.0,0.002007692180144558
3845.0,0.0019911734131921347
3844.0,0.0019722501636142693
3843.0,0.0019625663449251156
3842.0,0.0019644872249692594
3841.0,0.0019671466109877664
3840.0,0.001960581655462945
3839.0,0.0019512516589747786
3838.0,0.001955157093969559
3837.0,0.0019737476496753275
3836.0,0.001993058957372964
3835.0,0.0020013886830680073
3834.0,0.0019950037682845206
3833.0,0.001978181213022917
3832.0,0.001960377961235863
3831.0,0.0019485473030921778
3830.0,0.0019436468046209153
3829.0,0.001942162640360831
3828.0,0.0019386545503484614
3827.0,0.0019306913221625336
3826.0,0.0019202430806370754
3825.0,0.0019087817489724323
3824.0,0.0018949741209518443
3823.0,0.001880124670807041
3822.0,0.0018794464276727868
3821.0,0.001907215185674911
3820.0,0.0019445477788688952
3819.0,0.001967964870354119
3818.0,0.001968979284029042
3817.0,0.001943465132485036
3816.0,0.0019048829361452716
3815.0,0.001877745018635535
3814.0,0.0018751321578014857
3813.0,0.0018951753491966553
3812.0,0.0019229884261617839
3811.0,0.0019419021403736794
3810.0,0.001943759009947209
3809.0,0.0019279887912595217
3808.0,0.0019032952351657833
3807.0,0.0018880713290579687
3806.0,0.0018927720567273303
3805.0,0.00190748740474942
3804.0,0.0019100592339531524
3803.0,0.001883909878100881
3802.0,0.0018497416062294822
3801.0,0.001848984703240054
3800.0,0.0018827591170253342
3799.0,0.001923877613061795
3798.0,0.001948733663915961
3797.0,0.0019477479975559485
3796.0,0.0019347989520228578
3795.0,0.001926634244820501
3794.0,0.001925367218912147
3793.0,0.0019248092982835003
3792.0,0.001920692016111952
3791.0,0.0019159389573616546
3790.0,0.0019162027971748622
3789.0,0.00192236140100945
3788.0,0.001930643070785088
3787.0,0.0019385180066981518
3786.0,0.0019463676793424227
3785.0,0.0019534395219965757
3784.0,0.001955390581436357
3783.0,0.0019484815099915674
3782.0,0.0019342761409812557
3781.0,0.0019196801714002742
3780.0,0.001913528121330024
3779.0,0.0019169769325018595
3778.0,0.0019210200272690519
3777.0,0.0019193968494377158
3776.0,0.0019132151451271909
3775.0,0.001905856377975669
3774.0,0.0019012427363015918
3773.0,0.001901597031348522
3772.0,0.0019074981882585187
3771.0,0.0019217673357105189
3770.0,0.0019490571786305367
3769.0,0.001986477940038105
3768.0,0.0020213243633965244
3767.0,0.0020399135472786217
3766.0,0.0020368898016903227
3765.0,0.0020214003243368825
3764.0,0.002007627346600966
3763.0,0.002000060558298197
3762.0,0.0019936901208582607
3761.0,0.00198373083084892
3760.0,0.0019714188854343707
3759.0,0.0019602680785447478
3758.0,0.001952992388155034
3757.0,0.001952355493371851
3756.0,0.001956950556582327
3755.0,0.0019589721950035
3754.0,0.0019494753101567484
3753.0,0.0019266922206413175
3752.0,0.0019037431369787095
3751.0,0.0019010459002341954
3750.0,0.0019218637911669958
3749.0,0.0019557136338716227
3748.0,0.001994431489462847
3747.0,0.00202647130479913
3746.0,0.002041732294545485
3745.0,0.002044557737086374
3744.0,0.0020431675502846627
3743.0,0.0020430942746866624
3742.0,0.0020519358818256285
3741.0,0.0020638392078840798
3740.0,0.0020637939711259574
3739.0,0.00204861647500175
3738.0,0.0020239280684484604
3737.0,0.001999352284218131
3736.0,0.0019908820026291805
3735.0,0.0020026944326695002
3734.0,0.0020125520133951985
3733.0,0.0020057578747588994
3732.0,0.0019962238342196258
3731.0,0.0020032979777123675
3730.0,0.0020320075276475517
3729.0,0.002069641690813863
3728.0,0.002096418180075302
3727.0,0.0021033148658181873
3726.0,0.0021008362910454634
3725.0,0.0021053890756110457
3724.0,0.0021177744819200132
3723.0,0.002123109691466305
3722.0,0.0021108845897209226
3721.0,0.002088909610513349
3720.0,0.00207483096929701
3719.0,0.0020777800638191184
3718.0,0.002093382133165465
3717.0,0.0021126324639620143
3716.0,0.0021313045900186152
3715.0,0.002152775599209755
3714.0,0.002187529361078979
3713.0,0.002250784027395595
3712.0,0.0023435063907606005
3711.0,0.002428825827774571
3710.0,0.002472944845881478
3709.0,0.0024920004345641497
3708.0,0.0025185765648516392
3707.0,0.002566401631285871
3706.0,0.0026310664224036915
3705.0,0.002702691551403697
3704.0,0.0027783885630371444
3703.0,0.002869154145492197
3702.0,0.0029869414407648247
3701.0,0.0031215167278704067
3700.0,0.003247452823079258
3699.0,0.003350105730471702
3698.0,0.0034275267784621005
3697.0,0.0034810945952539743
3696.0,0.003511825329476915
3695.0,0.0035204236173703544
3694.0,0.0035087662697864614
3693.0,0.003479957256171955
3692.0,0.0034384019143152127
3691.0,0.0033890622360742105
3690.0,0.0033342300692906224
3689.0,0.0032778625979595615
3688.0,0.003231771170540405
3687.0,0.003206257306724695
3686.0,0.00319642016811044
3685.0,0.0031861186636992613
3684.0,0.003165951867330142
3683.0,0.0031410573265131395
3682.0,0.0031229689340320456
3681.0,0.0031192870556622874
3680.0,0.0031283671012806765
3679.0,0.00313948588377172
3678.0,0.0031377512925780922
3677.0,0.0031141447030336514
3676.0,0.0030876073822143175
3675.0,0.003094547420360909
3674.0,0.0031438888300440683
3673.0,0.003221111025372472
3672.0,0.003302256762137192
3671.0,0.0033631980659773707
3670.0,0.003394463597380019
3669.0,0.0034011502612163076
3668.0,0.0034029459859766477
3667.0,0.003416483330428261
3666.0,0.0034394058335921645
3665.0,0.0034635472574954364
3664.0,0.0034858690545638117
3663.0,0.003506470220537644
3662.0,0.0035269987985765434
3661.0,0.0035494739389468274
3660.0,0.003573368630265832
3659.0,0.003596059106673646
3658.0,0.0036185494436211437
3657.0,0.0036499052227845444
3656.0,0.0036991219153025877
3655.0,0.0037632163828877525
3654.0,0.003830651838303537
3653.0,0.0038877688953831103
3652.0,0.003925589363954438
3651.0,0.003952518031158573
3650.0,0.003987961786042757
3649.0,0.004017645315730721
3648.0,0.004009718908917761
3647.0,0.003982058780217629
3646.0,0.0039699861304830575
3645.0,0.003981225647715912
3644.0,0.004005936295629029
3643.0,0.004030999514605564
3642.0,0.004047003451801556
3641.0,0.004052276522157923
3640.0,0.004054527124777917
3639.0,0.004065586102799685
3638.0,0.004090455245510317
3637.0,0.0041220801862165805
3636.0,0.004150007763150997
3635.0,0.004175404520342483
3634.0,0.004213525135102079
3633.0,0.0042757621442789445
3632.0,0.004353372185530369
3631.0,0.004423214878795437
3630.0,0.004467261949672402
3629.0,0.004494087151292314
3628.0,0.004528404851295141
3627.0,0.0045789439377413475
3626.0,0.004637166931294653
3625.0,0.004690561484808432
3624.0,0.00473706075514416
3623.0,0.004786234071404711
3622.0,0.004842891008896196
3621.0,0.004898787550090187
3620.0,0.004938894864967427
3619.0,0.004959044061740136
3618.0,0.004970962265973818
3617.0,0.004980991577495814
3616.0,0.0049780211152768835
3615.0,0.004949597915506942
3614.0,0.0049041917471727625
3613.0,0.004869185593519657
3612.0,0.004862708655181675
3611.0,0.004880764197236055
3610.0,0.004910258360817021
3609.0,0.004938568319237063
3608.0,0.004954073786691308
3607.0,0.004953346242705562
3606.0,0.004947764134707742
3605.0,0.004952356577963765
3604.0,0.004971795632798287
3603.0,0.004998019452748428
3602.0,0.005016630701892066
3601.0,0.00502088690258761
3600.0,0.005021054294808184
3599.0,0.005032787154380913
3598.0,0.0050585736997991095
3597.0,0.005087178273682814
3596.0,0.005110850572446123
3595.0,0.005137333379419693
3594.0,0.005178271056026992
3593.0,0.00522916922188013
3592.0,0.005272378287566515
3591.0,0.0052954569695279445
3590.0,0.0052996610287854495
3589.0,0.005297792443532809
3588.0,0.005307305289970684
3587.0,0.00533749801430536
3586.0,0.005382667425471091
3585.0,0.005428834635179648
3584.0,0.0054624063261169776
3583.0,0.005478398035926832
3582.0,0.005485857199262198
3581.0,0.005499591528924864
3580.0,0.005525396018543703
3579.0,0.005556423578834013
3578.0,0.005583682669056046
3577.0,0.005604538077603083
3576.0,0.0056207305310968765
3575.0,0.0056353785381342
3574.0,0.005653822607708525
3573.0,0.005681503495862976
3572.0,0.005718889577567687
3571.0,0.0057623787007294106
3570.0,0.005812567989882404
3569.0,0.005879290394552685
3568.0,0.005970366753195874
3567.0,0.006066011176159031
3566.0,0.006129208140303811
3565.0,0.006148458461173485
3564.0,0.00613678629124629
3563.0,0.006111585516200383
3562.0,0.0060937969845983935
3561.0,0.006103295320137512
3560.0,0.00614348934090035
3559.0,0.00619661338403246
3558.0,0.00624185162572287
3557.0,0.006274330439363608
3556.0,0.006303447744295561
3555.0,0.006338055235826095
3554.0,0.006376278923463152
3553.0,0.006409498235237595
3552.0,0.006435886807966862
3551.0,0.0064656565900292305
3550.0,0.006510093127771895
3549.0,0.006569139068876307
3548.0,0.00662918942870446
3547.0,0.006671986037136486
3546.0,0.006690956330131552
3545.0,0.006697906159096963
3544.0,0.006708895806439652
3543.0,0.006730070188835823
3542.0,0.006760334503228684
3541.0,0.006797325698307804
3540.0,0.006837213712061883
3539.0,0.00687459969264519
3538.0,0.006906454445251451
3537.0,0.006936610744555849
3536.0,0.006974296042988031
3535.0,0.007026663477680465
3534.0,0.007093666255074073
3533.0,0.007169221321181885
3532.0,0.007245018062939734
3531.0,0.007314207207346841
3530.0,0.007372854061073292
3529.0,0.007417669873210114
3528.0,0.0074446153407574135
3527.0,0.007453322639684082
3526.0,0.007451961231035257
3525.0,0.0074548892512851
3524.0,0.0074756611775160745
3523.0,0.007520362270192321
3522.0,0.007583806674496658
3521.0,0.007651561452455404
3520.0,0.007707924604833985
3519.0,0.007745741872892672
3518.0,0.007770850147856315
3517.0,0.007794449530571937
3516.0,0.007820437341029562
3515.0,0.007844297338235192
3514.0,0.00786353701426946
3513.0,0.007883952193475536
3512.0,0.007914585221752505
3511.0,0.007960554272611524
3510.0,0.008021418428101869
3509.0,0.008091752928174191
3508.0,0.008161573491637911
3507.0,0.008219804568172576
3506.0,0.00825937563840485
3505.0,0.008279328611647709
3504.0,0.00828446291779415
3503.0,0.00828494884561316
3502.0,0.008292907059291608
3501.0,0.008314016441918166
3500.0,0.008343229250968379
3499.0,0.008370987540659602
3498.0,0.008393435072700732
3497.0,0.008415581762503739
3496.0,0.008443732642803662
3495.0,0.008477107544422761
3494.0,0.008509640475728176
3493.0,0.00853801029301364
3492.0,0.008564858364601084
3491.0,0.008594867939292828
3490.0,0.008629513328753481
3489.0,0.008665762505836077
3488.0,0.008700096681364754
3487.0,0.008733703925844789
3486.0,0.008771208844126277
3485.0,0.008812874704705908
3484.0,0.008850506071975255
3483.0,0.008874326250792257
3482.0,0.008884342330397426
3481.0,0.008891564723005873
3480.0,0.008907124578470121
3479.0,0.008934316157110737
3478.0,0.008970587040929075
3477.0,0.009011021872285656
3476.0,0.009048672701648983
3475.0,0.009076952407380835
3474.0,0.009095278542841884
3473.0,0.009109761721745954
3472.0,0.009126886400104695
3471.0,0.009148417263628254
3470.0,0.009171487205157676
3469.0,0.009190704741137581
3468.0,0.009202090161891099
3467.0,0.009209209987231147
3466.0,0.009223560711893309
3465.0,0.009253680425353038
3464.0,0.00929466502023591
3463.0,0.009333989260419206
3462.0,0.00936824215806385
3461.0,0.009407212705301685
3460.0,0.00945847139208684
3459.0,0.009515017327992899
3458.0,0.009562508863414722
3457.0,0.0095938215065065
3456.0,0.009612942151246404
3455.0,0.009628557712502952
3454.0,0.009648283227565122
3453.0,0.009676423838430794
3452.0,0.009712074275262253
3451.0,0.00974920543686997
3450.0,0.009780995158155508
3449.0,0.009804823745061673
3448.0,0.009824045601305781
3447.0,0.009845467973666068
3446.0,0.009872853368589419
3445.0,0.009901856553882043
3444.0,0.009923707324848813
3443.0,0.009936048291380018
3442.0,0.009948838549371205
3441.0,0.00997424443644009
3440.0,0.01001063009882855
3439.0,0.010043750308981473
3438.0,0.010064513114656889
3437.0,0.01007908613525702
3436.0,0.010099563790341033
3435.0,0.01012994355675746
3434.0,0.01016486203437626
3433.0,0.01019786826734593
3432.0,0.010226419758644635
3431.0,0.010251625127086104
3430.0,0.01027707897968066
3429.0,0.010306015020117574
3428.0,0.010337334561428012
3427.0,0.0103671555803066
3426.0,0.010395856017208242
3425.0,0.010429261023250357
3424.0,0.010469827771329397
3423.0,0.010509753372387081
3422.0,0.010536463411265502
3421.0,0.010544167257745643
3420.0,0.010537625346584631
3419.0,0.010526985884728658
3418.0,0.01052295553778656
3417.0,0.010533320982497695
3416.0,0.01055738162751565
3415.0,0.010584403244925778
3414.0,0.010603479207408235
3413.0,0.010615946070297063
3412.0,0.010634060439120721
3411.0,0.01066745240412604
3410.0,0.010713927094039368
3409.0,0.010762682474428825
3408.0,0.01080312487086816
3407.0,0.010830775030882213
3406.0,0.010848611199048059
3405.0,0.010864288548101404
3404.0,0.010883627811694555
3403.0,0.010905355435591648
3402.0,0.010923671403369247
3401.0,0.010936321486689906
3400.0,0.010948227518149788
3399.0,0.01096703667385518
3398.0,0.010996769341929918
3397.0,0.011035106506058904
3396.0,0.01107431944183553
3395.0,0.011104453320557471
3394.0,0.011118311133854444
3393.0,0.011116653144861313
3392.0,0.011108931911158472
3391.0,0.011106758534437247
3390.0,0.011115812185104886
3389.0,0.011133849840855754
3388.0,0.011154783190097939
3387.0,0.011173651801228897
3386.0,0.011188579010211511
3385.0,0.011199561559802253
3384.0,0.011207156220421495
3383.0,0.011213399527244292
3382.0,0.011223006706721321
3381.0,0.011241738743132017
3380.0,0.011272449054631874
3379.0,0.011312107388895744
3378.0,0.011352167430193011
3377.0,0.011382386471297684
3376.0,0.011396917202998694
3375.0,0.011399059082611018
3374.0,0.011399185204091663
3373.0,0.011405742148393867
3372.0,0.011418568882838143
3371.0,0.011432320818197351
3370.0,0.011444530035850248
3369.0,0.01145702078463167
3368.0,0.011470413684408732
3367.0,0.01148228706699115
3366.0,0.011492142117924929
3365.0,0.011503535106362508
3364.0,0.011518502849418258
3363.0,0.011533033163719461
3362.0,0.011540799944964862
3361.0,0.011539758115583726
3360.0,0.011533586092359258
3359.0,0.011528595860899068
3358.0,0.011530658492166813
3357.0,0.01154244130436068
3356.0,0.011560760588743328
3355.0,0.011578145779567455
3354.0,0.011589317863711557
3353.0,0.011595135913371272
3352.0,0.011599421988614534
3351.0,0.011604165572291695
3350.0,0.011609222967128173
3349.0,0.011614261532321951
3348.0,0.011618813907485002
3347.0,0.011622607965411813
3346.0,0.011628396748502553
3345.0,0.011641889001909406
3344.0,0.0116645814337459
3343.0,0.011687735952619188
3342.0,0.011698581762595667
3341.0,0.011694491746755594
3340.0,0.01168807591610736
3339.0,0.011695291570295948
3338.0,0.01171884277188345
3337.0,0.011744782905826118
3336.0,0.011755911682641897
3335.0,0.011747742596405016
3334.0,0.011730761402263472
3333.0,0.01171905479627309
3332.0,0.01171906136786545
3331.0,0.011727823234549059
3330.0,0.01173822712777624
3329.0,0.01174454716182222
3328.0,0.011745413784115468
3327.0,0.011744154438027234
3326.0,0.011745965023287688
3325.0,0.011753243575395643
3324.0,0.011764037264135965
3323.0,0.011775582947054653
3322.0,0.011787329930673293
3321.0,0.011798695945930138
3320.0,0.011806360255056337
3319.0,0.01180782011266153
3318.0,0.01180721767630441
3317.0,0.011813591888743586
3316.0,0.011831875120143711
3315.0,0.011857493484620599
3314.0,0.011880222195044175
3313.0,0.011892062759549737
3312.0,0.011892331899806038
3311.0,0.011887705315875765
3310.0,0.011887333621078244
3309.0,0.01189499501457793
3308.0,0.011905308673494229
3307.0,0.011910159352400482
3306.0,0.011908744353530287
3305.0,0.011908244067182496
3304.0,0.011914626203554204
3303.0,0.011926143075396235
3302.0,0.011937082844110871
3301.0,0.011945133870766811
3300.0,0.011952859275417714
3299.0,0.011963369487340718
3298.0,0.01197615034457332
3297.0,0.011986636334145116
3296.0,0.011989650587767771
3295.0,0.011983971028288264
3294.0,0.01197333472242334
3293.0,0.01196266731831305
3292.0,0.011955069366800856
3291.0,0.011953687578983426
3290.0,0.011962702269023434
3289.0,0.01198136074078819
3288.0,0.0119987351605771
3287.0,0.012000690076017237
3286.0,0.011983205732815942
3285.0,0.01195460031435893
3284.0,0.011924522532007622
3283.0,0.01189613474170725
3282.0,0.011870167564433511
3281.0,0.011849967106954722
3280.0,0.011838146414965438
3279.0,0.01183219766757446
3278.0,0.011827092278827186
3277.0,0.011819134200690603
3276.0,0.011804751646785787
3275.0,0.01178045598193515
3274.0,0.011749119374097734
3273.0,0.011722542076206129
3272.0,0.011711166988067956
3271.0,0.011711687509676228
3270.0,0.011708685620620092
3269.0,0.011688212240108168
3268.0,0.011648334075076075
3267.0,0.011599030532513191
3266.0,0.011554917005674587
3265.0,0.011526041133834455
3264.0,0.011511495536861878
3263.0,0.011501428044924947
3262.0,0.011486728294244776
3261.0,0.011465853733189363
3260.0,0.011441570139048288
3259.0,0.01141457174828444
3258.0,0.011383937418697617
3257.0,0.0113515750166733
3256.0,0.011321383258187134
3255.0,0.011294121983512248
3254.0,0.0112667184678917
3253.0,0.011236718725421842
3252.0,0.011204060311157117
3251.0,0.011168551824257415
3250.0,0.011129736475471122
3249.0,0.011090774711403833
3248.0,0.011059483681133275
3247.0,0.01104268335634635
3246.0,0.01103939881143492
3245.0,0.011040370218277579
3244.0,0.011034520058206434
3243.0,0.011016006795061243
3242.0,0.01098593192389932
3241.0,0.010949508626866413
3240.0,0.010913001743290296
3239.0,0.010881847108745573
3238.0,0.010858290220928879
3237.0,0.010838682987523877
3236.0,0.010815017237660497
3235.0,0.010783282611663754
3234.0,0.010750663243347235
3233.0,0.010730005649827932
3232.0,0.010724286076946076
3231.0,0.010719574252740654
3230.0,0.010697679447049701
3229.0,0.010655094303276486
3228.0,0.010606298012882296
3227.0,0.010568817285342827
3226.0,0.010548143265465753
3225.0,0.010537119103754104
3224.0,0.010525454292399322
3223.0,0.010506795426409648
3222.0,0.010479226768095503
3221.0,0.010443778727747127
3220.0,0.01040425627106718
3219.0,0.010366354532482143
3218.0,0.0103343144430193
3217.0,0.010308454830570645
3216.0,0.01028714256918934
3215.0,0.010270640037717847
3214.0,0.010261027882612829
3213.0,0.010257811269221404
3212.0,0.010255596671642532
3211.0,0.010247358967260771
3210.0,0.010228865863484586
3209.0,0.010199609400569768
3208.0,0.010161707956267559
3207.0,0.010119580763806667
3206.0,0.010078724195471012
3205.0,0.010042048659692491
3204.0,0.010008338336644365
3203.0,0.009976655378717834
3202.0,0.009950508850791843
3201.0,0.009933650198168074
3200.0,0.009922159578667112
3199.0,0.009904858015650738
3198.0,0.009873224419118849
3197.0,0.00982918147468569
3196.0,0.009782865401342511
3195.0,0.009745218012314033
3194.0,0.009722137025270663
3193.0,0.009711017185173407
3192.0,0.009701037954173874
3191.0,0.009680138166715051
3190.0,0.009644287740721362
3189.0,0.009599115640781024
3188.0,0.009553069355012699
3187.0,0.009511897703362648
3186.0,0.009478985545019981
3185.0,0.009455590214257754
3184.0,0.00943830583726806
3183.0,0.009420048016173408
3182.0,0.00939633974795756
3181.0,0.009368565976709035
3180.0,0.00934002032855049
3179.0,0.009311623296048063
3178.0,0.00928271403700113
3177.0,0.009252883124264259
3176.0,0.009220993795303995
3175.0,0.009185194532183593
3174.0,0.009146393929828772
3173.0,0.00910954729815027
3172.0,0.00907880841069799
3171.0,0.009052755396233127
3170.0,0.009026638608023213
3169.0,0.008998258633341543
3168.0,0.00896984319944635
3167.0,0.008944971247265072
3166.0,0.008924622324552023
3165.0,0.008905040167256028
3164.0,0.00887903729298871
3163.0,0.008841442395146934
3162.0,0.008794440285265806
3161.0,0.008746157099263695
3160.0,0.008703515896988544
3159.0,0.008668283569555032
3158.0,0.008639722718356535
3157.0,0.008617004655431457
3156.0,0.008597211512504182
3155.0,0.008574608347333772
3154.0,0.008545156412653954
3153.0,0.00851038355761618
3152.0,0.008475025778274317
3151.0,0.008442225970088498
3150.0,0.008412435958458501
3149.0,0.008385396889888925
3148.0,0.008361096385434648
3147.0,0.008339348596581524
3146.0,0.008319159605310862
3145.0,0.008297382740690909
3144.0,0.008268479996461988
3143.0,0.008228792957680106
3142.0,0.008182120058458454
3141.0,0.008138518719130891
3140.0,0.00810606779181494
3139.0,0.008085329350636201
3138.0,0.008072374438515533
3137.0,0.008063881418435115
3136.0,0.008057345261330074
3135.0,0.008049314317388048
3134.0,0.008036196813111967
3133.0,0.008016120375591587
3132.0,0.007989496825939394
3131.0,0.007959470639741256
3130.0,0.0079317767281502
3129.0,0.007910307462220302
3128.0,0.007890820927214683
3127.0,0.007863360134642087
3126.0,0.007824493069795525
3125.0,0.00778358974972105
3124.0,0.007752874188545356
3123.0,0.007733077863578524
3122.0,0.007713508455111515
3121.0,0.007686038329734874
3120.0,0.00765426254536376
3119.0,0.0076283700318777355
3118.0,0.007614544500292321
3117.0,0.007610048812370323
3116.0,0.007606461035272861
3115.0,0.007596716129737498
3114.0,0.007580138090074526
3113.0,0.007561446677225869
3112.0,0.007544692755963655
3111.0,0.007528689389968127
3110.0,0.007508776171264378
3109.0,0.007482151710526096
3108.0,0.00745055665742406
3107.0,0.007418430314137105
3106.0,0.007390164579398301
3105.0,0.007368779839312729
3104.0,0.007354679115651939
3103.0,0.007344364462814838
3102.0,0.007331847625180531
3101.0,0.00731391491942705
3100.0,0.007294892073410695
3099.0,0.007283798116923604
3098.0,0.007284343442385575
3097.0,0.007288544320084607
3096.0,0.0072824324140781625
3095.0,0.007259397017496276
3094.0,0.0072260838637272
3093.0,0.007193715066274269
3092.0,0.00716731199455573
3091.0,0.007145585379136586
3090.0,0.0071272014494047214
3089.0,0.007112987359205757
3088.0,0.0071030411664999606
3087.0,0.007095370212116498
3086.0,0.007087486564967053
3085.0,0.007076696259520237
3084.0,0.0070600541312088524
3083.0,0.00703735028197148
3082.0,0.0070136412222824625
3081.0,0.006995267860889562
3080.0,0.006983505477669884
3079.0,0.006975739252865366
3078.0,0.0069713569588360485
3077.0,0.0069714996323020605
3076.0,0.006972930855209274
3075.0,0.006967388038672303
3074.0,0.006949170673767992
3073.0,0.0069198995432354585
3072.0,0.006885605687752091
3071.0,0.0068531287848834
3070.0,0.006829633733273114
3069.0,0.006819546936516516
3068.0,0.006818257790560854
3067.0,0.006813268855400014
3066.0,0.006795829671442237
3065.0,0.00676945786862437
3064.0,0.006743499729357352
3063.0,0.006721732592991671
3062.0,0.006702067463589955
3061.0,0.0066839525963895636
3060.0,0.006670190295739945
3059.0,0.006660692126907328
3058.0,0.006648766800719819
3057.0,0.006626794337886616
3056.0,0.0065943018639800285
3055.0,0.00655872716986799
3054.0,0.006527761508913047
3053.0,0.006502442107911281
3052.0,0.006478950160868565
3051.0,0.00645539951409198
3050.0,0.006434566430222073
3049.0,0.006419096186635374
3048.0,0.006406724572605657
3047.0,0.006393017665927855
3046.0,0.006376429084806489
3045.0,0.006357761502055027
3044.0,0.006336720314636226
3043.0,0.0063132905708699885
3042.0,0.006291528005829115
3041.0,0.006277412880899987
3040.0,0.006272199906409712
3039.0,0.006270874494555696
3038.0,0.00626728643319229
3037.0,0.006257747665237502
3036.0,0.006240646669216692
3035.0,0.0062170875046037586
3034.0,0.00619208944323668
3033.0,0.006170722541119135
3032.0,0.006152595664636189
3031.0,0.006134474124789231
3030.0,0.006118920094405879
3029.0,0.006114042661021487
3028.0,0.006123084599341604
3027.0,0.006139320212524555
3026.0,0.006153324149470854
3025.0,0.006162119568677932
3024.0,0.0061689370805508405
3023.0,0.006178064182326454
3022.0,0.006192759537354881
3021.0,0.006214677083717185
3020.0,0.006242181645149167
3019.0,0.006271352914139026
3018.0,0.00630103745997543
3017.0,0.006334717553327744
3016.0,0.00637587206033934
3015.0,0.006424888580717369
3014.0,0.006482005692324196
3013.0,0.006549077454554475
3012.0,0.006625610506294157
3011.0,0.006706905891484347
3010.0,0.006789343115023692
3009.0,0.006874160517527995
3008.0,0.006963023495366776
3007.0,0.0070535638564814835
3006.0,0.007142948484871313
3005.0,0.007233086129421822
3004.0,0.007328020271863496
3003.0,0.007427511949907456
3002.0,0.007526690759559257
3001.0,0.007620362911387358
3000.0,0.007704403306816203
2999.0,0.007774757355728386
2998.0,0.007829464985205536
2997.0,0.007870908251328296
2996.0,0.007901768985471765
2995.0,0.007918501693421544
2994.0,0.0079117467575957
2993.0,0.007873652047555578
2992.0,0.0078022758479261295
2991.0,0.007699027134250237
2990.0,0.007567003739963198
2989.0,0.007414737580572553
2988.0,0.007258485491983704
2987.0,0.007116162587565025
2986.0,0.006996598452957794
2985.0,0.006896229152978108
2984.0,0.006806733509970225
2983.0,0.006724877724319236
2982.0,0.006654754146604836
2981.0,0.006601168896496395
2980.0,0.00656316830432506
2979.0,0.006534332174151498
2978.0,0.006508612956426563
2977.0,0.006485247883458196
2976.0,0.006468919015457043
2975.0,0.006465359416972455
2974.0,0.006475382213488251
2973.0,0.006492996132374918
2972.0,0.006511278725371862
2971.0,0.006530921112289967
2970.0,0.0065597030559925735
2969.0,0.00660172873542134
2968.0,0.006649725566114962
2967.0,0.00669142500902091
2966.0,0.006721538658117392
2965.0,0.0067443769283793585
2964.0,0.0067668401883882795
2963.0,0.006793465163171508
2962.0,0.006826836546136944
2961.0,0.006867069874234421
2960.0,0.006910269738087407
2959.0,0.006951761140908385
2958.0,0.006992057897370802
2957.0,0.007035977178564107
2956.0,0.007085682113718303
2955.0,0.007138643273440793
2954.0,0.007193346205703201
2953.0,0.007252608447137699
2952.0,0.007319313856866079
2951.0,0.007392105497824262
2950.0,0.007467454133791778
2949.0,0.0075431530357024865
2948.0,0.007617085565367108
2947.0,0.007683401380621568
2946.0,0.007731362197092478
2945.0,0.007749103289173494
2944.0,0.007730175350921709
2943.0,0.007678422125815968
2942.0,0.0076055408240029345
2941.0,0.0075217401618831
2940.0,0.007430558696706505
2939.0,0.0073341098309260815
2938.0,0.007239878382328608
2937.0,0.007156907116873083
2936.0,0.007087080775207335
2935.0,0.0070260224882796405
2934.0,0.006971734854372755
2933.0,0.006927140225045409
2932.0,0.0068940343252960785
2931.0,0.00687115528734333
2930.0,0.0068581084689010394
2929.0,0.006854520339012682
2928.0,0.006854467984238431
2927.0,0.00684828792809541
2926.0,0.006832447242532627
2925.0,0.006811060979285461
2924.0,0.006785841887995822
2923.0,0.006750864763363183
2922.0,0.006700257190075415
2921.0,0.006635574259852947
2920.0,0.006561898648463243
2919.0,0.006482317798976655
2918.0,0.0063993353614870754
2917.0,0.006317489467716853
2916.0,0.0062409300223420575
2915.0,0.0061706660643268026
2914.0,0.00610596276299605
2913.0,0.006045649363046762
2912.0,0.005987566005157728
2911.0,0.005930191179902176
2910.0,0.005875609034763498
2909.0,0.005827722936221652
2908.0,0.005787074067148613
2907.0,0.005750299942093401
2906.0,0.005715124925065311
2905.0,0.005682184617392295
2904.0,0.005651703500473922
2903.0,0.005622174815502395
2902.0,0.005592928801307721
2901.0,0.005564703248567124
2900.0,0.0055371029544941455
2899.0,0.005508600754046522
2898.0,0.00547925215416576
2897.0,0.005450107711504358
2896.0,0.00542040162768987
2895.0,0.005389668285040058
2894.0,0.005361766400332694
2893.0,0.005341771637594975
2892.0,0.005328995646368968
2891.0,0.005318060653529602
2890.0,0.005307611311168479
2889.0,0.0053019870585178114
2888.0,0.0053033267554167774
2887.0,0.005307720813009831
2886.0,0.005310658787193621
2885.0,0.005311225212242715
2884.0,0.005308871912120848
2883.0,0.005301474948609021
2882.0,0.005289470284886034
2881.0,0.005277010352446243
2880.0,0.005265869029850464
2879.0,0.005252593444092092
2878.0,0.005234150115927405
2877.0,0.005212156825272154
2876.0,0.005188543177617585
2875.0,0.005161008855384473
2874.0,0.005126800821886903
2873.0,0.00508774120795261
2872.0,0.005047506190711567
2871.0,0.005006329603413546
2870.0,0.004961491910746062
2869.0,0.004911764126501047
2868.0,0.004859700504296557
2867.0,0.00481156227166459
2866.0,0.0047760711943550865
2865.0,0.0047589763941705025
2864.0,0.004756676787149208
2863.0,0.004758254144220415
2862.0,0.004756556565176668
2861.0,0.004754651869887262
2860.0,0.00475934459513835
2859.0,0.004772476881644644
2858.0,0.004790603782383487
2857.0,0.00480929479661239
2856.0,0.004824713617490231
2855.0,0.004833821376021252
2854.0,0.0048357193635396485
2853.0,0.0048304271347461075
2852.0,0.004815304939855723
2851.0,0.0047861419591066
2850.0,0.0047431657123915725
2849.0,0.004691999419418838
2848.0,0.004636777755052195
2847.0,0.004577191613817781
2846.0,0.004514582398263017
2845.0,0.00445570323501917
2844.0,0.004406644207717122
2843.0,0.004366370768204413
2842.0,0.004329266769428438
2841.0,0.0042918389463366974
2840.0,0.0042546241723817576
2839.0,0.004219694115453868
2838.0,0.004188922446915632
2837.0,0.004162653754808318
2836.0,0.004138062413239364
2835.0,0.004110728001066968
2834.0,0.0040795952423082265
2833.0,0.00404888559195809
2832.0,0.004023575394065464
2831.0,0.004004783157250589
2830.0,0.003990544798959662
2829.0,0.003978690864101796
2828.0,0.0039677518740576685
2827.0,0.003956950405632155
2826.0,0.00394631649531729
2825.0,0.003935023799730241
2824.0,0.003919649978249172
2823.0,0.003897241369440297
2822.0,0.003870702608715062
2821.0,0.003847234183402974
2820.0,0.003829925282154677
2819.0,0.0038144628807031235
2818.0,0.0037958612111758236
2817.0,0.0037750211505791246
2816.0,0.0037562298365694654
2815.0,0.003741231201246976
2814.0,0.0037287916107681266
2813.0,0.00371777650278882
2812.0,0.003707410323548338
2811.0,0.00369579807926173
2810.0,0.0036808331112525745
2809.0,0.00366252378372976
2808.0,0.003643316364706998
2807.0,0.003626138145836861
2806.0,0.003612042145909466
2805.0,0.0035987644724444342
2804.0,0.0035822086547579544
2803.0,0.0035614062258242313
2802.0,0.0035411831215325694
2801.0,0.003527408405867248
2800.0,0.0035207288608875894
2799.0,0.003517523152400885
2798.0,0.0035154341829497764
2797.0,0.003513596425944645
2796.0,0.0035080844731072798
2795.0,0.0034935420836551
2794.0,0.0034712776597053156
2793.0,0.003450867299121878
2792.0,0.0034408761013120827
2791.0,0.0034405582940722967
2790.0,0.0034424949837579422
2789.0,0.003440471692737728
2788.0,0.003432505212888284
2787.0,0.0034196876838749543
2786.0,0.0034048088368460972
2785.0,0.0033902134326227653
2784.0,0.0033757352191697773
2783.0,0.0033601798949104682
2782.0,0.003344940091401599
2781.0,0.0033330816501070115
2780.0,0.0033242960886459474
2779.0,0.0033145754209373216
2778.0,0.0033023017665796033
2777.0,0.0032912517077856524
2776.0,0.0032854639032386364
2775.0,0.0032839112530026653
2774.0,0.003282514711547036
2773.0,0.00327905029922852
2772.0,0.003273977396769311
2771.0,0.003268211613071761
2770.0,0.003262029015100445
2769.0,0.0032551917202102085
2768.0,0.0032472293218307764
2767.0,0.003238422450327498
2766.0,0.0032301827456012785
2765.0,0.0032229604283033524
2764.0,0.003214856820271497
2763.0,0.003204960543892392
2762.0,0.0031970724417080716
2761.0,0.0031961992740266246
2760.0,0.0032013918020416957
2759.0,0.0032057984296554607
2758.0,0.003204022275391759
2757.0,0.0031962462736499185
2756.0,0.003185221390965807
2755.0,0.0031735205949624404
2754.0,0.003164292867277127
2753.0,0.0031599966910390445
2752.0,0.0031587947409814554
2751.0,0.003155826147683332
2750.0,0.00314928155124454
2749.0,0.003142070367774497
2748.0,0.0031366921158746397
2747.0,0.003132303292437546
2746.0,0.003127806155032286
2745.0,0.0031238527812801047
2744.0,0.0031204685126033998
2743.0,0.0031162076033665297
2742.0,0.003111037348612707
2741.0,0.0031067995231246555
2740.0,0.0031037633173017494
2739.0,0.0031001406339312668
2738.0,0.0030958593971198646
2737.0,0.0030930568155063164
2736.0,0.0030917010286314224
2735.0,0.0030885509700541796
2734.0,0.0030820011282120348
2733.0,0.003074206285126639
2732.0,0.003066892669846488
2731.0,0.00305876671380757
2730.0,0.0030486448801212143
2729.0,0.0030377769957533785
2728.0,0.0030274519073001135
2727.0,0.0030174610024991167
2726.0,0.003008342202799232
2725.0,0.0030018391019075914
2724.0,0.0029976424779793415
2723.0,0.002992792875552919
2722.0,0.0029857420077217213
2721.0,0.0029779621743053195
2720.0,0.002970580094372946
2719.0,0.0029628993505816897
2718.0,0.0029552171085683553
2717.0,0.0029494762368408724
2716.0,0.002945817375780395
2715.0,0.002941956688778017
2714.0,0.0029373191181488742
2713.0,0.002934310976695104
2712.0,0.0029340964935126103
2711.0,0.0029344284828098717
2710.0,0.002932870435890893
2709.0,0.0029287188580992335
2708.0,0.0029209588026289667
2707.0,0.0029084122362327933
2706.0,0.0028934224319385137
2705.0,0.0028814876535144195
2704.0,0.0028751626074233288
2703.0,0.0028716947488109028
2702.0,0.0028679436705391667
2701.0,0.002864096520889872
2700.0,0.0028612133792236204
2699.0,0.0028589872422103385
2698.0,0.002857586270707581
2697.0,0.0028579746050928865
2696.0,0.0028587172477789005
2695.0,0.002856299813701815
2694.0,0.0028505423877304495
2693.0,0.0028457077108622222
2692.0,0.0028440969069328022
2691.0,0.002842220601386338
2690.0,0.0028360854887621045
2689.0,0.002827210437711658
2688.0,0.002820767207020481
2687.0,0.0028199544000204655
2686.0,0.00282404831876416
2685.0,0.002829525499671052
2684.0,0.0028315944722717337
2683.0,0.0028272876907084283
2682.0,0.0028186580440955973
2681.0,0.0028108794278033956
2680.0,0.0028063296088676457
2679.0,0.0028031391304682643
2678.0,0.0027996609559022296
2677.0,0.0027966259122762216
2676.0,0.002794055330014712
2675.0,0.0027900595494826904
2674.0,0.0027842877337782186
2673.0,0.0027790558161894852
2672.0,0.002775660085210404
2671.0,0.002773007611050468
2670.0,0.002771172660233019
2669.0,0.002772509403564645
2668.0,0.0027774874698240646
2667.0,0.002783235204243784
2666.0,0.0027880371015901596
2665.0,0.0027937103202567465
2664.0,0.0028014097027988785
2663.0,0.0028086705482366207
2662.0,0.0028131763921278616
2661.0,0.002816523287965189
2660.0,0.002821445298484489
2659.0,0.002827377103741225
2658.0,0.002831143954956754
2657.0,0.002830789809371967
2656.0,0.0028276342674732123
2655.0,0.0028259066347162696
2654.0,0.002830484239179796
2653.0,0.0028424400590999184
2652.0,0.002856606004442749
2651.0,0.0028664750397545827
2650.0,0.0028713261805572627
2649.0,0.0028751700339616467
2648.0,0.002878954632335678
2647.0,0.0028787111502717737
2646.0,0.0028723267630370313
2645.0,0.002863490390780053
2644.0,0.002857309257639107
2643.0,0.0028558284125354866
2642.0,0.0028588315888609895
2641.0,0.0028644517715964058
2640.0,0.00286784770440193
2639.0,0.0028642858422451723
2638.0,0.002855735311042531
2637.0,0.0028499721626432167
2636.0,0.002851282771395394
2635.0,0.0028558436251742074
2634.0,0.0028577619119959747
2633.0,0.002855191173270652
2632.0,0.002849232064795498
2631.0,0.0028420337467129292
2630.0,0.002837917880461879
2629.0,0.00284150719455533
2628.0,0.00285198095060955
2627.0,0.002863034029918432
2626.0,0.0028698168332114476
2625.0,0.00287165077100808
2624.0,0.0028676742360196927
2623.0,0.0028560857506834615
2622.0,0.0028396083059340524
2621.0,0.0028256559221004848
2620.0,0.002818171131548709
2619.0,0.002814431340030782
2618.0,0.0028116183561405312
2617.0,0.0028101430606727973
2616.0,0.0028081558536110734
2615.0,0.0027999942350292015
2614.0,0.002784671316411037
2613.0,0.0027706463983864843
2612.0,0.0027671088827515584
2611.0,0.0027737532603993673
2610.0,0.002782128429080948
2609.0,0.0027836815895313886
2608.0,0.0027753335604925305
2607.0,0.002761447106966719
2606.0,0.0027518512005885393
2605.0,0.0027533681110954427
2604.0,0.0027617394360469724
2603.0,0.0027668273233203713
2602.0,0.002765832277665975
2601.0,0.002764971886775946
2600.0,0.002767898201320315
2599.0,0.002770554313184277
2598.0,0.0027693822446798045
2597.0,0.002766394409043703
2596.0,0.002762999970777259
2595.0,0.0027565325608495984
2594.0,0.002746936653070773
2593.0,0.0027402460048489385
2592.0,0.00274150120378985
2591.0,0.002749353411577923
2590.0,0.0027598188732616785
2589.0,0.0027692747631790087
2588.0,0.0027722166313723113
2587.0,0.0027639716241014563
2586.0,0.0027483896183833445
2585.0,0.0027355668635910125
2584.0,0.002729632626214376
2583.0,0.0027259904020586756
2582.0,0.0027219664389721903
2581.0,0.002720875660511829
2580.0,0.0027226019001887407
2579.0,0.0027204145854522483
2578.0,0.0027118545827490756
2577.0,0.0027036770119195793
2576.0,0.002700686107420979
2575.0,0.0026983378865534703
2574.0,0.0026924221969668147
2573.0,0.0026880189170939957
2572.0,0.0026917967532149984
2571.0,0.002701410487333775
2570.0,0.0027084923741491195
2569.0,0.0027073287989811874
2568.0,0.0026968009870563417
2567.0,0.002680045092528728
2566.0,0.0026658718565993203
2565.0,0.00266341796850602
2564.0,0.0026709790962409913
2563.0,0.002676503106977985
2562.0,0.0026725162131464764
2561.0,0.0026634745282564246
2560.0,0.0026553607339517616
2559.0,0.002647091965247497
2558.0,0.0026375810084866055
2557.0,0.0026324309922027556
2556.0,0.0026362830403148588
2555.0,0.002644630919361686
2554.0,0.0026495126191013727
2553.0,0.002648279834022964
2552.0,0.0026418836200824535
2551.0,0.002630465199146331
2550.0,0.002615887381245115
2549.0,0.0026034611729971327
2548.0,0.0025966930525397774
2547.0,0.002594903316377657
2546.0,0.0025985213429729815
2545.0,0.0026100911981684263
2544.0,0.0026268511961168002
2543.0,0.002639465969426555
2542.0,0.002642062186279426
2541.0,0.002637239090809407
2540.0,0.0026283066071831366
2539.0,0.002614723662471248
2538.0,0.002599293227978922
2537.0,0.0025912311802086304
2536.0,0.0025958251692885666
2535.0,0.00260671488316992
2534.0,0.0026132224903965763
2533.0,0.0026103766052593047
2532.0,0.0025989514224119977
2531.0,0.0025823862759001017
2530.0,0.0025670615418997207
2529.0,0.0025587019897398084
2528.0,0.0025549644878759717
2527.0,0.0025480046872172046
2526.0,0.0025367023865314506
2525.0,0.0025286271869566375
2524.0,0.002527813825091766
2523.0,0.002530136642687642
2522.0,0.0025340110698316423
2521.0,0.002545052096464126
2520.0,0.0025647533589342403
2519.0,0.0025842528721039073
2518.0,0.0025959542406452066
2517.0,0.002602989647796446
2516.0,0.002610157994263672
2515.0,0.0026131497741010245
2514.0,0.002604682537923415
2513.0,0.002585734374114294
2512.0,0.0025638441294069665
2511.0,0.002544548371624404
2510.0,0.002529613128205305
2509.0,0.0025194292208027625
2508.0,0.0025129303741691224
2507.0,0.002508818201787712
2506.0,0.0025085860518498405
2505.0,0.0025129866671160296
2504.0,0.0025152685817496443
2503.0,0.0025065263369925856
2502.0,0.002489624353711317
2501.0,0.002478282226705324
2500.0,0.0024791809769149284
2499.0,0.002484697840664074
2498.0,0.002487057437195819
2497.0,0.002488762388147924
2496.0,0.0024931395293941736
2495.0,0.0024951756303426284
2494.0,0.0024901267545258767
2493.0,0.0024831159861123542
2492.0,0.00248154138838502
2491.0,0.0024840612295168284
2490.0,0.0024847883655549382
2489.0,0.002482955887505921
2488.0,0.0024813565472719796
2487.0,0.002480128781725664
2486.0,0.0024786880916010086
2485.0,0.0024794041729235524
2484.0,0.002483219601423396
2483.0,0.0024853762243407795
2482.0,0.002480862174159624
2481.0,0.002471044178563989
2480.0,0.002460869395228175
2479.0,0.0024526790385910975
2478.0,0.002445869881489912
2477.0,0.002439155498102168
2476.0,0.0024308326219488704
2475.0,0.0024206673102112955
2474.0,0.0024128165730129083
2473.0,0.0024119926060098065
2472.0,0.0024158375929717157
2471.0,0.0024170067055374342
2470.0,0.00241366091196652
2469.0,0.002411186250314269
2468.0,0.002412395022212182
2467.0,0.0024132213840884482
2466.0,0.0024096071378460187
2465.0,0.0024015514942626946
2464.0,0.002389467069889766
2463.0,0.002374553994480751
2462.0,0.002363641131114621
2461.0,0.002364215924570434
2460.0,0.0023725209757131695
2459.0,0.0023761726453502582
2458.0,0.002371360137996723
2457.0,0.0023677868414459604
2456.0,0.0023733101967742237
2455.0,0.0023837569135848322
2454.0,0.002392597185932819
2453.0,0.0024009535369467687
2452.0,0.0024117394056580844
2451.0,0.002421685942143172
2450.0,0.0024256290283201183
2449.0,0.002423290602072823
2448.0,0.002417667960008123
2447.0,0.0024121202398642828
2446.0,0.0024112389365061404
2445.0,0.002417459457343129
2444.0,0.002424558185458929
2443.0,0.00242233012383141
2442.0,0.0024100452974699987
2441.0,0.002397294038212387
2440.0,0.0023898265387459383
2439.0,0.00238389866748798
2438.0,0.002376775858527398
2437.0,0.002372177895923878
2436.0,0.0023714695928803743
2435.0,0.0023696321618892806
2434.0,0.002364592941332694
2433.0,0.002361255119975961
2432.0,0.002361941835858485
2431.0,0.002362226275972578
2430.0,0.0023606641098287678
2429.0,0.0023629668350019445
2428.0,0.0023715395890205808
2427.0,0.002380278740713999
2426.0,0.0023849674190308283
2425.0,0.002389668047359089
2424.0,0.0023972813097823155
2423.0,0.0024025236738240687
2422.0,0.0024001863211940526
2421.0,0.0023924380297628695
2420.0,0.0023827406673771513
2419.0,0.0023706344429023137
2418.0,0.0023577237136419367
2417.0,0.002350809758362292
2416.0,0.002353604486591751
2415.0,0.002361888712303739
2414.0,0.002370587513446633
2413.0,0.0023782625032220694
2412.0,0.0023817560391098105
2411.0,0.002375713033477696
2410.0,0.0023619957830606116
2409.0,0.002350740767396444
2408.0,0.0023467081685058532
2407.0,0.002342787721162341
2406.0,0.002332075185033539
2405.0,0.0023177378217765074
2404.0,0.0023057525510663196
2403.0,0.002296672863975544
2402.0,0.002290169091069151
2401.0,0.002289480734835387
2400.0,0.002295080785816159
2399.0,0.0023005807884687295
2398.0,0.0023005357843212566
2397.0,0.002296558932836681
2396.0,0.0022915309594817622
2395.0,0.0022843495098172394
2394.0,0.002274734891949465
2393.0,0.002266541787400147
2392.0,0.002262159269368823
2391.0,0.002259689403730017
2390.0,0.0022585098002603993
2389.0,0.0022608335544362233
2388.0,0.0022649280588247153
2387.0,0.00226436688185891
2386.0,0.002257476982540487
2385.0,0.002250213036095605
2384.0,0.002246568021439145
2383.0,0.0022441935074780724
2382.0,0.0022432548549629235
2381.0,0.002250317287833947
2380.0,0.0022662332641914533
2379.0,0.00227796268009208
2378.0,0.0022720821648678823
2377.0,0.002249658159547563
2376.0,0.002218423852381195
2375.0,0.002179951722288437
2374.0,0.0021374641344566185
2373.0,0.0021064592225657967
2372.0,0.0020999738688436027
2371.0,0.0021118138106909026
2370.0,0.002132981570171489
2369.0,0.0021713247699092476
2368.0,0.0022297016948648945
2367.0,0.002280340724667795
2366.0,0.0022914365812482097
2365.0,0.002267332516081418
2364.0,0.0022335838150570574
2363.0,0.002200617247104079
2362.0,0.0021728149292324726
2361.0,0.002169125796728786
2360.0,0.0022003010442026016
2359.0,0.002246960841200037
2358.0,0.0022871245426054217
2357.0,0.002314810071993861
2356.0,0.002318072062510986
2355.0,0.002280546265007021
2354.0,0.002214333082268922
2353.0,0.002159617974997363
2352.0,0.0021430298903951394
2351.0,0.0021617596000413136
2350.0,0.0022021258704794737
2349.0,0.002249324594422394
2348.0,0.0022879143035165693
2347.0,0.002305324614579659
2346.0,0.0023036706676136196
2345.0,0.0023038371120756894
2344.0,0.0023223979903174478
2343.0,0.0023478019618319904
2342.0,0.002355450131115357
2341.0,0.002343688244265281
2340.0,0.0023292492593766914
2339.0,0.00232295357830472
2338.0,0.002328225246340549
2337.0,0.0023472092057252206
2336.0,0.002373602847287517
2335.0,0.002390213617909252
2334.0,0.0023879314934761374
2333.0,0.0023736460638040524
2332.0,0.002355474956478525
2331.0,0.0023314180865120406
2330.0,0.002306430887005192
2329.0,0.0022999257168997743
2328.0,0.002329525396031845
2327.0,0.0023906167297655643
2326.0,0.002463966017095977
2325.0,0.0025245134281554546
2324.0,0.002546060440721987
2323.0,0.002517035979045307
2322.0,0.002459522278212239
2321.0,0.002415597252875875
2320.0,0.0024031342975882196
2319.0,0.0024050845476097414
2318.0,0.002403326513809711
2317.0,0.002399882426042528
2316.0,0.002401477226937196
2315.0,0.00240316736556196
2314.0,0.0024004441643699246
2313.0,0.0023995630022091686
2312.0,0.0024083007058127368
2311.0,0.0024210849855553222
2310.0,0.0024264892542139927
2309.0,0.0024183164082106985
2308.0,0.002398436492679456
2307.0,0.0023742153454037987
2306.0,0.002359033008255374
2305.0,0.0023613677268263253
2304.0,0.002373108153063895
2303.0,0.002376829931784027
2302.0,0.002369305603131423
2301.0,0.0023652704190305902
2300.0,0.002376029763456039
2299.0,0.002394897298754822
2298.0,0.0024097559700770803
2297.0,0.0024167336468461534
2296.0,0.002417879154422406
2295.0,0.002415957963320743
2294.0,0.0024177738017897247
2293.0,0.0024301597556455486
2292.0,0.0024486678600743775
2291.0,0.0024605347421067405
2290.0,0.002463159894760615
2289.0,0.002466720663374575
2288.0,0.0024754648170636972
2287.0,0.0024808737977189657
2286.0,0.0024791478371129798
2285.0,0.00247935078893258
2284.0,0.002486263111537625
2283.0,0.0024906819756565055
2282.0,0.00248581045254649
2281.0,0.002479155987015638
2280.0,0.0024779510138774183
2279.0,0.0024777568761466663
2278.0,0.0024753737834669704
2277.0,0.002477353184351795
2276.0,0.0024839126354697923
2275.0,0.0024813320787655316
2274.0,0.0024642198882766546
2273.0,0.0024482749183823444
2272.0,0.002446034344254446
2271.0,0.002445096336097416
2270.0,0.002428783419894974
2269.0,0.002403503202194186
2268.0,0.0023881287880417545
2267.0,0.0023863508880798117
2266.0,0.00238707931318256
2265.0,0.002383807730303885
2264.0,0.002379852395789298
2263.0,0.0023814737187952445
2262.0,0.0023955109183550183
2261.0,0.002424346567097685
2260.0,0.002455372711836032
2259.0,0.0024676681118402685
2258.0,0.0024561455275629077
2257.0,0.002436085020028551
2256.0,0.0024175906370320368
2255.0,0.002394025944461087
2254.0,0.002363952676726191
2253.0,0.0023441926685520208
2252.0,0.0023473404643316958
2251.0,0.0023636307473231077
2250.0,0.0023779359236733508
2249.0,0.00238785470128942
2248.0,0.002394293921735957
2247.0,0.002391416286943449
2246.0,0.0023784710259894264
2245.0,0.002365849601252785
2244.0,0.002357892283175346
2243.0,0.00234612946665338
2242.0,0.0023298461761569996
2241.0,0.002323899106110554
2240.0,0.002334240810327923
2239.0,0.0023447211476561214
2238.0,0.002340763285496546
2237.0,0.0023287669462306497
2236.0,0.0023205408500933367
2235.0,0.002317028442635933
2234.0,0.002318570259400161
2233.0,0.0023318652375596623
2232.0,0.002354482362510688
2231.0,0.0023711016572433626
2230.0,0.0023755399645338923
2229.0,0.0023772164203396656
2228.0,0.0023781404721979096
2227.0,0.0023658317001671813
2226.0,0.0023385227845221556
2225.0,0.002314035271276728
2224.0,0.002304402310870357
2223.0,0.0023054895445214344
2222.0,0.0023185877257841194
2221.0,0.002353272130595677
2220.0,0.002399326512666724
2219.0,0.002427235482382559
2218.0,0.00242888363131203
2217.0,0.0024265403053373687
2216.0,0.002429841979256026
2215.0,0.0024171528872073316
2214.0,0.0023755238165787626
2213.0,0.0023262583331910562
2212.0,0.002292254665590487
2211.0,0.002271289952113889
2210.0,0.002258900304896438
2209.0,0.002264258856402491
2208.0,0.0022853182484696404
2207.0,0.002300414153590467
2206.0,0.002303172492937171
2205.0,0.0023136656786024597
2204.0,0.0023384929804670107
2203.0,0.0023551726952963687
2202.0,0.0023530428937390065
2201.0,0.002351256734199337
2200.0,0.0023579419289037618
2199.0,0.002351846312043134
2198.0,0.00232684646186616
2197.0,0.0023129216351742508
2196.0,0.0023261651425516834
2195.0,0.0023399018605283453
2194.0,0.002335125538786644
2193.0,0.002337602472090457
2192.0,0.0023703301928153404
2191.0,0.002408126910505086
2190.0,0.002418522176533319
2189.0,0.002414710691750174
2188.0,0.0024288254820658195
2187.0,0.002460766429531343
2186.0,0.002490142752298396
2185.0,0.0025109813176245124
2184.0,0.00252102121100857
2183.0,0.002504608294404906
2182.0,0.0024603232736216344
2181.0,0.002417984097006869
2180.0,0.0023952486921006598
2179.0,0.0023674803742951903
2178.0,0.0023115992632285033
2177.0,0.002247105599736311
2176.0,0.0022034826827873467
2175.0,0.0021797299779460918
2174.0,0.0021693484986415115
2173.0,0.0021908495723377756
2172.0,0.0022564928924831535
2171.0,0.0023405630993808255
2170.0,0.002411263783488029
2169.0,0.0024674773918394793
2168.0,0.002516639649974523
2167.0,0.002542727047648954
2166.0,0.00252995992343535
2165.0,0.0024985588098912596
2164.0,0.0024855974472053617
2163.0,0.002503185037766653
2162.0,0.0025291339179074885
2161.0,0.002513313068353058
2160.0,0.002390129719491877
2159.0,0.0021432502878512196
2158.0,0.0018739416916587915
2157.0,0.0017289804549050546
2156.0,0.0017408142443307995
2155.0,0.0018152796015535196
2154.0,0.0018698591874819382
2153.0,0.0019047533908334688
2152.0,0.0019420630952176401
2151.0,0.001968877170758499
2150.0,0.001970230597268895
2149.0,0.001966161064149283
2148.0,0.001979419330296887
2147.0,0.0020010899175411934
2146.0,0.0020141414983356276
2145.0,0.0020202524725399422
2144.0,0.0020239127824714124
2143.0,0.0020221906199528357
2142.0,0.0020247527641351327
2141.0,0.0020499756390088687
2140.0,0.002087784000843653
2139.0,0.0021000762684514943
2138.0,0.002070259177219111
2137.0,0.0020198551449629315
2136.0,0.0019692145666958378
2135.0,0.0019192522067465628
2134.0,0.0018808724660894522
2133.0,0.0018786332346477181
2132.0,0.001911561066913941
2131.0,0.0019483722628775933
2130.0,0.001972917074244419
2129.0,0.0019981957545404947
2128.0,0.0020287078908162713
2127.0,0.0020468769284574325
2126.0,0.002049971499962671
2125.0,0.0020635225554848716
2124.0,0.00210039503887092
2123.0,0.002138392029808975
2122.0,0.0021569818028504767
2121.0,0.0021657028737222164
2120.0,0.0021778353572050467
2119.0,0.002185503663653641
2118.0,0.002182691945319663
2117.0,0.0021861201150520193
2116.0,0.0022094818740218654
2115.0,0.002238451384862249
2114.0,0.0022527152580957264
2113.0,0.002253908039443304
2112.0,0.0022531307487022056
2111.0,0.0022498346432674537
2110.0,0.002241370321867312
2109.0,0.0022350100131840723
2108.0,0.002234566636316311
2107.0,0.002233213458057818
2106.0,0.0022319872051636447
2105.0,0.002243713721252315
2104.0,0.0022665336045321403
2103.0,0.002277718810090128
2102.0,0.002266857809750717
2101.0,0.0022501127657833337
2100.0,0.002239724530462227
2099.0,0.0022256887715195886
2098.0,0.0022012140624132316
2097.0,0.002178058886293245
2096.0,0.0021625887013947075
2095.0,0.0021456433899709726
2094.0,0.0021296086616906244
2093.0,0.0021334800104786836
2092.0,0.0021571216331978645
2091.0,0.002173826276779711
2090.0,0.0021726736102765497
2089.0,0.0021756896442404446
2088.0,0.0021958303880364495
2087.0,0.0022131512680442045
2086.0,0.0022126134881554627
2085.0,0.002211698189027682
2084.0,0.002228652824065687
2083.0,0.002252391522386403
2082.0,0.002266278585651531
2081.0,0.0022725258296860235
2080.0,0.00227225986633052
2079.0,0.0022520840665076884
2078.0,0.0022147449033208923
2077.0,0.0021922356176663975
2076.0,0.0022025671205332846
2075.0,0.002222244676479025
2074.0,0.00222652413339155
2073.0,0.0022251837782514385
2072.0,0.0022345368004769513
2071.0,0.002245877394048269
2070.0,0.002248750556714504
2069.0,0.002253845471421815
2068.0,0.002266930948657654
2067.0,0.0022712797423022307
2066.0,0.002261506998274149
2065.0,0.0022611003399410096
2064.0,0.002277207185687528
2063.0,0.0022753397429421066
2062.0,0.0022328455344651
2061.0,0.002178840364240298
2060.0,0.0021531388329651736
2059.0,0.002155936509897821
2058.0,0.0021659346877052833
2057.0,0.0021757036414939753
2056.0,0.0021819058352401913
2055.0,0.002175178193603049
2054.0,0.0021683478154845095
2053.0,0.002198785418492273
2052.0,0.0022728155122705078
2051.0,0.00234163029094391
2050.0,0.002358424282651171
2049.0,0.002328364846288599
2048.0,0.0022769533574349817
2047.0,0.0022092936814123356
2046.0,0.002137965140412691
2045.0,0.002104062037043293
2044.0,0.0021245818395077215
2043.0,0.002161973041539054
2042.0,0.002181557316887109
2041.0,0.00219210753902434
2040.0,0.0021988593811462244
2039.0,0.002177657553423487
2038.0,0.0021372057641275482
2037.0,0.0021378359144365007
2036.0,0.00219889749687582
2035.0,0.0022493576038209446
2034.0,0.002228229161439628
2033.0,0.0021741401535321355
2032.0,0.0021530132884767447
2031.0,0.002158315901622949
2030.0,0.002148940108614985
2029.0,0.0021257204708200464
2028.0,0.002110711357504362
2027.0,0.002102222638093908
2026.0,0.0021017346048386298
2025.0,0.002130749163241778
2024.0,0.0021752801888004856
2023.0,0.002175822854771022
2022.0,0.0021156799860715426
2021.0,0.0020577688491723333
2020.0,0.00205235501140246
2019.0,0.002071611766263338
2018.0,0.0020775574896353946
2017.0,0.0020870390593121443
2016.0,0.0021162247669266323
2015.0,0.0021317703862180682
2014.0,0.0021139771566924077
2013.0,0.0020957319326790087
2012.0,0.002096112022817821
2011.0,0.0020798484197482366
2010.0,0.00202720794120314
2009.0,0.001981192016657838
2008.0,0.0019768478576886904
2007.0,0.001986549563072636
2006.0,0.0019840055872614717
2005.0,0.001991767234074061
2004.0,0.002018718516770176
2003.0,0.0020249903664470944
2002.0,0.001993791485408045
2001.0,0.0019722732579166434
2000.0,0.001997039731499589
1999.0,0.0020369592538942295
1998.0,0.002055817303591065
1997.0,0.002071072456071792
1996.0,0.002105607388516608
1995.0,0.0021384155198943444
1994.0,0.0021470003130207643
1993.0,0.0021505636646326517
1992.0,0.0021689364568898413
1991.0,0.0021831957159692975
1990.0,0.002187044838785249
1989.0,0.002214037264573403
1988.0,0.0022717556466695698
1987.0,0.0023136902110255644
1986.0,0.0023157666100603273
1985.0,0.0023194108632681857
1984.0,0.002357852857373767
1983.0,0.002403041593745294
1982.0,0.0024262820039290026
1981.0,0.0024454048720086476
1980.0,0.002460388929755399
1979.0,0.002409609787974358
1978.0,0.002263001078896458
1977.0,0.002102015655154513
1976.0,0.0020235868411280222
1975.0,0.0020220499225598403
1974.0,0.002041846830947551
1973.0,0.002071320053948602
1972.0,0.0021175369886514907
1971.0,0.0021576860585602446
1970.0,0.002174126427401019
1969.0,0.002183190724239495
1968.0,0.002188033559331083
1967.0,0.002160312810580207
1966.0,0.0021104870547377177
1965.0,0.00209720120790539
1964.0,0.0021311855380845173
1963.0,0.0021561667327723464
1962.0,0.0021401051165445746
1961.0,0.0021134707559851483
1960.0,0.0020926838492901483
1959.0,0.0020455022203464185
1958.0,0.0019718441650025263
1957.0,0.0019339341143573773
1956.0,0.001962650006164195
1955.0,0.002007396213565229
1954.0,0.0020210512231068323
1953.0,0.002024130269494426
1952.0,0.0020410879861614273
1951.0,0.00204617210174728
1950.0,0.002018923587578045
1949.0,0.00199213196401508
1948.0,0.0019972208027874668
1947.0,0.0020130155030424293
1946.0,0.002011616013151236
1945.0,0.002005118752163241
1944.0,0.002004586206875803
1943.0,0.0019839461205236613
1942.0,0.0019359511241944557
1941.0,0.0019046491307160788
1940.0,0.0019075002001316674
1939.0,0.0019075488856835673
1938.0,0.0018848454119403978
1937.0,0.0018717586877969174
1936.0,0.0018945504074546107
1935.0,0.0019269378298806962
1934.0,0.0019368326142403768
1933.0,0.0019321617022525549
1932.0,0.0019263250090038619
1931.0,0.0019067294812487447
1930.0,0.001871876145817246
1929.0,0.0018539523780259958
1928.0,0.0018694113481302905
1927.0,0.0018898613392786456
1926.0,0.0018933196896844832
1925.0,0.001898376757749487
1924.0,0.00192105486074758
1923.0,0.0019346808829494087
1922.0,0.0019174150343355012
1921.0,0.0018968545087684036
1920.0,0.0018989486069431092
1919.0,0.0019094841058746156
1918.0,0.0019114552804303654
1917.0,0.001918422960085546
1916.0,0.0019348229352155828
1915.0,0.0019361779984814953
1914.0,0.0019167201219014481
1913.0,0.001905476813199166
1912.0,0.0019179773458463428
1911.0,0.0019269361501248051
1910.0,0.0019092749244040083
1909.0,0.001888728662390057
1908.0,0.0018917755600932984
1907.0,0.001903695950625115
1906.0,0.0019082697766590279
1905.0,0.0019180692295458995
1904.0,0.0019394004165612189
1903.0,0.0019492996599922833
1902.0,0.0019357448450591926
1901.0,0.0019226437947278906
1900.0,0.001926773939709886
1899.0,0.0019295131549676185
1898.0,0.0019181041556697955
1897.0,0.0019123568479560388
1896.0,0.0019260387828138473
1895.0,0.0019370137084076594
1894.0,0.0019303416601121036
1893.0,0.0019277366285752415
1892.0,0.001941524090260293
1891.0,0.0019482143905649456
1890.0,0.0019314608385333524
1889.0,0.0019181680901505188
1888.0,0.0019273345759743994
1887.0,0.001934224909026525
1886.0,0.0019233527703789793
1885.0,0.0019155871443269155
1884.0,0.0019234723032290587
1883.0,0.001924936631240962
1882.0,0.001908044636153334
1881.0,0.0018983453676288998
1880.0,0.0019107712083915854
1879.0,0.0019186975365988478
1878.0,0.0019024676655965578
1877.0,0.001884832684852404
1876.0,0.0018870282410242895
1875.0,0.0018920827413368424
1874.0,0.0018827269670555393
1873.0,0.0018744420578004903
1872.0,0.0018821695414337346
1871.0,0.0018910012284642087
1870.0,0.0018881801920237
1869.0,0.0018991606710099945
1868.0,0.0019363806419040153
1867.0,0.0019557566363295462
1866.0,0.001937888000143067
1865.0,0.001917272344563921
1864.0,0.0019158579346171898
1863.0,0.001915375459076949
1862.0,0.0018995700587586977
1861.0,0.0018845843843009586
1860.0,0.0018834055950321608
1859.0,0.0018797784530904895
1858.0,0.0018680489598610164
1857.0,0.0018740344792968129
1856.0,0.0019062428605166825
1855.0,0.001931785440716238
1854.0,0.00192961484190134
1853.0,0.0019236164389536685
1852.0,0.0019364008761978751
1851.0,0.001950866164697938
1850.0,0.0019512434587135004
1849.0,0.001954548752004609
1848.0,0.001972114384835344
1847.0,0.001980340554400144
1846.0,0.0019655763618665638
1845.0,0.001961085279932483
1844.0,0.0019871525846384855
1843.0,0.001998942624917271
1842.0,0.0019768786150827083
1841.0,0.001962405684913235
1840.0,0.001980100000879385
1839.0,0.0020086050543608046
1838.0,0.002028597845141589
1837.0,0.002055769793482038
1836.0,0.0020980641120657275
1835.0,0.002125958035226624
1834.0,0.002125223027588717
1833.0,0.0021275304858509696
1832.0,0.002162394036772613
1831.0,0.0022136637922276856
1830.0,0.002251336750072958
1829.0,0.0022845206341727963
1828.0,0.0023214376649531025
1827.0,0.0023374590618064806
1826.0,0.002328994960586995
1825.0,0.002332812856868627
1824.0,0.002364188081376229
1823.0,0.0023873488110746025
1822.0,0.002389040019276594
1821.0,0.002401217365431947
1820.0,0.002435708479561465
1819.0,0.002458709301510384
1818.0,0.0024533543903785615
1817.0,0.0024552063928172455
1816.0,0.0024884223973478054
1815.0,0.0025242118543019765
1814.0,0.00254148492722121
1813.0,0.002566886606924394
1812.0,0.002621799137553662
1811.0,0.0026761204102538775
1810.0,0.002705273548223271
1809.0,0.002738772141931561
1808.0,0.0027938398311177118
1807.0,0.002839421256548144
1806.0,0.0028611872540464764
1805.0,0.0028921969765261625
1804.0,0.0029527356532034438
1803.0,0.00301400269316903
1802.0,0.0030587672036673846
1801.0,0.0031283024496432245
1800.0,0.0032413919567447448
1799.0,0.0033449938227541687
1798.0,0.0034160849565180646
1797.0,0.003503681738141023
1796.0,0.0036368144866272744
1795.0,0.0037832925568487092
1794.0,0.003936856388396524
1793.0,0.004178281928774619
1792.0,0.004540917281293318
1791.0,0.004902900170731327
1790.0,0.005207706999866449
1789.0,0.005538778620896437
1788.0,0.005953185158076263
1787.0,0.006447582199995093
1786.0,0.007035763275802222
1785.0,0.007745228768089989
1784.0,0.008521769129720183
1783.0,0.009279677051759392
1782.0,0.010058794002730556
1781.0,0.01097608054162811
1780.0,0.011992129180908535
1779.0,0.012923842634172006
1778.0,0.013728019609562112
1777.0,0.014512184187243225
1776.0,0.015318913714584392
1775.0,0.01610157637313063
1774.0,0.01692225086331195
1773.0,0.018023528773548615
1772.0,0.019400489519374592
1771.0,0.020623508961380106
1770.0,0.02161635228428674
1769.0,0.022722814855924537
1768.0,0.024115173489092624
1767.0,0.025612016176070805
1766.0,0.02700395835751234
1765.0,0.028340800221200745
1764.0,0.029825534715952482
1763.0,0.031654498422872525
1762.0,0.03382278369568852
1761.0,0.035953039040476684
1760.0,0.03766770417177904
1759.0,0.03901621684714912
1758.0,0.04032373918203765
1757.0,0.04177626951330109
1756.0,0.04312260897708919
1755.0,0.044055980748745685
1754.0,0.044674332154367086
1753.0,0.04524396784395013
1752.0,0.04585310409432032
1751.0,0.04635382674882095
1750.0,0.046647895323667844
1749.0,0.0468167421694345
1748.0,0.046830452236317335
1747.0,0.04658610641259043
1746.0,0.046112173996039243
1745.0,0.045414714396713476
1744.0,0.044387182580192655
1743.0,0.04302950360099962
1742.0,0.0414634410642426
1741.0,0.03957459188827362
1740.0,0.03710878112562158
1739.0,0.03441484487539052
1738.0,0.03225771918195483
1737.0,0.03072647251897215
1736.0,0.029222191581452405
1735.0,0.0268407479272231
1734.0,0.023522437559771386
1733.0,0.0208389886962272
1732.0,0.019268350521431388
1731.0,0.01807987940822981
1730.0,0.016925662503537817
1729.0,0.015834165664558534
1728.0,0.014900007049101565
1727.0,0.014139772467102789
1726.0,0.013499744071897942
1725.0,0.012889892454780066
1724.0,0.012259812835061395
1723.0,0.011680343238958677
1722.0,0.011246380118511751
1721.0,0.010936267469335733
1720.0,0.010642654213842183
1719.0,0.010267626107403623
1718.0,0.009779815957303706
1717.0,0.009246326623873905
1716.0,0.008759723986390858
1715.0,0.008364114824010624
1714.0,0.00806585303334042
1713.0,0.007821130947325396
1712.0,0.0075761520856249456
1711.0,0.007322728927791846
1710.0,0.007086600836910133
1709.0,0.006880515782641656
1708.0,0.0066869103519187545
1707.0,0.006487749057731122
1706.0,0.00629119431075598
1705.0,0.0061187473140718865
1704.0,0.005975516253793827
1703.0,0.005856177077785207
1702.0,0.005765697636098093
1701.0,0.005700560327977906
1700.0,0.00564291475137331
1699.0,0.005597604142164275
1698.0,0.005578962050748238
1697.0,0.005580131926605446
1696.0,0.005575792723403112
1695.0,0.00557392610204786
1694.0,0.005591627068044293
1693.0,0.005620008950958339
1692.0,0.005654387725706249
1691.0,0.005703733868428853
1690.0,0.0057808585021980425
1689.0,0.005871962884578643
1688.0,0.005937561051117874
1687.0,0.005969939546660584
1686.0,0.006011367415496593
1685.0,0.006128235856839711
1684.0,0.006304431881279801
1683.0,0.006427018656929214
1682.0,0.006497729599658872
1681.0,0.006572227648062679
1680.0,0.006658533586367007
1679.0,0.006742040817319264
1678.0,0.006818992636993064
1677.0,0.006903827559092246
1676.0,0.007014769364369615
1675.0,0.007149424329862361
1674.0,0.007273756523761563
1673.0,0.007366983515475965
1672.0,0.007444422745076689
1671.0,0.007538726247701313
1670.0,0.0076755582195582595
1669.0,0.007830596170576385
1668.0,0.007950159915724592
1667.0,0.008029699253031097
1666.0,0.00809955553297221
1665.0,0.008184700792377108
1664.0,0.00829968548457658
1663.0,0.008440890776522611
1662.0,0.008574785120262619
1661.0,0.00867354428680824
1660.0,0.008745638196338062
1659.0,0.008810972034573357
1658.0,0.00887619304977304
1657.0,0.008931322609074052
1656.0,0.008964761138745872
1655.0,0.008982582851238699
1654.0,0.00902497811050392
1653.0,0.0091029895879743
1652.0,0.009141257645522234
1651.0,0.009123027971300884
1650.0,0.00909949706176854
1649.0,0.009094828331434868
1648.0,0.009096427513027193
1647.0,0.009084129748217299
1646.0,0.009055692621206592
1645.0,0.009020891142634381
1644.0,0.008985679310961956
1643.0,0.008956553417501512
1642.0,0.008934058750959017
1641.0,0.008911829962549711
1640.0,0.008884621167196316
1639.0,0.00885302837903687
1638.0,0.008819361133000211
1637.0,0.008772514336655221
1636.0,0.008692054254144807
1635.0,0.008598060033513547
1634.0,0.008517542911785065
1633.0,0.008437552886319288
1632.0,0.008353481300398967
1631.0,0.008268471600786286
1630.0,0.008180612887777371
1629.0,0.00808353004873343
1628.0,0.00797571000375772
1627.0,0.007870721245832251
1626.0,0.007777214847094094
1625.0,0.0076814045235498035
1624.0,0.007557380481731496
1623.0,0.00740579934304814
1622.0,0.007263930673779702
1621.0,0.007148080231025239
1620.0,0.007045426019547593
1619.0,0.006946598638416863
1618.0,0.006842927506014199
1617.0,0.006716941259037746
1616.0,0.0065718862245820065
1615.0,0.006439679638851017
1614.0,0.006331706479716393
1613.0,0.006236130142779472
1612.0,0.006141752947038066
1611.0,0.0060485480267706985
1610.0,0.005960294011017309
1609.0,0.005869069828158005
1608.0,0.005765937951029888
1607.0,0.005660800276261209
1606.0,0.0055689183792907975
1605.0,0.005488316900813703
1604.0,0.005407818297641925
1603.0,0.00532861553161235
1602.0,0.005258903342032004
1601.0,0.0051948752041000145
1600.0,0.0051282196869552555
1599.0,0.0050632913660971215
1598.0,0.005008673861028559
1597.0,0.004959780717621117
1596.0,0.004905952993580207
1595.0,0.00484984137544959
1594.0,0.004802214375112737
1593.0,0.004761906687048261
1592.0,0.004720548198955805
1591.0,0.004680181815561605
1590.0,0.004647874950527161
1589.0,0.004619868870342247
1588.0,0.004587455954253365
1587.0,0.004553144253595461
1586.0,0.004525177711264662
1585.0,0.00450321188877182
1584.0,0.00448262635660445
1583.0,0.004466871843431793
1582.0,0.004461736246621847
1581.0,0.00445952803294365
1580.0,0.004448057096758119
1579.0,0.004430291151011643
1578.0,0.0044251568207321935
1577.0,0.0044456337429589704
1576.0,0.0044760212230644265
1575.0,0.004493995576035045
1574.0,0.00449918516959278
1573.0,0.004497959695608588
1572.0,0.004495345043759548
1571.0,0.00450676508758768
1570.0,0.004550848389206503
1569.0,0.004605527218780402
1568.0,0.004629849775070876
1567.0,0.004633251860864872
1566.0,0.004651293147983185
1565.0,0.004692037276722137
1564.0,0.004733774043912311
1563.0,0.004752265884634215
1562.0,0.004750925921597895
1561.0,0.004746516685811431
1560.0,0.004783996021005523
1559.0,0.004921419828625242
1558.0,0.005058094925518048
1557.0,0.005096102972455644
1556.0,0.005097555288964323
1555.0,0.005119045788419094
1554.0,0.005165756612541793
1553.0,0.0052129072376185664
1552.0,0.005241962601527701
1551.0,0.005264233718078033
1550.0,0.005293759077273269
1549.0,0.005323500625356359
1548.0,0.005338040391983315
1547.0,0.00533788508231147
1546.0,0.005335880993056324
1545.0,0.005338746107738584
1544.0,0.005338512881105511
1543.0,0.005327423659857972
1542.0,0.005315075530263996
1541.0,0.00530447133396328
1540.0,0.005286014582815324
1539.0,0.005268956158579927
1538.0,0.005254991832098297
1537.0,0.00523685348176534
1536.0,0.0052177992522160765
1535.0,0.005197208380609606
1534.0,0.005174348008531259
1533.0,0.005148112249451721
1532.0,0.005114228396446031
1531.0,0.005075842693153174
1530.0,0.005042174939022478
1529.0,0.0050165847989995915
1528.0,0.004992450921929835
1527.0,0.00496067964595965
1526.0,0.004923559956884609
1525.0,0.004889415840588186
1524.0,0.004856325330042627
1523.0,0.004816598274151675
1522.0,0.004775281965574798
1521.0,0.004749424977522922
1520.0,0.004735091404841556
1519.0,0.004717942656539603
1518.0,0.0046991249317376435
1517.0,0.0046781978172854635
1516.0,0.0046467881298081345
1515.0,0.004602502011336218
1514.0,0.0045532744380048385
1513.0,0.004507567760228686
1512.0,0.004464143263087709
1511.0,0.0044182107221285415
1510.0,0.00436580930875196
1509.0,0.004311304043525883
1508.0,0.004248142866377512
1507.0,0.004172268117680535
1506.0,0.0041356520643034715
1505.0,0.0041387648148429575
1504.0,0.004131976138819003
1503.0,0.004110303049141257
1502.0,0.0040826140305910245
1501.0,0.004057513108667285
1500.0,0.004040482325924535
1499.0,0.004027036137994646
1498.0,0.004013472264652101
1497.0,0.004005522820702969
1496.0,0.004000681600984714
1495.0,0.0039857659529954105
1494.0,0.003964180989235382
1493.0,0.003950411719043794
1492.0,0.003949197427550715
1491.0,0.003952206196391157
1490.0,0.003950946635663456
1489.0,0.0039502599378626905
1488.0,0.003951626377373496
1487.0,0.003949404759964733
1486.0,0.003948372157684166
1485.0,0.003958082862220047
1484.0,0.00397739958617719
1483.0,0.004000484724254484
1482.0,0.004032527560381527
1481.0,0.004080918371100719
1480.0,0.004136806003662562
1479.0,0.0041873700678722705
1478.0,0.004243305974194562
1477.0,0.0043268865673428995
1476.0,0.004435933735471172
1475.0,0.004550480673945273
1474.0,0.004706476551637462
1473.0,0.004994491649956377
1472.0,0.0053659589903224236
1471.0,0.005677424725248428
1470.0,0.005936443353845712
1469.0,0.006215379264591517
1468.0,0.006546089651920651
1467.0,0.006960934629405366
1466.0,0.007547616706869669
1465.0,0.008363569151304009
1464.0,0.009233376562194069
1463.0,0.009936589571107709
1462.0,0.010492958666416485
1461.0,0.011001006314388464
1460.0,0.011519602538045013
1459.0,0.012092517090028097
1458.0,0.012904606265442643
1457.0,0.013922933675161661
1456.0,0.014595960794752595
1455.0,0.014833815864275655
1454.0,0.014940143607982008
1453.0,0.015008556018218214
1452.0,0.015014561942147814
1451.0,0.014933918230812967
1450.0,0.014774320583306999
1449.0,0.014496555579301684
1448.0,0.014042492113090266
1447.0,0.01345779280995477
1446.0,0.012835970631813633
1445.0,0.012177040506497391
1444.0,0.011433765921252174
1443.0,0.010619720261643215
1442.0,0.009807288673225126
1441.0,0.009065667318542987
1440.0,0.008426925046940465
1439.0,0.007884692371164664
1438.0,0.007383886025644765
1437.0,0.006860645408636293
1436.0,0.006387747759721459
1435.0,0.006088663507583327
1434.0,0.005925252392627605
1433.0,0.00579954211025355
1432.0,0.0056742879292070066
1431.0,0.005560560344306402
1430.0,0.005468685679532591
1429.0,0.005383404113195896
1428.0,0.005303976351089536
1427.0,0.005246174815218426
1426.0,0.005209853345835464
1425.0,0.0051780169991466575
1424.0,0.0051443089880703185
1423.0,0.005120745154209882
1422.0,0.005107875460634917
1421.0,0.005091891079432318
1420.0,0.005072463337493404
1419.0,0.00506344106884846
1418.0,0.005057082389486938
1417.0,0.005035958270168182
1416.0,0.005013167933352321
1415.0,0.0050058831388978455
1414.0,0.0050066172855297904
1413.0,0.004997794603897855
1412.0,0.004978723839248416
1411.0,0.004964312596884634
1410.0,0.004956025848863201
1409.0,0.004942275828182559
1408.0,0.0049256724791226685
1407.0,0.004920722920530541
1406.0,0.004927937478141729
1405.0,0.004934489463747383
1404.0,0.004942616677371361
1403.0,0.0049658657286422055
1402.0,0.005003938835040484
1401.0,0.005057994942012955
1400.0,0.005154984067146842
1399.0,0.005313712624822289
1398.0,0.005505877855283113
1397.0,0.005721186442989175
1396.0,0.006029096930606101
1395.0,0.006484962234191265
1394.0,0.007015642895094338
1393.0,0.0075205552099972695
1392.0,0.00799646351049868
1391.0,0.008476855588571525
1390.0,0.008979923429182572
1389.0,0.009536653132383567
1388.0,0.010188655507542178
1387.0,0.010884153826947579
1386.0,0.01147427064234219
1385.0,0.0118929273450775
1384.0,0.012173896355089609
1383.0,0.012336248166810225
1382.0,0.012365627202535182
1381.0,0.012247905228680453
1380.0,0.011981062767429315
1379.0,0.011584390953598183
1378.0,0.01112037457768594
1377.0,0.01066969140389742
1376.0,0.010285679322811644
1375.0,0.010013839169737679
1374.0,0.009916194509462727
1373.0,0.010001782705651474
1372.0,0.010201413893038372
1371.0,0.010451487320835208
1370.0,0.01072269894017334
1369.0,0.010984527808315554
1368.0,0.011194777552802314
1367.0,0.011331829436438168
1366.0,0.011411343581756331
1365.0,0.011461093715247223
1364.0,0.0115000439832485
1363.0,0.011533844484901403
1362.0,0.011556446969409046
1361.0,0.011559172028627288
1360.0,0.011537703282265353
1359.0,0.011489494887914087
1358.0,0.01140985606547889
1357.0,0.011290229416588402
1356.0,0.01112154753123731
1355.0,0.010903849244366697
1354.0,0.010649890138536143
1353.0,0.010373509670106256
1352.0,0.010079228087426999
1351.0,0.00976880784955178
1350.0,0.009451986538796685
1349.0,0.009143661493068648
1348.0,0.00885281128641053
1347.0,0.008581210153317425
1346.0,0.008329051742746708
1345.0,0.008096919820454235
1344.0,0.007886025254440545
1343.0,0.0076983189396558575
1342.0,0.0075313103406705155
1341.0,0.007372245737407869
1340.0,0.007206484099181117
1339.0,0.007041176072599114
1338.0,0.0069003104834688776
1337.0,0.006788874156625157
1336.0,0.006692084905774909
1335.0,0.006601248144611533
1334.0,0.006518167977294631
1333.0,0.006443172202103058
1332.0,0.00637262665868443
1331.0,0.006308106449966831
1330.0,0.006255949797522127
1329.0,0.006216085801455955
1328.0,0.006182430985700871
1327.0,0.006155093966519586
1326.0,0.006140694205605374
1325.0,0.00613913571623354
1324.0,0.006140961690468174
1323.0,0.006140338951735166
1322.0,0.006140346767056808
1321.0,0.006142727613080931
1320.0,0.006141909281189634
1319.0,0.006134116424833678
1318.0,0.006124794691518787
1317.0,0.006120676701432019
1316.0,0.006122229283368047
1315.0,0.006128222696794044
1314.0,0.006138859072684792
1313.0,0.006151278623496619
1312.0,0.006160101122234147
1311.0,0.006165270578772701
1310.0,0.006171941325221324
1309.0,0.006181375720748301
1308.0,0.006188902099281579
1307.0,0.00619174200888406
1306.0,0.006192300127110849
1305.0,0.006191628414660879
1304.0,0.00618620208905101
1303.0,0.006173384622250603
1302.0,0.006153556461798351
1301.0,0.006124965741637135
1300.0,0.0060828182396762435
1299.0,0.006025510155292887
1298.0,0.005955710048892723
1297.0,0.005874074991876702
1296.0,0.005779058849695971
1295.0,0.005675081778978772
1294.0,0.0055741320755487815
1293.0,0.005488092762922839
1292.0,0.005426406748479386
1291.0,0.005401591005278033
1290.0,0.005429261653381394
1289.0,0.00551957092030225
1288.0,0.005672344163031317
1287.0,0.005881751911671855
1286.0,0.00614263586087025
1285.0,0.006451016535569964
1284.0,0.00680129091783881
1283.0,0.007186201936434603
1282.0,0.0075989592947352
1281.0,0.008032039531267195
1280.0,0.008473382191185416
1279.0,0.008908608945877325
1278.0,0.009328793582946025
1277.0,0.00973066716706854
1276.0,0.01010854929138628
1275.0,0.010453932624735669
1274.0,0.0107643414298715
1273.0,0.011043455156062488
1272.0,0.011290137283603669
1271.0,0.01149645193325869
1270.0,0.011658764179855367
1269.0,0.011780768976685826
1268.0,0.011864596310773735
1267.0,0.011910232581245822
1266.0,0.011923456730385782
1265.0,0.011912764781498322
1264.0,0.011878777159979996
1263.0,0.011817114846601898
1262.0,0.011730324087191513
1261.0,0.011627253596871305
1260.0,0.011513194153929374
1259.0,0.011390847149990705
1258.0,0.011268101477889843
1257.0,0.01115447379763963
1256.0,0.011052717459640708
1255.0,0.010962253459798081
1254.0,0.010887375172822336
1253.0,0.010834125332841648
1252.0,0.010801890050057671
1251.0,0.010785696432530927
1250.0,0.010784618225266135
1249.0,0.010801230742048277
1248.0,0.010835432052664327
1247.0,0.010885805462853828
1246.0,0.010954668962272075
1245.0,0.01104447808542155
1244.0,0.011150871945567816
1243.0,0.01126645261624146
1242.0,0.011390229561944212
1241.0,0.011526219188483641
1240.0,0.011674575992992452
1239.0,0.01183225106263939
1238.0,0.012001353201159911
1237.0,0.012188439978320724
1236.0,0.012395708127850343
1235.0,0.012621093113096955
1234.0,0.012866777836590387
1233.0,0.01313882188020131
1232.0,0.013438305998002047
1231.0,0.013762175633988082
1230.0,0.014113265620478576
1229.0,0.014499251152591718
1228.0,0.014920642079825783
1227.0,0.015370662187212596
1226.0,0.01584819182035016
1225.0,0.01635816986450572
1224.0,0.016896640329469075
1223.0,0.017450081872712676
1222.0,0.018013765080644832
1221.0,0.018594815170511095
1220.0,0.019192180929328565
1219.0,0.019790968460502163
1218.0,0.020382193243152245
1217.0,0.02096795536008344
1216.0,0.021539964128668213
1215.0,0.022075833881854304
1214.0,0.022565089282299774
1213.0,0.023015103112912504
1212.0,0.023423729964836357
1211.0,0.02377376033720525
1210.0,0.024063433922211976
1209.0,0.024312387953820312
1208.0,0.02452944735753262
1207.0,0.02470632766640139
1206.0,0.024850624691444247
1205.0,0.024992025906587015
1204.0,0.025147218139355203
1203.0,0.025310955566571022
1202.0,0.025489629402473273
1201.0,0.025710688743190414
1200.0,0.025990063320784667
1199.0,0.026322010378913498
1198.0,0.026710611222285095
1197.0,0.02717980210309921
1196.0,0.027741400573421744
1195.0,0.02838505946053109
1194.0,0.02911201561090316
1193.0,0.029946297832313527
1192.0,0.030898016111159415
1191.0,0.03194909742463796
1190.0,0.0330921936163342
1189.0,0.034346419394427036
1188.0,0.03571156101529019
1187.0,0.037142516637237964
1186.0,0.038591562369198376
1185.0,0.04003158351276133
1184.0,0.04140647530281621
1183.0,0.04260386877810595
1182.0,0.04350813121576133
1181.0,0.04402848103762116
1180.0,0.04405070066955288
1179.0,0.04344471668755603
1178.0,0.042169706375947434
1177.0,0.040309250930009775
1176.0,0.03799243572930152
1175.0,0.03536060712521905
1174.0,0.03260026222654179
1173.0,0.029905340293903366
1172.0,0.027389094317079792
1171.0,0.0250832458261588
1170.0,0.023004870601925943
1169.0,0.021175525631356707
1168.0,0.01959262898309112
1167.0,0.018228982639998476
1166.0,0.017061752095323176
1165.0,0.016077474528026284
1164.0,0.01525600667992813
1163.0,0.014572318221771536
1162.0,0.01400980567354163
1161.0,0.013555676348739769
1160.0,0.013188772536593322
1159.0,0.012886870829570615
1158.0,0.012642165393365039
1157.0,0.012457313356464423
1156.0,0.0123306526959192
1155.0,0.01225709641220774
1154.0,0.012238878138957732
1153.0,0.012283279241663838
1152.0,0.012392981060511014
1151.0,0.012570364772254221
1150.0,0.012829430093928833
1149.0,0.013192195482119985
1148.0,0.013673734544288675
1147.0,0.014280105203896148
1146.0,0.015019802497524867
1145.0,0.01590470864475351
1144.0,0.016935048763804823
1143.0,0.01809279991906152
1142.0,0.019354136216829125
1141.0,0.020695474787481127
1140.0,0.02207957687512719
1139.0,0.023454360117163592
1138.0,0.02478024782802263
1137.0,0.026040736140266245
1136.0,0.027215477339626093
1135.0,0.028272421607321206
1134.0,0.029202651174413233
1133.0,0.030028953579816005
1132.0,0.03076213363503607
1131.0,0.0313824822972844
1130.0,0.03187500512096932
1129.0,0.03223937952714275
1128.0,0.03245070254209302
1127.0,0.0324595058455898
1126.0,0.032252395809249726
1125.0,0.03187170683245779
1124.0,0.03136730938578955
1123.0,0.030778584745270787
1122.0,0.030166733947916115
1121.0,0.029607028162735766
1120.0,0.02913587603888442
1119.0,0.02874652900076512
1118.0,0.028439427943737737
1117.0,0.028235694170285458
1116.0,0.028140161160572615
1115.0,0.02813686654756521
1114.0,0.028231763160199125
1113.0,0.02846121181130498
1112.0,0.0288476137717184
1111.0,0.029382445725774274
1110.0,0.03006087442926926
1109.0,0.030891937643928183
1108.0,0.0318597882389983
1107.0,0.03291573516459962
1106.0,0.034028325322035737
1105.0,0.035201442500418116
1104.0,0.0364247623721456
1103.0,0.03765515394402898
1102.0,0.03887138341400678
1101.0,0.040095400743909056
1100.0,0.04133234858083613
1099.0,0.04254645794224112
1098.0,0.043725278330965595
1097.0,0.044903615180556695
1096.0,0.04609218986973095
1095.0,0.047252877469723883
1094.0,0.04837866713927298
1093.0,0.04952138757177358
1092.0,0.050702346680959624
1091.0,0.05187445611248486
1090.0,0.053010355704220115
1089.0,0.05414312263782907
1088.0,0.055277609790383285
1087.0,0.056351170060036246
1086.0,0.05732816743201129
1085.0,0.05823813865455275
1084.0,0.059073723200536055
1083.0,0.059755128566928245
1082.0,0.06024470903891653
1081.0,0.06058877561548307
1080.0,0.06080121505940126
1079.0,0.06082039632302431
1078.0,0.060621645601908365
1077.0,0.06025196703122289
1076.0,0.059714959803951834
1075.0,0.05894395943893297
1074.0,0.05792519768848865
1073.0,0.05672686888856583
1072.0,0.05537969788692633
1071.0,0.05385153162224998
1070.0,0.052161701768485544
1069.0,0.05040286943771937
1068.0,0.04863370305168774
1067.0,0.04685825601966856
1066.0,0.04512055765358638
1065.0,0.043519569957861756
1064.0,0.04211952671374584
1063.0,0.040926637716526014
1062.0,0.03995749381218011
1061.0,0.039252637294035275
1060.0,0.03880942041100358
1059.0,0.03856645977242087
1058.0,0.038471248119677545
1057.0,0.03850807442518226
1056.0,0.03864743517128839
1055.0,0.038831019684850455
1054.0,0.0390327229845456
1053.0,0.03928106677333202
1052.0,0.0395936948064615
1051.0,0.039943523138195686
1050.0,0.040317024321819994
1049.0,0.040735740954698556
1048.0,0.041185052063860965
1047.0,0.04159651387169437
1046.0,0.041928722581594954
1045.0,0.042193150258009404
1044.0,0.042383635528953044
1043.0,0.042451818592626665
1042.0,0.042369707317792944
1041.0,0.04215211885480283
1040.0,0.041801331521925944
1039.0,0.041294704319920196
1038.0,0.04064363762403463
1037.0,0.039901849015104685
1036.0,0.03910176037957165
1035.0,0.038241419219712025
1034.0,0.03734341994894392
1033.0,0.03646767669417959
1032.0,0.035652962557428704
1031.0,0.03489587570788164
1030.0,0.03419388042964832
1029.0,0.033559616316412515
1028.0,0.03298332106073828
1027.0,0.03242494519148805
1026.0,0.031854449400383386
1025.0,0.03126452384220919
1024.0,0.030640987484387976
1023.0,0.02996050499732375
1022.0,0.029223963145125483
1021.0,0.02845631151408253
1020.0,0.027668913798451246
1019.0,0.02685565946661417
1018.0,0.026026961806324453
1017.0,0.02521256757593907
1016.0,0.024428004336256907
1015.0,0.02366835379036134
1014.0,0.022936050514144043
1013.0,0.022247138765296652
1012.0,0.02160868986760368
1011.0,0.0210136991522187
1010.0,0.020458925093115254
1009.0,0.019947353465694595
1008.0,0.019473232742920517
1007.0,0.019023462832676342
1006.0,0.018593676019455132
1005.0,0.018186034897652668
1004.0,0.017793079022783053
1003.0,0.01740161488514989
1002.0,0.017011527401725957
1001.0,0.016634057357211796
1000.0,0.016272669597237777
999.0,0.015921046735148506
998.0,0.015578073978038197
997.0,0.01524950495809567
996.0,0.014935728784942176
995.0,0.014631631196985916
994.0,0.014337755373909335
993.0,0.014059044233552326
992.0,0.013793503910576476
991.0,0.01353396588658432
990.0,0.013280063078559525
989.0,0.013037529891528746
988.0,0.012807141129947124
987.0,0.012584388000126505
986.0,0.012367913505744682
985.0,0.012158562858196418
984.0,0.011952526156040125
983.0,0.011745045460829535
982.0,0.011538830056404756
981.0,0.011340070546704745
980.0,0.0111487748693886
979.0,0.010961440849684336
978.0,0.010779641412415122
977.0,0.01060674010393397
976.0,0.010439531288857638
975.0,0.01027262351623769
974.0,0.010108420834993895
973.0,0.009953746125382619
972.0,0.00980892005865337
971.0,0.009668735637379303
970.0,0.009532315057407216
969.0,0.009404318081597442
968.0,0.009288633952265682
967.0,0.00918900558835752
966.0,0.009114747069419355
965.0,0.00907846556296833
964.0,0.009088147700919272
963.0,0.009145709171741952
962.0,0.009249840502001732
961.0,0.009392796369371426
960.0,0.009554696427077694
959.0,0.009707291354619384
958.0,0.009825102231012283
957.0,0.009890452112586521
956.0,0.009891839769340147
955.0,0.009827233389008842
954.0,0.009709304807148869
953.0,0.009558663824484512
952.0,0.00939063364523321
951.0,0.00921368557252781
950.0,0.009036560509596371
949.0,0.008867499985274608
948.0,0.008707971396120017
947.0,0.008555222373915733
946.0,0.008410354522091865
945.0,0.008277654876348111
944.0,0.008157567686147636
943.0,0.008046475006032023
942.0,0.007942177652326271
941.0,0.00784446499894058
940.0,0.00775216160055716
939.0,0.007664846123548398
938.0,0.007585393849458732
937.0,0.0075152798670933465
936.0,0.007449296557935603
935.0,0.0073805687261412865
934.0,0.007309431657935834
933.0,0.007242204554149215
932.0,0.0071827269372287325
931.0,0.007130257073944475
930.0,0.007084070376850547
929.0,0.007044476438361615
928.0,0.007009750161640146
927.0,0.006976837645877306
926.0,0.0069451017078026485
925.0,0.006915815012431218
924.0,0.006888816176969367
923.0,0.006863319604762908
922.0,0.00684082421106791
921.0,0.006823326079192438
920.0,0.006809674250062393
919.0,0.006797263185102135
918.0,0.006785914735438459
917.0,0.006776106652252865
916.0,0.006764574863485489
915.0,0.006745992819569561
914.0,0.006718547627653344
913.0,0.00668401448748091
912.0,0.00664291358629375
911.0,0.006593681381428523
910.0,0.006536464542907622
909.0,0.006473867288820363
908.0,0.006407638378662858
907.0,0.006337525610563825
906.0,0.006263512573702957
905.0,0.006187360824300771
904.0,0.00611265059766542
903.0,0.006044450307157804
902.0,0.005986947892713585
901.0,0.005939762272168316
900.0,0.0058983559753219145
899.0,0.005858913601335588
898.0,0.005820477850570148
897.0,0.005781723801327084
896.0,0.005738946619140687
895.0,0.00568845562372138
894.0,0.005627601077313773
893.0,0.00555248814397966
892.0,0.005459094740586384
891.0,0.005348779432154652
890.0,0.005229126213216979
889.0,0.00510864939909102
888.0,0.00499647933476786
887.0,0.004908977561822104
886.0,0.00486906801207599
885.0,0.004894114822799763
884.0,0.0049887395504938
883.0,0.005152033523172788
882.0,0.005386542469443467
881.0,0.005695897229041377
880.0,0.006076100005078591
879.0,0.0065128787127916605
878.0,0.00698732887455736
877.0,0.00748175905183643
876.0,0.007980153210731073
875.0,0.008466444876576454
874.0,0.008923073062870757
873.0,0.009327230967434944
872.0,0.009650205370965411
871.0,0.009870634937108089
870.0,0.009991884194168703
869.0,0.010038692370509944
868.0,0.010035911685634486
867.0,0.009997681604418654
866.0,0.009932010379493345
865.0,0.009841545266777078
864.0,0.009718466042039449
863.0,0.00954814287708294
862.0,0.009319095549879423
861.0,0.009024263288107869
860.0,0.008658630045770473
859.0,0.008227471909369672
858.0,0.007754513107227506
857.0,0.007272007776823549
856.0,0.0068057223061299375
855.0,0.006376124320695412
854.0,0.006005360603622235
853.0,0.005711301261289858
852.0,0.005497218177132296
851.0,0.005352923166526251
850.0,0.005261232754559425
849.0,0.005198281663924328
848.0,0.005134240934298237
847.0,0.005044465784804351
846.0,0.004921704386110497
845.0,0.004773505008282567
844.0,0.004610168764288811
843.0,0.004439996337581012
842.0,0.004271722182687535
841.0,0.004113637496614917
840.0,0.003970706736200626
839.0,0.0038460245091820194
838.0,0.003742419987976456
837.0,0.0036592239100280708
836.0,0.003590586948924652
835.0,0.00353075027897746
834.0,0.0034787964304123335
833.0,0.0034357940970806264
832.0,0.0034008351081891907
831.0,0.00337335172598662
830.0,0.0033558260951659456
829.0,0.0033494786932734685
828.0,0.0033494493109967926
827.0,0.0033489481083501787
826.0,0.003346445960482108
825.0,0.0033441441245551234
824.0,0.0033418265732241496
823.0,0.0033380153123042404
822.0,0.0033348325703641355
821.0,0.003335907581586063
820.0,0.0033413711602205054
819.0,0.0033487075468268627
818.0,0.003355767021140434
817.0,0.00335984246501359
816.0,0.0033568716995482127
815.0,0.00334558140270171
814.0,0.0033309372484018303
813.0,0.0033203341207674007
812.0,0.003317690520120064
811.0,0.0033230435681375313
810.0,0.0033347420574183825
809.0,0.003348995598105747
808.0,0.0033602216040469176
807.0,0.0033660284231957468
806.0,0.0033704819376993668
805.0,0.0033793403335831097
804.0,0.003393819678346297
803.0,0.0034115448084150292
802.0,0.0034307572564269678
801.0,0.0034499958260038807
800.0,0.003466142982832243
799.0,0.003477174476603676
798.0,0.003485510926216364
797.0,0.003495134428925662
796.0,0.003507296085294414
795.0,0.0035225635430575462
794.0,0.0035441259047077883
793.0,0.0035743829811636886
792.0,0.003611016085308009
791.0,0.003651925511014481
790.0,0.0037021167876842547
789.0,0.003769566267175964
788.0,0.003854663106592761
787.0,0.003949078685829687
786.0,0.004045008210417296
785.0,0.0041403667050598034
784.0,0.004234783227069257
783.0,0.004326729297621487
782.0,0.004416617667852071
781.0,0.00450761046107036
780.0,0.004600978739876241
779.0,0.004694715504437616
778.0,0.004788671258396825
777.0,0.00488755192089077
776.0,0.004997668423978714
775.0,0.005123808797042356
774.0,0.005268441312600869
773.0,0.005428842422547785
772.0,0.0055956783968396494
771.0,0.005761908001996833
770.0,0.005935154047533886
769.0,0.006133890637111748
768.0,0.006367838767686538
767.0,0.0066286464167532155
766.0,0.006903466579393825
765.0,0.0071903388377232685
764.0,0.007494281909203378
763.0,0.007814520885597417
762.0,0.008142510690310727
761.0,0.008467862169915994
760.0,0.008779297585930065
759.0,0.009063308048268255
758.0,0.009308204031085917
757.0,0.00950677033254907
756.0,0.009651561662710603
755.0,0.00973355426615905
754.0,0.009750297952035084
753.0,0.00971033543362728
752.0,0.009626862301346841
751.0,0.009513538227068047
750.0,0.00938734317071941
749.0,0.009265654395214405
748.0,0.00915580001344037
747.0,0.009052672325664172
746.0,0.008947965403381752
745.0,0.008835899650715193
744.0,0.008710267184648233
743.0,0.008565195823800841
742.0,0.008402439803105248
741.0,0.008231190231605325
740.0,0.00805599827817413
739.0,0.007866935207330748
738.0,0.0076418909132244285
737.0,0.007357323748887534
736.0,0.007003587834032106
735.0,0.006599749704807997
734.0,0.006191638737462342
733.0,0.005825908272840227
732.0,0.005524126305748598
731.0,0.005283350270337425
730.0,0.005094839912357359
729.0,0.004954403330440242
728.0,0.004859634643800411
727.0,0.004809451578483507
726.0,0.0048081119366198315
725.0,0.004860971459630358
724.0,0.004964323197457631
723.0,0.005106275519423698
722.0,0.005277389002084379
721.0,0.005471517118739319
720.0,0.005675918779025971
719.0,0.005874135623594625
718.0,0.006063343439006311
717.0,0.006255800337437932
716.0,0.006458690098433063
715.0,0.006661374271956346
714.0,0.006844450210196735
713.0,0.006993771480855254
712.0,0.007104072157964388
711.0,0.0071801424070018546
710.0,0.007239238314630076
709.0,0.00730189742506137
708.0,0.0073744859175742545
707.0,0.00744632108401457
706.0,0.007505362522049475
705.0,0.007549217810055849
704.0,0.007580305450994
703.0,0.0076009483057305136
702.0,0.007615281115213016
701.0,0.007625829555057117
700.0,0.0076272797676173315
699.0,0.007614110687229702
698.0,0.007594627277013771
697.0,0.007584197349155067
696.0,0.007582372667648829
695.0,0.007571062640366872
694.0,0.00753885715170937
693.0,0.007494124451605123
692.0,0.007450741547059738
691.0,0.00741368326340529
690.0,0.007383115579679708
689.0,0.007359221269608659
688.0,0.007336020686574941
687.0,0.007303432850041411
686.0,0.007261894172538927
685.0,0.007222093275297076
684.0,0.007188329706680999
683.0,0.007156054280388447
682.0,0.007125442710804607
681.0,0.0071013997587395135
680.0,0.007077838792330222
679.0,0.007038858552853385
678.0,0.0069818368471895546
677.0,0.0069247269512376225
676.0,0.006884422501192394
675.0,0.0068595570861055225
674.0,0.006841205234472382
673.0,0.006825265269831493
672.0,0.006804389061493235
671.0,0.006765823852678649
670.0,0.006704852002653904
669.0,0.006641334175474661
668.0,0.006596609212291214
667.0,0.006565507080774968
666.0,0.0065380014285196675
665.0,0.006505295531699002
664.0,0.006464971895693738
663.0,0.006424239149996031
662.0,0.006389539294247645
661.0,0.006362265200446554
660.0,0.006336448820602025
659.0,0.006302106202937023
658.0,0.006255377240410436
657.0,0.006203972078986104
656.0,0.006158654213429746
655.0,0.006122105300989306
654.0,0.006088626714464682
653.0,0.006050361696032633
652.0,0.006001780831828448
651.0,0.005944479472304108
650.0,0.005887916550753967
649.0,0.005836484203199143
648.0,0.005778660851182471
647.0,0.0057017523696369105
646.0,0.005614012619270145
645.0,0.005536540846823066
644.0,0.005476324962870022
643.0,0.0054217365473653
642.0,0.0053621281145312324
641.0,0.0052976513787256424
640.0,0.005229224462087419
639.0,0.005155983061607162
638.0,0.005086271179620945
637.0,0.005033378452056544
636.0,0.004994719325431057
635.0,0.004949812587818321
634.0,0.004886748380552541
633.0,0.004816656304361017
632.0,0.004753174810692862
631.0,0.004693154947504791
630.0,0.004624613391984924
629.0,0.0045428065821999835
628.0,0.004451631272367518
627.0,0.0043564717605172835
626.0,0.004260818452105838
625.0,0.004164350642152856
624.0,0.004062553975548506
623.0,0.0039519723544386015
622.0,0.0038363130602572662
621.0,0.0037259236699772828
620.0,0.003635792823068951
619.0,0.003582706892137295
618.0,0.003568565441051781
617.0,0.0035688854282694485
616.0,0.003553888155464943
615.0,0.003514844382513974
614.0,0.003459150050999675
613.0,0.003389406768019007
612.0,0.0033090125295874183
611.0,0.0032465582190359162
610.0,0.0032409989622155496
609.0,0.0032925237535775063
608.0,0.0033532450389952935
607.0,0.003375485672109487
606.0,0.0033621023857403993
605.0,0.003355095407404948
604.0,0.0033798340897016506
603.0,0.003423386324242772
602.0,0.0034616700769485535
601.0,0.0034848966612833826
600.0,0.0034895823726467145
599.0,0.0034646857075055805
598.0,0.0034006951585077516
597.0,0.0033019368465475197
596.0,0.0031846088216853138
595.0,0.0030725509028959744
594.0,0.0029895197316138367
593.0,0.002946915395291942
592.0,0.002939823003231065
591.0,0.002948355598788031
590.0,0.002943717546361099
589.0,0.002905917239179336
588.0,0.0028398040605647247
587.0,0.0027748651895736793
586.0,0.0027393540072908487
585.0,0.0027264598151000245
584.0,0.0027036400241224195
583.0,0.0026556171159363194
582.0,0.0025968590242285957
581.0,0.002537847341246579
580.0,0.002467295547731326
579.0,0.0023827227125835845
578.0,0.0023067764903459314
577.0,0.002253756756890244
576.0,0.0022108537214014347
575.0,0.002164761549482837
574.0,0.0021155320100292524
573.0,0.0020577408818558867
572.0,0.001979887613821751
571.0,0.0018990814660100669
570.0,0.001864391840280727
569.0,0.0018983693980087462
568.0,0.001968493097563721
567.0,0.0020186794436803327
566.0,0.002012585860063496
565.0,0.001956537138104013
564.0,0.0018886007757884715
563.0,0.0018576453330737906
562.0,0.0018839177085489527
561.0,0.0019284246464502447
560.0,0.0019350931349969118
559.0,0.0018978923145098947
558.0,0.0018620161124749141
557.0,0.0018571079657398164
556.0,0.0018648059037674183
555.0,0.0018679970110870433
554.0,0.0018875828420203966
553.0,0.00193592165328007
552.0,0.0019709533067887326
551.0,0.0019413070132326812
550.0,0.00187053758841572
