cm-1,A
4000.0,0.00017968160129686397
3999.0,0.0001866158881157912
3998.0,0.00018908561946636088
3997.0,0.00018599432955646077
3996.0,0.0001809791555933153
3995.0,0.00017903412314549728
3994.0,0.0001812039248545031
3993.0,0.00018394842992225282
3992.0,0.00018335468585359716
3991.0,0.000179572934701895
3990.0,0.00017613702603716584
3989.0,0.0001756277073357732
3988.0,0.00017731884264347159
3987.0,0.0001788457339420718
3986.0,0.00017939424226934568
3985.0,0.0001804048628993105
3984.0,0.00018339346140457374
3983.0,0.0001879155735880194
3982.0,0.00019167268659608678
3981.0,0.00019237450753658485
3980.0,0.00018956374169489638
3979.0,0.0001844349301783247
3978.0,0.00017872322945888819
3977.0,0.0001741132564775954
3976.0,0.0001723110983043785
3975.0,0.0001747853580108972
3974.0,0.00018112213732943497
3973.0,0.00018793216533916838
3972.0,0.00019070362176931244
3971.0,0.00018757012319354528
3970.0,0.0001813166737008161
3969.0,0.0001773626789293133
3968.0,0.00017913479575143085
3967.0,0.00018560630127295737
3966.0,0.000192687590493267
3965.0,0.00019653385300441898
3964.0,0.00019639432048863337
3963.0,0.0001949543909580331
3962.0,0.0001959512240817089
3961.0,0.00020063677276764872
3960.0,0.00020664180733418402
3959.0,0.00021033623605152044
3958.0,0.0002100397413946774
3957.0,0.00020691447209424411
3956.0,0.00020287869130443327
3955.0,0.00019863812636702904
3954.0,0.0001936939799267926
3953.0,0.00018779897052505386
3952.0,0.0001821998618044303
3951.0,0.00017927290321336528
3950.0,0.0001811414180650058
3949.0,0.00018736001748682126
3948.0,0.00019441948286386893
3947.0,0.00019807863062343061
3946.0,0.00019618646417097054
3945.0,0.00019097013152359274
3944.0,0.00018724720904577275
3943.0,0.00018788430485378092
3942.0,0.00019186982663469462
3941.0,0.00019566130825849194
3940.0,0.00019707801611462618
3939.0,0.0001966260126518239
3938.0,0.00019593207634498113
3937.0,0.00019625606064184984
3936.0,0.00019774097979974813
3935.0,0.0002005349798335043
3934.0,0.00020492579169819182
3933.0,0.00021070746977486807
3932.0,0.00021552166009099324
3931.0,0.000216059337319599
3930.0,0.00021055625852195589
3929.0,0.00019917714340608186
3928.0,0.00018444898269871053
3927.0,0.0001706876608433749
3926.0,0.0001634862556223278
3925.0,0.00016572675365353546
3924.0,0.00017405191908026105
3923.0,0.00018231897390260526
3922.0,0.00018773958910157636
3921.0,0.00019332458856742855
3920.0,0.00020311090548504886
3919.0,0.00021593972072293962
3918.0,0.00022583821145833057
3917.0,0.00022728413311170603
3916.0,0.00022066231145127747
3915.0,0.0002107797035221891
3914.0,0.00020179917184517113
3913.0,0.00019610505059271483
3912.0,0.00019443286313444697
3911.0,0.0001956838513220723
3910.0,0.00019796552628542727
3909.0,0.00019919789824303098
3908.0,0.00019805141751831786
3907.0,0.0001957935423199139
3906.0,0.00019687227222430262
3905.0,0.0002063056921899405
3904.0,0.00022281976348553756
3903.0,0.0002354477407054197
3902.0,0.00023247544091161104
3901.0,0.00021371935719233172
3900.0,0.00019141436223113484
3899.0,0.00017885332472190852
3898.0,0.0001784028943955236
3897.0,0.00018276653526249438
3896.0,0.00018591766438013746
3895.0,0.00018657613838666664
3894.0,0.00018599031429422967
3893.0,0.00018715947916548605
3892.0,0.0001947803651131978
3891.0,0.0002117796240644679
3890.0,0.00023298591533376365
3889.0,0.000247154678577238
3888.0,0.00024641063625458056
3887.0,0.00023271106435845002
3886.0,0.00021691190426341856
3885.0,0.0002084819314666646
3884.0,0.00020517653009840728
3883.0,0.0001977909331681984
3882.0,0.00018395994669389616
3881.0,0.00017262899369418106
3880.0,0.00017394161288726117
3879.0,0.000185955903264966
3878.0,0.00019628307485528539
3877.0,0.00019619839006924792
3876.0,0.00018773769422883696
3875.0,0.00018049602318666834
3874.0,0.00018174363122224217
3873.0,0.0001877794532463492
3872.0,0.00018902590289382047
3871.0,0.000183829448709511
3870.0,0.0001822942886043346
3869.0,0.00019103996053107444
3868.0,0.00020170262937644766
3867.0,0.00020290642686458338
3866.0,0.00019544387987033502
3865.0,0.00018899081726272992
3864.0,0.0001908535779904263
3863.0,0.00019865703111337596
3862.0,0.00020376176219653029
3861.0,0.00019989856816423073
3860.0,0.0001885326747834323
3859.0,0.00017810989851141314
3858.0,0.00017715715179448036
3857.0,0.0001873934770879656
3856.0,0.00020226660494590055
3855.0,0.00021026604157794277
3854.0,0.0002111598565262547
3853.0,0.0002149315287889883
3852.0,0.00022236811161203648
3851.0,0.00022649603669241492
3850.0,0.00022604314153964675
3849.0,0.00022305568094858083
3848.0,0.00021779385614071028
3847.0,0.0002093841575005552
3846.0,0.00019983050523727087
3845.0,0.0001925444423040481
3844.0,0.0001895796421591343
3843.0,0.0001902933026122237
3842.0,0.00019200762379884104
3841.0,0.0001924160913592774
3840.0,0.00019237954316815738
3839.0,0.000194773292772111
3838.0,0.00020067322856067002
3837.0,0.00020846295987965707
3836.0,0.00021516523752005605
3835.0,0.0002179895995439602
3834.0,0.00021632615481571144
3833.0,0.00021160337164414784
3832.0,0.00020633572524920193
3831.0,0.00020215322644913955
3830.0,0.00019856078240013846
3829.0,0.0001945207782042285
3828.0,0.00019126475123070396
3827.0,0.00019250889667759663
3826.0,0.00019974384447052666
3825.0,0.00020832663366898816
3824.0,0.00021047163926955607
3823.0,0.00020277945102816386
3822.0,0.00019369914099200852
3821.0,0.00019665025518119978
3820.0,0.00021144178002834707
3819.0,0.0002243940571844507
3818.0,0.0002275720884750116
3817.0,0.00022543783436927928
3816.0,0.0002259264715044752
3815.0,0.00022904346413882498
3814.0,0.00022772464816336337
3813.0,0.00022020552692534072
3812.0,0.0002131834122054636
3811.0,0.00021195909056836624
3810.0,0.0002140312483593478
3809.0,0.00021339392018147527
3808.0,0.00020864764077476068
3807.0,0.00020487193822055867
3806.0,0.00020453124638170495
3805.0,0.00020131493683985435
3804.0,0.00018922957571022273
3803.0,0.00017120831515217135
3802.0,0.0001605996465720183
3801.0,0.0001700524635583753
3800.0,0.00019367138807222168
3799.0,0.00021455140247149374
3798.0,0.00022341285925398554
3797.0,0.00022055799443770766
3796.0,0.0002111660002592433
3795.0,0.00020025614881005402
3794.0,0.0001906386472592253
3793.0,0.00018390971531584378
3792.0,0.00018141706549197763
3791.0,0.0001826807370560378
3790.0,0.00018622765593071964
3789.0,0.00019101102814232315
3788.0,0.00019526710454191435
3787.0,0.000195869352972386
3786.0,0.00019161718818636975
3785.0,0.0001869994848164864
3784.0,0.00018926670885138406
3783.0,0.00020015047884406386
3782.0,0.0002126072231282074
3781.0,0.00021786984211101426
3780.0,0.00021386792674641622
3779.0,0.00020727082863516142
3778.0,0.0002051239134545597
3777.0,0.00020701140770365458
3776.0,0.00020968017772679353
3775.0,0.00021293465828577107
3774.0,0.00021709046334798788
3773.0,0.00021961441971921698
3772.0,0.00021757812159859378
3771.0,0.00021345484568428157
3770.0,0.00021499771598812412
3769.0,0.00022602640562079189
3768.0,0.0002405082699660101
3767.0,0.0002498178448577086
3766.0,0.00025047445430472404
3765.0,0.00024556760950255805
3764.0,0.00024052766544744415
3763.0,0.00023757228823342857
3762.0,0.0002366654651458247
3761.0,0.00023758111290658453
3760.0,0.00023868556466933135
3759.0,0.00023844322455513238
3758.0,0.0002373420626423944
3757.0,0.00023658767625122355
3756.0,0.00023485614997763445
3755.0,0.0002329240711632717
3754.0,0.00023760077411439122
3753.0,0.0002583919731897064
3752.0,0.0002947223732897564
3751.0,0.00033036979490043764
3750.0,0.0003515927352637366
3749.0,0.0003599944450710861
3748.0,0.00036053754567380483
3747.0,0.00035274651920286324
3746.0,0.00033593082151850526
3745.0,0.00031600065932409595
3744.0,0.0003026885901263929
3743.0,0.00029471409846864606
3742.0,0.00028810167440557275
3741.0,0.00028835306145391746
3740.0,0.00029955496677770916
3739.0,0.0003154234400183938
3738.0,0.00032596562957988226
3737.0,0.00033021892037487903
3736.0,0.0003330613906581384
3735.0,0.00033519817664352087
3734.0,0.00033448440886752677
3733.0,0.0003314216444926253
3732.0,0.00032815532354854224
3731.0,0.0003261518383764449
3730.0,0.00032591118969150135
3729.0,0.0003270464809021796
3728.0,0.0003287615308454208
3727.0,0.0003296840284987946
3726.0,0.0003284626076750614
3725.0,0.000323855864595159
3724.0,0.00031403273410080185
3723.0,0.0002977126889357886
3722.0,0.00027624093293093636
3721.0,0.00025363283153650887
3720.0,0.00023508145096096588
3719.0,0.00022520967800781849
3718.0,0.0002269345607174327
3717.0,0.0002394903217972003
3716.0,0.00025701848942579527
3715.0,0.0002741438351381276
3714.0,0.0002918818554181802
3713.0,0.0003148954812053599
3712.0,0.0003419755336515069
3711.0,0.00036367211509570553
3710.0,0.0003752688625640869
3709.0,0.0003790815208722753
3708.0,0.00037742325730049167
3707.0,0.00037258677258342047
3706.0,0.00036626879221444606
3705.0,0.0003581727327126037
3704.0,0.0003473054549273044
3703.0,0.0003371870974723802
3702.0,0.00033746388116501105
3701.0,0.0003551753353029205
3700.0,0.00038430731457519995
3699.0,0.00041067450700345927
3698.0,0.0004246655546410168
3697.0,0.00042677562554807656
3696.0,0.0004235992038864742
3695.0,0.0004208143894832622
3694.0,0.00042030422925821824
3693.0,0.0004198055705523303
3692.0,0.00041533126788720093
3691.0,0.0004024707206594805
3690.0,0.00038018485051957696
3689.0,0.000355286064333729
3688.0,0.0003379549203337826
3687.0,0.000331563464107054
3686.0,0.0003327182128247026
3685.0,0.00033949005022744624
3684.0,0.0003517213226766489
3683.0,0.0003663688091089493
3682.0,0.00037747094555309153
3681.0,0.0003829453991724031
3680.0,0.0003882314278181799
3679.0,0.00039915283374619063
3678.0,0.0004134428461719401
3677.0,0.0004206603203413212
3676.0,0.0004141365983155418
3675.0,0.00040329398241746833
3674.0,0.0004004488835793145
3673.0,0.00040209574653897906
3672.0,0.00040346271303023993
3671.0,0.0004044715174026346
3670.0,0.00040528453408402083
3669.0,0.0004039483791220522
3668.0,0.00039776639774581537
3667.0,0.00038692555803855274
3666.0,0.0003784586838133957
3665.0,0.0003791667628070698
3664.0,0.00038795693287418346
3663.0,0.0003965048430580604
3662.0,0.00039869444519552476
3661.0,0.000398211153121082
3660.0,0.0004035670963295178
3659.0,0.00041844312179178706
3658.0,0.0004373472426156659
3657.0,0.00045168064163882723
3656.0,0.0004588811820306199
3655.0,0.00046310513815440914
3654.0,0.0004676300366520424
3653.0,0.00047097615164934663
3652.0,0.00047157073525902027
3651.0,0.0004709231002086179
3650.0,0.0004745225793385072
3649.0,0.0004840153754609147
3648.0,0.000495074302578062
3647.0,0.0005024278025844032
3646.0,0.0005048873131165576
3645.0,0.0005040916669826529
3644.0,0.0005033805158316273
3643.0,0.0005060205164345987
3642.0,0.0005120915424006134
3641.0,0.0005178006053179517
3640.0,0.0005188199637437551
3639.0,0.0005169304046997768
3638.0,0.0005195349456608035
3637.0,0.0005311862861043375
3636.0,0.0005486218336374742
3635.0,0.0005653862135257408
3634.0,0.0005801775623838821
3633.0,0.000596648620332917
3632.0,0.0006159411498822214
3631.0,0.0006312316342308541
3630.0,0.0006320458242213496
3629.0,0.0006189131519401951
3628.0,0.0006081438212731443
3627.0,0.0006082731392934846
3626.0,0.0006120832089869295
3625.0,0.0006141032492161159
3624.0,0.0006122288586721898
3623.0,0.000604108920129772
3622.0,0.0005868921015592954
3621.0,0.0005615414150266204
3620.0,0.0005370937804787137
3619.0,0.000526632463880438
3618.0,0.0005340869753745221
3617.0,0.0005503362626245555
3616.0,0.0005649053240189769
3615.0,0.000574951519299068
3614.0,0.0005848120312033111
3613.0,0.0005998962456033867
3612.0,0.0006194620141111144
3611.0,0.0006364444671419102
3610.0,0.0006436618515559819
3609.0,0.0006372052635520014
3608.0,0.0006183690891395391
3607.0,0.0005943921429743577
3606.0,0.0005735293749048974
3605.0,0.0005597770551552056
3604.0,0.0005527068496780565
3603.0,0.0005504842715105231
3602.0,0.0005505290148150544
3601.0,0.0005502048124014922
3600.0,0.000548528355669694
3599.0,0.000546909237950126
3598.0,0.0005479129006319928
3597.0,0.0005530111672048698
3596.0,0.0005616982814591236
3595.0,0.0005730203382696351
3594.0,0.0005864360074861966
3593.0,0.0006000003458510602
3592.0,0.0006098227573446677
3591.0,0.000610407825640147
3590.0,0.0005976305219336257
3589.0,0.0005725411276978072
3588.0,0.0005448326608795614
3587.0,0.0005288881615159336
3586.0,0.0005308591861600505
3585.0,0.0005441127264063944
3584.0,0.000558946435459038
3583.0,0.0005695215996478806
3582.0,0.0005732112404982563
3581.0,0.0005709687237855752
3580.0,0.0005685936210381728
3579.0,0.0005733140403962419
3578.0,0.0005871027137627031
3577.0,0.0006038686049524441
3576.0,0.0006150618435910639
3575.0,0.0006167937417680434
3574.0,0.0006120128848258789
3573.0,0.0006063692870892627
3572.0,0.0006040161263682969
3571.0,0.0006064735286733246
3570.0,0.0006128201600482528
3569.0,0.0006195158830901574
3568.0,0.000619538118592215
3567.0,0.0006080831118918049
3566.0,0.000592135494519538
3565.0,0.0005831100775415466
3564.0,0.000584033513857037
3563.0,0.0005918396377083453
3562.0,0.0006032965102069579
3561.0,0.0006157471271470218
3560.0,0.0006259251570484545
3559.0,0.0006311788042056563
3558.0,0.0006319116792489629
3557.0,0.0006319465968877306
3556.0,0.0006361576169525038
3555.0,0.0006469382158340872
3554.0,0.0006616137090629605
3553.0,0.0006728734513991402
3552.0,0.0006746202665563344
3551.0,0.000668371216544894
3550.0,0.0006614885795468061
3549.0,0.0006596851544519505
3548.0,0.0006613313641085028
3547.0,0.0006587022493077922
3546.0,0.0006473090064889424
3545.0,0.0006331338436089262
3544.0,0.0006271688528387862
3543.0,0.0006339726606541261
3542.0,0.000649007675179415
3541.0,0.0006642875822306191
3540.0,0.0006740184835868295
3539.0,0.0006769480915789546
3538.0,0.0006750902280754763
3537.0,0.0006712662961390266
3536.0,0.0006677973560151746
3535.0,0.0006668891613007292
3534.0,0.0006702489565354452
3533.0,0.0006774968993566141
3532.0,0.0006856406460328324
3531.0,0.0006912482519458791
3530.0,0.0006938840661925314
3529.0,0.000695863866507564
3528.0,0.0006983721866346724
3527.0,0.0006997366080993159
3526.0,0.0006985471360270442
3525.0,0.0006962190093965977
3524.0,0.0006948153767682236
3523.0,0.0006942677292229752
3522.0,0.0006936438134077928
3521.0,0.0006937823167583433
3520.0,0.000696480952924912
3519.0,0.0007017256796785154
3518.0,0.000706962751418811
3517.0,0.0007098392341342121
3516.0,0.000710493253280727
3515.0,0.0007105987911246459
3514.0,0.0007110895488413632
3513.0,0.0007117117763322912
3512.0,0.0007122299468077608
3511.0,0.0007126347057708769
3510.0,0.000712554146952891
3509.0,0.0007117508347745206
3508.0,0.0007112612781459841
3507.0,0.0007126063501963744
3506.0,0.0007155504301721414
3505.0,0.0007175636425539288
3504.0,0.0007163790837617246
3503.0,0.0007132732462824228
3502.0,0.000712397631084304
3501.0,0.0007157196888129152
3500.0,0.0007208296040401279
3499.0,0.0007248821661994542
3498.0,0.0007283328049553807
3497.0,0.0007334971698912003
3496.0,0.0007404472885756204
3495.0,0.000746041109318677
3494.0,0.0007473685336542855
3493.0,0.0007449376288459514
3492.0,0.000741741761698587
3491.0,0.0007400134130264714
3490.0,0.0007396509290316594
3489.0,0.000739532215715473
3488.0,0.0007398094275439424
3487.0,0.0007422748558160626
3486.0,0.0007481400863466635
3485.0,0.000756319496971899
3484.0,0.0007642919265487577
3483.0,0.0007701353525369889
3482.0,0.00077346834944736
3481.0,0.0007747446850939128
3480.0,0.0007746215899046096
3479.0,0.000774099762457713
3478.0,0.0007742713938655899
3477.0,0.0007754371438498315
3476.0,0.0007770892160301355
3475.0,0.0007788806906303747
3474.0,0.000780943043002885
3473.0,0.0007832500161077543
3472.0,0.0007857540689764995
3471.0,0.000789490935036612
3470.0,0.0007961704455942806
3469.0,0.0008056368459076174
3468.0,0.0008149891650142327
3467.0,0.0008216416386796564
3466.0,0.0008264262685805843
3465.0,0.0008324236183375521
3464.0,0.0008411782362357191
3463.0,0.0008508823775643334
3462.0,0.0008580268598430774
3461.0,0.0008606130755432831
3460.0,0.0008603553469768387
3459.0,0.0008622660699217793
3458.0,0.0008710184269068212
3457.0,0.0008867325671903673
3456.0,0.0009046482265682939
3455.0,0.0009194921877323067
3454.0,0.0009293450768503304
3453.0,0.000935189523136416
3452.0,0.0009384994080846923
3451.0,0.000940343088703235
3450.0,0.0009418086693614408
3449.0,0.0009434230035149603
3448.0,0.0009445573894995662
3447.0,0.0009451677283682553
3446.0,0.0009473267381571988
3445.0,0.0009526603045972738
3444.0,0.0009594073804762976
3443.0,0.0009646047470959491
3442.0,0.0009684187528373374
3441.0,0.0009741163390664755
3440.0,0.0009832162576708194
3439.0,0.0009925204365365877
3438.0,0.0009968337565460295
3437.0,0.0009937921345764345
3436.0,0.0009860905216776497
3435.0,0.0009801562093323328
3434.0,0.000981660919277737
3433.0,0.0009902393221075212
3432.0,0.0009990679901525903
3431.0,0.0010016609786650133
3430.0,0.000999084705118676
3429.0,0.0009977443149576906
3428.0,0.0010003420541116826
3427.0,0.0010031930791034166
3426.0,0.0010034060088479184
3425.0,0.0010038399226032443
3424.0,0.0010081960240474735
3423.0,0.0010148068994698203
3422.0,0.0010189622608963794
3421.0,0.0010197422729212996
3420.0,0.0010203951257826897
3419.0,0.0010221092267237455
3418.0,0.0010211253774514914
3417.0,0.001012427161611532
3416.0,0.000994440443288719
3415.0,0.0009707129060553916
3414.0,0.0009485602283001227
3413.0,0.0009348771953134492
3412.0,0.0009311286310216792
3411.0,0.0009325844775329814
3410.0,0.0009336239255987441
3409.0,0.0009332384140425247
3408.0,0.0009342010199119902
3407.0,0.0009380736825171986
3406.0,0.0009428027792709268
3405.0,0.0009443217309946436
3404.0,0.0009388045317210133
3403.0,0.0009248799010664419
3402.0,0.0009060636870021966
3401.0,0.0008903636893970756
3400.0,0.0008851745093029994
3399.0,0.000892073941700913
3398.0,0.0009068682231934649
3397.0,0.0009230577641953959
3396.0,0.0009342343344761654
3395.0,0.0009356458743997266
3394.0,0.0009271162252132896
3393.0,0.0009147697326666064
3392.0,0.0009070036817241129
3391.0,0.000907403899381335
3390.0,0.0009126977230698044
3389.0,0.0009172009463665478
3388.0,0.0009175956471231853
3387.0,0.0009144289050320306
3386.0,0.0009114147763413431
3385.0,0.0009129901344984901
3384.0,0.0009201138095833682
3383.0,0.0009282362573010334
3382.0,0.0009311738914633369
3381.0,0.0009269249212584072
3380.0,0.0009183668239219993
3379.0,0.0009089335736280611
3378.0,0.0009000980007290906
3377.0,0.0008930680422538019
3376.0,0.0008898276157955779
3375.0,0.0008907335140727023
3374.0,0.0008929047939930071
3373.0,0.0008928159659706896
3372.0,0.000889783567217991
3371.0,0.0008860274914738193
3370.0,0.0008840109184168486
3369.0,0.0008842609301100005
3368.0,0.0008850105968802357
3367.0,0.0008835531470292013
3366.0,0.0008788592579989296
3365.0,0.0008732654089308447
3364.0,0.0008706934912879954
3363.0,0.0008730270175287852
3362.0,0.0008791329978157971
3361.0,0.0008872662749849875
3360.0,0.000896721360700311
3359.0,0.0009066190280230795
3358.0,0.0009148066656596667
3357.0,0.0009191661246277343
3356.0,0.0009190508265395812
3355.0,0.0009147407703503866
3354.0,0.0009068853215958687
3353.0,0.0008974388274005838
3352.0,0.0008896207797734984
3351.0,0.0008852004366668924
3350.0,0.0008824323949359076
3349.0,0.0008782334796079076
3348.0,0.0008722055593113258
3347.0,0.0008674636977023303
3346.0,0.0008675978456141045
3345.0,0.000873629590964718
3344.0,0.0008834380779326938
3343.0,0.0008929408339933803
3342.0,0.0008980064475239886
3341.0,0.0008964922323042421
3340.0,0.000889303685342926
3339.0,0.0008795740150809733
3338.0,0.0008708094671999182
3337.0,0.000865542736587952
3336.0,0.0008647663097316924
3335.0,0.0008676889658518407
3334.0,0.0008719205907853397
3333.0,0.0008743298733090775
3332.0,0.0008722961324426958
3331.0,0.0008650386493478633
3330.0,0.0008545312014471838
3329.0,0.0008447586409664706
3328.0,0.000838875855767347
3327.0,0.0008367724733456558
3326.0,0.0008360572299752642
3325.0,0.0008354105534289242
3324.0,0.0008358586994088122
3323.0,0.0008384922813337323
3322.0,0.000842159762691967
3321.0,0.000844193633173328
3320.0,0.0008429558282435775
3319.0,0.0008394459038312332
3318.0,0.0008368484628124857
3317.0,0.0008380444063665264
3316.0,0.0008422659925629964
3315.0,0.0008443989525996659
3314.0,0.000839496988970397
3313.0,0.0008285890699061922
3312.0,0.0008183332885878941
3311.0,0.0008140061140216699
3310.0,0.0008143449940958281
3309.0,0.0008142093331345232
3308.0,0.0008105944069451074
3307.0,0.0008047488686447263
3306.0,0.0008002460450883837
3305.0,0.0008009666574043453
3304.0,0.0008091354222537236
3303.0,0.0008223071757090478
3302.0,0.000832858210329602
3301.0,0.0008334480636969855
3300.0,0.0008236914690202453
3299.0,0.0008101213454483963
3298.0,0.0007997773556003194
3297.0,0.0007952735970541971
3296.0,0.0007955165187159528
3295.0,0.0007985178158480756
3294.0,0.0008025029029795994
3293.0,0.0008058782847227828
3292.0,0.0008072593522982731
3291.0,0.0008051836509606473
3290.0,0.0007984041138443644
3289.0,0.000788267618018323
3288.0,0.000780583789150668
3287.0,0.0007822169887387769
3286.0,0.0007939670946060431
3285.0,0.0008080457940942752
3284.0,0.000814352081779737
3283.0,0.0008092090621397868
3282.0,0.0007975895192138679
3281.0,0.0007878713187770062
3280.0,0.0007853394987755249
3279.0,0.0007894279710386931
3278.0,0.0007951133496804767
3277.0,0.0007969956452934114
3276.0,0.0007935832287312833
3275.0,0.0007881853400587529
3274.0,0.0007851232283363253
3273.0,0.0007851024204279437
3272.0,0.000784824327440932
3271.0,0.0007809317574670562
3270.0,0.0007736897090646416
3269.0,0.0007667417469425994
3268.0,0.0007634809034103378
3267.0,0.0007634927242721808
3266.0,0.0007626763070401445
3265.0,0.0007575393329890984
3264.0,0.0007495104180682486
3263.0,0.0007438072342083789
3262.0,0.0007433038030198861
3261.0,0.000744793169011371
3260.0,0.0007429250211965774
3259.0,0.0007373174228046893
3258.0,0.0007336876700945291
3257.0,0.0007373744190459883
3256.0,0.0007470040998454394
3255.0,0.0007554316765024607
3254.0,0.0007563452699076137
3253.0,0.0007494048735421079
3252.0,0.000739521641727869
3251.0,0.0007321531321634405
3250.0,0.0007293859298516704
3249.0,0.0007295258786190132
3248.0,0.0007296026134834327
3247.0,0.0007281376421921659
3246.0,0.0007259717832657897
3245.0,0.0007250781685300036
3244.0,0.0007267228487463444
3243.0,0.0007302261385346462
3242.0,0.0007330474349967491
3241.0,0.0007323128983755657
3240.0,0.0007268552904663584
3239.0,0.000717961121343006
3238.0,0.0007082220745282088
3237.0,0.0007001561266571527
3236.0,0.000695763748968596
3235.0,0.0006960039898119762
3234.0,0.0006995292814020656
3233.0,0.0007027753033320382
3232.0,0.0007028674176908881
3231.0,0.0007003344306974977
3230.0,0.000697772383941279
3229.0,0.0006959842446164114
3228.0,0.0006930360499813582
3227.0,0.0006874499523495547
3226.0,0.0006806194156886471
3225.0,0.0006748954162604368
3224.0,0.0006703053406829798
3223.0,0.0006646565823998955
3222.0,0.0006569200814692286
3221.0,0.0006495198965760245
3220.0,0.0006467289538993242
3219.0,0.0006507296775869594
3218.0,0.0006592969975701004
3217.0,0.000667499436077485
3216.0,0.0006717063750769425
3215.0,0.0006720103969635362
3214.0,0.0006710834322765005
3213.0,0.0006712981767481045
3212.0,0.0006730268530937211
3211.0,0.0006746163269633939
3210.0,0.0006732005708931116
3209.0,0.000666581120314813
3208.0,0.0006557589825044765
3207.0,0.0006450268415489336
3206.0,0.0006380880946823113
3205.0,0.0006344073073164593
3204.0,0.0006308275095055739
3203.0,0.000626191477449013
3202.0,0.0006222152675344449
3201.0,0.000620108814005093
3200.0,0.0006192893613877554
3199.0,0.0006200148441879232
3198.0,0.0006239665513980045
3197.0,0.0006304139009342987
3196.0,0.0006347996911753777
3195.0,0.0006340193000690799
3194.0,0.0006309293801641554
3193.0,0.0006305282079829196
3192.0,0.0006331374717255487
3191.0,0.0006346165109243246
3190.0,0.000632632029649163
3189.0,0.0006290561929892957
3188.0,0.0006259669139498009
3187.0,0.0006229441460292284
3186.0,0.0006196431945389303
3185.0,0.0006178906138553282
3184.0,0.0006190453193330715
3183.0,0.0006213690793524724
3182.0,0.0006221451121976271
3181.0,0.0006210629299648315
3180.0,0.0006196259562047814
3179.0,0.0006183243799623026
3178.0,0.0006163241918951796
3177.0,0.0006134155628782181
3176.0,0.0006105820927560982
3175.0,0.0006087361847635284
3174.0,0.0006080133519517169
3173.0,0.0006079897079000483
3172.0,0.0006075369249359562
3171.0,0.0006050020993256708
3170.0,0.000600026868475296
3169.0,0.0005951344230965249
3168.0,0.0005941025557847805
3167.0,0.0005980838236072454
3166.0,0.000603794398269356
3165.0,0.0006057494533259036
3164.0,0.0006003289785224904
3163.0,0.0005885200841344361
3162.0,0.0005755427889127644
3161.0,0.0005674308973641379
3160.0,0.0005669508108504294
3159.0,0.0005725562881519019
3158.0,0.0005811811778669925
3157.0,0.0005907713971853268
3156.0,0.0005991762245187337
3155.0,0.0006023768500028776
3154.0,0.0005969335120511383
3153.0,0.000584719124914396
3152.0,0.0005730355478887086
3151.0,0.0005685435147832835
3150.0,0.0005715419152220628
3149.0,0.0005767014169910929
3148.0,0.0005784166665276744
3147.0,0.0005749516278227407
3146.0,0.0005688724903541517
3145.0,0.0005647138308879024
3144.0,0.0005652763945773243
3143.0,0.0005689746183224783
3142.0,0.0005711579978395028
3141.0,0.0005688239840667788
3140.0,0.0005637008851942223
3139.0,0.0005601153397255627
3138.0,0.0005604390529719764
3137.0,0.0005635735587984975
3136.0,0.0005670991760991401
3135.0,0.000569396176849019
3134.0,0.0005700935326488495
3133.0,0.0005701853968484843
3132.0,0.0005718451473608183
3131.0,0.0005763660960021984
3130.0,0.0005815987491928385
3129.0,0.0005829804838958249
3128.0,0.0005783792232017384
3127.0,0.0005709441543120171
3126.0,0.0005659802323558969
3125.0,0.0005657497129990374
3124.0,0.0005682327568493612
3123.0,0.0005699648490827325
3122.0,0.0005686027920272055
3121.0,0.0005633596989406659
3120.0,0.0005552186630890702
3119.0,0.0005473320735277614
3118.0,0.0005433881878293732
3117.0,0.0005444051066147394
3116.0,0.0005479928660591319
3115.0,0.0005514989239190026
3114.0,0.0005547783665259174
3113.0,0.0005587391686744617
3112.0,0.0005623813149950162
3111.0,0.0005634195686192508
3110.0,0.0005618026978139023
3109.0,0.0005609559477879423
3108.0,0.0005644568496962435
3107.0,0.0005719023934449485
3106.0,0.0005789731639864283
3105.0,0.0005812487015225224
3104.0,0.0005776017469933645
3103.0,0.0005704979793658762
3102.0,0.0005637346975351448
3101.0,0.0005596724852252155
3100.0,0.0005579454445120903
3099.0,0.0005567781503111403
3098.0,0.0005554790262991867
3097.0,0.0005550885629032972
3096.0,0.0005564792954146211
3095.0,0.0005587755539721146
3094.0,0.0005606580278972264
3093.0,0.0005626418975959314
3092.0,0.0005664369819267688
3091.0,0.0005718084507786692
3090.0,0.0005754360023147085
3089.0,0.0005738648008724932
3088.0,0.0005672427967843354
3087.0,0.0005594617353505619
3086.0,0.0005548929001236472
3085.0,0.0005557048347333863
3084.0,0.0005617589071218905
3083.0,0.0005713797729177223
3082.0,0.0005814430802354574
3081.0,0.0005879211047039813
3080.0,0.0005882890645675812
3079.0,0.0005837851591013665
3078.0,0.0005780630629156848
3077.0,0.0005730718008524681
3076.0,0.0005671475438487261
3075.0,0.0005580645679222823
3074.0,0.00054725862750429
3073.0,0.0005394684849800412
3072.0,0.0005381972139529458
3071.0,0.0005425050323741647
3070.0,0.0005485400594401426
3069.0,0.0005532503312398423
3068.0,0.0005558792591575743
3067.0,0.0005571729616315296
3066.0,0.0005585536988611978
3065.0,0.0005614717865991982
3064.0,0.000565891800100055
3063.0,0.0005690796788983286
3062.0,0.0005674538434005494
3061.0,0.0005606140520267575
3060.0,0.0005529145315483878
3059.0,0.0005498628067426726
3058.0,0.0005524996986530683
3057.0,0.0005563937578991587
3056.0,0.000556573016647646
3055.0,0.0005529580444156924
3054.0,0.0005499758083020509
3053.0,0.0005506190714461255
3052.0,0.0005524058786350569
3051.0,0.00054982388893951
3050.0,0.0005402439640034291
3049.0,0.000526690849100134
3048.0,0.000514640679311979
3047.0,0.000507222688478492
3046.0,0.0005038844841615027
3045.0,0.0005022149494142668
3044.0,0.0004996475496581584
3043.0,0.0004937973592161369
3042.0,0.00048320107128640836
3041.0,0.00046920157091867717
3040.0,0.0004566176033677081
3039.0,0.0004508413136709936
3038.0,0.00045328446300676875
3037.0,0.0004601711567786457
3036.0,0.0004663277232375739
3035.0,0.0004697977308578017
3034.0,0.00047186870401239056
3033.0,0.00047346418264811456
3032.0,0.00047391392582163145
3031.0,0.00047365476796640466
3030.0,0.0004758044911192963
3029.0,0.0004825205430840926
3028.0,0.0004911034828960835
3027.0,0.0004959168968016953
3026.0,0.0004944915509466427
3025.0,0.0004904537693658055
3024.0,0.0004899794852334936
3023.0,0.0004966192186553693
3022.0,0.0005093550729051686
3021.0,0.0005238495151706248
3020.0,0.0005348349316160188
3019.0,0.0005388829735764048
3018.0,0.0005368594262402486
3017.0,0.0005337640239624398
3016.0,0.0005350736810189548
3015.0,0.000542952316510488
3014.0,0.0005552903038779545
3013.0,0.0005675916914230192
3012.0,0.0005760581808956191
3011.0,0.0005802537308219415
3010.0,0.0005836409437951479
3009.0,0.0005905730821524147
3008.0,0.000601886137444506
3007.0,0.0006138170675063197
3006.0,0.0006211215605612297
3005.0,0.0006208821176914109
3004.0,0.000613961606836059
3003.0,0.0006044478703959753
3002.0,0.0005984850802102857
3001.0,0.0006012740962269911
3000.0,0.0006128500002118911
2999.0,0.0006271635842789715
2998.0,0.0006367638941762861
2997.0,0.0006392633029106647
2996.0,0.0006386928876162403
2995.0,0.0006411613101143044
2994.0,0.0006499130126112427
2993.0,0.0006636865883592297
2992.0,0.0006786664853882696
2991.0,0.0006916060730470884
2990.0,0.0007020763875830463
2989.0,0.0007122922808919615
2988.0,0.0007246672836734015
2987.0,0.0007397402443599806
2986.0,0.0007562071874855604
2985.0,0.0007723761376093408
2984.0,0.000787113588752082
2983.0,0.0008000929511359487
2982.0,0.0008117713928096153
2981.0,0.000822790714548192
2980.0,0.0008331568653197278
2979.0,0.0008426312181739977
2978.0,0.0008521400742160156
2977.0,0.0008635634117331972
2976.0,0.0008773809539326448
2975.0,0.0008916063460687848
2974.0,0.0009042902676216914
2973.0,0.0009158426307578796
2972.0,0.0009274697009247202
2971.0,0.0009382988660653611
2970.0,0.0009464567681186002
2969.0,0.0009525862473738636
2968.0,0.0009594916309105044
2967.0,0.0009672671231627675
2966.0,0.0009710522822536508
2965.0,0.0009656608548256095
2964.0,0.0009519199854200048
2963.0,0.0009366990409702986
2962.0,0.0009268999901988883
2961.0,0.0009238021541339897
2960.0,0.000923225392359373
2959.0,0.0009200507680770444
2958.0,0.000912587537344905
2957.0,0.0009028613466293025
2956.0,0.0008929946057479683
2955.0,0.0008818785610425915
2954.0,0.0008662450829989095
2953.0,0.0008453426338318835
2952.0,0.0008233585593495749
2951.0,0.0008060291919287973
2950.0,0.0007950248867249024
2949.0,0.0007864862419144955
2948.0,0.0007752518647619038
2947.0,0.0007599488866398542
2946.0,0.0007440437425712261
2945.0,0.0007325922024451379
2944.0,0.000728121709104047
2943.0,0.0007288525117654551
2942.0,0.0007301141601915763
2941.0,0.0007279784012562068
2940.0,0.0007223737151939012
2939.0,0.0007168825966838932
2938.0,0.0007147842222209972
2937.0,0.000715331879882688
2936.0,0.0007145145702614599
2935.0,0.0007096984226320389
2934.0,0.0007023580127437684
2933.0,0.0006960477521647873
2932.0,0.0006927942623104747
2931.0,0.000692606477457778
2930.0,0.0006952022683879219
2929.0,0.0007002923595804662
2928.0,0.0007060476290887111
2927.0,0.0007087975668007414
2926.0,0.0007051963573040986
2925.0,0.000694819102011398
2924.0,0.0006813334132134087
2923.0,0.0006713442082230942
2922.0,0.0006702789281279799
2921.0,0.0006771174921224628
2920.0,0.0006842701383576094
2919.0,0.000684767328233675
2918.0,0.0006795075746242198
2917.0,0.0006747655953837403
2916.0,0.0006738513773119007
2915.0,0.0006745952107387299
2914.0,0.0006754167720984609
2913.0,0.0006792122276796544
2912.0,0.0006886674794933826
2911.0,0.0007007102059291384
2910.0,0.0007085733328203082
2909.0,0.000708726448280736
2908.0,0.0007030852640212803
2907.0,0.0006954649501902803
2906.0,0.0006882901325839951
2905.0,0.0006825941416011575
2904.0,0.0006781841653473086
2903.0,0.000672759300276363
2902.0,0.0006623861963769516
2901.0,0.000645714301987685
2900.0,0.0006268618383909793
2899.0,0.0006130391951264321
2898.0,0.0006086005588674352
2897.0,0.0006113742336355824
2896.0,0.0006150743519458046
2895.0,0.0006153859527645346
2894.0,0.0006133854504195356
2893.0,0.0006128621808092758
2892.0,0.0006150462998298412
2891.0,0.0006167491599707829
2890.0,0.0006138038543267074
2889.0,0.0006050832569219868
2888.0,0.0005932317485223511
2887.0,0.0005826277148408567
2886.0,0.0005770630653645584
2885.0,0.000577627842652502
2884.0,0.0005816109922881991
2883.0,0.0005843765804498945
2882.0,0.000583658697510183
2881.0,0.0005814215886560167
2880.0,0.0005805539703187938
2879.0,0.0005808369554891661
2878.0,0.0005792350242164134
2877.0,0.0005737893610846612
2876.0,0.0005657436205753183
2875.0,0.0005581336915478127
2874.0,0.0005534323934785518
2873.0,0.000552150033445721
2872.0,0.0005524459647971498
2871.0,0.0005510948220207213
2870.0,0.0005462531973858336
2869.0,0.0005393513170790186
2868.0,0.0005335756983940078
2867.0,0.0005305966599838818
2866.0,0.0005296167538866836
2865.0,0.0005292309847324991
2864.0,0.0005286552664513808
2863.0,0.0005273184676250055
2862.0,0.0005249425993614681
2861.0,0.0005227234007540648
2860.0,0.0005229354505303809
2859.0,0.0005261967843944689
2858.0,0.0005297117948826789
2857.0,0.0005294464666132479
2856.0,0.0005241924084641476
2855.0,0.000516730408729586
2854.0,0.0005107494269731771
2853.0,0.0005066346751259194
2852.0,0.0005011295629566662
2851.0,0.0004915588065671887
2850.0,0.0004793564727459163
2849.0,0.00046844099363887906
2848.0,0.00046046820555227345
2847.0,0.0004535655023949367
2846.0,0.0004459292162815267
2845.0,0.00043845623859934595
2844.0,0.00043307319198183935
2843.0,0.0004301509157437196
2842.0,0.0004285492839187407
2841.0,0.00042691810424624096
2840.0,0.0004237949795262389
2839.0,0.00041786216247456415
2838.0,0.0004097525270845137
2837.0,0.00040245680372353546
2836.0,0.00039815810846288203
2835.0,0.0003951913369874125
2834.0,0.00039008966411421115
2833.0,0.00038230666300891156
2832.0,0.0003748990962531615
2831.0,0.00037063335262945893
2830.0,0.00036923600120482563
2829.0,0.0003689238503743743
2828.0,0.00036912020765094984
2827.0,0.00037081462972331604
2826.0,0.0003751483819518102
2825.0,0.0003821532454537351
2824.0,0.00039000939944077774
2823.0,0.0003953181546872905
2822.0,0.0003951751870780671
2821.0,0.00038957257814498634
2820.0,0.000381612070574453
2819.0,0.0003751533333748576
2818.0,0.00037240295989263725
2817.0,0.0003731484379509224
2816.0,0.0003753198646260892
2815.0,0.0003764860018132799
2814.0,0.00037557798044805
2813.0,0.00037333224237862963
2812.0,0.0003708213138253956
2811.0,0.0003680745481410054
2810.0,0.0003647581641412107
2809.0,0.00036127183811971483
2808.0,0.00035797952160140857
2807.0,0.00035412169840400487
2806.0,0.000349012198407222
2805.0,0.0003439199933021015
2804.0,0.0003411836947322591
2803.0,0.0003415257539688977
2802.0,0.0003438042118775175
2801.0,0.0003471042910650635
2800.0,0.0003510327364186584
2799.0,0.00035395118602537433
2798.0,0.0003532505077353217
2797.0,0.000348606161946896
2796.0,0.00034321461169568385
2795.0,0.00034031706165697784
2794.0,0.00033966359485981535
2793.0,0.0003387392952619353
2792.0,0.0003365980566650066
2791.0,0.00033487239597632833
2790.0,0.00033513436175508813
2789.0,0.00033662776341222974
2788.0,0.000337222467648048
2787.0,0.0003360913353609763
2786.0,0.00033478574281611655
2785.0,0.00033557491000493067
2784.0,0.00033888443708744514
2783.0,0.00034245748443907214
2782.0,0.0003431299294408869
2781.0,0.0003394991299238459
2780.0,0.0003329527378553609
2779.0,0.0003264773212326866
2778.0,0.00032269070153392783
2777.0,0.0003222608312752646
2776.0,0.0003236037758963483
2775.0,0.00032438732092370974
2774.0,0.00032365066702435446
2773.0,0.0003222648437997862
2772.0,0.00032130421354863994
2771.0,0.000320835721915188
2770.0,0.0003206079820228486
2769.0,0.0003206383427453448
2768.0,0.00032022228687201285
2767.0,0.00031772064165010584
2766.0,0.00031307007928679884
2765.0,0.0003095776866810706
2764.0,0.0003108468291574716
2763.0,0.00031600670033854353
2762.0,0.000319935856749033
2761.0,0.0003187140065204801
2760.0,0.0003134984856192732
2759.0,0.00030856823129765985
2758.0,0.00030702477051118885
2757.0,0.00030890601665436047
2756.0,0.00031212497381429835
2755.0,0.0003141587522240653
2754.0,0.0003135040488247231
2753.0,0.0003105733437958082
2752.0,0.0003071647397634729
2751.0,0.0003048124407083735
2750.0,0.0003039411825663061
2749.0,0.00030436736833211177
2748.0,0.0003058196551199419
2747.0,0.0003079100880700734
2746.0,0.00031030547325905557
2745.0,0.0003129618199718201
2744.0,0.0003156320203513634
2743.0,0.0003174637121267875
2742.0,0.00031788587574967965
2741.0,0.00031757585727866245
2740.0,0.0003174922815027746
2739.0,0.00031729948661750795
2738.0,0.0003160249123286301
2737.0,0.00031397325197986953
2736.0,0.000312304143670517
2735.0,0.0003107595515747035
2734.0,0.00030778484664602555
2733.0,0.0003033472929630097
2732.0,0.0002997810835701934
2731.0,0.00029886042340134705
2730.0,0.0002995878856159921
2729.0,0.0003000266999175791
2728.0,0.00029991561877272977
2727.0,0.0002999784509556725
2726.0,0.0002996797493010842
2725.0,0.00029756750532158416
2724.0,0.0002939443712053955
2723.0,0.0002918705180091383
2722.0,0.00029470535822282123
2721.0,0.00030260193131721155
2720.0,0.000311317455800314
2719.0,0.00031485897056395305
2718.0,0.00031038677325170405
2717.0,0.0003011127949679897
2716.0,0.00029363163347711374
2715.0,0.0002918504677523277
2714.0,0.00029399115736998175
2713.0,0.0002956913711499107
2712.0,0.00029485261464434894
2711.0,0.0002925570105898854
2710.0,0.000290296584561381
2709.0,0.0002880884296582625
2708.0,0.0002854438198021127
2707.0,0.0002829215237067958
2706.0,0.00028183507550126315
2705.0,0.00028268743094803924
2704.0,0.00028445307569772987
2703.0,0.00028552180937863877
2702.0,0.00028512975632639833
2701.0,0.0002837338938373675
2700.0,0.0002822523401931856
2699.0,0.00028138602461263626
2698.0,0.00028151108591726286
2697.0,0.00028242970528424567
2696.0,0.0002829774664395142
2695.0,0.00028182488035620776
2694.0,0.0002794011885692225
2693.0,0.0002782124091706915
2692.0,0.0002802268785481762
2691.0,0.0002843395901374315
2690.0,0.00028741847515884636
2689.0,0.0002874952796112035
2688.0,0.0002850915294234961
2687.0,0.0002819694017746697
2686.0,0.00027981480626182556
2685.0,0.0002797337302770804
2684.0,0.00028151133219878543
2683.0,0.000283350391697789
2682.0,0.00028361368594989345
2681.0,0.0002828366143264039
2680.0,0.00028277674334583827
2679.0,0.0002836248598329531
2678.0,0.0002837198714381294
2677.0,0.000282161874091362
2676.0,0.0002799560403900545
2675.0,0.0002780615679926834
2674.0,0.00027600383504878796
2673.0,0.00027340772237595217
2672.0,0.00027160733724191055
2671.0,0.00027245376880827445
2670.0,0.00027609666079393295
2669.0,0.0002807456148791146
2668.0,0.0002843469215933304
2667.0,0.0002862070026605667
2666.0,0.00028754464261976506
2665.0,0.0002905191758449767
2664.0,0.0002959447763745754
2663.0,0.00030210697436415355
2662.0,0.000306865558502815
2661.0,0.00031076116798740773
2660.0,0.0003162449555404857
2659.0,0.0003235360842363968
2658.0,0.00032927932910264393
2657.0,0.0003305064168357547
2656.0,0.00032841814430143655
2655.0,0.00032663447252711896
2654.0,0.00032686891161996134
2653.0,0.00032796047107964396
2652.0,0.0003285663360534038
2651.0,0.00032905300239917363
2650.0,0.0003305668804983116
2649.0,0.0003333217570639749
2648.0,0.00033619474680084393
2647.0,0.00033789988267142343
2646.0,0.0003386371651163882
2645.0,0.0003403191430229733
2644.0,0.00034424719067589077
2643.0,0.0003486830864682441
2642.0,0.00035022156601971234
2641.0,0.0003479267111367672
2640.0,0.0003445681886990407
2639.0,0.0003430740346111967
2638.0,0.00034352318969081333
2637.0,0.0003447036111781488
2636.0,0.00034663656985976495
2635.0,0.0003495899364222124
2634.0,0.00035193199747190476
2633.0,0.0003512655729887992
2632.0,0.0003473283253025174
2631.0,0.0003421787161277443
2630.0,0.0003379641273085433
2629.0,0.00033594187063764474
2628.0,0.00033683363773483584
2627.0,0.00034013544571843214
2626.0,0.0003434682987122695
2625.0,0.0003446804540110284
2624.0,0.0003448176925540312
2623.0,0.00034708544395772525
2622.0,0.0003523572175196085
2621.0,0.0003572575702670747
2620.0,0.00035773547949925614
2619.0,0.0003538670685386403
2618.0,0.0003501801121379613
2617.0,0.0003512309135401023
2616.0,0.00035684936138506154
2615.0,0.0003617207670165398
2614.0,0.00036000057827467236
2613.0,0.0003507238898654132
2612.0,0.0003385948141602991
2611.0,0.0003295076724240337
2610.0,0.0003260581884459926
2609.0,0.0003270547389195916
2608.0,0.0003298100909783059
2607.0,0.00033231729937545064
2606.0,0.00033448118975663784
2605.0,0.00033821692549172266
2604.0,0.00034506998085675534
2603.0,0.0003528386611933781
2602.0,0.00035616277086253557
2601.0,0.0003520034814887593
2600.0,0.0003433890298786636
2599.0,0.00033614491000680366
2598.0,0.0003331635493696072
2597.0,0.0003336548919743791
2596.0,0.00033652040751615367
2595.0,0.00034174436923151694
2594.0,0.0003486628441387761
2593.0,0.000355304884127207
2592.0,0.0003598910396076033
2591.0,0.0003614589481924083
2590.0,0.00035919695979354113
2589.0,0.00035302240722785434
2588.0,0.00034500941852777517
2587.0,0.00033850376295335233
2586.0,0.00033549916144742277
2585.0,0.0003361241960313248
2584.0,0.0003402392172087891
2583.0,0.0003473237624262205
2582.0,0.0003545547895867976
2581.0,0.0003576534772647749
2580.0,0.00035529637770435
2579.0,0.00035127521501002813
2578.0,0.00035073809937767456
2577.0,0.0003546844063742713
2576.0,0.0003590649081982823
2575.0,0.00035897199587116947
2574.0,0.00035295790314146606
2573.0,0.0003436682869309323
2572.0,0.00033507530863920355
2571.0,0.00032922303666413713
2570.0,0.00032561354598188724
2569.0,0.0003235026553603132
2568.0,0.00032381271557933476
2567.0,0.00032780879718818115
2566.0,0.0003342703165706867
2565.0,0.00033962191175115013
2564.0,0.0003415869273008521
2563.0,0.00034159097748461
2562.0,0.0003425921700869924
2561.0,0.00034523254101065804
2560.0,0.0003473996421395062
2559.0,0.0003475641085264593
2558.0,0.0003471254223380821
2557.0,0.0003484925296672631
2556.0,0.00035144887154805115
2555.0,0.0003526667572907823
2554.0,0.0003492300931180809
2553.0,0.00034181193102628555
2552.0,0.0003337425551928889
2551.0,0.00032767790247766087
2550.0,0.0003239876459851257
2549.0,0.00032167352293899215
2548.0,0.0003196400972887417
2547.0,0.00031742041519763355
2546.0,0.0003160544799442371
2545.0,0.00031818363501671465
2544.0,0.0003255988012143614
2543.0,0.00033610641886903833
2542.0,0.00034413066631411586
2541.0,0.00034535729899856914
2540.0,0.00034021630682977893
2539.0,0.00033257663135374555
2538.0,0.0003261475325715902
2537.0,0.00032242349588825023
2536.0,0.0003206007704636344
2535.0,0.0003186841495803755
2534.0,0.00031575315192424326
2533.0,0.00031360477911657853
2532.0,0.000314750701535168
2531.0,0.0003183593829490526
2530.0,0.0003202943131635282
2529.0,0.0003184979622424062
2528.0,0.0003163533098180891
2527.0,0.0003184934326387204
2526.0,0.00032452167827975146
2525.0,0.00032941881147596633
2524.0,0.0003296766503330384
2523.0,0.0003265809266816905
2522.0,0.000323409028195307
2521.0,0.00032168334146539845
2520.0,0.0003207526821047991
2519.0,0.000319293126869314
2518.0,0.00031635523437373883
2517.0,0.00031211197576091695
2516.0,0.000308396107774003
2515.0,0.00030765178726602606
2514.0,0.00031051557456480516
2513.0,0.0003146977811456221
2512.0,0.0003166567466918257
2511.0,0.0003143958971753113
2510.0,0.00030902010196369857
2509.0,0.00030423629270568656
2508.0,0.0003040420071248577
2507.0,0.00030971992956301117
2506.0,0.00031843918057000844
2505.0,0.0003250384585763068
2504.0,0.00032559975870434093
2503.0,0.00031987136936266426
2502.0,0.00031130584933415525
2501.0,0.00030525626383733247
2500.0,0.0003056230517766538
2499.0,0.00031126029344490634
2498.0,0.00031575896581098226
2497.0,0.00031290282514759716
2496.0,0.00030343248934611443
2495.0,0.00029512192261386895
2494.0,0.00029490235930129357
2493.0,0.00030156207448461076
2492.0,0.00030748623105776455
2491.0,0.00030705327186411494
2490.0,0.0003015272649480476
2489.0,0.0002955579282861682
2488.0,0.0002911718341997745
2487.0,0.0002871735155549267
2486.0,0.0002833811727144533
2485.0,0.00028245621797573256
2484.0,0.00028639353116062435
2483.0,0.00029313071748317217
2482.0,0.00029861702179786895
2481.0,0.00030144217451800955
2480.0,0.00030328810494649645
2479.0,0.0003047283408980358
2478.0,0.0003029038879930271
2477.0,0.000295004187325085
2476.0,0.00028304423170654255
2475.0,0.00027321171927813595
2474.0,0.0002700582180776587
2473.0,0.0002724346047576102
2472.0,0.0002759052064281649
2471.0,0.0002783772612371383
2470.0,0.00028171422673073436
2469.0,0.00028734183871409805
2468.0,0.00029205241606461305
2467.0,0.00029044624174122836
2466.0,0.0002815072954897433
2465.0,0.0002706769417764753
2464.0,0.00026461012103065417
2463.0,0.00026558497825832176
2462.0,0.0002719800589970341
2461.0,0.00028182017197427717
2460.0,0.0002933343797370805
2459.0,0.00030345213718962675
2458.0,0.00030899261980653564
2457.0,0.0003096348208593639
2456.0,0.00030768095343714863
2455.0,0.0003049567361664765
2454.0,0.0003021189285675021
2453.0,0.0003008243305198637
2452.0,0.0003034605652556222
2451.0,0.00030951125450476286
2450.0,0.0003146084178847895
2449.0,0.00031500984102234453
2448.0,0.0003116463009335389
2447.0,0.00030826614745234885
2446.0,0.00030669412258329577
2445.0,0.00030530485488398267
2444.0,0.0003014232403940383
2443.0,0.00029416140349080227
2442.0,0.0002854084545007949
2441.0,0.0002786802899432753
2440.0,0.00027649217962926587
2439.0,0.00027861786071841006
2438.0,0.00028339487509249144
2437.0,0.0002899661547904917
2436.0,0.00029751537902715475
2435.0,0.0003029162702661563
2434.0,0.0003022280314160809
2433.0,0.0002956796484601391
2432.0,0.00028878396048724256
2431.0,0.0002867914676414543
2430.0,0.0002896271688801966
2429.0,0.00029347116246390047
2428.0,0.00029528513923268864
2427.0,0.0002941976915122773
2426.0,0.0002906277600361448
2425.0,0.0002866017956180821
2424.0,0.0002856034044428273
2423.0,0.00028942283573802865
2422.0,0.00029564120091613526
2421.0,0.00030023380022356727
2420.0,0.0003019945033016238
2419.0,0.00030238793434215317
2418.0,0.00030195639198995583
2417.0,0.0002996643748470005
2416.0,0.0002957756875362831
2415.0,0.0002926519650764117
2414.0,0.00029174544386508053
2413.0,0.0002917374053280537
2412.0,0.00029091510411500973
2411.0,0.0002900657119626747
2410.0,0.0002914397385458081
2409.0,0.0002951251651868
2408.0,0.000297702286136924
2407.0,0.00029520542090089627
2406.0,0.00028740363000524745
2405.0,0.00027879003348312307
2404.0,0.0002748802710590167
2403.0,0.0002774044265250588
2402.0,0.00028330313125491736
2401.0,0.0002881915498933413
2400.0,0.0002902140929556311
2399.0,0.0002906497731240131
2398.0,0.00029178448340997764
2397.0,0.0002946372108147571
2396.0,0.0002979794450880886
2395.0,0.00029916014042532293
2394.0,0.00029664408018551213
2393.0,0.0002920834779645983
2392.0,0.0002892288585712746
2391.0,0.00029088314372503673
2390.0,0.0002979964777858278
2389.0,0.0003113374145786095
2388.0,0.0003316134553309095
2387.0,0.00035686467136831454
2386.0,0.00038178827680643144
2385.0,0.00040129455818198003
2384.0,0.00041318962328303803
2383.0,0.0004155700773846773
2382.0,0.0004034777450321984
2381.0,0.0003718691618686267
2380.0,0.0003225648499690799
2379.0,0.00026520724918225404
2378.0,0.00020961416570775899
2377.0,0.00016122567685145165
2376.0,0.00012725736283947985
2375.0,0.00012149410296323146
2374.0,0.00015386957250718437
2373.0,0.00021496231056369474
2372.0,0.0002787249697664871
2371.0,0.00032318384650671715
2370.0,0.00034258801936548297
2369.0,0.0003402943369583441
2368.0,0.0003228029361385644
2367.0,0.0003044704892826518
2366.0,0.0003039907401357346
2365.0,0.00032736039975687936
2364.0,0.00036210545142118645
2363.0,0.0003918632081874066
2362.0,0.00040961604733229565
2361.0,0.00041517783840016676
2360.0,0.0004136823802120068
2359.0,0.00041242009577100987
2358.0,0.0004026819312213317
2357.0,0.00036078034075485044
2356.0,0.00028472339746881336
2355.0,0.00020596273246555025
2354.0,0.00014873663956806375
2353.0,0.00011458094021363053
2352.0,0.00011251995135222787
2351.0,0.00015790736425712941
2350.0,0.00023521370494082144
2349.0,0.0003000184474894664
2348.0,0.00032076921328437973
2347.0,0.0003052219450837236
2346.0,0.00029153393863664987
2345.0,0.00030721654506034356
2344.0,0.0003448800362279069
2343.0,0.0003772390874891954
2342.0,0.00037733093846030344
2341.0,0.00034123950225453046
2340.0,0.0002947779953428699
2339.0,0.00026734891787467523
2338.0,0.00026453980709813046
2337.0,0.0002728671558168592
2336.0,0.00027991267780205797
2335.0,0.00027833577977861684
2334.0,0.00026118573526846323
2333.0,0.00023160147779404007
2332.0,0.00021131630320958116
2331.0,0.00022152135445813057
2330.0,0.00026153900506092025
2329.0,0.00031530815130770176
2328.0,0.0003716265182375066
2327.0,0.00042430486871335876
2326.0,0.00046267399708100547
2325.0,0.00047565146813681664
2324.0,0.0004625630216512224
2323.0,0.0004341651294103211
2322.0,0.00040345324897316626
2321.0,0.00038083670160123583
2320.0,0.00037291708283337856
2319.0,0.0003793280731714012
2318.0,0.00039075517870383754
2317.0,0.0003940865435581687
2316.0,0.0003836054636561129
2315.0,0.00036709633211117414
2314.0,0.0003608052422877861
2313.0,0.00037473135617453794
2312.0,0.00040284497769542226
2311.0,0.000427977774308563
2310.0,0.00043828363470422215
2309.0,0.000437435013106615
2308.0,0.00043688546801460583
2307.0,0.00044239215252063084
2306.0,0.00045088289467855574
2305.0,0.00045865370474314264
2304.0,0.00046596327042898434
2303.0,0.00047403831282100226
2302.0,0.0004823866878361521
2301.0,0.0004910090966666679
2300.0,0.0005015588776864487
2299.0,0.0005140008199607972
2298.0,0.0005249032464837506
2297.0,0.0005304677824293652
2296.0,0.0005304130425808477
2295.0,0.0005268621085619295
2294.0,0.0005215356863069095
2293.0,0.0005153071943762201
2292.0,0.000509133243783548
2291.0,0.0005030558396826605
2290.0,0.0004953437088077055
2289.0,0.00048495861218258844
2288.0,0.0004743056460751469
2287.0,0.00046812016931765303
2286.0,0.0004689508571461017
2285.0,0.00047443977748582334
2284.0,0.0004782390285897819
2283.0,0.0004743987873998966
2282.0,0.0004623008050402016
2281.0,0.0004481912660829286
2280.0,0.0004401185091407413
2279.0,0.0004402989190594844
2278.0,0.0004433217103523699
2277.0,0.00044255894581591757
2276.0,0.0004370768042502566
2275.0,0.00043114117522148257
2274.0,0.00042865305474859024
2273.0,0.0004295695035455085
2272.0,0.000430341618491844
2271.0,0.0004258917209505173
2270.0,0.0004128711429259187
2269.0,0.0003935841632888763
2268.0,0.0003759936869631124
2267.0,0.00036733567143736615
2266.0,0.0003681618317647706
2265.0,0.00037389184228489716
2264.0,0.0003808296001750668
2263.0,0.0003883525690851132
2262.0,0.00039642217020395245
2261.0,0.00040433051930946
2260.0,0.0004117585731783379
2259.0,0.0004183945558228931
2258.0,0.0004220334387267855
2257.0,0.00041964186373243546
2256.0,0.0004106960125952276
2255.0,0.00039741881176890516
2254.0,0.00038178473254968625
2253.0,0.000365084440100705
2252.0,0.00035109680536117024
2251.0,0.00034612534289461914
2250.0,0.0003532177963937854
2249.0,0.0003678853111444459
2248.0,0.00038191994889343945
2247.0,0.0003908795413648154
2246.0,0.0003952055164746921
2245.0,0.00039451028234275393
2244.0,0.000385479112984961
2243.0,0.00036770866656219857
2242.0,0.0003487193583923251
2241.0,0.0003386235270470629
2240.0,0.0003396268234836115
2239.0,0.000344776154622869
2238.0,0.0003476859505950553
2237.0,0.00034970311971602527
2236.0,0.00035524443428578306
2235.0,0.00036359743778837967
2234.0,0.0003692227669591559
2233.0,0.00036835785331462115
2232.0,0.00036176193595984017
2231.0,0.00035180348414036124
2230.0,0.00034096773908548787
2229.0,0.000333420210757153
2228.0,0.0003340565327536709
2227.0,0.0003441521938295798
2226.0,0.0003594320321920534
2225.0,0.0003726622363164615
2224.0,0.0003778502607384707
2223.0,0.0003739348637916188
2222.0,0.00036675883700960015
2221.0,0.00036595216875664793
2220.0,0.00037599941211201657
2219.0,0.0003910003231397561
2218.0,0.0004006593183774811
2217.0,0.0003998611509244508
2216.0,0.0003894631832602405
2215.0,0.00037109824594325203
2214.0,0.0003479810741349262
2213.0,0.00032920991081877854
2212.0,0.00032474330348043285
2211.0,0.0003341634340951185
2210.0,0.0003470137463642451
2209.0,0.00035571235223310987
2208.0,0.0003620135481233591
2207.0,0.0003692812254601801
2206.0,0.00037549611512501587
2205.0,0.0003773626421993946
2204.0,0.0003748223919180562
2203.0,0.00036758436920800256
2202.0,0.00035377165061764007
2201.0,0.0003367944185976088
2200.0,0.0003272382558341922
2199.0,0.00033203598275197155
2198.0,0.00034605741269062845
2197.0,0.0003590520642603386
2196.0,0.00036593552806419454
2195.0,0.00036590637890790564
2194.0,0.00035867592547631654
2193.0,0.0003495735937207885
2192.0,0.0003523536657094213
2191.0,0.0003755206693074538
2190.0,0.00040762523000490596
2189.0,0.000425488588426024
2188.0,0.000417393259922739
2187.0,0.0003914294872890954
2186.0,0.0003620713046449156
2185.0,0.00033780918095967927
2184.0,0.0003217779259461072
2183.0,0.0003145195098943944
2182.0,0.0003130335729615756
2181.0,0.00031373604386211566
2180.0,0.00031894705551756557
2179.0,0.00033371899479521576
2178.0,0.0003540183319541545
2177.0,0.0003657957154465854
2176.0,0.00036101973931281
2175.0,0.00034934391533962273
2174.0,0.00034752620772925987
2173.0,0.0003607391261360063
2172.0,0.00038015959309465225
2171.0,0.00039612271938596665
2170.0,0.00040649509558735914
2169.0,0.0004125770627669469
2168.0,0.0004145286310412274
2167.0,0.0004144997761693673
2166.0,0.00042017952024262206
2165.0,0.000439157707784114
2164.0,0.0004683506395927108
2163.0,0.0004931611533628987
2162.0,0.0004982878683778706
2161.0,0.0004758584203560484
2160.0,0.0004233918496213111
2159.0,0.0003423752624280423
2158.0,0.00024705230336431885
2157.0,0.0001667599118737975
2156.0,0.00012518955863267362
2155.0,0.00012069216577177154
2154.0,0.00013472701780182727
2153.0,0.00015397337213223904
2152.0,0.00017796845546815565
2151.0,0.0002081025671860593
2150.0,0.0002381809011849846
2149.0,0.0002595596262827389
2148.0,0.00026941608516661516
2147.0,0.0002693629910408695
2146.0,0.0002613003381210435
2145.0,0.00025039900702169
2144.0,0.0002470925828982741
2143.0,0.0002586170363638268
2142.0,0.0002800102543751322
2141.0,0.00029816283754526365
2140.0,0.00030397505398097323
2139.0,0.00029696766761812325
2138.0,0.000280486562906468
2137.0,0.0002588822097057851
2136.0,0.00023909697803804224
2135.0,0.0002287863976011454
2134.0,0.00022980304050920701
2133.0,0.0002357425048390548
2132.0,0.0002377764296146501
2131.0,0.0002320057444922496
2130.0,0.00022161058876044983
2129.0,0.00021421320462475265
2128.0,0.00021693361954943394
2127.0,0.00023121243575898107
2126.0,0.0002510885805618082
2125.0,0.00026746452546689767
2124.0,0.00027520174088678057
2123.0,0.00027639887952138944
2122.0,0.0002774334491725492
2121.0,0.0002837560914772034
2120.0,0.0002964194507658888
2119.0,0.00031160800950346735
2118.0,0.00032342817322985956
2117.0,0.00032896597055040113
2116.0,0.0003311370017447904
2115.0,0.00033537591844962544
2114.0,0.0003435925780171523
2113.0,0.00035291915211408184
2112.0,0.0003601278259726524
2111.0,0.0003647950290654105
2110.0,0.0003677016250483892
2109.0,0.00036915236497077466
2108.0,0.0003706735716444583
2107.0,0.00037565844602499413
2106.0,0.00038523913801229495
2105.0,0.00039472155999999495
2104.0,0.00039727401560612
2103.0,0.00039119484035447934
2102.0,0.000381324874806105
2101.0,0.00037371148805823037
2100.0,0.00037125434831825657
2099.0,0.0003739871490829305
2098.0,0.00037948829051245994
2097.0,0.00038150222915103965
2096.0,0.0003725961372401116
2095.0,0.0003520803748004169
2094.0,0.00032924600713077313
2093.0,0.0003151000385231667
2092.0,0.00031272434832537046
2091.0,0.0003190553201335141
2090.0,0.00033264839340570266
2089.0,0.00035317361342193795
2088.0,0.000373877421387564
2087.0,0.0003825608620359803
2086.0,0.00037371335509433606
2085.0,0.00035520400252666277
2084.0,0.0003394236032422711
2083.0,0.00033125980448137185
2082.0,0.0003288293620604445
2081.0,0.00033138240023660684
2080.0,0.0003397920338776593
2079.0,0.0003515347939859567
2078.0,0.0003616908222739487
2077.0,0.0003688764594740889
2076.0,0.00037493157999459305
2075.0,0.00037883108072005384
2074.0,0.00037673609365625297
2073.0,0.0003693003361331442
2072.0,0.0003634475692310425
2071.0,0.0003644001140976625
2070.0,0.00036984895865356125
2069.0,0.00037382092334614317
2068.0,0.00037309880512488087
2067.0,0.00036803580886098856
2066.0,0.00035994182095362487
2065.0,0.0003499194222064095
2064.0,0.0003382011026677936
2063.0,0.0003234417426868724
2062.0,0.0003049550797200642
2061.0,0.00028666026620913205
2060.0,0.0002767171223624903
2059.0,0.000281980005032982
2058.0,0.0003029746344149101
2057.0,0.00033276579195623464
2056.0,0.00035975768854178776
2055.0,0.0003752423544122546
2054.0,0.0003815898995716274
2053.0,0.0003903984128752378
2052.0,0.0004088401258549875
2051.0,0.00043009811340467857
2050.0,0.0004408799857206325
2049.0,0.0004357870089345043
2048.0,0.0004186242066019639
2047.0,0.00039166783111484915
2046.0,0.00035438260964797705
2045.0,0.0003141981128447452
2044.0,0.0002864118103539063
2043.0,0.00027919742360616974
2042.0,0.0002871452384546581
2041.0,0.00030155328223001993
2040.0,0.00031894851253089375
2039.0,0.0003365454474343298
2038.0,0.0003476809484055977
2037.0,0.000347289113377885
2036.0,0.0003368559276541832
2035.0,0.000321068087674836
2034.0,0.0003049450903208848
2033.0,0.0002951313867415979
2032.0,0.00029510031880168505
2031.0,0.00029787689034546476
2030.0,0.00029322145511928956
2029.0,0.0002837259358968278
2028.0,0.00028373989296950176
2027.0,0.00029908304783006495
2026.0,0.0003182345747098917
2025.0,0.0003275208858733295
2024.0,0.00032534393030012683
2023.0,0.0003172626576348788
2022.0,0.00030681096686505517
2021.0,0.0002969732662750262
2020.0,0.00029164487551796534
2019.0,0.0002894028300607084
2018.0,0.00028299703727262563
2017.0,0.0002708195745449664
2016.0,0.0002615862525262331
2015.0,0.00026158848216621054
2014.0,0.0002662150979446002
2013.0,0.0002693855125873644
2012.0,0.0002728559571879529
2011.0,0.0002811978388476256
2010.0,0.0002938335523666987
2009.0,0.00030667075251693043
2008.0,0.00031603493605065943
2007.0,0.00031777535940444117
2006.0,0.000309965702161624
2005.0,0.00030046290345202894
2004.0,0.00030301210455708756
2003.0,0.00032060353022884166
2002.0,0.00033985957902094824
2001.0,0.0003461554965201084
2000.0,0.00033890543760731716
1999.0,0.00032776506261172314
1998.0,0.00031978772252685804
1997.0,0.00031608303647351994
1996.0,0.00031607673183842936
1995.0,0.0003200503789838718
1994.0,0.00032977795120247644
1993.0,0.00034765473676578746
1992.0,0.0003707440287967982
1991.0,0.0003869186654638519
1990.0,0.00038597405797941264
1989.0,0.0003753258664564663
1988.0,0.0003752713890966586
1987.0,0.0003948957226380842
1986.0,0.00042076799982553807
1985.0,0.00043571369605053455
1984.0,0.0004409019915225881
1983.0,0.0004512092781397939
1982.0,0.00047480337523008625
1981.0,0.0005044532276568192
1980.0,0.0005240237026818469
1979.0,0.0005176058091253751
1978.0,0.0004793554125723323
1977.0,0.00042371442699203803
1976.0,0.0003782678935334113
1975.0,0.00035801477742470055
1974.0,0.0003550555547081188
1973.0,0.00035688441635135353
1972.0,0.0003625739773924125
1971.0,0.00037448738889448856
1970.0,0.00038512200942719313
1969.0,0.0003831309874916614
1968.0,0.0003678856950856554
1967.0,0.0003498168180890565
1966.0,0.0003388208783151121
1965.0,0.00033914486596199633
1964.0,0.0003508014320926685
1963.0,0.00036678237485998264
1962.0,0.00037241721139095655
1961.0,0.0003578268924305364
1960.0,0.0003309093911813373
1959.0,0.00030998346206249385
1958.0,0.0003053535846980737
1957.0,0.0003142844901111946
1956.0,0.0003297282338979158
1955.0,0.0003461752225419143
1954.0,0.0003584361636748495
1953.0,0.00036265115418163336
1952.0,0.0003602899942174741
1951.0,0.00035641490670439613
1950.0,0.0003527705408723734
1949.0,0.00034514164380073335
1948.0,0.00032807322568736914
1947.0,0.00030131221736677674
1946.0,0.0002725989709869652
1945.0,0.0002544310860013323
1944.0,0.000255737683564398
1943.0,0.00027383692987659615
1942.0,0.0002958394071360757
1941.0,0.0003111656535476617
1940.0,0.00031801253111701826
1939.0,0.00031685010718665303
1938.0,0.0003071468579617476
1937.0,0.00029263830989826234
1936.0,0.00028221268345599774
1935.0,0.0002807329558293367
1934.0,0.0002827670710772722
1933.0,0.00027976751319654526
1932.0,0.0002707436846002663
1931.0,0.0002615449900435493
1930.0,0.000256473762665245
1929.0,0.0002547932231400364
1928.0,0.0002532735607991728
1927.0,0.0002484406742347245
1926.0,0.0002383608624686023
1925.0,0.000226001776833552
1924.0,0.0002194837906962161
1923.0,0.000225409402038141
1922.0,0.00024211573771179215
1921.0,0.0002622680369279871
1920.0,0.0002791112109436842
1919.0,0.000286779574171172
1918.0,0.0002812047137501471
1917.0,0.00026710962762561887
1916.0,0.00025546111028111504
1915.0,0.00025056978698724644
1914.0,0.000248062623795067
1913.0,0.0002441084355441199
1912.0,0.0002407909932206249
1911.0,0.00024085643752929482
1910.0,0.00024121513174752362
1909.0,0.00023717221229870543
1908.0,0.0002304077852411957
1907.0,0.0002264147040531178
1906.0,0.0002267821197900766
1905.0,0.0002293001573222913
1904.0,0.0002321575759439912
1903.0,0.00023438073858277427
1902.0,0.00023463801820107065
1901.0,0.00023247041276012217
1900.0,0.00022860092311074716
1899.0,0.00022239701028028015
1898.0,0.00021241167614197414
1897.0,0.00020134345439449706
1896.0,0.00019621114222451088
1895.0,0.00019964710587655666
1894.0,0.00020499801327076076
1893.0,0.00020500908610936018
1892.0,0.0002005161667187216
1891.0,0.00019713114642653948
1890.0,0.00019752618676201498
1889.0,0.00020045035161567442
1888.0,0.00020448231320960476
1887.0,0.0002078083646211888
1886.0,0.00020779560915055973
1885.0,0.00020523924454077675
1884.0,0.0002058285295084632
1883.0,0.00021326369039948947
1882.0,0.0002234371947806604
1881.0,0.00022921918741036502
1880.0,0.00022833575862646284
1879.0,0.00022310101581075534
1878.0,0.00021540762892804005
1877.0,0.00020699719687071786
1876.0,0.0002018780336751979
1875.0,0.00020273015603511184
1874.0,0.00020638069690001034
1873.0,0.00020760537156022554
1872.0,0.0002062775837790913
1871.0,0.00020702696151368136
1870.0,0.00021230259456138324
1869.0,0.00021795659557519452
1868.0,0.00021891476991986252
1867.0,0.00021567049811985483
1866.0,0.0002115764482345359
1865.0,0.00021005622599197098
1864.0,0.00021359697030971076
1863.0,0.00022063429591235423
1862.0,0.0002255536430842351
1861.0,0.00022475829810829806
1860.0,0.0002213879529888408
1859.0,0.0002205178919794797
1858.0,0.00022206798494369816
1857.0,0.00022263407447273802
1856.0,0.00022134432007646203
1855.0,0.00021968468600386064
1854.0,0.00021853557031784905
1853.0,0.0002186059780934492
1852.0,0.00022139054301105948
1851.0,0.00022672462625457216
1850.0,0.00023066313748632618
1849.0,0.00022957036146537354
1848.0,0.00022586378441073805
1847.0,0.00022554891681440776
1846.0,0.0002309231816945025
1845.0,0.00023875310091786334
1844.0,0.0002457016845579089
1843.0,0.0002511913881379857
1842.0,0.00025459572676040987
1841.0,0.00025576461433223744
1840.0,0.0002567750154146347
1839.0,0.0002603595344775085
1838.0,0.00026737912819655004
1837.0,0.00027620460759282924
1836.0,0.00028403748869495506
1835.0,0.0002878077316593082
1834.0,0.00028581814555076666
1833.0,0.0002798212073515615
1832.0,0.00027457169785896233
1831.0,0.0002741650672655585
1830.0,0.00027699322144237405
1829.0,0.0002780052533825032
1828.0,0.00027659522146013395
1827.0,0.00027648693600603233
1826.0,0.0002803744332506975
1825.0,0.0002883285734999342
1824.0,0.00029861203648205037
1823.0,0.00030821395714194177
1822.0,0.0003134161000253026
1821.0,0.00031285907468045233
1820.0,0.00030953052290313873
1819.0,0.00030697911805440623
1818.0,0.00030476658396326483
1817.0,0.00030136656952083307
1816.0,0.00029886894437837827
1815.0,0.00029962197022157606
1814.0,0.00030144487553227715
1813.0,0.00030087719726992426
1812.0,0.0002990477046856175
1811.0,0.00030020159511117843
1810.0,0.0003047805568203253
1809.0,0.00030992579613354837
1808.0,0.0003156237270143799
1807.0,0.0003227782450424774
1806.0,0.0003279419453740818
1805.0,0.00032675687602362033
1804.0,0.0003204122324206865
1803.0,0.0003141463179525866
1802.0,0.0003103251898657378
1801.0,0.0003078678588403242
1800.0,0.0003083808702195472
1799.0,0.00031365425333691277
1798.0,0.00031909180445716123
1797.0,0.0003195534059350489
1796.0,0.0003175489597865863
1795.0,0.000318985213828416
1794.0,0.0003243060792298994
1793.0,0.0003284293336829259
1792.0,0.0003306807618998588
1791.0,0.0003357549305518478
1790.0,0.00034291323894188464
1789.0,0.00034785541722963967
1788.0,0.00035106966532849306
1787.0,0.00035544236579960787
1786.0,0.0003597868293884438
1785.0,0.0003603624993243513
1784.0,0.0003580910858262237
1783.0,0.0003576864298395316
1782.0,0.00036038001842646
1781.0,0.0003640477916502412
1780.0,0.0003694130311325648
1779.0,0.000377740927149035
1778.0,0.000384485223834636
1777.0,0.00038431798268201515
1776.0,0.00038092684972816513
1775.0,0.0003842871288426024
1774.0,0.00039882395649692314
1773.0,0.00041747700018841783
1772.0,0.0004309831328841954
1771.0,0.00043815084447558787
1770.0,0.0004402277101789077
1769.0,0.000437691023716878
1768.0,0.0004361531457376227
1767.0,0.00044237102748000395
1766.0,0.00045332242510311106
1765.0,0.0004612768839801544
1764.0,0.00046663426159421326
1763.0,0.0004773947140131573
1762.0,0.0004960073666687572
1761.0,0.0005144965350251422
1760.0,0.0005292759890343173
1759.0,0.0005471457631914428
1758.0,0.0005739391658533966
1757.0,0.0006085054916473366
1756.0,0.0006479204417624894
1755.0,0.0006909822824850711
1754.0,0.0007352751637576539
1753.0,0.0007791729460195126
1752.0,0.000828816048697902
1751.0,0.0008959230941191555
1750.0,0.0009818167242888736
1749.0,0.0010778365863034817
1748.0,0.001184690385187003
1747.0,0.0013104833397195453
1746.0,0.0014558790705468372
1745.0,0.0016184748788378135
1744.0,0.0018031187109619818
1743.0,0.0020137763389630504
1742.0,0.002243898608250006
1741.0,0.0024875525444198665
1740.0,0.0027488575732361976
1739.0,0.0030229344679551734
1738.0,0.003286472512369461
1737.0,0.003528587323197056
1736.0,0.0037662083936651604
1735.0,0.004034666222997904
1734.0,0.004341697034960931
1733.0,0.004638066727130349
1732.0,0.0049008988001645725
1731.0,0.005158600355909686
1730.0,0.005428384251687492
1729.0,0.005704911458869242
1728.0,0.005980828552365967
1727.0,0.006258762043771417
1726.0,0.006537860109384127
1725.0,0.0068089613937908754
1724.0,0.007071707019370189
1723.0,0.007340073627264126
1722.0,0.007619476702477371
1721.0,0.007897135332874628
1720.0,0.008159281671606658
1719.0,0.008401312003781676
1718.0,0.008608703005484435
1717.0,0.008761195504408929
1716.0,0.00887981734759178
1715.0,0.008995512555915025
1714.0,0.009092386862190625
1713.0,0.00913616634825345
1712.0,0.009114346068157244
1711.0,0.0090302816588421
1710.0,0.008886084634813543
1709.0,0.008688574963084074
1708.0,0.008443417826431309
1707.0,0.008123114943080083
1706.0,0.007690003947034588
1705.0,0.0072213963212436625
1704.0,0.00688053506816232
1703.0,0.006683811928268377
1702.0,0.006470553925616593
1701.0,0.005983895824760097
1700.0,0.005283285448730428
1699.0,0.004785790593393353
1698.0,0.004547059019146201
1697.0,0.004302113390833366
1696.0,0.0039229444322821565
1695.0,0.0035440158781312172
1694.0,0.003316479318455475
1693.0,0.0031943996192224343
1692.0,0.0030900748398638538
1691.0,0.0029601478773273976
1690.0,0.0028103130897734006
1689.0,0.002679436496501508
1688.0,0.0026005663033503994
1687.0,0.002566087675433035
1686.0,0.0025318700092734287
1685.0,0.0024188496244172825
1684.0,0.0022288612413049955
1683.0,0.002097401340879592
1682.0,0.002056059148382067
1681.0,0.002031249725180566
1680.0,0.001987795094034944
1679.0,0.001934605336490635
1678.0,0.0018899674793749909
1677.0,0.0018449398312595498
1676.0,0.0017721943306703378
1675.0,0.0016772009312425453
1674.0,0.0016058151155428422
1673.0,0.0015730383009004104
1672.0,0.0015491408948726953
1671.0,0.0014992056937501582
1670.0,0.0014123921959558175
1669.0,0.0013206348184906
1668.0,0.001258478581171563
1667.0,0.0012254223346635361
1666.0,0.0012062552919642547
1665.0,0.0011864034222880161
1664.0,0.0011505734485696827
1663.0,0.0010934918150514179
1662.0,0.0010333626053335022
1661.0,0.0009906901384496589
1660.0,0.0009634783086796992
1659.0,0.0009426200906523104
1658.0,0.0009241558615157785
1657.0,0.0009119345341752577
1656.0,0.0009059524976850221
1655.0,0.0009025364114567253
1654.0,0.0008804687909337401
1653.0,0.0008407423182078524
1652.0,0.0008226723687211686
1651.0,0.0008207430539532367
1650.0,0.0008195224542387417
1649.0,0.0008172575415264484
1648.0,0.0008065695275810572
1647.0,0.000783473228404378
1646.0,0.0007626705406965725
1645.0,0.0007561226377240762
1644.0,0.0007552597326230804
1643.0,0.0007532442225114433
1642.0,0.0007516027988041575
1641.0,0.0007509169110408145
1640.0,0.0007505340505573171
1639.0,0.0007496651712020811
1638.0,0.0007487235469880368
1637.0,0.0007452574327407481
1636.0,0.0007348890312119585
1635.0,0.0007232458585342863
1634.0,0.0007180697288016103
1633.0,0.0007169018414617809
1632.0,0.0007168729955822665
1631.0,0.0007170765563918807
1630.0,0.0007154482639626798
1629.0,0.0007112195708513763
1628.0,0.000705596891952063
1627.0,0.0007020885617480407
1626.0,0.000702513056138587
1625.0,0.0007038007285814565
1624.0,0.0006993544044253253
1623.0,0.0006877771139065433
1622.0,0.0006784009973324949
1621.0,0.0006787698743973936
1620.0,0.0006873300672957999
1619.0,0.0007011015346266129
1618.0,0.0007186677614013987
1617.0,0.0007362857896550777
1616.0,0.0007463868958814083
1615.0,0.0007453869623003606
1614.0,0.0007381759941827232
1613.0,0.0007301119480122884
1612.0,0.0007209240087058603
1611.0,0.0007072022338177101
1610.0,0.0006882151408013676
1609.0,0.0006662563239293512
1608.0,0.0006426310620663486
1607.0,0.0006183374840555286
1606.0,0.0005967650737385128
1605.0,0.0005799997481657701
1604.0,0.0005656938040238337
1603.0,0.0005507671857913389
1602.0,0.0005358486034283756
1601.0,0.0005232075870808602
1600.0,0.0005121806116256372
1599.0,0.0005009975528926006
1598.0,0.0004910857957018705
1597.0,0.00048533911106535244
1596.0,0.00048359158514403166
1595.0,0.000482774667387366
1594.0,0.00048122855725415297
1593.0,0.00048017131714227386
1592.0,0.0004809555796373683
1591.0,0.0004841268157208858
1590.0,0.000490796495388431
1589.0,0.0005015357931224127
1588.0,0.0005142167208241765
1587.0,0.0005261113074964095
1586.0,0.0005389849522963874
1585.0,0.0005585218308243487
1584.0,0.0005882640109041148
1583.0,0.0006269925387565427
1582.0,0.0006701912715482653
1581.0,0.0007116553261341293
1580.0,0.0007457935648412313
1579.0,0.0007682835970925184
1578.0,0.0007742422896537032
1577.0,0.000755654783656204
1576.0,0.0007126637789955035
1575.0,0.0006640725058648764
1574.0,0.0006255740419551193
1573.0,0.0005969528114670298
1572.0,0.0005721624490334194
1571.0,0.0005435641944987699
1570.0,0.0005082311016500464
1569.0,0.00047539460110792957
1568.0,0.0004529218508390483
1567.0,0.00043776836605030297
1566.0,0.0004249368448780049
1565.0,0.00041328583712574654
1564.0,0.0004023263452257432
1563.0,0.000393431242594115
1562.0,0.0003878068900446029
1561.0,0.0003857229817097296
1560.0,0.00038399902804288366
1559.0,0.0003794328022712985
1558.0,0.0003757990098059445
1557.0,0.00037513863760255345
1556.0,0.0003710161746282674
1555.0,0.00036183285585869064
1554.0,0.0003544879516509127
1553.0,0.00034727607224202116
1552.0,0.000338581240665118
1551.0,0.00032748767255842226
1550.0,0.00031948710959426517
1549.0,0.00031901863504219376
1548.0,0.0003234203392104146
1547.0,0.00032595040554965043
1546.0,0.0003243708033543577
1545.0,0.00032042506306589506
1544.0,0.00031644160002964976
1543.0,0.0003132664283706733
1542.0,0.0003119952618417124
1541.0,0.00031145909192545
1540.0,0.0003084112858292346
1539.0,0.00030618911004321207
1538.0,0.0003064584363185751
1537.0,0.0003068383588855302
1536.0,0.00030832102176132426
1535.0,0.00031255331850545354
1534.0,0.0003181723748687803
1533.0,0.0003238375084725388
1532.0,0.0003292297257800572
1531.0,0.00033402740258814986
1530.0,0.00033693613569734076
1529.0,0.0003381403755684223
1528.0,0.00033867301708449723
1527.0,0.0003391502912244278
1526.0,0.00033937169771327755
1525.0,0.0003391180388270156
1524.0,0.00033876920437507903
1523.0,0.00033889982327646657
1522.0,0.00033692204888291375
1521.0,0.000329601191025993
1520.0,0.00031985438818515346
1519.0,0.00031091196580201197
1518.0,0.0003039354032963773
1517.0,0.0003005466753274564
1516.0,0.00030267602966066334
1515.0,0.00031234588290194465
1514.0,0.0003308256936018915
1513.0,0.0003591714778665774
1512.0,0.00039845295081929145
1511.0,0.0004468155487630909
1510.0,0.0005064225183523782
1509.0,0.0005883660043986661
1508.0,0.0007177827565289802
1507.0,0.0008852667819829467
1506.0,0.0010064691791246382
1505.0,0.0010327044611137173
1504.0,0.000987658569272867
1503.0,0.0009012680942291785
1502.0,0.0007960673312050962
1501.0,0.0006881658233054657
1500.0,0.0005908600970468986
1499.0,0.0005084341672840106
1498.0,0.0004381614128074223
1497.0,0.0003800499797952636
1496.0,0.0003407061328120774
1495.0,0.0003220154786350831
1494.0,0.00031684718896668603
1493.0,0.00031813135580307074
1492.0,0.000321714306186474
1491.0,0.00032649596107330855
1490.0,0.0003373965103975519
1489.0,0.0003586499987427603
1488.0,0.0003862092137555947
1487.0,0.00041360405058389973
1486.0,0.00044034861887089823
1485.0,0.00046995085086171747
1484.0,0.0005025696663760664
1483.0,0.0005361017045930663
1482.0,0.0005707599676523113
1481.0,0.0006078415714587223
1480.0,0.0006456389020706708
1479.0,0.0006812493379914364
1478.0,0.0007150638557876152
1477.0,0.0007499621304304576
1476.0,0.0007872136786532387
1475.0,0.0008259138270435965
1474.0,0.000865394874428939
1473.0,0.0008996331117674915
1472.0,0.0009176176193958913
1471.0,0.000918179718706127
1470.0,0.0009079437232321222
1469.0,0.0008918356694213572
1468.0,0.0008742905498981238
1467.0,0.0008608070212618489
1466.0,0.0008568785949118543
1465.0,0.0008637681940951369
1464.0,0.0008771296530171318
1463.0,0.0008929486144074856
1462.0,0.0009106279824670363
1461.0,0.0009309817870657082
1460.0,0.0009525551930119527
1459.0,0.0009717096265224536
1458.0,0.0009829393512284504
1457.0,0.0009849480293454961
1456.0,0.0009877133028433245
1455.0,0.0009968407386178552
1454.0,0.001008064898746261
1453.0,0.0010156316059220147
1452.0,0.0010151657163885576
1451.0,0.0010057578847556508
1450.0,0.0009897661892820271
1449.0,0.0009680887379471112
1448.0,0.0009431246128663356
1447.0,0.0009229837694486611
1446.0,0.0009140738881941849
1445.0,0.0009125876321579025
1444.0,0.0009109818684277205
1443.0,0.0009056131360023077
1442.0,0.0008972981148391978
1441.0,0.0008881598610405289
1440.0,0.0008784271559849361
1439.0,0.0008651917163017902
1438.0,0.0008419169096727573
1437.0,0.0008034889928016139
1436.0,0.0007590499851479961
1435.0,0.0007239870853463159
1434.0,0.0006989428148756734
1433.0,0.0006760062632374801
1432.0,0.0006507289629768428
1431.0,0.0006236190990581517
1430.0,0.0005986647420817731
1429.0,0.0005799625023645454
1428.0,0.0005691983170475434
1427.0,0.0005649545675992391
1426.0,0.0005655462939626915
1425.0,0.0005722129892614302
1424.0,0.0005882464208646548
1423.0,0.0006140293039275136
1422.0,0.0006472704190199066
1421.0,0.0006896505275326148
1420.0,0.0007521606069119416
1419.0,0.0008495551319731918
1418.0,0.0009831340698596383
1417.0,0.001144588053524877
1416.0,0.0013325558118191913
1415.0,0.0015488723710793079
1414.0,0.0017927957192999232
1413.0,0.0020579807588531136
1412.0,0.0023228294416652393
1411.0,0.002549343407474805
1410.0,0.0027052813922534783
1409.0,0.0027784105292835196
1408.0,0.002763193524117441
1407.0,0.0026548694186527572
1406.0,0.0024639432609543355
1405.0,0.002226482312551022
1404.0,0.0019948260697035653
1403.0,0.0018068143040345605
1402.0,0.0016631304748729431
1401.0,0.0015402236909251505
1400.0,0.0014174063022528707
1399.0,0.0012984090787729714
1398.0,0.0012039702253265998
1397.0,0.001138675501648814
1396.0,0.0010867732803587066
1395.0,0.001037578023753263
1394.0,0.0009983873989628557
1393.0,0.0009773156177034135
1392.0,0.0009690022143389492
1391.0,0.0009649135293077567
1390.0,0.0009616953888642163
1389.0,0.0009593982894628835
1388.0,0.0009582948482073561
1387.0,0.000958899172117511
1386.0,0.000963081881678393
1385.0,0.0009708836487053896
1384.0,0.0009795232419521566
1383.0,0.0009874751509272946
1382.0,0.0009966606843680636
1381.0,0.0010095818839902398
1380.0,0.0010256354481734372
1379.0,0.0010418724460591598
1378.0,0.0010568161316798009
1377.0,0.0010711562645489283
1376.0,0.0010852223420056285
1375.0,0.0010987521890220737
1374.0,0.0011132987612817173
1373.0,0.0011305965678049782
1372.0,0.0011470943218266094
1371.0,0.0011548562265993152
1370.0,0.0011480494235807425
1369.0,0.0011258326923114582
1368.0,0.0010906670000110452
1367.0,0.0010462344099194441
1366.0,0.000995894410534936
1365.0,0.0009418388627086976
1364.0,0.000886113239742818
1363.0,0.0008335448349128317
1362.0,0.0007925332266238695
1361.0,0.0007684056388671232
1360.0,0.0007578839488226214
1359.0,0.0007547413364613501
1358.0,0.0007568059020014656
1357.0,0.0007650963480408683
1356.0,0.000779485094701094
1355.0,0.000798444094378573
1354.0,0.0008227804573350352
1353.0,0.0008565007413351253
1352.0,0.0009038737092014798
1351.0,0.0009681058109287735
1350.0,0.001053202720584258
1349.0,0.0011640588604767156
1348.0,0.0013033688046344629
1347.0,0.0014714918857594934
1346.0,0.0016682167587870821
1345.0,0.0018885047568626997
1344.0,0.0021150697129522517
1343.0,0.0023209732045028227
1342.0,0.002480683014790016
1341.0,0.0025751479235388013
1340.0,0.00259081753499055
1339.0,0.0025259971397830713
1338.0,0.00239702624905192
1337.0,0.0022262995154218603
1336.0,0.002029668099278963
1335.0,0.0018197634189061791
1334.0,0.001611116726736063
1333.0,0.0014178242859399478
1332.0,0.0012502357689370748
1331.0,0.0011151062160339935
1330.0,0.0010153505615379127
1329.0,0.0009485662042861716
1328.0,0.0009080161053825727
1327.0,0.0008861995193287509
1326.0,0.0008779835552793996
1325.0,0.0008811817761859343
1324.0,0.0008946832286881421
1323.0,0.000916733216440967
1322.0,0.0009448627192708283
1321.0,0.000976677285726256
1320.0,0.0010102755847966548
1319.0,0.0010446559266644542
1318.0,0.0010801388896730995
1317.0,0.0011174883524749965
1316.0,0.0011565617834892654
1315.0,0.001197191135565502
1314.0,0.0012410563046963078
1313.0,0.0012902966516798837
1312.0,0.0013438470018185898
1311.0,0.0013978069682806507
1310.0,0.001450448805355641
1309.0,0.0015040946984718037
1308.0,0.001560735838604691
1307.0,0.0016182708174296728
1306.0,0.0016735604645463358
1305.0,0.001727631334242113
1304.0,0.0017852535401783718
1303.0,0.001851003930114216
1302.0,0.001927413078475308
1301.0,0.0020152046809817125
1300.0,0.002112914787571443
1299.0,0.002217252910953413
1298.0,0.0023256456343521237
1297.0,0.002437499329875903
1296.0,0.0025519415068741393
1295.0,0.0026663289670901436
1294.0,0.0027785550883828
1293.0,0.002888457602907948
1292.0,0.002995659784108323
1291.0,0.0030988351193231268
1290.0,0.003198218040275874
1289.0,0.0032954137860210266
1288.0,0.0033893591238356247
1287.0,0.0034765282329498244
1286.0,0.0035569879808161472
1285.0,0.0036358832726938396
1284.0,0.0037170582089804715
1283.0,0.0037994203985011075
1282.0,0.003881111281550929
1281.0,0.00396313295864614
1280.0,0.004047064710023936
1279.0,0.00413347826616092
1278.0,0.004224550883629204
1277.0,0.004323755243501405
1276.0,0.004431117464399828
1275.0,0.00454336241274523
1274.0,0.004660597220215367
1273.0,0.004787599881040263
1272.0,0.0049261063607788065
1271.0,0.0050712434591265185
1270.0,0.005218547121101632
1269.0,0.005368493122156098
1268.0,0.005520512306882294
1267.0,0.005669175440221245
1266.0,0.0058104182807193795
1265.0,0.005945270883162149
1264.0,0.006073467675022023
1263.0,0.006189734254312736
1262.0,0.0062902948714492575
1261.0,0.006376910712767028
1260.0,0.006451221128083145
1259.0,0.006511901029944951
1258.0,0.006560683925400105
1257.0,0.0066041385125565
1256.0,0.006646832061178341
1255.0,0.006689364826538568
1254.0,0.006734556104821555
1253.0,0.0067877434534693954
1252.0,0.006848526503330557
1251.0,0.006909869642506862
1250.0,0.006968274043121444
1249.0,0.007027140376412447
1248.0,0.007087063664223522
1247.0,0.007140985565986499
1246.0,0.007182733621679841
1245.0,0.007212735954133012
1244.0,0.00723150389422309
1243.0,0.007234709778403843
1242.0,0.0072182302220847065
1241.0,0.0071812765718186015
1240.0,0.007122127676375876
1239.0,0.007037896981797247
1238.0,0.006930413691777251
1237.0,0.0068051857147773814
1236.0,0.006663354278672077
1235.0,0.006502042330157612
1234.0,0.006323263894351849
1233.0,0.0061346306262138744
1232.0,0.005940390890138401
1231.0,0.005739312900818637
1230.0,0.005532304306114712
1229.0,0.005324919355262109
1228.0,0.005120847681434748
1227.0,0.004918680641328979
1226.0,0.004716309108655843
1225.0,0.004514090375003653
1224.0,0.004313294162703602
1223.0,0.004115516213015637
1222.0,0.0039236622517641595
1221.0,0.0037397779651060876
1220.0,0.0035620452344267348
1219.0,0.0033872326685312707
1218.0,0.003216062527001948
1217.0,0.0030534719280725544
1216.0,0.0029039312224702013
1215.0,0.0027686119492457023
1214.0,0.0026461550962227566
1213.0,0.0025339987544063347
1212.0,0.0024297271816209466
1211.0,0.002333142600921581
1210.0,0.002246437566020171
1209.0,0.0021707923244215018
1208.0,0.002103556494400625
1207.0,0.0020401046789494505
1206.0,0.00197780828779753
1205.0,0.0019171670875898802
1204.0,0.001860000838948812
1203.0,0.001807719877178824
1202.0,0.0017602712618326652
1201.0,0.0017154699287903882
1200.0,0.001670315983592661
1199.0,0.0016242417846815285
1198.0,0.0015801865133842536
1197.0,0.001541147134292995
1196.0,0.001506740765321758
1195.0,0.0014746218604133547
1194.0,0.0014442601044630493
1193.0,0.001417611820298483
1192.0,0.001396559421235393
1191.0,0.0013812770486808128
1190.0,0.0013708121180182904
1189.0,0.0013638540161751143
1188.0,0.0013591518122211045
1187.0,0.0013567416842329015
1186.0,0.0013589300628246504
1185.0,0.0013686463041969856
1184.0,0.001386498955680378
1183.0,0.001410554779904269
1182.0,0.0014390390283080196
1181.0,0.0014716686092724539
1180.0,0.001507469797672762
1179.0,0.0015428541434822246
1178.0,0.0015734925538082268
1177.0,0.00159718570457373
1176.0,0.0016134562920763415
1175.0,0.001621249501546025
1174.0,0.0016187585338522893
1173.0,0.0016053537572035077
1172.0,0.0015826824218515682
1171.0,0.001553987632396052
1170.0,0.0015226754787731284
1169.0,0.001491220096202038
1168.0,0.0014614068370731542
1167.0,0.001435573563869109
1166.0,0.0014166728345744715
1165.0,0.0014061739494671583
1164.0,0.0014024958696078527
1163.0,0.0014026045333514205
1162.0,0.0014050446488645865
1161.0,0.001410572012039305
1160.0,0.001420111076273306
1159.0,0.0014334228578331432
1158.0,0.001449999125945968
1157.0,0.0014700552241565014
1156.0,0.0014942052344995517
1155.0,0.0015233073504784882
1154.0,0.0015591510892063113
1153.0,0.001603917764403152
1152.0,0.001657790029653254
1151.0,0.00171797138687891
1150.0,0.0017813124416624355
1149.0,0.0018474384253554712
1148.0,0.0019183145171391327
1147.0,0.0019954904961552895
1146.0,0.0020788934734069153
1145.0,0.0021677285600358726
1144.0,0.002261533033473787
1143.0,0.002360744669600008
1142.0,0.0024667197612894113
1141.0,0.002580283153330661
1140.0,0.00270012339517434
1139.0,0.002824429745597903
1138.0,0.002954533496451157
1137.0,0.003094444280469919
1136.0,0.003245982057883706
1135.0,0.003407162823854441
1134.0,0.003576042627277178
1133.0,0.0037519688710608455
1132.0,0.003931155603987678
1131.0,0.0041057246157607565
1130.0,0.004270449514667837
1129.0,0.004426444715070387
1128.0,0.004575259758694037
1127.0,0.004714181998858387
1126.0,0.004840921384298502
1125.0,0.004957635838123673
1124.0,0.005065796416983896
1123.0,0.005161536855293277
1122.0,0.005240209461260721
1121.0,0.005301414797467775
1120.0,0.005346175687192305
1119.0,0.005373625093429291
1118.0,0.005383596379197578
1117.0,0.005378640060960748
1116.0,0.005362083208001737
1115.0,0.005338949361333801
1114.0,0.005319696556210325
1113.0,0.0053171945805394385
1112.0,0.005338226850526598
1111.0,0.005382278102393181
1110.0,0.005448518040426441
1109.0,0.005537681067463634
1108.0,0.0056460349449643735
1107.0,0.00576453012281689
1106.0,0.005886528796051751
1105.0,0.006010563074362518
1104.0,0.006133809697216796
1103.0,0.006249965221030018
1102.0,0.006355979911822842
1101.0,0.00645306819069763
1100.0,0.00653859809605085
1099.0,0.006605496264320088
1098.0,0.006652015663703833
1097.0,0.006683850761819052
1096.0,0.006703218804370423
1095.0,0.00670490914834445
1094.0,0.006685767371943029
1093.0,0.006648939437734867
1092.0,0.00659634227278866
1091.0,0.0065267058922426945
1090.0,0.00644366363603727
1089.0,0.006355865369321327
1088.0,0.006265644996705619
1087.0,0.006166356177642504
1086.0,0.006054112071733284
1085.0,0.0059335946775072495
1084.0,0.005808829489250854
1083.0,0.00567628372462111
1082.0,0.005530771823620679
1081.0,0.005371635588533067
1080.0,0.005200231350956941
1079.0,0.005017100209750963
1078.0,0.004823962075080601
1077.0,0.004624315942370268
1076.0,0.004421703080865511
1075.0,0.004221170441163499
1074.0,0.004030695978832918
1073.0,0.0038559240042393608
1072.0,0.003694864589538463
1071.0,0.00354277111302886
1070.0,0.003400806462457265
1069.0,0.0032745896740608792
1068.0,0.003165144792637277
1067.0,0.003066803643145177
1066.0,0.0029743215956829997
1065.0,0.002887753383433515
1064.0,0.002809983029958135
1063.0,0.0027433933475431967
1062.0,0.002689263173345558
1061.0,0.0026465890419245263
1060.0,0.0026108691824993997
1059.0,0.0025776651307583115
1058.0,0.0025483344151665034
1057.0,0.0025288170720138264
1056.0,0.0025217950445960884
1055.0,0.002523604864468604
1054.0,0.0025301986311031146
1053.0,0.002542459635454561
1052.0,0.0025628246132947843
1051.0,0.002589604758048308
1050.0,0.0026183945744849713
1049.0,0.0026466691037078174
1048.0,0.0026731484968887946
1047.0,0.002695619118935595
1046.0,0.002713396688707945
1045.0,0.0027290715382720654
1044.0,0.0027440661004214635
1043.0,0.002754292294034052
1042.0,0.0027533252985937695
1041.0,0.0027390994226121016
1040.0,0.002715305616523389
1039.0,0.002687059678048714
1038.0,0.0026569894760206723
1037.0,0.0026248961921650294
1036.0,0.002589936034871388
1035.0,0.0025534770529611504
1034.0,0.0025202851138391587
1033.0,0.002495955626317798
1032.0,0.002482812775628889
1031.0,0.0024802085721354933
1030.0,0.0024906002474284995
1029.0,0.0025247741609389232
1028.0,0.0025991704232008906
1027.0,0.002726575466819379
1026.0,0.0029079231868974756
1025.0,0.003131308818024525
1024.0,0.0033779838996333394
1023.0,0.0036316301618291875
1022.0,0.003885349136894903
1021.0,0.004138376193861113
1020.0,0.004381792799202162
1019.0,0.004587135840986292
1018.0,0.00471149186949119
1017.0,0.004714657929622065
1016.0,0.004575682498664805
1015.0,0.004304354553563553
1014.0,0.003943246701418165
1013.0,0.003552857715519055
1012.0,0.0031869552633337966
1011.0,0.0028760400906913995
1010.0,0.002626231408556456
1009.0,0.0024287974803210268
1008.0,0.0022718133896992877
1007.0,0.002146750477136167
1006.0,0.0020482338211369297
1005.0,0.001971047843076726
1004.0,0.0019088052431779317
1003.0,0.0018547282209184306
1002.0,0.0018030158660799155
1001.0,0.00175037770161823
1000.0,0.0016975110743376494
999.0,0.0016488443366822517
998.0,0.001609280851420933
997.0,0.0015801866914854222
996.0,0.0015585849394265457
995.0,0.0015401215225136849
994.0,0.0015225337264204596
993.0,0.0015066104023590177
992.0,0.0014945072779389533
991.0,0.001487288304296225
990.0,0.0014836680109800147
989.0,0.0014809548439298692
988.0,0.0014774893955758275
987.0,0.0014744281614525274
986.0,0.0014752587167859664
985.0,0.0014834985642718501
984.0,0.0015004356522236033
983.0,0.0015243879825969874
982.0,0.001551916031434208
981.0,0.0015803029528301212
980.0,0.0016092836325269353
979.0,0.0016403007437000054
978.0,0.00167407602449854
977.0,0.0017090582538957927
976.0,0.0017419560473276824
975.0,0.001769038226692908
974.0,0.0017867494008322192
973.0,0.0017920077387123573
972.0,0.0017831082444358772
971.0,0.0017605015863334577
970.0,0.0017258983282793837
969.0,0.001680590699293682
968.0,0.001625872277698378
967.0,0.0015652081934113533
966.0,0.0015039225001752473
965.0,0.0014454140973350162
964.0,0.001388963693671462
963.0,0.0013324177884933566
962.0,0.001275990983737696
961.0,0.0012224013625724973
960.0,0.0011741358176089948
959.0,0.0011316237090857766
958.0,0.0010935776414515166
957.0,0.001058369894073517
956.0,0.0010253595826136064
955.0,0.000995291001352124
954.0,0.0009691572448103311
953.0,0.000946578993762253
952.0,0.0009257635802794985
951.0,0.0009052260923004354
950.0,0.0008851177450243729
949.0,0.0008667040874715543
948.0,0.0008509120415124808
947.0,0.0008375357494282139
946.0,0.000825527875956376
945.0,0.0008138526106634238
944.0,0.000802153801523479
943.0,0.0007907389899112682
942.0,0.0007801474903224173
941.0,0.0007709784055032498
940.0,0.0007638153397925096
939.0,0.0007584948937455506
938.0,0.0007533714765145623
937.0,0.0007463674395928855
936.0,0.0007373708035305919
935.0,0.0007288277317445738
934.0,0.000723096192861094
933.0,0.0007195488906361048
932.0,0.0007149657174615189
931.0,0.0007065520112949791
930.0,0.0006942409896752271
929.0,0.0006805631128157329
928.0,0.00066886611998094
927.0,0.0006612596020353761
926.0,0.0006574401900436212
925.0,0.0006553513446203079
924.0,0.0006530960324012632
923.0,0.0006500572473467905
922.0,0.0006465304366593698
921.0,0.0006431872531680713
920.0,0.0006409518527372816
919.0,0.0006404520477468581
918.0,0.0006415161559140751
917.0,0.000644292802863203
916.0,0.0006506628308879262
915.0,0.0006625100307578008
914.0,0.000677961077187004
913.0,0.0006916336885083548
912.0,0.0007003261595720199
911.0,0.0007069487519842858
910.0,0.0007170036363554075
909.0,0.0007324160152890409
908.0,0.0007510299325458236
907.0,0.0007710479139949953
906.0,0.0007929515236807698
905.0,0.0008168835633771399
904.0,0.000840704868146162
903.0,0.0008617241362694824
902.0,0.0008789023213259361
901.0,0.0008923624682327955
900.0,0.0009017013568342204
899.0,0.0009057308040701507
898.0,0.0009034982812416519
897.0,0.0008953747092328122
896.0,0.000883697266913069
895.0,0.0008723043504291503
894.0,0.0008642788818024395
893.0,0.0008599023134756667
892.0,0.0008578596365540205
891.0,0.0008584413660221153
890.0,0.0008641324499189006
889.0,0.0008766932504080853
888.0,0.0008951503180515612
887.0,0.0009177029611464587
886.0,0.0009450363903666546
885.0,0.0009810534575789896
884.0,0.0010305358857069203
883.0,0.0010962019695141714
882.0,0.0011773096666335625
881.0,0.0012703474757302289
880.0,0.00137108052205309
879.0,0.0014772879946909785
878.0,0.0015919564121799894
877.0,0.0017243380172585784
876.0,0.0018835411210156344
875.0,0.002063622547838144
874.0,0.002231332337969953
873.0,0.002333392047271546
872.0,0.0023258625675691797
871.0,0.0022047616488656187
870.0,0.0020099970097743882
869.0,0.0017975239745420869
868.0,0.0016075580257238584
867.0,0.0014554727976890279
866.0,0.0013408989011506392
865.0,0.0012578730061984526
864.0,0.0011999513796367867
863.0,0.001162509458558561
862.0,0.0011426776162760592
861.0,0.001136838019884667
860.0,0.001139258206207545
859.0,0.0011444123054088846
858.0,0.001149895642089393
857.0,0.0011561236879241744
856.0,0.0011643305668728788
855.0,0.0011760256469490558
854.0,0.001192977464527813
853.0,0.0012158662412433206
852.0,0.0012434040870548928
851.0,0.00127353466554286
850.0,0.001304057838302428
849.0,0.0013307931990389943
848.0,0.0013470718896206322
847.0,0.00134781454719992
846.0,0.0013336301778630528
845.0,0.001308890543901752
844.0,0.0012767923835708772
843.0,0.0012386085249510136
842.0,0.0011965250349488426
841.0,0.0011541641941331094
840.0,0.0011143714000211018
839.0,0.0010783715475801597
838.0,0.0010465012234381714
837.0,0.0010179700774734916
836.0,0.0009906358935645064
835.0,0.0009628932842989438
834.0,0.0009353491340896845
833.0,0.0009091827613151675
832.0,0.000883766151930367
831.0,0.0008578815142058036
830.0,0.0008326193588226434
829.0,0.0008108613303954109
828.0,0.0007940794739582091
827.0,0.0007814587533591518
826.0,0.0007716631331170286
825.0,0.0007633696185764944
824.0,0.0007547235396241519
823.0,0.0007448749974657931
822.0,0.0007355407368158774
821.0,0.0007286888089032403
820.0,0.0007238171013248538
819.0,0.0007197407876262155
818.0,0.0007175295108772799
817.0,0.0007189780567315876
816.0,0.0007228236540531144
815.0,0.0007250713668697916
814.0,0.0007233760558639914
813.0,0.0007191486040393818
812.0,0.0007150739992248614
811.0,0.0007126303988412544
810.0,0.000712555392610284
809.0,0.000715623095295772
808.0,0.0007216759012622538
807.0,0.0007289974152664184
806.0,0.0007355120061187622
805.0,0.000739979315737001
804.0,0.0007419337518885555
803.0,0.0007417322705265614
802.0,0.0007411519068600168
801.0,0.0007430547349809881
800.0,0.0007505692103928902
799.0,0.0007676922039278162
798.0,0.0007997921665453254
797.0,0.0008501744528271629
796.0,0.0009139738081005817
795.0,0.0009764461827957832
794.0,0.0010196031752942678
793.0,0.001031978977347841
792.0,0.0010132748874209852
791.0,0.0009722719383783364
790.0,0.0009213580683882412
789.0,0.0008706123028964351
788.0,0.0008244497037837968
787.0,0.0007828293041993708
786.0,0.0007447314217183046
785.0,0.0007098349064268664
784.0,0.0006780086355612136
783.0,0.0006493222598524469
782.0,0.0006248541492875881
781.0,0.0006058893669834574
780.0,0.0005917821743353312
779.0,0.0005797467672707921
778.0,0.0005671380326447239
777.0,0.0005530321974806888
776.0,0.0005375462608281377
775.0,0.0005210330676250965
774.0,0.0005043810152038136
773.0,0.000488668305347918
772.0,0.00047385273024632833
771.0,0.00045901382768393157
770.0,0.0004445609915677234
769.0,0.0004329226221909605
768.0,0.00042599940897306715
767.0,0.00042281051617763267
766.0,0.0004205054463475849
765.0,0.00041679621386405536
764.0,0.000410613814994023
763.0,0.000401679219866705
762.0,0.0003910135414821838
761.0,0.0003812104881581774
760.0,0.0003744760442982249
759.0,0.0003702784673675362
758.0,0.00036600591609505363
757.0,0.0003600863872545199
756.0,0.00035368798522759665
755.0,0.0003493505758440299
754.0,0.0003486597380064373
753.0,0.0003512921059498641
752.0,0.000355846208705889
751.0,0.00036179205594892864
750.0,0.0003710433645069417
749.0,0.0003868793703974405
748.0,0.000410335638816934
747.0,0.0004386042989659494
746.0,0.0004691755992520223
745.0,0.0005060935394842959
744.0,0.0005603049059846697
743.0,0.0006423821471864577
742.0,0.0007559203678544663
741.0,0.0008995910712462866
740.0,0.0010747258726802624
739.0,0.0012880655930922827
738.0,0.00154565027050079
737.0,0.0018449932501651161
736.0,0.0021744972645764533
735.0,0.0025202227563849884
734.0,0.0028721103194753964
733.0,0.0032238315419690455
732.0,0.0035699235191179114
731.0,0.003906927071636315
730.0,0.004236573111279687
729.0,0.004563558416944097
728.0,0.004887130087736644
727.0,0.005194995583726218
726.0,0.005463522003630034
725.0,0.005660640298924386
724.0,0.005753890519831176
723.0,0.005724986417627412
722.0,0.005580454807990012
721.0,0.005349669765173583
720.0,0.005073735065534211
719.0,0.0047900672636945136
718.0,0.004517869544241216
717.0,0.004256106484155706
716.0,0.003997027404921385
715.0,0.0037409381138720403
714.0,0.003497852060673432
713.0,0.0032768824138856827
712.0,0.0030778616736847255
711.0,0.0028948946893879316
710.0,0.0027244924938581443
709.0,0.002567715154231622
708.0,0.002426335492579542
707.0,0.0022999115064577086
706.0,0.002187257446975771
705.0,0.002087130159877751
704.0,0.001995807890278115
703.0,0.00190694274997418
702.0,0.0018147460227313787
701.0,0.001716344559176298
700.0,0.0016117517844004949
699.0,0.001502973448081524
698.0,0.0013953893353989572
697.0,0.0012975552938663498
696.0,0.0012163967905574182
695.0,0.001153557372490796
694.0,0.0011054387618936602
693.0,0.0010660807527632496
692.0,0.0010301427308095073
691.0,0.000994014421405775
690.0,0.0009580898672658742
689.0,0.0009270131392149286
688.0,0.0009049594427859092
687.0,0.0008914219405752627
686.0,0.000882232464727212
685.0,0.000874484192591304
684.0,0.0008688860225034482
683.0,0.0008674080972367784
682.0,0.0008710966154360318
681.0,0.0008782378756213508
680.0,0.0008823783687036595
679.0,0.0008742569250975169
678.0,0.0008504292767288668
677.0,0.0008197069400580233
676.0,0.0007926818411990505
675.0,0.0007718607228027231
674.0,0.0007551696306464372
673.0,0.0007411924494312449
672.0,0.0007238298028696148
671.0,0.000683405303387783
670.0,0.0005949928547787281
669.0,0.00044573534448064437
668.0,0.0003126218970107875
667.0,0.00034073784167513153
666.0,0.00046451817847342704
665.0,0.0005542757301702409
664.0,0.0005947412562816849
663.0,0.0006074872987543763
662.0,0.0006094179191168323
661.0,0.0006081125376462305
660.0,0.0006083031188858973
659.0,0.0006139735137361111
658.0,0.0006228986739339593
657.0,0.0006275210626108542
656.0,0.0006193467978420631
655.0,0.0005965386292447443
654.0,0.0005667033451954982
653.0,0.0005407635894468887
652.0,0.0005244570102894696
651.0,0.0005168242260006283
650.0,0.0005136531086077156
649.0,0.0005121674154341442
648.0,0.0005125278556643894
647.0,0.0005149579345235493
646.0,0.0005168895951726618
645.0,0.000513188543102253
644.0,0.0005016759841026822
643.0,0.0004886047566427854
642.0,0.00048415878836357716
641.0,0.0004912450811264574
640.0,0.0005015494586265263
639.0,0.0005042073738247829
638.0,0.0004981447589390426
637.0,0.0004926402591409002
636.0,0.0004957824057365022
635.0,0.000507637090766456
634.0,0.0005232498486597314
633.0,0.0005375750785413563
632.0,0.000545436165760036
631.0,0.0005412177265005496
630.0,0.0005246125363517157
629.0,0.0005036464560685311
628.0,0.00048579781745177744
627.0,0.0004690960697443016
626.0,0.0004483129053045492
625.0,0.0004274929303852235
624.0,0.00041963803298933355
623.0,0.0004305484882598865
622.0,0.0004480962478971149
621.0,0.000455348834573374
620.0,0.0004492127002713206
619.0,0.0004374672422001974
618.0,0.00042283991961293685
617.0,0.00040065718230916853
616.0,0.00037034357483528015
615.0,0.00034074116965366024
614.0,0.000322136827428261
613.0,0.00031783203596209267
612.0,0.00032512853728530104
611.0,0.0003371207268470231
610.0,0.00034498783935758305
609.0,0.0003460473554792147
608.0,0.0003456240617392963
607.0,0.0003459122172924696
606.0,0.00033976759293311194
605.0,0.00032368658072524155
604.0,0.0003127648034997423
603.0,0.0003296675483202043
602.0,0.0003759082383074716
601.0,0.0004246859616231617
600.0,0.0004445591352236134
599.0,0.0004245702268435446
598.0,0.0003808412818338304
597.0,0.0003410600863300653
596.0,0.00032573592610829006
595.0,0.0003397839309700188
594.0,0.0003713707606456205
593.0,0.00039996406847461253
592.0,0.00040673727510853925
591.0,0.0003813281711792897
590.0,0.0003306301123102448
589.0,0.00028022961025569743
588.0,0.0002601679937068376
587.0,0.00028458509070417894
586.0,0.00033516292452127417
585.0,0.000371641822790635
584.0,0.0003647165092167254
583.0,0.00031417402247583355
582.0,0.0002460676122018992
581.0,0.00019599347741666847
580.0,0.0001877051176640272
579.0,0.00021623478372527905
578.0,0.00024950725847615513
577.0,0.00026069148547282564
576.0,0.0002545544484690072
575.0,0.00025576399642226577
574.0,0.0002810288895282447
573.0,0.0003353292435994444
572.0,0.0004187085059525633
571.0,0.000505470641231658
570.0,0.0005362498839731439
569.0,0.00047232478315926453
568.0,0.00034319029649054907
567.0,0.00022242288876688345
566.0,0.00015867456803170493
565.0,0.00014154475189490665
564.0,0.00014672179266741374
563.0,0.0001696053270614313
562.0,0.00019880120968441758
561.0,0.00020258767787776765
560.0,0.0001640279231378439
559.0,0.0001111342902608705
558.0,9.618620598662387e-05
557.0,0.00014188778687465034
556.0,0.0002281703358030968
555.0,0.0003138787216234827
554.0,0.00035769228856153703
553.0,0.0003432958025945417
552.0,0.000283514409255633
551.0,0.00020324075992844085
550.0,0.00012641728507360858
