cm-1,A
4000.0,0.0027209767957539766
3999.0,0.002722464719660189
3998.0,0.0027232054442459866
3997.0,0.002724406908184344
3996.0,0.0027260341528491574
3995.0,0.0027276771578001015
3994.0,0.0027296900717505394
3993.0,0.002732577158023137
3992.0,0.002735683853085517
3991.0,0.0027368262290327757
3990.0,0.0027342529625870773
3989.0,0.0027292465229977296
3988.0,0.002725747187182899
3987.0,0.002727271349824806
3986.0,0.002733487883192347
3985.0,0.00273980601127341
3984.0,0.002740894026946536
3983.0,0.002734691346932068
3982.0,0.0027245236075512103
3981.0,0.00271643031564034
3980.0,0.0027141663539177593
3979.0,0.0027171323260736886
3978.0,0.0027219703874390077
3977.0,0.0027258699474021018
3976.0,0.002727813590648675
3975.0,0.0027276498172308
3974.0,0.0027251485036214954
3973.0,0.002720260555538548
3972.0,0.0027138058609915893
3971.0,0.0027076479459479724
3970.0,0.0027040776685716772
3969.0,0.002704767565937653
3968.0,0.0027096549058315406
3967.0,0.002716273585081797
3966.0,0.002721170128602352
3965.0,0.0027224578968934876
3964.0,0.0027215010274921434
3963.0,0.0027216294174928993
3962.0,0.0027247166092058883
3961.0,0.0027293201027634327
3960.0,0.002731680327991085
3959.0,0.0027292526162794083
3958.0,0.002722680106632321
3957.0,0.002714928849696825
3956.0,0.0027094789184745833
3955.0,0.002707846023750366
3954.0,0.0027090786159262243
3953.0,0.0027112136696648232
3952.0,0.002713218005911946
3951.0,0.0027156899333386263
3950.0,0.002719355087424197
3949.0,0.0027234823518720135
3948.0,0.002727049082669899
3947.0,0.002729537017744345
3946.0,0.002730084707316482
3945.0,0.0027277851174792537
3944.0,0.0027222691492996068
3943.0,0.002715492593983986
3942.0,0.002712298078472477
3941.0,0.0027166548817342045
3940.0,0.0027276607316991464
3939.0,0.0027406296249013256
3938.0,0.0027516165528590347
3937.0,0.002758891088958106
3936.0,0.002761639723592924
3935.0,0.0027593990444637374
3934.0,0.002752999454487347
3933.0,0.0027448901445980825
3932.0,0.002737758146809958
3931.0,0.002733875670447491
3930.0,0.0027338890297815407
3929.0,0.0027365189939319787
3928.0,0.002739049690479292
3927.0,0.0027389401472153706
3926.0,0.002736449022221232
3925.0,0.002733631490068518
3924.0,0.0027332962682419058
3923.0,0.0027369337704349394
3922.0,0.0027421974410847356
3921.0,0.0027449818314576853
3920.0,0.002742521068052027
3919.0,0.0027353019136613756
3918.0,0.0027270227614446052
3917.0,0.0027220920182214276
3916.0,0.0027228793130743686
3915.0,0.0027272522222362462
3914.0,0.002730009313835405
3913.0,0.0027283560489008984
3912.0,0.002724820111117572
3911.0,0.0027250081355492586
3910.0,0.002731496865201055
3909.0,0.002740479144024096
3908.0,0.0027458310315471033
3907.0,0.0027445316761951135
3906.0,0.002739130925233894
3905.0,0.0027346470377943473
3904.0,0.002733594667440588
3903.0,0.0027349352288789904
3902.0,0.0027352735795737075
3901.0,0.0027309542660808005
3900.0,0.00272268392415422
3899.0,0.002716698599352736
3898.0,0.002718725891334977
3897.0,0.0027274595149421026
3896.0,0.002736395256328597
3895.0,0.0027401362683161365
3894.0,0.0027374678392339605
3893.0,0.0027302857863710887
3892.0,0.002723191357168921
3891.0,0.002723632896714361
3890.0,0.002735222827877453
3889.0,0.0027498877738366487
3888.0,0.0027573573861244607
3887.0,0.0027580518575567436
3886.0,0.00275996227167775
3885.0,0.0027667533210671133
3884.0,0.002771509463851211
3883.0,0.002762526800345501
3882.0,0.002734700406405168
3881.0,0.0026991888133811115
3880.0,0.0026791702714643005
3879.0,0.00268673271926764
3878.0,0.0027086596349198645
3877.0,0.002723736532046701
3876.0,0.0027254756015828814
3875.0,0.0027226710846319155
3874.0,0.0027262413298672575
3873.0,0.0027386802081448124
3872.0,0.002752146457503839
3871.0,0.0027560634773079852
3870.0,0.0027507050487921266
3869.0,0.002748268246594644
3868.0,0.0027546773466320482
3867.0,0.002760198285479125
3866.0,0.0027554755894452585
3865.0,0.002741233789064896
3864.0,0.0027235998158101965
3863.0,0.002709967508639128
3862.0,0.0027055748481237974
3861.0,0.002709342144937929
3860.0,0.0027171171434055277
3859.0,0.002725919831224914
3858.0,0.0027348150867248155
3857.0,0.002744087847636875
3856.0,0.002753954825210584
3855.0,0.0027662268112231686
3854.0,0.002778788568252982
3853.0,0.002782698371280699
3852.0,0.002783181464814038
3851.0,0.002784393784187631
3850.0,0.002778548074781029
3849.0,0.002769327586733884
3848.0,0.0027617603398112176
3847.0,0.002754737956129687
3846.0,0.002743922490832105
3845.0,0.0027288658507131245
3844.0,0.002715518253839108
3843.0,0.002710447446193232
3842.0,0.0027139364521646774
3841.0,0.0027190311981207292
3840.0,0.002718263469325307
3839.0,0.0027111219519184437
3838.0,0.0027055610227416675
3837.0,0.0027077926321692966
3836.0,0.002714194739965233
3835.0,0.0027185309304942123
3834.0,0.002721155891721538
3833.0,0.0027273634013017817
3832.0,0.0027396221950977875
3831.0,0.002754204534925019
3830.0,0.0027645818800700493
3829.0,0.0027662304163226167
3828.0,0.0027593878776599363
3827.0,0.0027501513535350417
3826.0,0.0027469124862950873
3825.0,0.0027519142563051727
3824.0,0.002757871479804274
3823.0,0.0027550584263376487
3822.0,0.002739709492753078
3821.0,0.0027190546265853793
3820.0,0.002709362828489068
3819.0,0.0027150466534698638
3818.0,0.0027215588567147753
3817.0,0.0027220738135141148
3816.0,0.002722620264265508
3815.0,0.002728426982526122
3814.0,0.002736772225819064
3813.0,0.0027416698405180436
3812.0,0.002742995406501407
3811.0,0.0027443561467252395
3810.0,0.0027477938945965237
3809.0,0.0027527615251517236
3808.0,0.0027588598586547365
3807.0,0.0027679659984314233
3806.0,0.002780715351536538
3805.0,0.002790988546013949
3804.0,0.002787317660673033
3803.0,0.002764808294763465
3802.0,0.0027353457983709502
3801.0,0.002720662927428002
3800.0,0.002729358447963318
3799.0,0.0027441663698882087
3798.0,0.0027458445326119466
3797.0,0.0027359109672770634
3796.0,0.002728681157376198
3795.0,0.0027331309294787824
3794.0,0.002743706496119433
3793.0,0.0027494491195113133
3792.0,0.002745817573468385
3791.0,0.002736715951878391
3790.0,0.002729818978221878
3789.0,0.002730278348610139
3788.0,0.0027368091976095457
3787.0,0.0027440916106952744
3786.0,0.0027479065992545596
3785.0,0.00274797917010237
3784.0,0.0027467677214802347
3783.0,0.0027450249550379936
3782.0,0.002740074634864368
3781.0,0.0027302871906407537
3780.0,0.0027191305610709095
3779.0,0.0027148476835832996
3778.0,0.002723841827082414
3777.0,0.0027422145957656284
3776.0,0.002759618790920476
3775.0,0.0027708181435677536
3774.0,0.0027792154403334084
3773.0,0.0027896405744239636
3772.0,0.0028025423733593234
3771.0,0.0028139633457440324
3770.0,0.0028203850255636266
3769.0,0.002822157276607241
3768.0,0.0028208967439406468
3767.0,0.002816534862633522
3766.0,0.0028124857579321675
3765.0,0.002815016225959046
3764.0,0.002824791993864138
3763.0,0.002835564545567543
3762.0,0.0028412358531359596
3761.0,0.0028409192308816575
3760.0,0.0028367887006384047
3759.0,0.0028324449448538323
3758.0,0.00283571410977958
3757.0,0.0028516021949764967
3756.0,0.0028747114666957535
3755.0,0.0028960743325133972
3754.0,0.002912342655313499
3753.0,0.0029281940918479766
3752.0,0.002948091647561403
3751.0,0.0029664470850217393
3750.0,0.00297825036797629
3749.0,0.002985197587554351
3748.0,0.002982453044644412
3747.0,0.0029664541389245536
3746.0,0.002949041779785576
3745.0,0.002951454425241344
3744.0,0.0029747723009786566
3743.0,0.002995897672757029
3742.0,0.0029974205007447484
3741.0,0.0029828259079195327
3740.0,0.002967698012223058
3739.0,0.0029609344444440026
3738.0,0.0029613576415096097
3737.0,0.0029615822915355864
3736.0,0.00295003175303983
3735.0,0.002921896726943817
3734.0,0.0028965196381130313
3733.0,0.002900711167822149
3732.0,0.002937599021480105
3731.0,0.002987990385036025
3730.0,0.0030307084852300046
3729.0,0.0030559672441615596
3728.0,0.0030643988740687916
3727.0,0.003061711655331257
3726.0,0.003055163709994026
3725.0,0.0030504922329378844
3724.0,0.0030480304632059
3723.0,0.0030443869781903686
3722.0,0.00303920578595331
3721.0,0.0030372408865382223
3720.0,0.0030430689846313048
3719.0,0.0030575209700927615
3718.0,0.003079914928363312
3717.0,0.0031091622277719805
3716.0,0.003143256492425984
3715.0,0.0031829772273958036
3714.0,0.0032343382094593776
3713.0,0.0033016497172244476
3712.0,0.003371767688601442
3711.0,0.003420655341761233
3710.0,0.00344756602105923
3709.0,0.0034726178798734257
3708.0,0.0035082214996141935
3707.0,0.0035550512362629164
3706.0,0.0036104835391512734
3705.0,0.0036716646890346816
3704.0,0.0037349739954721075
3703.0,0.0037973079197762332
3702.0,0.003857842159268472
3701.0,0.003917791761873691
3700.0,0.00397646780742138
3699.0,0.004028469674778055
3698.0,0.004069059907239719
3697.0,0.004099621236561521
3696.0,0.004123953310288012
3695.0,0.0041451877267140325
3694.0,0.004164102470242336
3693.0,0.0041780308953320725
3692.0,0.004178561882044025
3691.0,0.004155780048523886
3690.0,0.004112202380428088
3689.0,0.004073806770524412
3688.0,0.004067830143228311
3687.0,0.0040877633461934675
3686.0,0.004109104622245885
3685.0,0.004122266076766867
3684.0,0.004135077193128221
3683.0,0.004157975619431342
3682.0,0.004193943826668249
3681.0,0.004237061224293926
3680.0,0.004277925645216068
3679.0,0.0043127998137385114
3678.0,0.004347075950336339
3677.0,0.00439120145188774
3676.0,0.0044446156960286885
3675.0,0.004498470646246519
3674.0,0.004558479555462096
3673.0,0.00462593570826083
3672.0,0.00469063307252707
3671.0,0.004749656335280598
3670.0,0.004801370797363179
3669.0,0.004848148720882453
3668.0,0.004899076809167926
3667.0,0.004952580254352451
3666.0,0.00500265014830515
3665.0,0.005050839155511063
3664.0,0.005102459220534561
3663.0,0.00516198477864814
3662.0,0.005231220779082941
3661.0,0.005307604235456082
3660.0,0.005385346965627951
3659.0,0.005460588167564332
3658.0,0.005535574257905821
3657.0,0.005614612119141712
3656.0,0.005696063312486432
3655.0,0.00577470047694488
3654.0,0.005848774083010754
3653.0,0.005922562840773532
3652.0,0.00600598816972716
3651.0,0.006107458741590455
3650.0,0.0062191025672966496
3649.0,0.006319701969198057
3648.0,0.006405889880233663
3647.0,0.006489951397720345
3646.0,0.006576969342288021
3645.0,0.006665972856014399
3644.0,0.006757768436156298
3643.0,0.00685485416070121
3642.0,0.006956810595329143
3641.0,0.0070595106811614135
3640.0,0.0071597797350213144
3639.0,0.007259841439565512
3638.0,0.007365747428674666
3637.0,0.007480904418805069
3636.0,0.007601984185717597
3635.0,0.007721656057338941
3634.0,0.007835387017245636
3633.0,0.007946219644946512
3632.0,0.008064188624916212
3631.0,0.008203613661016159
3630.0,0.00837050212517097
3629.0,0.008536535497840603
3628.0,0.008665369378357924
3627.0,0.008768231357657436
3626.0,0.00886931330155478
3625.0,0.008977656829868945
3624.0,0.009090946252174584
3623.0,0.00919855666226287
3622.0,0.009294818178078024
3621.0,0.009386683538555117
3620.0,0.009484868311756114
3619.0,0.009588198459826123
3618.0,0.009687777823175758
3617.0,0.009777495638171894
3616.0,0.009854780130224054
3615.0,0.009924669445626554
3614.0,0.009999457644006185
3613.0,0.010089898592165225
3612.0,0.010196162841292518
3611.0,0.01030987875711659
3610.0,0.010424480953242603
3609.0,0.010537384050928012
3608.0,0.010644444542216837
3607.0,0.01074274660978562
3606.0,0.010836367057467761
3605.0,0.010930326055253396
3604.0,0.011026018736638646
3603.0,0.011123783094291422
3602.0,0.011225398552054329
3601.0,0.011330707588086953
3600.0,0.011433585022142048
3599.0,0.011526279739291207
3598.0,0.011607843367916698
3597.0,0.011686205250754714
3596.0,0.011771467846377363
3595.0,0.011868399051157762
3594.0,0.011972895564951763
3593.0,0.012076284842120187
3592.0,0.012171421692263415
3591.0,0.01225777923364092
3590.0,0.012343248430600114
3589.0,0.012437455223371157
3588.0,0.012537496468151985
3587.0,0.012631552039498806
3586.0,0.012720690617219312
3585.0,0.012811620784694408
3584.0,0.012901868222255333
3583.0,0.01298755341947877
3582.0,0.013071539803888713
3581.0,0.013159536503316305
3580.0,0.013253561312366621
3579.0,0.013351638221960884
3578.0,0.013450736237728893
3577.0,0.013547730765626147
3576.0,0.01363850120370989
3575.0,0.013722149117168826
3574.0,0.013804261494774886
3573.0,0.0138914962741147
3572.0,0.013983572482237607
3571.0,0.014075344372344287
3570.0,0.014165986999651808
3569.0,0.014261742077839718
3568.0,0.014363824862492356
3567.0,0.014459283910025395
3566.0,0.014540448115952242
3565.0,0.014616837192356222
3564.0,0.014696784531424485
3563.0,0.014781569665644569
3562.0,0.014871142260213865
3561.0,0.014964551585546448
3560.0,0.015058095154413809
3559.0,0.015148903998956489
3558.0,0.015238506887902806
3557.0,0.015329020208645096
3556.0,0.015418472381004248
3555.0,0.015503038445870868
3554.0,0.01558221408101474
3553.0,0.015659322357095197
3552.0,0.015738482734802623
3551.0,0.015823140855237876
3550.0,0.015915091592890784
3549.0,0.016012987160447373
3548.0,0.016112027527153006
3547.0,0.0162065129393791
3546.0,0.016294710807838154
3545.0,0.0163796560881702
3544.0,0.016464853105968996
3543.0,0.016551920463511765
3542.0,0.016642062546453635
3541.0,0.01673565979404693
3540.0,0.01683046275624322
3539.0,0.016923422321832082
3538.0,0.01701411104521373
3537.0,0.017102899439993862
3536.0,0.017188259960986045
3535.0,0.01726980977285025
3534.0,0.01735183326145199
3533.0,0.01743985191144989
3532.0,0.017534601118998915
3531.0,0.01763183474199143
3530.0,0.017726752052667126
3529.0,0.017816299461471903
3528.0,0.017898884123412125
3527.0,0.017976600681471912
3526.0,0.01805608272668619
3525.0,0.018142813507841225
3524.0,0.018234744726422607
3523.0,0.018325606574910502
3522.0,0.018413872062284394
3521.0,0.018503389922476823
3520.0,0.0185967451967535
3519.0,0.018692687054220232
3518.0,0.01878850804972447
3517.0,0.018881362608888175
3516.0,0.0189689874658841
3515.0,0.0190529039085387
3514.0,0.01913904386436918
3513.0,0.019231542057590586
3512.0,0.01932662277341301
3511.0,0.019416757278119538
3510.0,0.01950013068436726
3509.0,0.019581745552054705
3508.0,0.019665336974003866
3507.0,0.019749409917668197
3506.0,0.019831031071873333
3505.0,0.019908877983243988
3504.0,0.019982544295976196
3503.0,0.02005369154523821
3502.0,0.02012720702208368
3501.0,0.020205995671058404
3500.0,0.02028640948605169
3499.0,0.02036402205912641
3498.0,0.020440793222713024
3497.0,0.020521121177737512
3496.0,0.020603853354353056
3495.0,0.020684424553122763
3494.0,0.020763117036696355
3493.0,0.02084395865275027
3492.0,0.020926019641543794
3491.0,0.021002820859800632
3490.0,0.021071619328454045
3489.0,0.021137326862740703
3488.0,0.021205336197753943
3487.0,0.0212755078908535
3486.0,0.02134506497179003
3485.0,0.021412872046463343
3484.0,0.02147896096661626
3483.0,0.02154352143617497
3482.0,0.021607926725308833
3481.0,0.02167410858734852
3480.0,0.021741708388464964
3479.0,0.02180861238244215
3478.0,0.021874317877090623
3477.0,0.021939998988250713
3476.0,0.022005709273185486
3475.0,0.02207061285034641
3474.0,0.0221353760684991
3473.0,0.02220051870648017
3472.0,0.022263203152058323
3471.0,0.022319584489496194
3470.0,0.022370038382255635
3469.0,0.022418452780132103
3468.0,0.022466807938387675
3467.0,0.022514300703460888
3466.0,0.022561313520846556
3465.0,0.022609694987974677
3464.0,0.022659305726158378
3463.0,0.022708159895913408
3462.0,0.022755587511266193
3461.0,0.022801685486107396
3460.0,0.022844442048800442
3459.0,0.022882190539400226
3458.0,0.022918717492875326
3457.0,0.022960917426894812
3456.0,0.023010683230471604
3455.0,0.023062638726020462
3454.0,0.02311038258601807
3453.0,0.0231518395807081
3452.0,0.02318852666958861
3451.0,0.023223150481673255
3450.0,0.02325823623630955
3449.0,0.02329432673513529
3448.0,0.023328480451932115
3447.0,0.023357349179449642
3446.0,0.023381954556711073
3445.0,0.023406037907111252
3444.0,0.023430905702732575
3443.0,0.023455851656363526
3442.0,0.023481603031927492
3441.0,0.023509395094150325
3440.0,0.02353793356132503
3439.0,0.02356486104498286
3438.0,0.023590660102622736
3437.0,0.023617901033258587
3436.0,0.023647087709976918
3435.0,0.02367609958983984
3434.0,0.02370345892697642
3433.0,0.023729321684414315
3432.0,0.02375345131952327
3431.0,0.023775069829776833
3430.0,0.02379441582141112
3429.0,0.023812452278671327
3428.0,0.023829403529603922
3427.0,0.023845358100241916
3426.0,0.023861197635675655
3425.0,0.023877135296131186
3424.0,0.023892109215588923
3423.0,0.023906633734487304
3422.0,0.023924041922185176
3421.0,0.02394589020236969
3420.0,0.023968384163422635
3419.0,0.02398693972872731
3418.0,0.024002219496404863
3417.0,0.024018282048374757
3416.0,0.024036631765721878
3415.0,0.02405543193896587
3414.0,0.024072851450966028
3413.0,0.024087512680979313
3412.0,0.02409718664839334
3411.0,0.02410145120470028
3410.0,0.024104926821781718
3409.0,0.02411354067229706
3408.0,0.02412753557272995
3407.0,0.02414181987951507
3406.0,0.02415301814172504
3405.0,0.024162319278028935
3404.0,0.02417136881746424
3403.0,0.02417908500386908
3402.0,0.024183879739406968
3401.0,0.024186779533076075
3400.0,0.024191242237965004
3399.0,0.024200845062774437
3398.0,0.024216496951850484
3397.0,0.02423460689911319
3396.0,0.024249112413348338
3395.0,0.02425706042820084
3394.0,0.02426088419641932
3393.0,0.02426402724644165
3392.0,0.02426698718537134
3391.0,0.02426993423606558
3390.0,0.024275835765178083
3389.0,0.024287105110653313
3388.0,0.024301282109616736
3387.0,0.024313605314115135
3386.0,0.024322561744461995
3385.0,0.024329602110305663
3384.0,0.02433510222466289
3383.0,0.02433881180242618
3382.0,0.024342881184898527
3381.0,0.024349932013982462
3380.0,0.024358803711326343
3379.0,0.024366160078741837
3378.0,0.0243716848579139
3377.0,0.024377864178526054
3376.0,0.02438526171696922
3375.0,0.024392298587539753
3374.0,0.024399421600533162
3373.0,0.02440907436045649
3372.0,0.024421053940441886
3371.0,0.024431366498242638
3370.0,0.024436334991036777
3369.0,0.0244355081919226
3368.0,0.02443088123780723
3367.0,0.02442609075476704
3366.0,0.024425849946128834
3365.0,0.02443262608493596
3364.0,0.024443555912376853
3363.0,0.0244530385355345
3362.0,0.024458043317061
3361.0,0.024458896237657544
3360.0,0.02445652873469232
3359.0,0.024452420222551226
3358.0,0.024450195770321773
3357.0,0.024452939092657645
3356.0,0.024458458282897624
3355.0,0.024460638125509557
3354.0,0.024455891741679926
3353.0,0.024445688745145314
3352.0,0.0244334585918002
3351.0,0.02442244627548967
3350.0,0.024416401192738933
3349.0,0.024418144837276008
3348.0,0.024425630194029394
3347.0,0.024431629904222894
3346.0,0.024429076223926285
3345.0,0.02441617934785697
3344.0,0.024396856820175544
3343.0,0.024377738903916615
3342.0,0.02436388625538036
3341.0,0.024355201859602944
3340.0,0.02434711533018993
3339.0,0.02433635433363101
3338.0,0.02432516416866271
3337.0,0.02431782984982025
3336.0,0.02431402312243092
3335.0,0.024308329534635704
3334.0,0.02429616143817725
3333.0,0.02427784599469166
3332.0,0.024257220422346473
3331.0,0.024238114805795644
3330.0,0.024221533826901474
3329.0,0.024204584897412926
3328.0,0.024183122871300037
3327.0,0.024157170506844218
3326.0,0.02413256813079467
3325.0,0.024115178220731007
3324.0,0.02410457970447403
3323.0,0.024095399282579987
3322.0,0.024083310249638435
3321.0,0.02406756757040457
3320.0,0.024049504125392824
3319.0,0.024031718518617073
3318.0,0.024017670031512447
3317.0,0.02400879317363723
3316.0,0.02400210787970711
3315.0,0.023992821529425046
3314.0,0.023978744136121506
3313.0,0.023960542197309753
3312.0,0.023939019569868814
3311.0,0.023914752584689846
3310.0,0.02388993293552068
3309.0,0.023868349293397817
3308.0,0.02385347750054539
3307.0,0.0238471769475432
3306.0,0.02384844983150278
3305.0,0.023852076736826384
3304.0,0.023850983706013906
3303.0,0.023842631515516136
3302.0,0.023831270806926427
3301.0,0.0238213926913273
3300.0,0.023811269682192885
3299.0,0.02379603315012889
3298.0,0.023774907701550906
3297.0,0.023751673638680155
3296.0,0.023729584216539805
3295.0,0.023709913934832464
3294.0,0.023694487407296204
3293.0,0.023685282230447278
3292.0,0.023681027267906184
3291.0,0.023677250511597095
3290.0,0.023670327521736607
3289.0,0.023659805983416802
3288.0,0.023647398229568094
3287.0,0.023635617873466547
3286.0,0.023626262409840514
3285.0,0.023617922838100155
3284.0,0.023606099578858036
3283.0,0.02358819604433587
3282.0,0.023567105605402268
3281.0,0.023547361840746545
3280.0,0.023529563742228726
3279.0,0.023511841322167503
3278.0,0.023495155385756788
3277.0,0.02348260060162868
3276.0,0.023473335758600954
3275.0,0.023461166946888448
3274.0,0.02344069563682243
3273.0,0.02341319153991898
3272.0,0.023386097854333123
3271.0,0.02336792024811782
3270.0,0.02336237878273606
3269.0,0.023365039400202823
3268.0,0.023365972066798933
3267.0,0.023357654754269964
3266.0,0.023340059178541258
3265.0,0.023317462515538255
3264.0,0.023292850385618076
3263.0,0.023267791548727025
3262.0,0.023244877283579848
3261.0,0.023225921551212236
3260.0,0.023208637317823147
3259.0,0.023188867165638342
3258.0,0.023166074996810327
3257.0,0.023143626683062694
3256.0,0.023123910682444834
3255.0,0.02310594173053695
3254.0,0.02308762489015424
3253.0,0.02306764870605515
3252.0,0.0230449551753615
3251.0,0.023018516738021175
3250.0,0.02298809925183444
3249.0,0.02295461259751734
3248.0,0.0229205692427927
3247.0,0.022890726567998718
3246.0,0.022869523057838216
3245.0,0.02285547153858367
3244.0,0.022840607378993245
3243.0,0.02281873408003507
3242.0,0.022792215847636365
3241.0,0.022767637136699742
3240.0,0.022746800449558947
3239.0,0.022725436198603857
3238.0,0.022699370963491894
3237.0,0.02266841050439035
3236.0,0.022635253249693427
3235.0,0.02260412360298018
3234.0,0.02257951764222368
3233.0,0.022562151882270887
3232.0,0.022546164562699162
3231.0,0.02252402759051681
3230.0,0.022494848550270275
3229.0,0.022465228744606738
3228.0,0.02244161799987359
3227.0,0.022424058587324096
3226.0,0.022407358954553386
3225.0,0.022386058652516624
3224.0,0.022358070637426612
3223.0,0.022325380794185022
3222.0,0.02229159899255275
3221.0,0.02225841504238946
3220.0,0.022225560008975912
3219.0,0.022194341673386814
3218.0,0.022167579309042795
3217.0,0.022143735375385422
3216.0,0.02211499237914353
3215.0,0.022075733385663612
3214.0,0.0220311885284776
3213.0,0.021992658000369945
3212.0,0.02196459924983525
3211.0,0.021940783162039134
3210.0,0.02191272205298035
3209.0,0.021877600128901834
3208.0,0.021837761425620723
3207.0,0.02179677942090033
3206.0,0.021757719045227147
3205.0,0.021722068856398456
3204.0,0.021688056662750248
3203.0,0.021651467166429218
3202.0,0.02160957339519117
3201.0,0.021563673316029774
3200.0,0.02151751722513768
3199.0,0.021473809302860126
3198.0,0.021431766019364414
3197.0,0.021387428631157567
3196.0,0.021337509377632267
3195.0,0.021283783000974176
3194.0,0.021232275563130683
3193.0,0.0211868390119676
3192.0,0.021144791700094017
3191.0,0.021100068631004294
3190.0,0.021049282923070747
3189.0,0.020993499181341795
3188.0,0.020936059460116563
3187.0,0.020880750358169227
3186.0,0.02083007563877124
3185.0,0.020782716680748044
3184.0,0.020734062293506418
3183.0,0.020681435058583313
3182.0,0.020627297110437554
3181.0,0.020575237036510485
3180.0,0.020524940858703697
3179.0,0.020473518913246093
3178.0,0.020419784967613534
3177.0,0.020364459932848033
3176.0,0.020307907559935636
3175.0,0.0202507860865052
3174.0,0.020195768261577696
3173.0,0.02014553853259803
3172.0,0.020099627567142585
3171.0,0.020055292187951643
3170.0,0.020010235150384328
3169.0,0.019962587705836577
3168.0,0.019910558735134944
3167.0,0.019854996052588475
3166.0,0.019799883882997322
3165.0,0.019747114401002422
3164.0,0.01969314065346644
3163.0,0.01963437431712402
3162.0,0.019573811350808355
3161.0,0.019517754485714002
3160.0,0.019467258763745953
3159.0,0.019417756043416567
3158.0,0.01936656068245522
3157.0,0.019315402725403906
3156.0,0.019264910451186498
3155.0,0.019211745161908416
3154.0,0.01915359627199734
3153.0,0.019093830081092052
3152.0,0.019038671879527708
3151.0,0.01899090697759737
3150.0,0.01894749334721228
3149.0,0.018902460515185036
3148.0,0.01885144884418399
3147.0,0.018794400763187353
3146.0,0.01873460504426947
3145.0,0.018675212175916715
3144.0,0.01861723647039643
3143.0,0.01856076661579409
3142.0,0.01850606354853894
3141.0,0.01845230928792766
3140.0,0.018397256614771068
3139.0,0.01834010508939504
3138.0,0.018283212995987154
3137.0,0.018228823982545952
3136.0,0.01817560432455171
3135.0,0.018120574287602734
3134.0,0.018062947163116634
3133.0,0.018003916494622827
3132.0,0.01794397356264898
3131.0,0.017882941408324065
3130.0,0.01782183322497292
3129.0,0.0177622352827583
3128.0,0.0177042141822858
3127.0,0.01764637440390173
3126.0,0.017587022363211576
3125.0,0.017524399801042263
3124.0,0.017457709054345204
3123.0,0.017389540126683287
3122.0,0.017325272258057984
3121.0,0.01726776612786815
3120.0,0.01721448948484722
3119.0,0.017161775205940442
3118.0,0.017109490855513106
3117.0,0.01705925362877067
3116.0,0.017010400725786044
3115.0,0.016960791624080627
3114.0,0.016910117170820253
3113.0,0.01685928529695674
3112.0,0.01680785953644586
3111.0,0.01675489254832642
3110.0,0.016701032912274573
3109.0,0.016647737838822955
3108.0,0.016595460303771428
3107.0,0.016544211109461956
3106.0,0.01649412183356903
3105.0,0.01644385984503948
3104.0,0.016391047527921764
3103.0,0.016336036866426595
3102.0,0.016282371376280354
3101.0,0.016231340350764623
3100.0,0.016179261835282698
3099.0,0.016123418902378204
3098.0,0.016066759368286474
3097.0,0.016012658000159514
3096.0,0.015958821580908392
3095.0,0.015901088327430403
3094.0,0.015841299108824654
3093.0,0.01578560099630914
3092.0,0.015736049125398045
3091.0,0.015689322870467162
3090.0,0.015642626249168273
3089.0,0.015595912818267981
3088.0,0.015548220085408931
3087.0,0.015496456051035775
3086.0,0.015439362905820993
3085.0,0.015379431723185996
3084.0,0.015320201583711415
3083.0,0.015263868656588589
3082.0,0.015210976867088749
3081.0,0.0151597826749682
3080.0,0.01510637089758736
3079.0,0.015048204745310545
3078.0,0.01498692923907699
3077.0,0.014925437125113464
3076.0,0.014863781319489247
3075.0,0.014801217054565125
3074.0,0.01474050022996929
3073.0,0.014685276787194276
3072.0,0.01463385569816551
3071.0,0.014579799978186762
3070.0,0.014519566467809396
3069.0,0.014456336004312221
3068.0,0.014395355567333522
3067.0,0.0143386768379954
3066.0,0.014284994305531113
3065.0,0.01423226108829597
3064.0,0.014179370542426423
3063.0,0.014126586745931893
3062.0,0.014074727785437712
3061.0,0.014023196388382009
3060.0,0.013969703676810273
3059.0,0.01391317801235069
3058.0,0.01385545694719821
3057.0,0.01379826761393571
3056.0,0.013740890501964167
3055.0,0.01368316777040667
3054.0,0.01362871095580581
3053.0,0.013581129178321591
3052.0,0.013538350037832624
3051.0,0.013494196679068706
3050.0,0.0134448215333853
3049.0,0.013391065835310887
3048.0,0.013335503197627881
3047.0,0.013280735204163958
3046.0,0.013229611880391356
3045.0,0.013183315455266582
3044.0,0.01313900081414829
3043.0,0.013092658337898074
3042.0,0.013044324742519492
3041.0,0.012997894370820003
3040.0,0.012956057466314883
3039.0,0.01291764998489908
3038.0,0.012879683447045176
3037.0,0.012839393569812235
3036.0,0.012795183971145208
3035.0,0.012748266086796516
3034.0,0.01270269458842233
3033.0,0.012661296403116203
3032.0,0.01262250456585624
3031.0,0.012583180025355448
3030.0,0.01254315653119642
3029.0,0.012504286529389556
3028.0,0.0124674924279244
3027.0,0.012434184237091387
3026.0,0.012407991587937902
3025.0,0.012390324363497966
3024.0,0.01237573268315516
3023.0,0.012356588442970749
3022.0,0.012331995743880896
3021.0,0.012307818926272869
3020.0,0.012288160661339005
3019.0,0.012271753108621074
3018.0,0.012256595659379914
3017.0,0.012243538129159579
3016.0,0.012233836385144027
3015.0,0.012227037765787156
3014.0,0.01222285143264754
3013.0,0.01222236935184045
3012.0,0.012226261156803872
3011.0,0.012233907047115968
3010.0,0.012244701111456332
3009.0,0.012258268670333696
3008.0,0.01227349148203727
3007.0,0.01228947550357847
3006.0,0.012307282782798211
3005.0,0.012328818206427526
3004.0,0.012354638236416773
3003.0,0.01238505359496285
3002.0,0.01242246707182475
3001.0,0.012469948743550894
3000.0,0.012527759312612477
2999.0,0.01259376816207273
2998.0,0.012666739943889262
2997.0,0.012747487372721113
2996.0,0.012837786129228729
2995.0,0.012940572356132884
2994.0,0.01306023438893069
2993.0,0.013199975702892136
2992.0,0.013359570285761282
2991.0,0.013538191167438887
2990.0,0.013738852776249822
2989.0,0.013967784220177788
2988.0,0.014230139905521601
2987.0,0.014528759202611093
2986.0,0.014866127940572401
2985.0,0.015245400399787397
2984.0,0.01567098001312887
2983.0,0.016151073493973083
2982.0,0.016698602634058778
2981.0,0.01732688316270302
2980.0,0.018046041164064077
2979.0,0.01886659050280308
2978.0,0.01980557828182813
2977.0,0.02088663112367664
2976.0,0.02213525107600257
2975.0,0.023575328251008932
2974.0,0.02522906152165283
2973.0,0.027117395694011354
2972.0,0.029259284281624325
2971.0,0.031670393248044985
2970.0,0.03435887417419965
2969.0,0.03731932657040263
2968.0,0.04053083422619911
2967.0,0.043958026971227915
2966.0,0.04754379336524
2965.0,0.05118601139942797
2964.0,0.05472098823065653
2963.0,0.05793672615318902
2962.0,0.06061887641526572
2961.0,0.06262512565408666
2960.0,0.06394998968175719
2959.0,0.06474540897408165
2958.0,0.06528194820143449
2957.0,0.06587151803175448
2956.0,0.06678384404564745
2955.0,0.06817014006366502
2954.0,0.07000718750717554
2953.0,0.07207450610499962
2952.0,0.07397939138830255
2951.0,0.07524906951957595
2950.0,0.07545504281696745
2949.0,0.07432639817732616
2948.0,0.07182803669503005
2947.0,0.06816342470410715
2946.0,0.06371750654610155
2945.0,0.05895550233503442
2944.0,0.05432286898230557
2943.0,0.05017322323497822
2942.0,0.0467340864097582
2941.0,0.04411436812844052
2940.0,0.042325027198294854
2939.0,0.041316579496415394
2938.0,0.041015715914927
2937.0,0.041345073294136045
2936.0,0.04223593434593295
2935.0,0.04363323788647572
2934.0,0.04549228291640876
2933.0,0.04776948387414784
2932.0,0.05041020343816787
2931.0,0.053341124534153204
2930.0,0.05646851146780359
2929.0,0.05968287621486294
2928.0,0.06287513941780438
2927.0,0.06596042297958181
2926.0,0.06889402846969528
2925.0,0.07167699581939996
2924.0,0.07434959258159721
2923.0,0.07696119427607276
2922.0,0.07951627834373894
2921.0,0.08191794533575561
2920.0,0.0839563627606582
2919.0,0.08535499939896676
2918.0,0.08586757895438145
2917.0,0.08537643429765553
2916.0,0.08395050580661856
2915.0,0.0818272104555576
2914.0,0.07932575574332346
2913.0,0.0767555814627982
2912.0,0.07434623559343721
2911.0,0.072217016418026
2910.0,0.07038176592416942
2909.0,0.06877664898082406
2908.0,0.06729410653973254
2907.0,0.0658178295022169
2906.0,0.06425497280695233
2905.0,0.06255659072589134
2904.0,0.06072182194131746
2903.0,0.058781516426832346
2902.0,0.05677961551379479
2901.0,0.054760542862121515
2900.0,0.052765231603629864
2899.0,0.050831785828225985
2898.0,0.04899597320959748
2897.0,0.047293497084678386
2896.0,0.04575887938005023
2895.0,0.04442141257126757
2894.0,0.04330012197810341
2893.0,0.042400949421223876
2892.0,0.041716505372539826
2891.0,0.041228613606011995
2890.0,0.04091403338036327
2889.0,0.04074912628925461
2888.0,0.040713118666470344
2887.0,0.04079076393046463
2886.0,0.040974169511773795
2885.0,0.041263158341138154
2884.0,0.04166116319074595
2883.0,0.0421659741519369
2882.0,0.04275643550119181
2881.0,0.04338010556986102
2880.0,0.04395323106140295
2879.0,0.04437710301222539
2878.0,0.04457312350377739
2877.0,0.04452158127223043
2876.0,0.04428527947376625
2875.0,0.043995299551126826
2874.0,0.04380240611495487
2873.0,0.04382335357354215
2872.0,0.044106721482354734
2871.0,0.04462692742223957
2870.0,0.045291387393700755
2869.0,0.045940037682427264
2868.0,0.04635019141171828
2867.0,0.04626666815612531
2866.0,0.045466126471324274
2865.0,0.04384324897462285
2864.0,0.04147005660706833
2863.0,0.03858676821613535
2862.0,0.03552052826823525
2861.0,0.03258089982523589
2860.0,0.02998262425155695
2859.0,0.02782645396677295
2858.0,0.026127122085162782
2857.0,0.024850511067524103
2856.0,0.023943230898201568
2855.0,0.023353731888534096
2854.0,0.023046061600492187
2853.0,0.023003813319707644
2852.0,0.023226106582845067
2851.0,0.02372277722592976
2850.0,0.02451036588805281
2849.0,0.025604548884717283
2848.0,0.027012155986077868
2847.0,0.028729402623722394
2846.0,0.03074125401946718
2845.0,0.03301353370173397
2844.0,0.03548081878673646
2843.0,0.0380371647630772
2842.0,0.04053471965555805
2841.0,0.04278622916555668
2840.0,0.04457779410644448
2839.0,0.045692752473318964
2838.0,0.04594979597489574
2837.0,0.04524870188375624
2836.0,0.04361135113319148
2835.0,0.041193387999216145
2834.0,0.03825628836830223
2833.0,0.03510722265363297
2832.0,0.03202580062014209
2831.0,0.0292119320473506
2830.0,0.026766732348942217
2829.0,0.024705770185543496
2828.0,0.02299177676644994
2827.0,0.021566505386644858
2826.0,0.020375589198868546
2825.0,0.01937472633545306
2824.0,0.0185254282568254
2823.0,0.01779359934715801
2822.0,0.017153074522541084
2821.0,0.016586775897911864
2820.0,0.01608271613542501
2819.0,0.015630945058848593
2818.0,0.015224641776761402
2817.0,0.01486013929542257
2816.0,0.014533854660949738
2815.0,0.014240301370484343
2814.0,0.013973109618480428
2813.0,0.013726107236829259
2812.0,0.01349341277980652
2811.0,0.013270273360882948
2810.0,0.013053178184899655
2809.0,0.012836845247303122
2808.0,0.012612361843611263
2807.0,0.01237233976948507
2806.0,0.012118308140291974
2805.0,0.01186039214936789
2804.0,0.01160954455984149
2803.0,0.01137165745797874
2802.0,0.011148934220599344
2801.0,0.010943727685350672
2800.0,0.010759944689431603
2799.0,0.010601915378754139
2798.0,0.01047112963991566
2797.0,0.010361862723825648
2796.0,0.010261009065579033
2795.0,0.01015531781806077
2794.0,0.010038260181488744
2793.0,0.009909018768701075
2792.0,0.009767421586841957
2791.0,0.009613675894864912
2790.0,0.00945180268164854
2789.0,0.009288654695913058
2788.0,0.009129188316779955
2787.0,0.008975027619421727
2786.0,0.008827172125694976
2785.0,0.00868700184527658
2784.0,0.008554679005881508
2783.0,0.008429518940193155
2782.0,0.00831180696898126
2781.0,0.008202027583497072
2780.0,0.008098835452289763
2779.0,0.007999912751430471
2778.0,0.007904110504116187
2777.0,0.007811102864157428
2776.0,0.007720873715048914
2775.0,0.007635783709792322
2774.0,0.007560733412799631
2773.0,0.007498012774758058
2772.0,0.0074435797325621954
2771.0,0.007391566297490866
2770.0,0.00734054086512677
2769.0,0.007292092931081835
2768.0,0.0072459375528260775
2767.0,0.007200551168720372
2766.0,0.007156493972345848
2765.0,0.007114476010068602
2764.0,0.007071686100736899
2763.0,0.007024714812843929
2762.0,0.006975104324138261
2761.0,0.006927490072106714
2760.0,0.006883230563923074
2759.0,0.006840414078117155
2758.0,0.006799174095129416
2757.0,0.006762083808464004
2756.0,0.00672934026124606
2755.0,0.006697784781560622
2754.0,0.006664966685816431
2753.0,0.00663103027395835
2752.0,0.00659719241035346
2751.0,0.006565624629656193
2750.0,0.006539929066408726
2749.0,0.006522071766797233
2748.0,0.006509557702480907
2747.0,0.006498966163697764
2746.0,0.0064911686630007
2745.0,0.006489495179143901
2744.0,0.0064943357953666245
2743.0,0.0065036521813217505
2742.0,0.006517370808194251
2741.0,0.006536862759880972
2740.0,0.006561180042702517
2739.0,0.006588245667207646
2738.0,0.006618632124452715
2737.0,0.006653531923404404
2736.0,0.006689711840620037
2735.0,0.006721353793096924
2734.0,0.006747298406016077
2733.0,0.006772740525914036
2732.0,0.0068040669113462685
2731.0,0.006845863308638209
2730.0,0.006901920230869109
2729.0,0.0069740137505746695
2728.0,0.007058816609820415
2727.0,0.007148643854405199
2726.0,0.007234826415451822
2725.0,0.007307799145545316
2724.0,0.0073556002731792625
2723.0,0.007367130373598065
2722.0,0.00733814434469761
2721.0,0.0072720862163527435
2720.0,0.007176250709306465
2719.0,0.007060102713384621
2718.0,0.006935165041404541
2717.0,0.006811251067833127
2716.0,0.006692636784919427
2715.0,0.006580278626021333
2714.0,0.0064763570736805255
2713.0,0.006383393563753465
2712.0,0.00630016134906724
2711.0,0.0062229659777879465
2710.0,0.006150588546158606
2709.0,0.0060843889528577584
2708.0,0.006024386800346686
2707.0,0.005968732055530894
2706.0,0.005916082189528198
2705.0,0.005865296627758231
2704.0,0.005814266975962032
2703.0,0.005762472738832119
2702.0,0.005713106454486517
2701.0,0.005669026131305271
2700.0,0.0056284814830799
2699.0,0.005588749468602995
2698.0,0.005551783600113421
2697.0,0.005521775165625625
2696.0,0.005498981123678405
2695.0,0.00548070781636581
2694.0,0.005466569812608933
2693.0,0.005457434521937425
2692.0,0.0054505611006159145
2691.0,0.005441129536812781
2690.0,0.005427934482984795
2689.0,0.0054130101359616285
2688.0,0.005396818944278971
2687.0,0.005378626214100073
2686.0,0.005360518625513014
2685.0,0.005345817938698658
2684.0,0.005334124476232794
2683.0,0.005322597437883267
2682.0,0.0053113531620424944
2681.0,0.005302837649319732
2680.0,0.005296448955063759
2679.0,0.00528862045295282
2678.0,0.005277606957229451
2677.0,0.0052640028355491805
2676.0,0.005247605287340667
2675.0,0.005228235003880801
2674.0,0.005208566842385848
2673.0,0.0051912265272473284
2672.0,0.005174223594915885
2671.0,0.005154096224023847
2670.0,0.005132484515594368
2669.0,0.00511467428533949
2668.0,0.005102621529984403
2667.0,0.005094740615814557
2666.0,0.0050913940958087
2665.0,0.005094840819412321
2664.0,0.0051042585598127495
2663.0,0.0051163052779121245
2662.0,0.0051301046189732484
2661.0,0.005146038332601465
2660.0,0.005159896234572062
2659.0,0.005164192362532858
2658.0,0.005156365997327291
2657.0,0.005140736598153706
2656.0,0.005121791885723728
2655.0,0.005100260272562368
2654.0,0.005076016331821138
2653.0,0.005050143244418173
2652.0,0.005023473303898601
2651.0,0.004997303934029504
2650.0,0.004975319148296442
2649.0,0.004960159340979769
2648.0,0.004948464504498025
2647.0,0.0049341957928037096
2646.0,0.004916232781222339
2645.0,0.004897762370909955
2644.0,0.0048791362071447155
2643.0,0.004857375828400354
2642.0,0.004832723922197587
2641.0,0.004809515790773156
2640.0,0.0047901891850906505
2639.0,0.004773781583087637
2638.0,0.004760324891598551
2637.0,0.0047510587767797
2636.0,0.004744106060599871
2635.0,0.00473565228657961
2634.0,0.004725761789801643
2633.0,0.004717873814251908
2632.0,0.004713103704669856
2631.0,0.004710460530871107
2630.0,0.004711697255553632
2629.0,0.004719522802693717
2628.0,0.004731351888707155
2627.0,0.004741329103829788
2626.0,0.0047480920127151265
2625.0,0.004754277915927779
2624.0,0.00475941440738119
2623.0,0.00476050657898271
2622.0,0.004759006123281351
2621.0,0.00475948536887139
2620.0,0.004761489129523077
2619.0,0.004760552754483712
2618.0,0.0047572867178415235
2617.0,0.004757019461187892
2616.0,0.004759494389121343
2615.0,0.00475711751242336
2614.0,0.004745239269245625
2613.0,0.004727037071880476
2612.0,0.004706837090515136
2611.0,0.0046855529774103765
2610.0,0.004663946887494533
2609.0,0.004643062629201859
2608.0,0.0046198141621089876
2607.0,0.004588922831881453
2606.0,0.004550712066120829
2605.0,0.00451133901865281
2604.0,0.004475089292955313
2603.0,0.004442784239893172
2602.0,0.0044172077057436955
2601.0,0.0044018923338820706
2600.0,0.004393946938332052
2599.0,0.004386228982538965
2598.0,0.004377641542559786
2597.0,0.004373858585445211
2596.0,0.004377175828515498
2595.0,0.004383428670283743
2594.0,0.004390061985507542
2593.0,0.004399188417160957
2592.0,0.004411302943448563
2591.0,0.0044236508903446855
2590.0,0.004436515386351527
2589.0,0.0044541929770830655
2588.0,0.00447816415789483
2587.0,0.004505565925886272
2586.0,0.00453470558876187
2585.0,0.004565201444249972
2584.0,0.004592440433473717
2583.0,0.004609061756220238
2582.0,0.004612643911290242
2581.0,0.0046056785246743
2580.0,0.004588661403741578
2579.0,0.004560525799148551
2578.0,0.004524971199321117
2577.0,0.0044881362896033875
2576.0,0.004450244290931699
2575.0,0.004407594554239799
2574.0,0.004362346397385988
2573.0,0.004321557131921881
2572.0,0.0042864757156764145
2571.0,0.004251920418220155
2570.0,0.0042170266174209395
2569.0,0.004187646568241462
2568.0,0.004166680025242304
2567.0,0.0041498690353311135
2566.0,0.004132343368037047
2565.0,0.004112475348377329
2564.0,0.004089324611184423
2563.0,0.004063742715208076
2562.0,0.004041522688414836
2561.0,0.004027424397135976
2560.0,0.004016746991631613
2559.0,0.004001021346360021
2558.0,0.003980849185616382
2557.0,0.003964243720867912
2556.0,0.0039535261099534645
2555.0,0.003943488704719704
2554.0,0.003931921052629657
2553.0,0.003921646772364921
2552.0,0.003911870956247189
2551.0,0.0038977752987205154
2550.0,0.003879503744328522
2549.0,0.0038621889090970068
2548.0,0.0038464697929438607
2547.0,0.0038281269010224184
2546.0,0.003807461837790886
2545.0,0.003789597340415057
2544.0,0.003775185051488975
2543.0,0.0037603857858314717
2542.0,0.003746412066643945
2541.0,0.003739159215837033
2540.0,0.0037381913283519672
2539.0,0.0037356247743497517
2538.0,0.003727058485358029
2537.0,0.0037147972871891506
2536.0,0.003700181604597599
2535.0,0.0036820543166170387
2534.0,0.0036631618173376523
2533.0,0.003648617482668654
2532.0,0.003637395871406316
2531.0,0.003624448285356764
2530.0,0.0036110272649746795
2529.0,0.0036030276670177847
2528.0,0.003599219436855561
2527.0,0.0035917656235689138
2526.0,0.00357937164413168
2525.0,0.003569347690309736
2524.0,0.0035649329480211267
2523.0,0.00356065760877812
2522.0,0.003552145385541155
2521.0,0.003541109777788061
2520.0,0.003529000114473313
2519.0,0.0035145595952068044
2518.0,0.003499086649708786
2517.0,0.0034857321440244227
2516.0,0.003472782002042654
2515.0,0.0034560538682309443
2514.0,0.0034378152909852267
2513.0,0.0034240726345398237
2512.0,0.0034135162221812163
2511.0,0.0033993208826785344
2510.0,0.0033817916856448546
2509.0,0.003368486895784055
2508.0,0.0033611307704665217
2507.0,0.0033534869073458705
2506.0,0.003343815233850915
2505.0,0.0033383121400870396
2504.0,0.0033394094415879153
2503.0,0.0033409626286235597
2502.0,0.0033383580590624204
2501.0,0.003334252837379847
2500.0,0.0033312708195745583
2499.0,0.003327368757286643
2498.0,0.003321388272926349
2497.0,0.003315784927273504
2496.0,0.0033117117890365515
2495.0,0.003308165044235243
2494.0,0.0033066558683899254
2493.0,0.003309268648623221
2492.0,0.0033116894071369037
2491.0,0.0033063586787220305
2490.0,0.0032933093729263768
2489.0,0.003280126886739821
2488.0,0.0032709550817432015
2487.0,0.003263437462077622
2486.0,0.00325612513527938
2485.0,0.003250121679292596
2484.0,0.0032434752672860076
2483.0,0.00323287444902114
2482.0,0.0032210480083136985
2481.0,0.0032137466890325914
2480.0,0.003209476432213483
2479.0,0.003201313297638882
2478.0,0.0031888389862837303
2477.0,0.00317871317057953
2476.0,0.0031731130509102144
2475.0,0.003167587608839234
2474.0,0.003161341291188318
2473.0,0.003159452901758688
2472.0,0.0031627395837491214
2471.0,0.0031646281533437657
2470.0,0.003160697330959312
2469.0,0.0031536373737253128
2468.0,0.0031469621897188944
2467.0,0.003140962802299491
2466.0,0.0031360399145288808
2465.0,0.003133279735085476
2464.0,0.0031313982403156715
2463.0,0.003129671172337133
2462.0,0.0031328804536630566
2461.0,0.0031457253530492607
2460.0,0.0031635055467851216
2459.0,0.00317667580303768
2458.0,0.003183506923427278
2457.0,0.003189504755019946
2456.0,0.0031955036116383087
2455.0,0.00319608357221875
2454.0,0.003189960360695691
2453.0,0.003182785566956958
2452.0,0.003178905554522144
2451.0,0.0031783198201236506
2450.0,0.003181470213987003
2449.0,0.0031885170293513166
2448.0,0.0031941804440487735
2447.0,0.0031919539457794283
2446.0,0.0031833950104477792
2445.0,0.0031755724900625606
2444.0,0.0031706844731800524
2443.0,0.0031662581209851793
2442.0,0.0031631688961694755
2441.0,0.0031639469332845832
2440.0,0.003165386976928721
2439.0,0.003163258629460432
2438.0,0.0031624945323924405
2437.0,0.003171450359927626
2436.0,0.003186978837855853
2435.0,0.003196733269445537
2434.0,0.0031964205136814864
2433.0,0.0031938068260743213
2432.0,0.0031950869382235433
2431.0,0.0031979603893174734
2430.0,0.0031991475849811883
2429.0,0.0031983718673000024
2428.0,0.003193641141733727
2427.0,0.003182426419057014
2426.0,0.00316894762017998
2425.0,0.0031612328428472876
2424.0,0.0031596469058851814
2423.0,0.0031566183748615063
2422.0,0.003148166539506751
2421.0,0.003137271333235621
2420.0,0.003126022389178086
2419.0,0.003113384401410359
2418.0,0.003100807885488796
2417.0,0.0030915801576293406
2416.0,0.003084841436830225
2415.0,0.0030781361071030686
2414.0,0.0030745455906318825
2413.0,0.0030784748841354297
2412.0,0.0030856178807255963
2411.0,0.0030864338911432893
2410.0,0.003078868348790915
2409.0,0.0030687397319509556
2408.0,0.0030588039766365994
2407.0,0.003047256755381666
2406.0,0.0030360431656155573
2405.0,0.003030059287806261
2404.0,0.0030282269803524682
2403.0,0.003025039726044766
2402.0,0.0030205652889313305
2401.0,0.003019680339202241
2400.0,0.003021957076596568
2399.0,0.003021643444900766
2398.0,0.0030173905276697447
2397.0,0.0030129130599610855
2396.0,0.003008389511458888
2395.0,0.003000604368673484
2394.0,0.0029913469939447804
2393.0,0.0029861550610515895
2392.0,0.002984897217869814
2391.0,0.0029825155702626824
2390.0,0.0029790298162532458
2389.0,0.0029803363065811425
2388.0,0.002988924103014531
2387.0,0.003001636203293501
2386.0,0.003015913615280976
2385.0,0.0030298491460704373
2384.0,0.0030368584134296966
2383.0,0.003029318076727354
2382.0,0.0030076108837210317
2381.0,0.002977439215320228
2380.0,0.002938941972531007
2379.0,0.002889658098088313
2378.0,0.0028400437931901364
2377.0,0.002810903771139716
2376.0,0.0028104347937798575
2375.0,0.002826997008392708
2374.0,0.0028480127425877665
2373.0,0.002871034894899645
2372.0,0.002890444764851976
2371.0,0.002894394217319208
2370.0,0.0028856411730621844
2369.0,0.0028823097036164706
2368.0,0.0028885890428253353
2367.0,0.00289142263300105
2366.0,0.0028927012986611675
2365.0,0.002907718968778101
2364.0,0.0029242071736615533
2363.0,0.0029153743867095104
2362.0,0.0028912263065458063
2361.0,0.0028862397917297517
2360.0,0.0029092957897617925
2359.0,0.002931796740988379
2358.0,0.002934079505484532
2357.0,0.002920725488864119
2356.0,0.0028890536306843823
2355.0,0.0028414695743668506
2354.0,0.002792865208686395
2353.0,0.002759915527059671
2352.0,0.0027450787915540816
2351.0,0.0027428754292653577
2350.0,0.0027653369752924178
2349.0,0.0028194121277293903
2348.0,0.002898844869585634
2347.0,0.0029787327163404106
2346.0,0.0030324467843023542
2345.0,0.0030583127404801643
2344.0,0.0030590094665232663
2343.0,0.0030421734370383135
2342.0,0.003008789019569744
2341.0,0.0029676991008113192
2340.0,0.002934172741347181
2339.0,0.002910266715336817
2338.0,0.0028963224813896554
2337.0,0.0028908456012957397
2336.0,0.0028881886767776785
2335.0,0.002881376754189665
2334.0,0.002874167000230958
2333.0,0.002876792559600411
2332.0,0.0028889229749959424
2331.0,0.0028935969089635585
2330.0,0.0028958076047564036
2329.0,0.0029160402467333937
2328.0,0.002979301890975869
2327.0,0.003090433227723123
2326.0,0.0032279172832995933
2325.0,0.003355440184421056
2324.0,0.003418942116203855
2323.0,0.003398908391509022
2322.0,0.0033251002716142577
2321.0,0.003256248748704281
2320.0,0.0032202400374951074
2319.0,0.0032042888071319893
2318.0,0.0031951990329423872
2317.0,0.0031900115206724674
2316.0,0.003188544351413249
2315.0,0.0031832479377721743
2314.0,0.003176662182013522
2313.0,0.0031772435119123725
2312.0,0.0031878473009277295
2311.0,0.0032016663955542154
2310.0,0.0032145576355487792
2309.0,0.003226464992753893
2308.0,0.0032322787263894836
2307.0,0.003229988709040416
2306.0,0.003228792444074282
2305.0,0.003241516392617339
2304.0,0.003263439412038849
2303.0,0.0032796191215953142
2302.0,0.0032848296618105217
2301.0,0.003286451732004998
2300.0,0.003289084333687406
2299.0,0.003291671187304802
2298.0,0.003298661836938489
2297.0,0.0033159401051959547
2296.0,0.0033375077257085718
2295.0,0.0033512809309084015
2294.0,0.0033576267258049477
2293.0,0.0033687353356286697
2292.0,0.0033872834639130296
2291.0,0.003405077249318539
2290.0,0.0034182393272980003
2289.0,0.0034322541165370535
2288.0,0.003446913311578657
2287.0,0.0034556551064925545
2286.0,0.0034578827034057935
2285.0,0.0034592317883434913
2284.0,0.0034573986140311787
2283.0,0.003445331804225245
2282.0,0.003427407806535817
2281.0,0.0034158234404059185
2280.0,0.0034100928947716448
2279.0,0.0033990069106001435
2278.0,0.0033837378935283615
2277.0,0.0033778854426337406
2276.0,0.0033833476644232864
2275.0,0.0033860523212919324
2274.0,0.0033802030463155166
2273.0,0.003374692897919489
2272.0,0.0033737365428752352
2271.0,0.0033719156925476716
2270.0,0.003371492933968761
2269.0,0.00338192411357943
2268.0,0.0033978109495448796
2267.0,0.0034002916800454867
2266.0,0.003385015463949707
2265.0,0.0033680027313033665
2264.0,0.003360581720142569
2263.0,0.003360178958347114
2262.0,0.003367882129344446
2261.0,0.0033911816348431672
2260.0,0.0034236107323237976
2259.0,0.0034452812805893006
2258.0,0.0034475855165735244
2257.0,0.0034376378471137167
2256.0,0.0034172525775137863
2255.0,0.003381897472315746
2254.0,0.003342804459502439
2253.0,0.0033223455124060694
2252.0,0.0033230263643099418
2251.0,0.0033253183075997216
2250.0,0.0033211151335843375
2249.0,0.003322886829617083
2248.0,0.00333524822442737
2247.0,0.003344089085602993
2246.0,0.003341139148240541
2245.0,0.0033360567554772207
2244.0,0.0033367162649269432
2243.0,0.003339627370200159
2242.0,0.0033450257848772163
2241.0,0.0033597072429738073
2240.0,0.0033811151172108813
2239.0,0.003399309557809327
2238.0,0.0034150148666276543
2237.0,0.0034334155290938902
2236.0,0.003442876681571391
2235.0,0.003426928335611286
2234.0,0.0033959132759222837
2233.0,0.0033778374251242768
2232.0,0.0033776467410105227
2231.0,0.0033766546974662846
2230.0,0.0033713148165863747
2229.0,0.0033777006256751905
2228.0,0.0033958788599135303
2227.0,0.003405391433462808
2226.0,0.0034017596645038034
2225.0,0.003402870678378203
2224.0,0.0034127023888738013
2223.0,0.0034125566678368806
2222.0,0.003395570242370537
2221.0,0.0033775849458080216
2220.0,0.0033669294383246455
2219.0,0.0033555175834876763
2218.0,0.0033457155113599717
2217.0,0.0033520536457749563
2216.0,0.0033699904186409663
2215.0,0.003377027306290633
2214.0,0.0033708054476129018
2213.0,0.0033724735941383075
2212.0,0.0033867676388361274
2211.0,0.003394475206847941
2210.0,0.003390423294070825
2209.0,0.0033919611871280004
2208.0,0.0034024962440070434
2207.0,0.003403161308585934
2206.0,0.0033898023736857494
2205.0,0.0033824807903371037
2204.0,0.003389175253221961
2203.0,0.003395643045921242
2202.0,0.003398915285015249
2201.0,0.0034138427089851287
2200.0,0.0034376659129163266
2199.0,0.0034450530527631714
2198.0,0.003429542698912747
2197.0,0.0034161146180635474
2196.0,0.0034227443508235023
2195.0,0.0034417317700791076
2194.0,0.0034659026765446093
2193.0,0.0034985937904022635
2192.0,0.003530794438184925
2191.0,0.0035440999885102786
2190.0,0.00354372331985949
2189.0,0.003555379786443159
2188.0,0.0035847692801092004
2187.0,0.0036132447946845446
2186.0,0.003633389762136379
2185.0,0.0036490572382602404
2184.0,0.0036406750181693023
2183.0,0.0035782868380830135
2182.0,0.003477317955796939
2181.0,0.00339647790872964
2180.0,0.0033691812919724195
2179.0,0.003377083000141052
2178.0,0.003393623644221764
2177.0,0.003408084305261707
2176.0,0.003407715221422624
2175.0,0.003385656514786413
2174.0,0.00336988636962514
2173.0,0.0033975064697936404
2172.0,0.003458608691626963
2171.0,0.003512141139483293
2170.0,0.0035530346102728445
2169.0,0.0036116722522936484
2168.0,0.0036878459681450506
2167.0,0.0037415261865782505
2166.0,0.0037603134713478812
2165.0,0.003783439790011873
2164.0,0.003840665101117827
2163.0,0.00390995985591385
2162.0,0.003940436730192188
2161.0,0.0038703681485922426
2160.0,0.0036358397031352697
2159.0,0.0032440445162786927
2158.0,0.0028407701623137166
2157.0,0.0026045736217014644
2156.0,0.002567731826000932
2155.0,0.0026266727453890014
2154.0,0.0026954152878414413
2153.0,0.0027616552274908786
2152.0,0.002824981923791663
2151.0,0.002866279741011996
2150.0,0.0028840776442352807
2149.0,0.002899527974535843
2148.0,0.002912730005003946
2147.0,0.0029023689693058155
2146.0,0.0028723772917702674
2145.0,0.0028518002302315784
2144.0,0.0028463229950343558
2143.0,0.002836651106528014
2142.0,0.002824795178457988
2141.0,0.002834107573599388
2140.0,0.0028623502948103125
2139.0,0.002879442255686828
2138.0,0.0028721983335436925
2137.0,0.002850111550834402
2136.0,0.0028106609060861523
2135.0,0.0027446500245226022
2134.0,0.00267512166630334
2133.0,0.0026443445959152202
2132.0,0.0026591782849304346
2131.0,0.0026890732328583604
2130.0,0.002715958695948929
2129.0,0.0027467487097161927
2128.0,0.0027806969783650127
2127.0,0.002804064142174277
2126.0,0.0028191476979707686
2125.0,0.0028435923859307308
2124.0,0.002876926179457421
2123.0,0.0028991942653763393
2122.0,0.0029048838003117618
2121.0,0.002908233829418651
2120.0,0.002914289482806288
2119.0,0.002916010644136878
2118.0,0.0029204941108472997
2117.0,0.002945009282750954
2116.0,0.0029838636413910837
2115.0,0.0030112077103665487
2114.0,0.0030206586699318577
2113.0,0.0030305903811961216
2112.0,0.003046821655278212
2111.0,0.003053087156948527
2110.0,0.003044404422065863
2109.0,0.003037236893822684
2108.0,0.003038683567067426
2107.0,0.003036333300731478
2106.0,0.0030254461852146073
2105.0,0.003016362671377634
2104.0,0.003009596326747212
2103.0,0.0029941970365651074
2102.0,0.0029755030016965895
2101.0,0.002972864340106538
2100.0,0.002984743405585413
2099.0,0.0029867414548149893
2098.0,0.0029679226093889412
2097.0,0.002939382050813402
2096.0,0.0029065653314491085
2095.0,0.002867252074551678
2094.0,0.0028375441657421197
2093.0,0.002841272496710431
2092.0,0.002870726314273337
2091.0,0.0028939138159525413
2090.0,0.0029024313766092898
2089.0,0.002916993438053367
2088.0,0.0029440460224487513
2087.0,0.0029651396531299085
2086.0,0.002973479204967164
2085.0,0.0029831738943768516
2084.0,0.002996469270169878
2083.0,0.0029983913791897317
2082.0,0.00299054673312099
2081.0,0.0029934272775333456
2080.0,0.003007342583520179
2079.0,0.003008609949476537
2078.0,0.002992461827301033
2077.0,0.0029812897551169657
2076.0,0.002982671497399829
2075.0,0.0029787223817390684
2074.0,0.0029661097497621575
2073.0,0.0029643708141203857
2072.0,0.0029741839773903215
2071.0,0.0029700845382365825
2070.0,0.0029461428432313768
2069.0,0.0029284941507339247
2068.0,0.002930793921307809
2067.0,0.002937493303195107
2066.0,0.002940788372645842
2065.0,0.0029514478069535663
2064.0,0.002963408429248392
2063.0,0.0029532602491132848
2062.0,0.002925041823332897
2061.0,0.002910683087264971
2060.0,0.002919360994788095
2059.0,0.002930706351217997
2058.0,0.002941460738997175
2057.0,0.002967763723615079
2056.0,0.002996822368723261
2055.0,0.002996015819556686
2054.0,0.0029829748563725833
2053.0,0.0030223908099475277
2052.0,0.0031306322145793794
2051.0,0.0032409745286219086
2050.0,0.003286471452897494
2049.0,0.0032700250235155877
2048.0,0.003228301274934077
2047.0,0.0031761680755995475
2046.0,0.003123710244646926
2045.0,0.003097160127031781
2044.0,0.0031019369073287816
2043.0,0.003110593917013649
2042.0,0.00311519814386373
2041.0,0.003142586622227766
2040.0,0.00319402367129683
2039.0,0.0032265261780744774
2038.0,0.0032188816774098234
2037.0,0.0031973855235371434
2036.0,0.003177079088770031
2035.0,0.0031386900023533952
2034.0,0.0030868265991957082
2033.0,0.003064189183761673
2032.0,0.0030775002844902117
2031.0,0.0030792006270161723
2030.0,0.0030485405875489867
2029.0,0.0030204790144936888
2028.0,0.003013362500837582
2027.0,0.0030002530402854157
2026.0,0.0029760399961418042
2025.0,0.0029769450290682716
2024.0,0.0030067842868211764
2023.0,0.0030188482884898446
2022.0,0.0029962112891146705
2021.0,0.00297948329220196
2020.0,0.002990345812059479
2019.0,0.0029964576848507335
2018.0,0.00297837808686453
2017.0,0.0029641828375660518
2016.0,0.002968276653121661
2015.0,0.0029643012221692317
2014.0,0.0029464415786247156
2013.0,0.002949836818668404
2012.0,0.002987649670957734
2011.0,0.003026855250151619
2010.0,0.0030426665520632795
2009.0,0.0030390354652866046
2008.0,0.0030056083816141733
2007.0,0.0029213306787384155
2006.0,0.002814836137062066
2005.0,0.0027521941896262187
2004.0,0.0027502776314551436
2003.0,0.002768615492801824
2002.0,0.0027880792803472824
2001.0,0.0028282206664749644
2000.0,0.0028826340404536216
1999.0,0.0029090942963855082
1998.0,0.0028995713835810303
1997.0,0.0028941120987133312
1996.0,0.002911286917791632
1995.0,0.002927466073745332
1994.0,0.002936568533740605
1993.0,0.0029675206244241165
1992.0,0.0030218415606306295
1991.0,0.003057649683297292
1990.0,0.003061803476565194
1989.0,0.003069136304207504
1988.0,0.003093152684627408
1987.0,0.0031056096898768007
1986.0,0.003099740900270179
1985.0,0.0031125572920792446
1984.0,0.003165963499023587
1983.0,0.0032425232704152733
1982.0,0.003329481461339176
1981.0,0.003423117454444203
1980.0,0.0034772722317741723
1979.0,0.003421198399247265
1978.0,0.003260948346656091
1977.0,0.003094628169214439
1976.0,0.0029910267410959298
1975.0,0.0029305231821814604
1974.0,0.0028883309404009612
1973.0,0.0028775574414163143
1972.0,0.0028900801118851996
1971.0,0.0028876668923106044
1970.0,0.00287166641897369
1969.0,0.0028836789532635733
1968.0,0.002920337997683503
1967.0,0.0029241877149536457
1966.0,0.002881240708628475
1965.0,0.002842417449057068
1964.0,0.0028304081349780764
1963.0,0.0028127742848730037
1962.0,0.002776543522558613
1961.0,0.002751639772885217
1960.0,0.0027458913058644595
1959.0,0.0027300680475574658
1958.0,0.0027039064345656476
1957.0,0.0027030117631506208
1956.0,0.0027270963008869152
1955.0,0.002731188972388202
1954.0,0.0027031319276206887
1953.0,0.002684273343806556
1952.0,0.0026980352261433463
1951.0,0.0027195752943344207
1950.0,0.002730001951565972
1949.0,0.0027436114784869852
1948.0,0.0027644791166631247
1947.0,0.0027700971016495156
1946.0,0.002756338734360766
1945.0,0.002748626178354754
1944.0,0.0027536525945379892
1943.0,0.0027474012722966336
1942.0,0.00272863004786922
1941.0,0.002728802867042041
1940.0,0.002752970668756847
1939.0,0.002771471987289303
1938.0,0.002772996866604982
1937.0,0.0027759538436196536
1936.0,0.002784941911471491
1935.0,0.0027800525122189026
1934.0,0.0027597191237861913
1933.0,0.002747788696646106
1932.0,0.0027495547865731655
1931.0,0.002745122111300226
1930.0,0.0027316067398174106
1929.0,0.002729803664047702
1928.0,0.0027398595937005994
1927.0,0.0027379311124080016
1926.0,0.0027233359304055125
1925.0,0.002725180540802423
1924.0,0.002755419806991411
1923.0,0.0027902643630895517
1922.0,0.0028124021974108428
1921.0,0.0028298686968626055
1920.0,0.0028418014896994053
1919.0,0.002830075798453267
1918.0,0.0027993275642097656
1917.0,0.0027838304506580115
1916.0,0.002791769051130721
1915.0,0.0027951687188845073
1914.0,0.002784447815094158
1913.0,0.0027799843048443244
1912.0,0.0027896943796222604
1911.0,0.002794876272635668
1910.0,0.002788105551980383
1909.0,0.0027871451297456504
1908.0,0.0027945019864733154
1907.0,0.002788803522224554
1906.0,0.002766515671543528
1905.0,0.002749534015432634
1904.0,0.0027460643374234935
1903.0,0.002740677571190895
1902.0,0.0027322959041396907
1901.0,0.0027420590002248746
1900.0,0.0027703668532548438
1899.0,0.002789174755509725
1898.0,0.002786750653452888
1897.0,0.002781370621385486
1896.0,0.002783029604545541
1895.0,0.002776507733737053
1894.0,0.002758319099242542
1893.0,0.002749532078856908
1892.0,0.0027576070640624914
1891.0,0.002763838824927967
1890.0,0.002757473134416629
1889.0,0.0027510361878539972
1888.0,0.002748611303869998
1887.0,0.0027366371158511556
1886.0,0.0027170059397408604
1885.0,0.0027097943130965554
1884.0,0.0027170703797901236
1883.0,0.0027175223001659828
1882.0,0.0027062006811283757
1881.0,0.0027041744366755284
1880.0,0.00271730762968138
1879.0,0.002725212834838621
1878.0,0.0027211793881195645
1877.0,0.0027231080785309982
1876.0,0.0027357815164783614
1875.0,0.0027398435951223807
1874.0,0.002728420656105687
1873.0,0.002718641502281165
1872.0,0.002717578479005456
1871.0,0.002711479000986994
1870.0,0.002698857192534741
1869.0,0.002701781288433866
1868.0,0.0027214934282587017
1867.0,0.002728498591241958
1866.0,0.002717138303928691
1865.0,0.0027122046179662725
1864.0,0.0027223586965985894
1863.0,0.0027309136775312075
1862.0,0.0027304834062385074
1861.0,0.0027350058092798007
1860.0,0.002747011277351378
1859.0,0.002746881869336171
1858.0,0.0027283529768988906
1857.0,0.002711512704580179
1856.0,0.0027079754248665027
1855.0,0.0027060658947505607
1854.0,0.002700156920265016
1853.0,0.002702944919571487
1852.0,0.002715826582521083
1851.0,0.0027221769215872646
1850.0,0.0027215437154053863
1849.0,0.0027321450169209105
1848.0,0.002751028795817624
1847.0,0.002748858717528216
1846.0,0.002717953545474655
1845.0,0.0026912879791048416
1844.0,0.002692609467087629
1843.0,0.002705641789393811
1842.0,0.00271414958473475
1841.0,0.0027230960677729838
1840.0,0.002733644923410026
1839.0,0.002735343729761533
1838.0,0.00272768293761645
1837.0,0.0027275035717137103
1836.0,0.002739093238541751
1835.0,0.0027443518422210953
1834.0,0.0027358064817631263
1833.0,0.0027264684144514733
1832.0,0.00272259851809899
1831.0,0.0027145702560852185
1830.0,0.002703314114909648
1829.0,0.002707143236738322
1828.0,0.0027260800881477617
1827.0,0.002738242746164286
1826.0,0.0027396567222630857
1825.0,0.0027490099233384345
1824.0,0.0027669943334356793
1823.0,0.0027703056886087657
1822.0,0.0027547326511366253
1821.0,0.0027411780682575866
1820.0,0.0027367957015203793
1819.0,0.002725486555299917
1818.0,0.002701697603653916
1817.0,0.0026846448310537756
1816.0,0.0026861400351665013
1815.0,0.0026946331084511353
1814.0,0.0027047442369711526
1813.0,0.00272648877541726
1812.0,0.0027564983396478697
1811.0,0.0027726113542799837
1810.0,0.0027696344516395586
1809.0,0.0027707597702045015
1808.0,0.002786233151512633
1807.0,0.0027973597330041497
1806.0,0.0027940009149182913
1805.0,0.0027921796127481783
1804.0,0.0028056464698970668
1803.0,0.0028247706998243845
1802.0,0.0028387798429477668
1801.0,0.0028514216852053163
1800.0,0.002861180844375094
1799.0,0.0028606278238140553
1798.0,0.002860769325560656
1797.0,0.0028802670887611644
1796.0,0.0029083598006991312
1795.0,0.002912314743664056
1794.0,0.0028873298592760705
1793.0,0.002870358755940334
1792.0,0.002885495994151661
1791.0,0.0029094936231374427
1790.0,0.0029211763078294327
1789.0,0.0029296831977163006
1788.0,0.002941990932817097
1787.0,0.002950847991886908
1786.0,0.002956556881377109
1785.0,0.002972983936297923
1784.0,0.00299892071928938
1783.0,0.0030119534501068766
1782.0,0.003010717671456117
1781.0,0.003019970530994725
1780.0,0.0030425097114865477
1779.0,0.0030532537497504927
1778.0,0.0030468783022028862
1777.0,0.0030474581225839598
1776.0,0.0030603622542557138
1775.0,0.003059989518256781
1774.0,0.00303713301054331
1773.0,0.0030260929323835616
1772.0,0.0030490415278760846
1771.0,0.0030779386477449953
1770.0,0.003099831729375345
1769.0,0.0031397329790348156
1768.0,0.003202986014125642
1767.0,0.003256251735897392
1766.0,0.0032783753762474785
1765.0,0.003286399155163772
1764.0,0.0033007358301522928
1763.0,0.0033201452548825626
1762.0,0.0033440500361717313
1761.0,0.003387336865397074
1760.0,0.003446678287313041
1759.0,0.0034953633029560427
1758.0,0.00352975430114952
1757.0,0.003579192849011993
1756.0,0.003647420606175006
1755.0,0.0037013524550585965
1754.0,0.003735713690214102
1753.0,0.0037904863301582775
1752.0,0.003894269225690995
1751.0,0.004016223770588131
1750.0,0.0041120867912049636
1749.0,0.00419157977091222
1748.0,0.004271081704323273
1747.0,0.004331608185384715
1746.0,0.004373218005410644
1745.0,0.004427612731929628
1744.0,0.004500300494531139
1743.0,0.004552088465937555
1742.0,0.004562852306163695
1741.0,0.004575359676073114
1740.0,0.004633968831346612
1739.0,0.004714290672143419
1738.0,0.0047699595459582715
1737.0,0.004800391066970236
1736.0,0.004841177596196392
1735.0,0.004924355575386326
1734.0,0.005058865742912739
1733.0,0.005232136853537916
1732.0,0.005398017419404636
1731.0,0.005509494574279892
1730.0,0.005582300582051647
1729.0,0.005665574166695359
1728.0,0.005767924834305829
1727.0,0.005860300850219233
1726.0,0.005938580797687633
1725.0,0.006030628880979559
1724.0,0.006137369893813148
1723.0,0.006211834764434657
1722.0,0.0062239620447057725
1721.0,0.006203109388688623
1720.0,0.006198045540768046
1719.0,0.006236473596703206
1718.0,0.006334314945129304
1717.0,0.006503490198947973
1716.0,0.006700747401781821
1715.0,0.0068522478656159675
1714.0,0.0069587411249147175
1713.0,0.007080491040034618
1712.0,0.00724059753866681
1711.0,0.007407862101347527
1710.0,0.007561495467878789
1709.0,0.00771997720499734
1708.0,0.007899057816583899
1707.0,0.008096420090442532
1706.0,0.008321693879486494
1705.0,0.008575829890625906
1704.0,0.008798567674961788
1703.0,0.008937130414665201
1702.0,0.009040341430204416
1701.0,0.009287287478648133
1700.0,0.009737454901678965
1699.0,0.010173591886817858
1698.0,0.010493137287699116
1697.0,0.010840656584098891
1696.0,0.011316974670336318
1695.0,0.011793291407093022
1694.0,0.012142498059956618
1693.0,0.01242324688474841
1692.0,0.01272768609502235
1691.0,0.013097851847684774
1690.0,0.013517753304854253
1689.0,0.013943219194917172
1688.0,0.014309452213391298
1687.0,0.01459225937660141
1686.0,0.014864975692520212
1685.0,0.01534387966092898
1684.0,0.01605681383503825
1683.0,0.01663985884633471
1682.0,0.017002477828473462
1681.0,0.017353147946903052
1680.0,0.017754172273962383
1679.0,0.018124020876718532
1678.0,0.018404241390145737
1677.0,0.018685893745109414
1676.0,0.019104532003469045
1675.0,0.019626296676035763
1674.0,0.02008490987595003
1673.0,0.020441310077444142
1672.0,0.02077727432239377
1671.0,0.02116190713818879
1670.0,0.021621053085983565
1669.0,0.022125885936589818
1668.0,0.022598207818141758
1667.0,0.022966393924073937
1666.0,0.023237979867658305
1665.0,0.023499136890518336
1664.0,0.02384698863211285
1663.0,0.02428258541310541
1662.0,0.024709996406698263
1661.0,0.025088141738896213
1660.0,0.025447007553740717
1659.0,0.02578037921558965
1658.0,0.02606174748093027
1657.0,0.026274034681995673
1656.0,0.026450348902156487
1655.0,0.0266543542088856
1654.0,0.027094940773034187
1653.0,0.027832312559975623
1652.0,0.028458511376451664
1651.0,0.0287822070361638
1650.0,0.028918734458211897
1649.0,0.02903149049476203
1648.0,0.02931430095849458
1647.0,0.029741740238181026
1646.0,0.030094261456292796
1645.0,0.030313645667297
1644.0,0.030485799846518714
1643.0,0.030613830787268995
1642.0,0.030687242404201343
1641.0,0.030736467294717483
1640.0,0.03077517651091915
1639.0,0.030772633470041576
1638.0,0.03070774347164837
1637.0,0.030636509091310583
1636.0,0.03062795500710689
1635.0,0.03063468355709329
1634.0,0.030608665122851424
1633.0,0.0305859904987743
1632.0,0.03057399117809518
1631.0,0.030541954186172116
1630.0,0.030471726097865005
1629.0,0.03039157158032161
1628.0,0.0303395827597814
1627.0,0.030290220996827367
1626.0,0.030202935929633714
1625.0,0.030099532164911985
1624.0,0.03002862663378374
1623.0,0.029976147561593627
1622.0,0.02989226610771968
1621.0,0.029783315545818964
1620.0,0.02967010726342015
1619.0,0.0295357855379638
1618.0,0.029348212834561606
1617.0,0.029116498003086362
1616.0,0.028896362720767656
1615.0,0.028687764990107206
1614.0,0.02844226138552289
1613.0,0.028157315470310793
1612.0,0.027856684723187725
1611.0,0.027527530809951267
1610.0,0.027138287713505904
1609.0,0.026698740796434514
1608.0,0.026244354227226856
1607.0,0.02577355610245489
1606.0,0.02526233221371585
1605.0,0.024713691334430857
1604.0,0.02414330203450489
1603.0,0.023544521798259676
1602.0,0.022906275424552848
1601.0,0.022249708792522863
1600.0,0.021608846597150004
1599.0,0.02098851128420442
1598.0,0.02037103911057228
1597.0,0.019750215225937475
1596.0,0.019137163437765534
1595.0,0.018540717008376634
1594.0,0.017964119995603867
1593.0,0.017416674232985103
1592.0,0.016907965293201467
1591.0,0.016432822681608727
1590.0,0.015977991090596336
1589.0,0.015543317888037238
1588.0,0.01514098561451633
1587.0,0.014773970763713184
1586.0,0.014429002722701317
1585.0,0.014096367469248632
1584.0,0.013778195378007925
1583.0,0.013477973994784275
1582.0,0.01319618745946997
1581.0,0.012934913074551881
1580.0,0.012698013633931629
1579.0,0.012479256853749078
1578.0,0.012255051583417925
1577.0,0.011986049312787933
1576.0,0.011681487525693385
1575.0,0.011421939393756901
1574.0,0.011232170855999521
1573.0,0.011059357908990175
1572.0,0.010866114922592679
1571.0,0.010641022935010838
1570.0,0.010390077547497448
1569.0,0.010157526381480054
1568.0,0.009986065598359453
1567.0,0.009860444931017818
1566.0,0.009733686709364645
1565.0,0.00958508768981515
1564.0,0.009426637072698122
1563.0,0.009282365298968398
1562.0,0.009144872684380238
1561.0,0.00899021118285955
1560.0,0.008774973725398367
1559.0,0.008505443168908902
1558.0,0.008300450145842199
1557.0,0.00822992794846743
1556.0,0.008212281871314593
1555.0,0.008169242914617153
1554.0,0.00809586932680761
1553.0,0.008008131325669927
1552.0,0.007915449407569523
1551.0,0.007819380259704854
1550.0,0.00771752894861558
1549.0,0.007605059098053424
1548.0,0.007488551360093652
1547.0,0.007381250984673167
1546.0,0.007290075698539051
1545.0,0.007203824516424172
1544.0,0.0070985954515972866
1543.0,0.006963262902811948
1542.0,0.006813766159623822
1541.0,0.006660262045153771
1540.0,0.006500495384421888
1539.0,0.006384062017282577
1538.0,0.00635149664080069
1537.0,0.006338647960155144
1536.0,0.006283873252090035
1535.0,0.006194079011996602
1534.0,0.006097702490779765
1533.0,0.006015699798605133
1532.0,0.005954583688522207
1531.0,0.005909634061132409
1530.0,0.005868476168316604
1529.0,0.0058223419000950375
1528.0,0.005771266255457663
1527.0,0.005718769717580128
1526.0,0.0056672539031071625
1525.0,0.005612033163378398
1524.0,0.005546371770674623
1523.0,0.0054795675152956485
1522.0,0.005432955220241639
1521.0,0.0054096004948593745
1520.0,0.0053880755739242345
1519.0,0.005354183468778038
1518.0,0.005321164847448652
1517.0,0.005304275562037957
1516.0,0.0052897554332568125
1515.0,0.005263213604553239
1514.0,0.00523636132596947
1513.0,0.0052236297743610246
1512.0,0.005222931391554857
1511.0,0.005222169797622228
1510.0,0.0052166240067833755
1509.0,0.005215884231318628
1508.0,0.005215698509321468
1507.0,0.005170307574505077
1506.0,0.005078616539474297
1505.0,0.0050434266549045535
1504.0,0.005076050591873735
1503.0,0.0051013075478160315
1502.0,0.005105893273946778
1501.0,0.005106228577120321
1500.0,0.0051012029146110666
1499.0,0.0050896148540066025
1498.0,0.005102518369229553
1497.0,0.0051659573905038485
1496.0,0.005243905573161294
1495.0,0.005287804940004691
1494.0,0.00530405893079106
1493.0,0.005320071481198198
1492.0,0.005346883982974354
1491.0,0.005390585897892928
1490.0,0.005471730056347141
1489.0,0.005584970459248572
1488.0,0.0056825964753122234
1487.0,0.005753696263442404
1486.0,0.005838770388217528
1485.0,0.005962608846218142
1484.0,0.006107288178419389
1483.0,0.006260827006400612
1482.0,0.006451032621543289
1481.0,0.006691361114388545
1480.0,0.00694250492306323
1479.0,0.007181761743408609
1478.0,0.00746351399043106
1477.0,0.007848504192711402
1476.0,0.00831220336475118
1475.0,0.008820071249997587
1474.0,0.009501712374561091
1473.0,0.010557781260525466
1472.0,0.011863538196456176
1471.0,0.013102298707030764
1470.0,0.014250159398566588
1469.0,0.015433220156588833
1468.0,0.01669914820325501
1467.0,0.01809382205425384
1466.0,0.01973705791485209
1465.0,0.021609105677946362
1464.0,0.02331947275306991
1463.0,0.024540450660859667
1462.0,0.02535524840791112
1461.0,0.025945377670466473
1460.0,0.02638780161542196
1459.0,0.026735813307820384
1458.0,0.027126512152428905
1457.0,0.02757092845762348
1456.0,0.027835846803804454
1455.0,0.02787935818792815
1454.0,0.027827949029981584
1453.0,0.02768553717087503
1452.0,0.027374676816222535
1451.0,0.026834940059613507
1450.0,0.026013655984909227
1449.0,0.02478370931137309
1448.0,0.02310148527084811
1447.0,0.021225981826152433
1446.0,0.019478561470314282
1445.0,0.01793279884719217
1444.0,0.016543929961000917
1443.0,0.0153427337823352
1442.0,0.014395366291905819
1441.0,0.013702008119175907
1440.0,0.013220584734408392
1439.0,0.012936199597320494
1438.0,0.012841874998886392
1437.0,0.012824697302658308
1436.0,0.012653750329388844
1435.0,0.012213954626931168
1434.0,0.011550068512457374
1433.0,0.010718023620002771
1432.0,0.009807645771181836
1431.0,0.008968006549985565
1430.0,0.008299779392399204
1429.0,0.007796457713018517
1428.0,0.007432497458911096
1427.0,0.007194828779963089
1426.0,0.00703370343422891
1425.0,0.006884297732443723
1424.0,0.0067350819721302
1423.0,0.006617391153926693
1422.0,0.006525321295141098
1421.0,0.006423830969370629
1420.0,0.006322400927611899
1419.0,0.006272713848317927
1418.0,0.006258465110098813
1417.0,0.006208923588493497
1416.0,0.006127465215930498
1415.0,0.00606169332635975
1414.0,0.006015356700045243
1413.0,0.00596065605935723
1412.0,0.005899459863354787
1411.0,0.005860425018844846
1410.0,0.005836433913860143
1409.0,0.005792815466774797
1408.0,0.005734947240318215
1407.0,0.005700813589716669
1406.0,0.005691955995251335
1405.0,0.00566917457687328
1404.0,0.005627385696821156
1403.0,0.0056015634422538155
1402.0,0.0055923124538363195
1401.0,0.005573540465843991
1400.0,0.005559934448687104
1399.0,0.005591570411909742
1398.0,0.005650977960194835
1397.0,0.005686032367766252
1396.0,0.00570743987046385
1395.0,0.005765481394678296
1394.0,0.00585247214825615
1393.0,0.0059268421803360775
1392.0,0.006003872258288133
1391.0,0.006130569063991951
1390.0,0.006324708310384014
1389.0,0.006601094215298711
1388.0,0.007036172661016931
1387.0,0.007717460755304523
1386.0,0.008640085450529354
1385.0,0.009811952125444782
1384.0,0.011389508242069446
1383.0,0.013567061816110337
1382.0,0.01641967884411218
1381.0,0.019967511097605112
1380.0,0.024268967534675952
1379.0,0.029156262273021857
1378.0,0.033916254551719316
1377.0,0.03749576246935354
1376.0,0.03892985857761035
1375.0,0.037605585956784475
1374.0,0.03385440089053409
1373.0,0.029122269524276042
1372.0,0.024725380370741682
1371.0,0.02103595038410636
1370.0,0.01797787880118886
1369.0,0.015536100805892836
1368.0,0.013762952754325628
1367.0,0.01261375789895924
1366.0,0.011945954046485007
1365.0,0.01163557845637391
1364.0,0.011618681822129377
1363.0,0.01185089771359859
1362.0,0.012247049367013985
1361.0,0.01267426491195236
1360.0,0.012997325809313544
1359.0,0.013108694741245652
1358.0,0.012947435281810702
1357.0,0.012517685755411338
1356.0,0.011882551875680339
1355.0,0.011142407626345274
1354.0,0.010410537264724108
1353.0,0.009772479703374928
1352.0,0.009254021194910641
1351.0,0.008836838107646228
1350.0,0.008498960828669869
1349.0,0.008228730965280168
1348.0,0.008014091221397538
1347.0,0.007843113794708164
1346.0,0.007714338460396347
1345.0,0.007632827608481893
1344.0,0.007597949657892416
1343.0,0.007606782328650922
1342.0,0.007666820909317501
1341.0,0.00779195489157896
1340.0,0.007980233406394767
1339.0,0.008206463008188366
1338.0,0.008451437908513637
1337.0,0.008725159560342616
1336.0,0.009049624629865012
1335.0,0.009437486489335872
1334.0,0.009893234485881162
1333.0,0.010417529808159059
1332.0,0.010999401645720113
1331.0,0.011610736842034767
1330.0,0.012220672498824215
1329.0,0.01281274626312664
1328.0,0.013381366549880452
1327.0,0.013919891301975261
1326.0,0.014421908449872664
1325.0,0.014883265757132405
1324.0,0.015292177057441621
1323.0,0.015625515397135824
1322.0,0.015860090524097342
1321.0,0.01597590727853984
1320.0,0.015942415094186032
1319.0,0.01572122928729073
1318.0,0.015298458740075082
1317.0,0.01470219775895936
1316.0,0.013979149686351583
1315.0,0.013171778220286468
1314.0,0.012322730074419466
1313.0,0.011481723513634148
1312.0,0.0106969895729254
1311.0,0.010002998882690888
1310.0,0.009419176549773405
1309.0,0.008956616164432503
1308.0,0.0086193813066837
1307.0,0.008390353666546339
1306.0,0.00821428704891474
1305.0,0.008008279695184207
1304.0,0.007707538498295844
1303.0,0.007309843252705993
1302.0,0.006873677127164751
1301.0,0.006470953952105058
1300.0,0.006143390017456323
1299.0,0.005894860766914475
1298.0,0.005704943572196984
1297.0,0.005544139367638213
1296.0,0.0053871071837296195
1295.0,0.00522115410902812
1294.0,0.0050449824160880815
1293.0,0.004861996346909677
1292.0,0.004678344326713018
1291.0,0.0045033731378458465
1290.0,0.004344657511298153
1289.0,0.00420299118737324
1288.0,0.004076228651360321
1287.0,0.003965247701724185
1286.0,0.0038715208647577314
1285.0,0.0037922276703363372
1284.0,0.00372271617045889
1283.0,0.0036609569789665536
1282.0,0.0036057475519693048
1281.0,0.003554141054205492
1280.0,0.0035044787381808933
1279.0,0.0034588604494487744
1278.0,0.0034190523114314073
1277.0,0.0033834853922299485
1276.0,0.003351395271383498
1275.0,0.003325814215178545
1274.0,0.003309125060996284
1273.0,0.0032996367717154987
1272.0,0.0032959542968650545
1271.0,0.003300612441865033
1270.0,0.0033158265332949924
1269.0,0.0033400673637443675
1268.0,0.003372516981056767
1267.0,0.0034164825779063445
1266.0,0.00347462483096842
1265.0,0.003545188668675363
1264.0,0.003627101057885768
1263.0,0.0037253056736532477
1262.0,0.0038479442762778104
1261.0,0.004001901352309838
1260.0,0.004192336007592734
1259.0,0.004419053745958698
1258.0,0.004665545567580426
1257.0,0.004892916256074674
1256.0,0.005051367584809567
1255.0,0.005105854366800445
1254.0,0.0050579281986044815
1253.0,0.004945126579265185
1252.0,0.004818947369245682
1251.0,0.004719714765708894
1250.0,0.004663265425382146
1249.0,0.00464465491271837
1248.0,0.004652409856556719
1247.0,0.004678421813035319
1246.0,0.004717197363820171
1245.0,0.004762824643637492
1244.0,0.00481085961917011
1243.0,0.004860711887867678
1242.0,0.004913383775734484
1241.0,0.004968530516813028
1240.0,0.005025527545370177
1239.0,0.005085220591503373
1238.0,0.005148300678856203
1237.0,0.005213318310357226
1236.0,0.005278123285363902
1235.0,0.0053420999313318306
1234.0,0.005405583843567415
1233.0,0.0054682707878322195
1232.0,0.005529497849051048
1231.0,0.0055890286451791265
1230.0,0.005646631698774827
1229.0,0.005702407549350679
1228.0,0.0057587891692028135
1227.0,0.00582065981916534
1226.0,0.005891717517320436
1225.0,0.005971512288389314
1224.0,0.006057143591667367
1223.0,0.006146280893627844
1222.0,0.006236425458847231
1221.0,0.006321999649006432
1220.0,0.006394735618096718
1219.0,0.006448416489958688
1218.0,0.006483012721449221
1217.0,0.006503962190996394
1216.0,0.006518464641902965
1215.0,0.006532810325435845
1214.0,0.00655136605886276
1213.0,0.006576212955749528
1212.0,0.006607813823661095
1211.0,0.006646460536778261
1210.0,0.0066927519923016265
1209.0,0.006746643248667132
1208.0,0.006806830887563823
1207.0,0.006871880972726381
1206.0,0.0069419521527033946
1205.0,0.007018718833336672
1204.0,0.007103132550660349
1203.0,0.00719373864549756
1202.0,0.007287937633772595
1201.0,0.007384713502202734
1200.0,0.007485347187753091
1199.0,0.007591709418671665
1198.0,0.007704629046782065
1197.0,0.007823654614477262
1196.0,0.007947525358903276
1195.0,0.008074798574485577
1194.0,0.008204743056379991
1193.0,0.008337507195613264
1192.0,0.008473022593154175
1191.0,0.008610527302845256
1190.0,0.008749667875823137
1189.0,0.00889092743856102
1188.0,0.00903432052646217
1187.0,0.009179175316200994
1186.0,0.009326145716676526
1185.0,0.009477979190581692
1184.0,0.009637553628322373
1183.0,0.009807003075440386
1182.0,0.009989519254014402
1181.0,0.010189887620065282
1180.0,0.010412448256523384
1179.0,0.010661335781014797
1178.0,0.010944622443899496
1177.0,0.011276317536333964
1176.0,0.01167398907864013
1175.0,0.012157606822780907
1174.0,0.012750188667720678
1173.0,0.01346989107712299
1172.0,0.014309496770717783
1171.0,0.01521822758759206
1170.0,0.016104295562444016
1169.0,0.01685780490858281
1168.0,0.017381359883364565
1167.0,0.017627262431074993
1166.0,0.017624430491711928
1165.0,0.017460960112647264
1164.0,0.01723033727826583
1163.0,0.016996699544777845
1162.0,0.016798450717115984
1161.0,0.016657064896683504
1160.0,0.016574981779194725
1159.0,0.016540304678936836
1158.0,0.01654303891495262
1157.0,0.016581100852250688
1156.0,0.0166500264630488
1155.0,0.01673781063941515
1154.0,0.0168318562809644
1153.0,0.01691999035394957
1152.0,0.01698377791795655
1151.0,0.017005270004261185
1150.0,0.016985136397343916
1149.0,0.016942117863735645
1148.0,0.01689236904585456
1147.0,0.016841273310900472
1146.0,0.016794528961316724
1145.0,0.016761179331247468
1144.0,0.01674253870153288
1143.0,0.01673187022233262
1142.0,0.01672836016609826
1141.0,0.01673937454859017
1140.0,0.01676705149169933
1139.0,0.01680580707385421
1138.0,0.016855140538303413
1137.0,0.016920946918359502
1136.0,0.017001266881445837
1135.0,0.017084708340364282
1134.0,0.01716657179173894
1133.0,0.017252973358659416
1132.0,0.01734601574691513
1131.0,0.017439372723856233
1130.0,0.017532217988047893
1129.0,0.01763274896887793
1128.0,0.017743218991944462
1127.0,0.017855662349814325
1126.0,0.017967059789997797
1125.0,0.018084320894361537
1124.0,0.01820976886099318
1123.0,0.018336839431645425
1122.0,0.018464907537411077
1121.0,0.01860280073233185
1120.0,0.01875254464981497
1119.0,0.018905064092567356
1118.0,0.0190568172472635
1117.0,0.019215151762449575
1116.0,0.01938264860193738
1115.0,0.01955251794113568
1114.0,0.01972435809355191
1113.0,0.019907225795992946
1112.0,0.020101932505674998
1111.0,0.020298670368894833
1110.0,0.02049814774291698
1109.0,0.02071597575072311
1108.0,0.020959586383089108
1107.0,0.02121895253698177
1106.0,0.021484385096408817
1105.0,0.021752075763332844
1104.0,0.022005592471583922
1103.0,0.022214975967566466
1102.0,0.022364746228670265
1101.0,0.022464137101083165
1100.0,0.022524695158980385
1099.0,0.022550486693755385
1098.0,0.022555426479216486
1097.0,0.022563694090353862
1096.0,0.022584235827598633
1095.0,0.022606869724759397
1094.0,0.022628360982483393
1093.0,0.02265867044610716
1092.0,0.022696896448955926
1091.0,0.02272682176910488
1090.0,0.022743462886093954
1089.0,0.022760297954583862
1088.0,0.022783622716643612
1087.0,0.022803371996126094
1086.0,0.02281540079460338
1085.0,0.022828142069184296
1084.0,0.022840375444225663
1083.0,0.022836973924076343
1082.0,0.022813398398131537
1081.0,0.022780487526610427
1080.0,0.022739851948484463
1079.0,0.02267966138736988
1078.0,0.022599955798393176
1077.0,0.022516827419845287
1076.0,0.02243629885829682
1075.0,0.02234878730086485
1074.0,0.022253646124677128
1073.0,0.02216329909337105
1072.0,0.02207800771383175
1071.0,0.021982351856452295
1070.0,0.021872534580370313
1069.0,0.021762561603726045
1068.0,0.021658298364924045
1067.0,0.021549854971486548
1066.0,0.021434340503431324
1065.0,0.02132210093125186
1064.0,0.02121522084439163
1063.0,0.02110274427390285
1062.0,0.020982566275273087
1061.0,0.020866424273294767
1060.0,0.02075768813177503
1059.0,0.020645116038302644
1058.0,0.02052385923455299
1057.0,0.020402450964530538
1056.0,0.020284284520868855
1055.0,0.020162006680930822
1054.0,0.020035047074625403
1053.0,0.019913620217838646
1052.0,0.019800071782570802
1051.0,0.01968660028387163
1050.0,0.019578005395056226
1049.0,0.019492969794673975
1048.0,0.019434380158655586
1047.0,0.01938051835448159
1046.0,0.01930915902475498
1045.0,0.019209507158031925
1044.0,0.019071860303471858
1043.0,0.018890333226006827
1042.0,0.01867938705142409
1041.0,0.018467483278629297
1040.0,0.0182695928513254
1039.0,0.018080789693912087
1038.0,0.017896379316790768
1037.0,0.017719893180572786
1036.0,0.017548932735811075
1035.0,0.01737134187630789
1034.0,0.017181038522931128
1033.0,0.016983356504727785
1032.0,0.016781067817140696
1031.0,0.016569559295653236
1030.0,0.01634933146087893
1029.0,0.016128910321650588
1028.0,0.015911223619502528
1027.0,0.015689790682333046
1026.0,0.01546211749850089
1025.0,0.015235395230193738
1024.0,0.015015690732651747
1023.0,0.01480183400144387
1022.0,0.014592832599758403
1021.0,0.014391993322066102
1020.0,0.014201095438220606
1019.0,0.014018926336121264
1018.0,0.013847470069725306
1017.0,0.013691333008614696
1016.0,0.013549529537398061
1015.0,0.013415843224415299
1014.0,0.01328877450448292
1013.0,0.013173644484348788
1012.0,0.013073842998618503
1011.0,0.012987636863443498
1010.0,0.012914872219425999
1009.0,0.012859710230946834
1008.0,0.012825853367812487
1007.0,0.012817216777576971
1006.0,0.012846866891187227
1005.0,0.01294113828310774
1004.0,0.013135519124691429
1003.0,0.013471150115302234
1002.0,0.013984945395163095
1001.0,0.014673010481402654
1000.0,0.015437262724570439
999.0,0.01607189824129047
998.0,0.01633759920902759
997.0,0.016087388645638977
996.0,0.01534704063617185
995.0,0.014295112311011736
994.0,0.013163926756688576
993.0,0.012130010464515494
992.0,0.01126576128375668
991.0,0.010566067448956936
990.0,0.009999337563347302
989.0,0.009536782181267016
988.0,0.009157844169601628
987.0,0.008849415875506757
986.0,0.008605426672365324
985.0,0.00842490649012806
984.0,0.008310902534332244
983.0,0.008272710339413814
982.0,0.008327845806949436
981.0,0.008500150367643539
980.0,0.008815005785433296
979.0,0.009292875134912573
978.0,0.009940575995660304
977.0,0.010739259528454429
976.0,0.011627333808684021
975.0,0.012483108249777674
974.0,0.013126974377727797
973.0,0.013364937884072857
972.0,0.013072972454410862
971.0,0.012281574299165812
970.0,0.01118436777154876
969.0,0.01003773307359723
968.0,0.009032768821254571
967.0,0.008243308227925957
966.0,0.007656799423977411
965.0,0.0072278682461853795
964.0,0.0069109860558996105
963.0,0.006670394797034898
962.0,0.006481557629682302
961.0,0.006329994624238451
960.0,0.006207644329670121
959.0,0.006109368545165507
958.0,0.0060316283149498585
957.0,0.005971733045775165
956.0,0.005926758735729145
955.0,0.005893765047609757
954.0,0.005871276988149229
953.0,0.005859500170916384
952.0,0.0058587833888783525
951.0,0.005868687488483496
950.0,0.0058884192255998224
949.0,0.005917138020643413
948.0,0.005954238368177241
947.0,0.006000900455143359
946.0,0.0060611199336836254
945.0,0.0061389327230873085
944.0,0.006233360205745867
943.0,0.006336277375585311
942.0,0.006434511556438769
941.0,0.006512763233332861
940.0,0.006556598434808691
939.0,0.0065585067228142065
938.0,0.006524123649140618
937.0,0.006470072160906046
936.0,0.006413851747764135
935.0,0.006366624459177711
934.0,0.0063335972028189455
933.0,0.006315960660612874
932.0,0.006310535612512899
931.0,0.006310846953212093
930.0,0.006311434860719481
929.0,0.006310442982443407
928.0,0.006307695016023214
927.0,0.006302824197898616
926.0,0.00629639045618848
925.0,0.006290067576494567
924.0,0.00628393958864434
923.0,0.006275765352703452
922.0,0.006264502310377465
921.0,0.006252383843496254
920.0,0.006241671087923081
919.0,0.006231142699796117
918.0,0.0062174759750271424
917.0,0.0061983901386994614
916.0,0.006172617756351893
915.0,0.00613828038959029
914.0,0.0060932744136388065
913.0,0.006036433669768167
912.0,0.005967085512871329
911.0,0.0058846577237285196
910.0,0.005790375349124445
909.0,0.005689488578757928
908.0,0.005592366905680882
907.0,0.005514979148820865
906.0,0.0054779755403081345
905.0,0.005502107812868069
904.0,0.005600109976125686
903.0,0.005767687731878369
902.0,0.0059768584093306005
901.0,0.006175044851070189
900.0,0.006294119592935073
899.0,0.006273698268236351
898.0,0.006091584528958697
897.0,0.00577761635376123
896.0,0.005396609236072254
895.0,0.005015504016894996
894.0,0.004678700621246508
893.0,0.00440237705374073
892.0,0.004183469437242725
891.0,0.004011241695577279
890.0,0.003873819753562697
889.0,0.0037607654019218614
888.0,0.003664286164212934
887.0,0.0035792543429258835
886.0,0.0035029346375739824
885.0,0.003435804792243654
884.0,0.0033816440757912947
883.0,0.0033444076506877647
882.0,0.00332449966802668
881.0,0.0033190942748791315
880.0,0.0033247980512976557
879.0,0.003337436207392977
878.0,0.0033506451929256357
877.0,0.0033587920383640005
876.0,0.0033614923051938778
875.0,0.0033616597138871537
874.0,0.003357775827125789
873.0,0.0033402473690552995
872.0,0.0032969204286705115
871.0,0.0032224316199920104
870.0,0.003123485395383315
869.0,0.003016390892872327
868.0,0.0029186109573174288
867.0,0.002840352463844447
866.0,0.0027825719417554308
865.0,0.002742165585380558
864.0,0.002716851585058893
863.0,0.002703868920172355
862.0,0.0026978281151305884
861.0,0.0026942818730809866
860.0,0.002693910105845145
859.0,0.002699543612925158
858.0,0.002710589226654175
857.0,0.0027238888667334817
856.0,0.002738382282579382
855.0,0.0027554370960370684
854.0,0.0027765882866058883
853.0,0.0028044982629176077
852.0,0.002844019366952638
851.0,0.002899521491457448
850.0,0.002974980364357194
849.0,0.0030806833732024514
848.0,0.0032377486276049935
847.0,0.003478964635943665
846.0,0.0038578548094549466
845.0,0.004450817791717177
844.0,0.005301637790458398
843.0,0.006308548923350801
842.0,0.007172464758762596
841.0,0.007534601200381141
840.0,0.007234849398454726
839.0,0.006443845300877389
838.0,0.005524607108021915
837.0,0.00476962459474798
836.0,0.004268734563066503
835.0,0.003968342454766098
834.0,0.0037863488260620097
833.0,0.003666308962599483
832.0,0.003575913076622108
831.0,0.0035003173891998583
830.0,0.0034397462777589795
829.0,0.0033974512901024483
828.0,0.0033682500607462437
827.0,0.0033443683289954736
826.0,0.0033260713071589345
825.0,0.0033174294269551017
824.0,0.0033175026392083026
823.0,0.0033248543418051427
822.0,0.003344233472272343
821.0,0.0033798977010268258
820.0,0.0034285430864348454
819.0,0.003486320987868003
818.0,0.0035588021114838393
817.0,0.0036597922274467804
816.0,0.003803892027454959
815.0,0.004002291985226876
814.0,0.0042593337808255645
813.0,0.004565668573553601
812.0,0.004894127319159364
811.0,0.005205000046828893
810.0,0.005456298002085752
809.0,0.005611224823202475
808.0,0.005646459317131281
807.0,0.005566771563778036
806.0,0.00541126544722337
805.0,0.005234038407931504
804.0,0.005075398955905135
803.0,0.004953047468059966
802.0,0.0048720273844645775
801.0,0.004831357899508325
800.0,0.004822402405045282
799.0,0.0048316343656925765
798.0,0.004849768365453812
797.0,0.0048746874902904705
796.0,0.004904884227211954
795.0,0.004935274734393548
794.0,0.0049609986276684895
793.0,0.004980860960593849
792.0,0.004995509885847727
791.0,0.005005675528394076
790.0,0.005012433075945899
789.0,0.0050153419592919996
788.0,0.005010495194195025
787.0,0.004994589895350862
786.0,0.004970804913475024
785.0,0.004946533866103536
784.0,0.004925684484208895
783.0,0.004907188305426011
782.0,0.004889730650857231
781.0,0.004872694320583534
780.0,0.004853076592143917
779.0,0.004827421253921174
778.0,0.004797689965857171
777.0,0.004770305177754966
776.0,0.004748293463680397
775.0,0.00472825676822157
774.0,0.004705496195310242
773.0,0.004678274886817995
772.0,0.0046468538154063235
771.0,0.004612611303986372
770.0,0.004578823391378073
769.0,0.004548664363377548
768.0,0.0045218498718157495
767.0,0.004496056978394164
766.0,0.004471033020021668
765.0,0.004447921209061324
764.0,0.004425663592108251
763.0,0.004402370826764665
762.0,0.004379521528410693
761.0,0.004360240473912482
760.0,0.004343751938914351
759.0,0.004326313650805368
758.0,0.004307626979289646
757.0,0.004291277840469603
756.0,0.004278178830554256
755.0,0.004264399218193864
754.0,0.004246768734031368
753.0,0.00422647585566366
752.0,0.004206026173482855
751.0,0.0041866780554691615
750.0,0.0041698585367406504
749.0,0.0041567718182275865
748.0,0.0041449623220630415
747.0,0.004128983198282818
746.0,0.004106407277166102
745.0,0.004080467936284509
744.0,0.004055435284205199
743.0,0.004032045168041804
742.0,0.004008619092462225
741.0,0.003983931586039978
740.0,0.003957374373975647
739.0,0.003928178684141406
738.0,0.0038958097523749714
737.0,0.003860395773893372
736.0,0.003823115768469623
735.0,0.0037871191940046962
734.0,0.0037563682308736877
733.0,0.0037313428604673904
732.0,0.0037076260986291746
731.0,0.0036815684606498218
730.0,0.0036555626053276988
729.0,0.0036342541952997694
728.0,0.003616854557703341
727.0,0.003598086614530467
726.0,0.003576512213128583
725.0,0.0035563213665415414
724.0,0.0035402529789364014
723.0,0.0035256275458882356
722.0,0.0035081448117885924
721.0,0.0034855086162574305
720.0,0.003457463544071797
719.0,0.00342706962886815
718.0,0.0034014152849955424
717.0,0.003386274070835478
716.0,0.0033802531416225363
715.0,0.003376677952417601
714.0,0.0033706149560725727
713.0,0.003361308508869589
712.0,0.003348552099343382
711.0,0.0033320041951682092
710.0,0.0033144835955988654
709.0,0.0033005605948617893
708.0,0.003290740100418254
707.0,0.0032815808213775242
706.0,0.00327250004880697
705.0,0.0032664265511981837
704.0,0.0032623324170687334
703.0,0.003254607333317174
702.0,0.0032420994298287837
701.0,0.0032312281353213644
700.0,0.0032273434425172613
699.0,0.0032280253976814336
698.0,0.0032284214577197046
697.0,0.0032272961448681758
696.0,0.0032237579872121235
695.0,0.003214261793972502
694.0,0.0031968812429172544
693.0,0.0031748598439942516
692.0,0.003152580718471594
691.0,0.003130785734288339
690.0,0.003109545094767216
689.0,0.0030913297739419594
688.0,0.0030769020292515485
687.0,0.003063255382584668
686.0,0.0030495347937104945
685.0,0.003040329839924045
684.0,0.0030390201393588664
683.0,0.0030418933966795967
682.0,0.0030424219553985684
681.0,0.0030372679943866474
680.0,0.003026058487856775
679.0,0.0030097502558522346
678.0,0.0029928386859656977
677.0,0.0029838863010632367
676.0,0.002985147404578739
675.0,0.002992523312257576
674.0,0.003002387644047262
673.0,0.0030102941329706867
672.0,0.003004984498624013
671.0,0.002971429968713764
670.0,0.0029037199046081322
669.0,0.002815432446261249
668.0,0.0027657743100479573
667.0,0.0028224825044363896
666.0,0.00292535530761645
665.0,0.0029972717525628308
664.0,0.0030334504253545936
663.0,0.0030450556774677413
662.0,0.0030450963843960607
661.0,0.003048130496679506
660.0,0.003058531630325415
659.0,0.0030679641651119235
658.0,0.00307036618515818
657.0,0.003072650170348499
656.0,0.0030803876316328003
655.0,0.0030909539769951675
654.0,0.0031028969630055147
653.0,0.0031198286106007157
652.0,0.0031406887320729326
651.0,0.003157840878985867
650.0,0.00317054246030167
649.0,0.003188771541134146
648.0,0.0032163417455179436
647.0,0.0032435529216215397
646.0,0.0032626623198189365
645.0,0.0032755937479222834
644.0,0.0032829933295691477
643.0,0.003281903427225003
642.0,0.0032779204365199054
641.0,0.0032831931832645427
640.0,0.0032978231458102563
639.0,0.0033102455264664987
638.0,0.0033216355053971997
637.0,0.0033497611144087964
636.0,0.003399770214143557
635.0,0.0034526101528566146
634.0,0.0034928908516722833
633.0,0.003527638566314153
632.0,0.003564502352185849
631.0,0.003594555333960218
630.0,0.0036099391841473982
629.0,0.003617744990115867
628.0,0.0036239058735048797
627.0,0.0036245066312070202
626.0,0.0036226513825555976
625.0,0.0036295036530885894
624.0,0.0036373631873630845
623.0,0.003619566882972873
622.0,0.003571681224779839
621.0,0.0035217036110316378
620.0,0.003489179082928097
619.0,0.003470548757868147
618.0,0.0034703961768959377
617.0,0.003504816709843872
616.0,0.003561930147994488
615.0,0.0036079412940488477
614.0,0.003643065285172487
613.0,0.003700127177936925
612.0,0.003780794845139091
611.0,0.003845425575305166
610.0,0.0038807973623457333
609.0,0.003923028625019913
608.0,0.003991394506274698
607.0,0.0040582587297251504
606.0,0.004106623271229185
605.0,0.0041619815258040135
604.0,0.004239166755823462
603.0,0.004313487271239959
602.0,0.004366996209515271
601.0,0.004409717064099488
600.0,0.004436160817354304
599.0,0.0044206111960665845
598.0,0.004376914413643971
597.0,0.004360730920454654
596.0,0.004388635811130821
595.0,0.004411142548268843
594.0,0.004390907714595037
593.0,0.0043537086513394385
592.0,0.0043286765725999345
591.0,0.0042993545179176515
590.0,0.004250439094088294
589.0,0.004201857744695836
588.0,0.004157118349630362
587.0,0.004079523919009034
586.0,0.003956452576944283
585.0,0.0038334461610154864
584.0,0.0037472317667428326
583.0,0.003680001006456258
582.0,0.003606002130025621
581.0,0.003529783601562482
580.0,0.003449886104778142
579.0,0.003348041460120209
578.0,0.0032411329742130374
577.0,0.003173600477000771
576.0,0.0031398981857688833
575.0,0.003086247741982708
574.0,0.003012238204480098
573.0,0.002981443337768711
572.0,0.0030130339973488546
571.0,0.0030529637651519476
570.0,0.0030674003432081733
569.0,0.003092059222800852
568.0,0.0031433746961731356
567.0,0.0031715392173668113
566.0,0.0031551130583890134
565.0,0.0031481172395295565
564.0,0.003177623602249352
563.0,0.003193870453343524
562.0,0.0031633798253706026
561.0,0.003128622945201569
560.0,0.0031231592904342326
559.0,0.003114751165253407
558.0,0.0030829358232989865
557.0,0.0030708993385566187
556.0,0.0030981706331130333
555.0,0.003099272316933221
554.0,0.003015659948839596
553.0,0.002882684753677185
552.0,0.0027642071566449655
551.0,0.0026830574977736044
550.0,0.0026370985929325304
