cm-1,A
4000.0,0.0032129107384313016
3999.0,0.003142348409211966
3998.0,0.0030987247755539116
3997.0,0.0031003781186075448
3996.0,0.003147561926146023
3995.0,0.0032189640041075315
3994.0,0.003287199237692655
3993.0,0.0033381723154413435
3992.0,0.003372238529998758
3991.0,0.0033917699450100453
3990.0,0.0033969640467043163
3989.0,0.003394060610887671
3988.0,0.0033975887284617475
3987.0,0.003416838595672494
3986.0,0.003442973651189096
3985.0,0.0034543711841715403
3984.0,0.0034354798416404084
3983.0,0.0033921553047621105
3982.0,0.0033512966160959574
3981.0,0.0033422455042604327
3980.0,0.0033720156966271647
3979.0,0.0034142677057422584
3978.0,0.0034270488614922233
3977.0,0.003389628533231378
3976.0,0.0033263738316624564
3975.0,0.0032911445965951042
3974.0,0.003322903328130981
3973.0,0.0034144115647127323
3972.0,0.00352003673283164
3971.0,0.0035884964610210235
3970.0,0.0035937894598544445
3969.0,0.0035468398613897507
3968.0,0.003484145767560105
3967.0,0.0034464063371913746
3966.0,0.0034588228685863073
3965.0,0.0035210351067669014
3964.0,0.0036048809272455073
3963.0,0.003667914428576712
3962.0,0.0036855813283034125
3961.0,0.003676373268542919
3960.0,0.0036843374392902233
3959.0,0.003727526479600878
3958.0,0.0037759486647089575
3957.0,0.0037888476862817204
3956.0,0.003759408999364444
3955.0,0.003714919971525947
3954.0,0.003677045794878214
3953.0,0.003639658388280816
3952.0,0.0035834519667369124
3951.0,0.003503146945614327
3950.0,0.0034163220005616474
3949.0,0.003339981229912206
3948.0,0.0032725900025416844
3947.0,0.0032110784671761598
3946.0,0.0031719180503700112
3945.0,0.00317654357613603
3944.0,0.003226104661590963
3943.0,0.0032922438014867
3942.0,0.0033420015846878457
3941.0,0.003385744014039925
3940.0,0.0034643645089310754
3939.0,0.0035749445671741254
3938.0,0.003659259637400065
3937.0,0.003671087102084386
3936.0,0.003616159567948647
3935.0,0.0035353406360637517
3934.0,0.0034657386043712504
3933.0,0.0034271080519363423
3932.0,0.0034161970981515938
3931.0,0.003411885643953217
3930.0,0.003409950380014265
3929.0,0.0034269103156823588
3928.0,0.0034690668325252534
3927.0,0.003515230605264489
3926.0,0.003522899657453664
3925.0,0.0034636761688592067
3924.0,0.003368796762963989
3923.0,0.003324912499200989
3922.0,0.0033859321924185233
3921.0,0.003510286830090756
3920.0,0.0036241686283899448
3919.0,0.0036989777138723423
3918.0,0.0037256361809338227
3917.0,0.0036766811040309273
3916.0,0.003557161775169383
3915.0,0.00345332303611255
3914.0,0.0034640984818982007
3913.0,0.003602112500173107
3912.0,0.0037944229632120643
3911.0,0.003949753617365926
3910.0,0.003999785387808196
3909.0,0.003921892632664948
3908.0,0.003732554943389154
3907.0,0.0034903358710513203
3906.0,0.0032756922493861317
3905.0,0.0031522359297351515
3904.0,0.003111346898911375
3903.0,0.0031050191080664678
3902.0,0.0031291515918975676
3901.0,0.0031843638899500485
3900.0,0.003208314190972677
3899.0,0.0031553272029282917
3898.0,0.003087889770407677
3897.0,0.0031026284693635303
3896.0,0.0032001474938108624
3895.0,0.0032959610627011394
3894.0,0.003344906133636232
3893.0,0.0033844426658186794
3892.0,0.0034238814765374243
3891.0,0.0033921717278707596
3890.0,0.0032958920170427387
3889.0,0.003292424539962433
3888.0,0.003440545887573093
3887.0,0.0036215248909876544
3886.0,0.0036956978044019404
3885.0,0.0036198876563803654
3884.0,0.0035175226885738927
3883.0,0.0035742192378054732
3882.0,0.00377114206644809
3881.0,0.003922644911787183
3880.0,0.0038969863587902283
3879.0,0.0037511832871963673
3878.0,0.0036794845302898487
3877.0,0.003746959789891516
3876.0,0.003809846413858873
3875.0,0.0037204301526820166
3874.0,0.0034673686405251713
3873.0,0.0032046507081755025
3872.0,0.003143351836645677
3871.0,0.0033089153395300577
3870.0,0.003467571236405608
3869.0,0.003426735689559807
3868.0,0.003342645687780978
3867.0,0.003440707958161277
3866.0,0.003627576879858832
3865.0,0.003715920792206527
3864.0,0.003700355715312076
3863.0,0.0036785798242853582
3862.0,0.003719854200118519
3861.0,0.0038128825687006596
3860.0,0.003886613615613446
3859.0,0.0038875873986481263
3858.0,0.0037704115623904445
3857.0,0.003519730611190996
3856.0,0.0031995672755551416
3855.0,0.0030311799422566236
3854.0,0.003161090767650568
3853.0,0.0031887592768712995
3852.0,0.002871054129752573
3851.0,0.0027548621654846783
3850.0,0.0030800077642291444
3849.0,0.0034961305638270945
3848.0,0.0037538151951756957
3847.0,0.0038642135181294075
3846.0,0.003923020411701351
3845.0,0.003974883224895514
3844.0,0.003986733196367501
3843.0,0.0038844657404348663
3842.0,0.0036500006793820008
3841.0,0.0033823906138055835
3840.0,0.0032281305275162157
3839.0,0.003259634762888307
3838.0,0.003368268549158941
3837.0,0.003401476248312805
3836.0,0.003375313599412755
3835.0,0.0034109468734907326
3834.0,0.0035471514800034312
3833.0,0.0037283488961584767
3832.0,0.003874696436540955
3831.0,0.003947919459881089
3830.0,0.003977135801320624
3829.0,0.0040061016505563065
3828.0,0.004023455948867296
3827.0,0.003973583885817124
3826.0,0.0038347298549556152
3825.0,0.0036932821796356423
3824.0,0.003678005593131207
3823.0,0.0038225904597083953
3822.0,0.00402116858653603
3821.0,0.004045374784251593
3820.0,0.00378944186749873
3819.0,0.003563018993718357
3818.0,0.0036164538777963395
3817.0,0.003781137733011572
3816.0,0.0038017968088503145
3815.0,0.003628153447222608
3814.0,0.0034872247512806927
3813.0,0.0035526285381984983
3812.0,0.0036766827954956005
3811.0,0.003677421595789902
3810.0,0.0036090850304235176
3809.0,0.003641751462936507
3808.0,0.0038203996723486892
3807.0,0.003964005372105676
3806.0,0.0039034331235177702
3805.0,0.0037662227325817327
3804.0,0.0037522012349629832
3803.0,0.0038336736674979555
3802.0,0.003851276532004391
3801.0,0.003647791269369408
3800.0,0.0033103802453666367
3799.0,0.003194524960877028
3798.0,0.0033793824139784594
3797.0,0.0036264716708409514
3796.0,0.0037673424034961184
3795.0,0.003815697071272965
3794.0,0.00387015771170327
3793.0,0.003947866168555646
3792.0,0.003980694105036256
3791.0,0.00393499695217637
3790.0,0.0038485711414946097
3789.0,0.0037729835521844654
3788.0,0.0037448856884890695
3787.0,0.0037792968564682086
3786.0,0.0038472774027860784
3785.0,0.0038658429009246695
3784.0,0.0037799205825501062
3783.0,0.003646958170393632
3782.0,0.0035838210686461366
3781.0,0.0036479861466226157
3780.0,0.003795897282473296
3779.0,0.003914139553938396
3778.0,0.003934974863459015
3777.0,0.003915524176169338
3776.0,0.003912848098905424
3775.0,0.003904115095636868
3774.0,0.0038687936089215093
3773.0,0.003848046225076918
3772.0,0.0038807292932127972
3771.0,0.003938534153936649
3770.0,0.003951988619129633
3769.0,0.00390867098224568
3768.0,0.0038818968935199916
3767.0,0.0039044768143290925
3766.0,0.003885130121445767
3765.0,0.0037406948938656526
3764.0,0.0035322061741550927
3763.0,0.0034076652147477012
3762.0,0.0034336084419277872
3761.0,0.003564067738099915
3760.0,0.0037470378354727517
3759.0,0.003924386995627081
3758.0,0.00400151176059985
3757.0,0.003947471419558623
3756.0,0.0038159022140986654
3755.0,0.0036572884803615664
3754.0,0.00346009883102193
3753.0,0.0032314619936687806
3752.0,0.00309449983958306
3751.0,0.0031107663506286017
3750.0,0.0031019702587153225
3749.0,0.002980904865582947
3748.0,0.0029217110782382705
3747.0,0.0030602989684916752
3746.0,0.0033468016020022796
3745.0,0.003601127297296537
3744.0,0.0035660106922197066
3743.0,0.0032965185122212515
3742.0,0.0032358100178407727
3741.0,0.0034263683364912055
3740.0,0.003494673680289412
3739.0,0.003306507691331416
3738.0,0.003049794918820169
3737.0,0.002967238706641593
3736.0,0.003086917432115052
3735.0,0.0032034409628341285
3734.0,0.0032082175972111167
3733.0,0.003231925906865484
3732.0,0.0033443324373660255
3731.0,0.003488683347766558
3730.0,0.003658085801545327
3729.0,0.003862281339873921
3728.0,0.0040354263740696224
3727.0,0.004092439923680614
3726.0,0.004030312993457977
3725.0,0.003930253098808078
3724.0,0.003863897338164137
3723.0,0.0038135255516884934
3722.0,0.0037424540599008908
3721.0,0.0036761196916785515
3720.0,0.0036702650946750133
3719.0,0.0037278862361872656
3718.0,0.003778848834875158
3717.0,0.0037550707073729997
3716.0,0.003649433913651943
3715.0,0.0035028812919756635
3714.0,0.003385410623472706
3713.0,0.0034391192563667083
3712.0,0.00377844099913038
3711.0,0.004227399283818196
3710.0,0.004502889331532801
3709.0,0.00461434955036857
3708.0,0.004707677059374018
3707.0,0.004830489866640029
3706.0,0.004969847355621997
3705.0,0.00511851288458442
3704.0,0.005280447720465377
3703.0,0.005463358016402272
3702.0,0.0056650581789760065
3701.0,0.005866550266865186
3700.0,0.006079852591355715
3699.0,0.006338396029101027
3698.0,0.006592899673026394
3697.0,0.006723580790617134
3696.0,0.006673345873171085
3695.0,0.006499353979964581
3694.0,0.00628569104608827
3693.0,0.006062269365747039
3692.0,0.005854363350808684
3691.0,0.005740816018816564
3690.0,0.005755233192934734
3689.0,0.005755212277015606
3688.0,0.0056126000934119576
3687.0,0.0054570478548406215
3686.0,0.005458608317371718
3685.0,0.005568678678623689
3684.0,0.005627560374523104
3683.0,0.005583728381349731
3682.0,0.005515084170531684
3681.0,0.005487358654795316
3680.0,0.005457275881614836
3679.0,0.005368730088505271
3678.0,0.005275881512249338
3677.0,0.005292026705985019
3676.0,0.00538667147821933
3675.0,0.005286175555748731
3674.0,0.004995510793650902
3673.0,0.0048908569746006075
3672.0,0.005006101816766596
3671.0,0.005129683739536433
3670.0,0.0052079810309637615
3669.0,0.005232196933768267
3668.0,0.005298100366790879
3667.0,0.00551530145720998
3666.0,0.005774358891742316
3665.0,0.005943527582998685
3664.0,0.006033948518489506
3663.0,0.006108665159034479
3662.0,0.006178142664142152
3661.0,0.006207336342153997
3660.0,0.006181559222157759
3659.0,0.006139485506309692
3658.0,0.006141523329543756
3657.0,0.00621052405573924
3656.0,0.006289504875874086
3655.0,0.006325590786740876
3654.0,0.006354590326241551
3653.0,0.006333987302820594
3652.0,0.006128921472914656
3651.0,0.005803397043858462
3650.0,0.0057154128798322
3649.0,0.005940542934412211
3648.0,0.006106825052686433
3647.0,0.006127978928004202
3646.0,0.006206914866446077
3645.0,0.0064133987664400875
3644.0,0.006669389882787324
3643.0,0.006869850316753199
3642.0,0.006969757809128143
3641.0,0.007003700065008474
3640.0,0.0070331668068143085
3639.0,0.0070749134339673034
3638.0,0.007094660255636461
3637.0,0.007088262367285363
3636.0,0.007105418809861867
3635.0,0.00716625478872876
3634.0,0.007215393975696234
3633.0,0.007191323523042789
3632.0,0.007118694186116178
3631.0,0.007085446627319759
3630.0,0.007211414942091859
3629.0,0.007440352772678833
3628.0,0.007471234004812926
3627.0,0.007378097482873042
3626.0,0.0074967857021143395
3625.0,0.0077797829353162175
3624.0,0.008016505788013597
3623.0,0.008141994959562807
3622.0,0.008194360807598179
3621.0,0.008220763741602658
3620.0,0.008239684458807397
3619.0,0.0082236351939258
3618.0,0.00815205868251132
3617.0,0.00810271781366835
3616.0,0.008149770424170345
3615.0,0.008258522207572094
3614.0,0.008353959088297457
3613.0,0.008391868236077054
3612.0,0.00839301118929032
3611.0,0.008428942069202791
3610.0,0.008535433058095345
3609.0,0.008669824658925983
3608.0,0.008751793784604039
3607.0,0.008743753739597173
3606.0,0.008700501838898186
3605.0,0.008682376017268447
3604.0,0.008682881327334893
3603.0,0.008687670658218738
3602.0,0.008710438373443052
3601.0,0.008748041285802295
3600.0,0.008764423825691842
3599.0,0.008743173114880183
3598.0,0.008710890220357531
3597.0,0.00870578881552985
3596.0,0.008749001257937842
3595.0,0.008813748387517405
3594.0,0.008840407661134728
3593.0,0.008806562312533175
3592.0,0.008750285026995609
3591.0,0.008701879862194247
3590.0,0.008667205772804063
3589.0,0.008672745798636194
3588.0,0.00874143071205193
3587.0,0.008809219198791664
3586.0,0.008843223628443732
3585.0,0.008929763961870282
3584.0,0.009085726198201423
3583.0,0.009223062228478305
3582.0,0.009299113151866724
3581.0,0.009355050275077322
3580.0,0.009447089893212671
3579.0,0.00958568780226723
3578.0,0.009735382402954322
3577.0,0.009850998321151366
3576.0,0.009916683258258523
3575.0,0.009944414392512054
3574.0,0.009948865829721768
3573.0,0.009932337958818765
3572.0,0.009893436179187792
3571.0,0.009839643626782938
3570.0,0.009793089298476755
3569.0,0.009792377036449848
3568.0,0.009864110868873023
3567.0,0.009940427733977844
3566.0,0.00992343186853569
3565.0,0.00988084951970332
3564.0,0.009940617966208067
3563.0,0.010104398115789318
3562.0,0.010310175280122163
3561.0,0.01051131607929649
3560.0,0.010676361668065727
3559.0,0.0107938342070239
3558.0,0.01088346699924407
3557.0,0.010973640602030706
3556.0,0.011073003427994263
3555.0,0.01117419382890637
3554.0,0.011265960905729643
3553.0,0.011331851895908504
3552.0,0.011350843448849186
3551.0,0.011324670501433858
3550.0,0.01128531005551317
3549.0,0.011263763540943588
3548.0,0.011280495920732304
3547.0,0.011353837607967564
3546.0,0.011471245662118445
3545.0,0.01158416229678531
3544.0,0.011667952924338178
3543.0,0.011745370147884765
3542.0,0.011840156260358742
3541.0,0.011947580211745471
3540.0,0.012049644786112555
3539.0,0.012142295740741025
3538.0,0.012238165708957114
3537.0,0.012348734403917275
3536.0,0.012468601247873287
3535.0,0.012584393340261898
3534.0,0.012687133556784837
3533.0,0.012766284071673708
3532.0,0.012812741262566214
3531.0,0.012837429793416757
3530.0,0.012872143026888227
3529.0,0.012933441419852143
3528.0,0.013000535446241645
3527.0,0.013042846654748187
3526.0,0.013062976139048204
3525.0,0.013094880240985037
3524.0,0.013169651474178576
3523.0,0.01329327051195351
3522.0,0.013453492279065716
3521.0,0.013635116774271934
3520.0,0.013818681533602814
3519.0,0.013980293466309985
3518.0,0.014104809280110875
3517.0,0.014194065357407214
3516.0,0.01425575201355564
3515.0,0.014287826392463482
3514.0,0.014281529808878732
3513.0,0.01424049934600333
3512.0,0.014193407573288144
3511.0,0.014183905190286387
3510.0,0.014243890488250026
3509.0,0.014365988050368914
3508.0,0.014508338141863239
3507.0,0.01462385222283269
3506.0,0.014682466306807099
3505.0,0.014688799674631894
3504.0,0.01468874509126189
3503.0,0.014732878462748056
3502.0,0.014829081427793368
3501.0,0.014947055966011702
3500.0,0.01505429514073113
3499.0,0.015136010371754521
3498.0,0.01519666879458098
3497.0,0.015251412956785938
3496.0,0.015319806735850861
3495.0,0.01542169267469961
3494.0,0.015560939047351965
3493.0,0.015706903684266225
3492.0,0.015808957681038478
3491.0,0.01584575857411438
3490.0,0.0158545752810157
3489.0,0.015897505772723246
3488.0,0.015998788760011137
3487.0,0.016131570243850576
3486.0,0.01626565735176896
3485.0,0.016398746410144244
3484.0,0.01653013698554103
3483.0,0.016628142517171398
3482.0,0.016649520051966807
3481.0,0.016597502965417166
3480.0,0.016543803290166675
3479.0,0.016574455046000643
3478.0,0.016720504368070172
3477.0,0.016939829729134537
3476.0,0.017149583131638207
3475.0,0.017276714573230642
3474.0,0.01729809024790445
3473.0,0.017250943765728367
3472.0,0.01720802135320798
3471.0,0.017233988288588666
3470.0,0.017348963051603546
3469.0,0.01751745965939556
3468.0,0.017671876407617932
3467.0,0.017760086499169693
3466.0,0.017781214123905795
3465.0,0.01777787283407205
3464.0,0.017793320289387484
3463.0,0.017838946401030228
3462.0,0.0179004020167788
3461.0,0.0179679705370885
3460.0,0.01805318942200316
3459.0,0.018171536924368438
3458.0,0.018315031082321794
3457.0,0.01845136433535143
3456.0,0.018552450633237585
3455.0,0.01862020960946156
3454.0,0.018676954622498243
3453.0,0.018733458779800597
3452.0,0.018780668068150333
3451.0,0.018816369167166235
3450.0,0.018865501028966492
3449.0,0.01895970423339817
3448.0,0.019101374092626904
3447.0,0.019256281637314795
3446.0,0.019387378775565466
3445.0,0.01948085401558383
3444.0,0.01953218555249762
3443.0,0.019535230629271476
3442.0,0.019502441613947173
3441.0,0.01947725310751815
3440.0,0.019508813131478786
3439.0,0.019612825480204897
3438.0,0.01975819333503381
3437.0,0.01989235171533786
3436.0,0.01998168813076935
3435.0,0.020032218066775524
3434.0,0.020071534709870626
3433.0,0.020115296171848672
3432.0,0.02016170854984919
3431.0,0.02021386283104014
3430.0,0.0202867912052766
3429.0,0.02037980588610555
3428.0,0.02046092410504314
3427.0,0.02049835557446978
3426.0,0.020502858270631877
3425.0,0.020522626733828386
3424.0,0.02059534498105735
3423.0,0.020715099859021938
3422.0,0.0208435490313169
3421.0,0.02094464382690494
3420.0,0.02100844190401039
3419.0,0.02104924219075495
3418.0,0.02108622639268555
3417.0,0.021127442060851948
3416.0,0.021170974487664918
3415.0,0.021213996525311314
3414.0,0.021252226706501138
3413.0,0.021273141249508687
3412.0,0.021264916472217812
3411.0,0.021240154590828317
3410.0,0.02123899609386316
3409.0,0.021293362800683897
3408.0,0.021392672205541148
3407.0,0.021498338881265934
3406.0,0.02158813225560744
3405.0,0.021671158397746155
3404.0,0.02175789213107137
3403.0,0.02183385644751265
3402.0,0.021875336053317367
3401.0,0.021882209619989237
3400.0,0.02188181570153064
3399.0,0.02190214356384453
3398.0,0.02194953146867366
3397.0,0.022010372670953668
3396.0,0.022066537168498164
3395.0,0.022106919507210124
3394.0,0.022131634483200248
3393.0,0.022150575575320065
3392.0,0.02217548866567478
3391.0,0.02221141138097196
3390.0,0.022256785018547134
3389.0,0.022310522891887594
3388.0,0.02237677982028577
3387.0,0.022460765524056434
3386.0,0.02255733427251101
3385.0,0.022645704568687617
3384.0,0.022701211645599798
3383.0,0.022717515568777394
3382.0,0.02271625497715625
3381.0,0.02272951383852814
3380.0,0.022770416047587196
3379.0,0.02282247532265094
3378.0,0.022859921960314635
3377.0,0.02287485401740313
3376.0,0.022882632759481266
3375.0,0.022904945020078567
3374.0,0.02295216780036675
3373.0,0.023018049283100667
3372.0,0.023084713145254978
3371.0,0.023134352791885665
3370.0,0.023162843707275928
3369.0,0.023183450944907827
3368.0,0.023213870072562776
3367.0,0.02326048422196849
3366.0,0.02331691014412024
3365.0,0.023373270351096685
3364.0,0.023421074235588257
3363.0,0.023453479977689595
3362.0,0.02347005338480521
3361.0,0.023481824505659957
3360.0,0.023504680399520386
3359.0,0.023546064845469096
3358.0,0.02360230338603207
3357.0,0.02366715387594077
3356.0,0.023735404998876886
3355.0,0.023797408454377608
3354.0,0.02383902453390736
3353.0,0.023853010592700147
3352.0,0.023847838372429302
3351.0,0.023841389202602384
3350.0,0.023846147878538518
3349.0,0.02386097538147211
3348.0,0.023874530971568875
3347.0,0.023876103006413914
3346.0,0.02386475978229458
3345.0,0.023848220249655716
3344.0,0.023831273216065024
3343.0,0.023808646152201542
3342.0,0.023775663242564776
3341.0,0.023743813793485034
3340.0,0.02373539238861327
3339.0,0.023758635563989727
3338.0,0.023797000077305022
3337.0,0.023828835417107397
3336.0,0.023851030193820805
3335.0,0.023875626096991807
3334.0,0.023909433693832218
3333.0,0.023949024159721395
3332.0,0.02399346203019346
3331.0,0.024048994559060528
3330.0,0.02411725063115959
3329.0,0.024186372595028916
3328.0,0.024238109604997508
3327.0,0.024260570372500696
3326.0,0.02425456131922464
3325.0,0.02423589896352547
3324.0,0.024233384448089004
3323.0,0.024272661046854094
3322.0,0.02435167414442602
3321.0,0.024435843353993025
3320.0,0.024486209124125434
3319.0,0.024493330397692185
3318.0,0.024480774748701178
3317.0,0.02447825185680974
3316.0,0.02449683296446767
3315.0,0.02452730022045281
3314.0,0.024553968819115212
3313.0,0.024567278363391704
3312.0,0.02456732922946149
3311.0,0.024557608251903423
3310.0,0.02453527849684865
3309.0,0.024492636971765454
3308.0,0.024435114252827263
3307.0,0.02439354508576747
3306.0,0.024404687676356326
3305.0,0.02447352245948118
3304.0,0.024562150416851673
3303.0,0.024622478586872006
3302.0,0.02463612696861695
3301.0,0.02461764028031931
3300.0,0.024585854497206735
3299.0,0.02454665629834302
3298.0,0.024505643772647395
3297.0,0.024484419589704903
3296.0,0.024511991482365093
3295.0,0.024598036974762757
3294.0,0.02471734452974368
3293.0,0.024820833162116997
3292.0,0.024865772086149672
3291.0,0.024844714112327825
3290.0,0.024791661900792426
3289.0,0.024758362020163262
3288.0,0.024778278838155192
3287.0,0.024847014525735612
3286.0,0.024932175701494075
3285.0,0.02499851695127181
3284.0,0.025025039898589497
3283.0,0.02500625272683543
3282.0,0.024947710707363777
3281.0,0.02486451036697078
3280.0,0.024778940932310485
3279.0,0.02471304791397312
3278.0,0.024680453962382796
3277.0,0.024681762904857053
3276.0,0.02470146756802089
3275.0,0.024708507454596285
3274.0,0.024671091432731114
3273.0,0.02458524236330647
3272.0,0.024489577630854333
3271.0,0.024439822294628436
3270.0,0.02445951363400148
3269.0,0.02451710085068694
3268.0,0.024556121741632422
3267.0,0.02454657671158708
3266.0,0.024503652828997743
3265.0,0.02446093199030779
3264.0,0.024435451580041487
3263.0,0.024420196415264928
3262.0,0.024400314558116382
3261.0,0.024366725422344703
3260.0,0.02431614066428034
3259.0,0.02424876894910132
3258.0,0.02417220164823673
3257.0,0.02410336612174119
3256.0,0.024059305388481722
3255.0,0.02404430516893438
3254.0,0.024046354789886912
3253.0,0.024045048782115528
3252.0,0.024020876905910538
3251.0,0.023959955838014024
3250.0,0.023859304897366665
3249.0,0.023733106381307347
3248.0,0.02360891257612745
3247.0,0.023509724819322415
3246.0,0.02343922394905808
3245.0,0.023388987216657824
3244.0,0.02335876042436932
3243.0,0.023358786512731215
3242.0,0.02338778342679737
3241.0,0.023419518482017683
3240.0,0.023422470586985805
3239.0,0.023390859779335936
3238.0,0.02334681997323956
3237.0,0.023310198260221116
3236.0,0.023275085973098627
3235.0,0.023221824238316268
3234.0,0.023145709264989562
3233.0,0.02306688724607841
3232.0,0.023012796971429734
3231.0,0.022992816498597583
3230.0,0.022987976416660293
3229.0,0.022964692655841324
3228.0,0.022904213041003093
3227.0,0.02282266029598549
3226.0,0.02275675656777108
3225.0,0.022724230015863645
3224.0,0.022703217157642317
3223.0,0.02265713805759158
3222.0,0.022576315096472222
3221.0,0.022486449964047948
3220.0,0.02241617331628337
3219.0,0.02236659547841519
3218.0,0.022319109406151238
3217.0,0.022263997918549296
3216.0,0.0222101361982568
3215.0,0.022169764771693197
3214.0,0.022142933284648454
3213.0,0.022120033013209757
3212.0,0.02209594190369661
3211.0,0.022076250021817914
3210.0,0.022066538084897207
3209.0,0.0220565660680157
3208.0,0.02202232055990527
3207.0,0.021951355260500197
3206.0,0.021863820741658303
3205.0,0.02179883318651261
3204.0,0.021775906500840287
3203.0,0.021775767436718448
3202.0,0.021764515907676255
3201.0,0.021729774223304542
3200.0,0.021684122212241017
3199.0,0.021638649873503443
3198.0,0.021587728761224726
3197.0,0.02152370113781959
3196.0,0.02145441573984913
3195.0,0.021396413938275367
3194.0,0.021355949964544353
3193.0,0.021325260720292453
3192.0,0.021293980840383593
3191.0,0.021254936839698278
3190.0,0.021199150875137632
3189.0,0.021117166786359394
3188.0,0.021014610917758293
3187.0,0.020921267058242
3186.0,0.020872745992199532
3185.0,0.020876529635034943
3184.0,0.020899518817956358
3183.0,0.0208955691924153
3182.0,0.020845891335419985
3181.0,0.02077095378070996
3180.0,0.020705623202330627
3179.0,0.020666168925231668
3178.0,0.020641183491085496
3177.0,0.0206120858023343
3176.0,0.020576710315257006
3175.0,0.020547679514001844
3174.0,0.020530945461153294
3173.0,0.020515454772164512
3172.0,0.02048771798732748
3171.0,0.020448279674267645
3170.0,0.020403409030360732
3169.0,0.020344669379892526
3168.0,0.020252518640752077
3167.0,0.0201251718912352
3166.0,0.019991550085266277
3165.0,0.019885708322061685
3164.0,0.019815533293002664
3163.0,0.019765277903775427
3162.0,0.019720116824351874
3161.0,0.01967447963255253
3160.0,0.019621963044845106
3159.0,0.01955514669541722
3158.0,0.01947807722174857
3157.0,0.01940538568424304
3156.0,0.0193438395102794
3155.0,0.01928498570982488
3154.0,0.019221389246896967
3153.0,0.019161196345544283
3152.0,0.019119676795565935
3151.0,0.019101869627547344
3150.0,0.01909870363413266
3149.0,0.019095001035376834
3148.0,0.01907688991845921
3147.0,0.0190373315034793
3146.0,0.01898074332590583
3145.0,0.01891945932873907
3144.0,0.018861717221188352
3143.0,0.0188062514773635
3142.0,0.01875097579698602
3141.0,0.01870119109615791
3140.0,0.01866333054568096
3139.0,0.018634417672771963
3138.0,0.018604887376506535
3137.0,0.018570826437536322
3136.0,0.018537387997920082
3135.0,0.0185097289273642
3134.0,0.01848418757971922
3133.0,0.01844875439836875
3132.0,0.01839222370166014
3131.0,0.018316435751738563
3130.0,0.018240722910986888
3129.0,0.018189389016568504
3128.0,0.018170578604574966
3127.0,0.01816966064884741
3126.0,0.018165345317567555
3125.0,0.018145761092357486
3124.0,0.018105945902427194
3123.0,0.018041901567410323
3122.0,0.01795887330284107
3121.0,0.01787869461027597
3120.0,0.017823452465510765
3119.0,0.017790953980085424
3118.0,0.01775915952057748
3117.0,0.017718208924795732
3116.0,0.01768501122633897
3115.0,0.017677171904947157
3114.0,0.01768231562989697
3113.0,0.017667673323041595
3112.0,0.0176192873143567
3111.0,0.017561499664235213
3110.0,0.01753275269643695
3109.0,0.017544474898410767
3108.0,0.017567765848886734
3107.0,0.017561291479369506
3106.0,0.01751062831568105
3105.0,0.017440726381647585
3104.0,0.017394356397206455
3103.0,0.01739941807659234
3102.0,0.01745081198316562
3101.0,0.017516354745172276
3100.0,0.017558415858911297
3099.0,0.017554064801321802
3098.0,0.017503551390941195
3097.0,0.01742903468454223
3096.0,0.017364928384731006
3095.0,0.017339070870432963
3094.0,0.01735427269668697
3093.0,0.0173872688891673
3092.0,0.017407460416222424
3091.0,0.017398531453688967
3090.0,0.017364973014859723
3089.0,0.017321660427365323
3088.0,0.01727968957100812
3087.0,0.017241325748193956
3086.0,0.017205239582822083
3085.0,0.017173450800270783
3084.0,0.017151587374358387
3083.0,0.01714090336562339
3082.0,0.017130278291370735
3081.0,0.017100643076395243
3080.0,0.017043500015911265
3079.0,0.016976356075597325
3078.0,0.016934737132503014
3077.0,0.01694397320958494
3076.0,0.01699708981809784
3075.0,0.01705985017437316
3074.0,0.017096439794105023
3073.0,0.017091527589899055
3072.0,0.017053131223346625
3071.0,0.016999150313307145
3070.0,0.016940836914883593
3069.0,0.016876418520993187
3068.0,0.0167999884693548
3067.0,0.016717759576220275
3066.0,0.016654252616158244
3065.0,0.01663666514482026
3064.0,0.016668766907252743
3063.0,0.016721300727556423
3062.0,0.016752011840209784
3061.0,0.016738496541871643
3060.0,0.01669318753963193
3059.0,0.01664710940747858
3058.0,0.016618541530997708
3057.0,0.01659647877977819
3056.0,0.01655313054061149
3055.0,0.016472160771925277
3054.0,0.01636679393346853
3053.0,0.016272737619137043
3052.0,0.016223064493042328
3051.0,0.016224205050567188
3050.0,0.016250829361919673
3049.0,0.01626529540356685
3048.0,0.01624513608030356
3047.0,0.01619258262402819
3046.0,0.01612131186934391
3045.0,0.016041176475964126
3044.0,0.01595825896268417
3043.0,0.015883861535062344
3042.0,0.015835992955770598
3041.0,0.01582777847118875
3040.0,0.0158521364803664
3039.0,0.0158780309039193
3038.0,0.015867530240932824
3037.0,0.015805049448097932
3036.0,0.01571273885320918
3035.0,0.01563122292725106
3034.0,0.015581595715372893
3033.0,0.015552197731054585
3032.0,0.015525497708777106
3031.0,0.015507753986675341
3030.0,0.01551976273644113
3029.0,0.015562212271754198
3028.0,0.015605154584351553
3027.0,0.015615544027349968
3026.0,0.015586457159076451
3025.0,0.015535072813393343
3024.0,0.015478816804775752
3023.0,0.015420807736240924
3022.0,0.015354756655165423
3021.0,0.015275382935765493
3020.0,0.015184046882447389
3019.0,0.015090140891719273
3018.0,0.015008955839392778
3017.0,0.01495556986071439
3016.0,0.014938803107247958
3015.0,0.01495877389120296
3014.0,0.015005742409442559
3013.0,0.015059216888824778
3012.0,0.015094068961411942
3011.0,0.015096307394601865
3010.0,0.015074572643069575
3009.0,0.015051494322775763
3008.0,0.01504118620643195
3007.0,0.01503692522374447
3006.0,0.01502139341359671
3005.0,0.014986694452248851
3004.0,0.014942299983005326
3003.0,0.014904862738476007
3002.0,0.014883971822901732
3001.0,0.01487885674583386
3000.0,0.014885053476764401
2999.0,0.014898919810628079
2998.0,0.014915254838701687
2997.0,0.014925309855035575
2996.0,0.014921676123843035
2995.0,0.014906597005130744
2994.0,0.014895016468837001
2993.0,0.014907550305965571
2992.0,0.01495659169418688
2991.0,0.015035104201046076
2990.0,0.015119057743923164
2989.0,0.015186202924310672
2988.0,0.015236318834627737
2987.0,0.015290877147264608
2986.0,0.015369865334436045
2985.0,0.015470739131466675
2984.0,0.015572476299495017
2983.0,0.015657753894561453
2982.0,0.015728111621652045
2981.0,0.015799653388011634
2980.0,0.01588846118352601
2979.0,0.016000782866936195
2978.0,0.016135010583855695
2977.0,0.01629186786612363
2976.0,0.0164817510744679
2975.0,0.01671845406369759
2974.0,0.017003293134402547
2973.0,0.01731931451122241
2972.0,0.017645322009344797
2971.0,0.01797284678940677
2970.0,0.018305067199424062
2969.0,0.01864346680992735
2968.0,0.018983214438088928
2967.0,0.019320842988978064
2966.0,0.019659599205092543
2965.0,0.02000536117478221
2964.0,0.020360795514952165
2963.0,0.020722645112431964
2962.0,0.021079323486743146
2961.0,0.021411621140629618
2960.0,0.021702740621070454
2959.0,0.021950045466991402
2958.0,0.02216251628203679
2957.0,0.022345184907883772
2956.0,0.0224918506082774
2955.0,0.022596368323599025
2954.0,0.022667184492854545
2953.0,0.0227268153204636
2952.0,0.022799496720949747
2951.0,0.022903767213669882
2950.0,0.023056841798389405
2949.0,0.023283063738555695
2948.0,0.023614618019199937
2947.0,0.024081432487861064
2946.0,0.024699412151145697
2945.0,0.025470211565569553
2944.0,0.02639261321093968
2943.0,0.027468085710313287
2942.0,0.028692114168675488
2941.0,0.03005002049130294
2940.0,0.03153430056070505
2939.0,0.03316311140332824
2938.0,0.03496660804531645
2937.0,0.03695107517191523
2936.0,0.03908785947909913
2935.0,0.041344818564314476
2934.0,0.04372227986613721
2933.0,0.04625455489539679
2932.0,0.048983498345998744
2931.0,0.05193443714708829
2930.0,0.055111694810269014
2929.0,0.0585103211182152
2928.0,0.062133475581409095
2927.0,0.06600127233085851
2926.0,0.07014151264797883
2925.0,0.07456961654431041
2924.0,0.07927298188285817
2923.0,0.08420525909883038
2922.0,0.08928379395254084
2921.0,0.09437843203897968
2920.0,0.09928468228699114
2919.0,0.10368762051912886
2918.0,0.10715974601465142
2917.0,0.10923984211078984
2916.0,0.10957188607006503
2915.0,0.10803937028253817
2914.0,0.1048255524072401
2913.0,0.10037444263893094
2912.0,0.09525361473361173
2911.0,0.08997163214517667
2910.0,0.08486604162368562
2909.0,0.08011030937370077
2908.0,0.07579088526869684
2907.0,0.0719624831388242
2906.0,0.06864416867452958
2905.0,0.06579840607385397
2904.0,0.06334276712094666
2903.0,0.06119390958361666
2902.0,0.05929422714889066
2901.0,0.057596100416845916
2900.0,0.056035450960625614
2899.0,0.054544703197010616
2898.0,0.05308734578025968
2897.0,0.05166333904361393
2896.0,0.05027919003840653
2895.0,0.048924012607310614
2894.0,0.04758023978918151
2893.0,0.046241608173376546
2892.0,0.04491003936056393
2891.0,0.043585265704975326
2890.0,0.04226921079875564
2889.0,0.040973434218057866
2888.0,0.039711002229341034
2887.0,0.038485655829125956
2886.0,0.03729783003201977
2885.0,0.03615542266529789
2884.0,0.03506903713592472
2883.0,0.034042993608266396
2882.0,0.03308220080358538
2881.0,0.03220150517425028
2880.0,0.031412256939658816
2879.0,0.03070139081268642
2878.0,0.03004222334030108
2877.0,0.029432587066229574
2876.0,0.02890927436215998
2875.0,0.02851285649284717
2874.0,0.02824274397190152
2873.0,0.02805594185717749
2872.0,0.027906905709255202
2871.0,0.027780698669651646
2870.0,0.027691170554036963
2869.0,0.027664722233260015
2868.0,0.02773843847676323
2867.0,0.027966931243118835
2866.0,0.028411238613245186
2865.0,0.029110350631561602
2864.0,0.030073101691147124
2863.0,0.031311039816493004
2862.0,0.03287654128905175
2861.0,0.03485504208175623
2860.0,0.03731826555987571
2859.0,0.04029860941176673
2858.0,0.043816805757802786
2857.0,0.04792431594447688
2856.0,0.05270208928900108
2855.0,0.05821106503629036
2854.0,0.0644261539040614
2853.0,0.07117080750700172
2852.0,0.07803277006759214
2851.0,0.0842854164441242
2850.0,0.08893537206552596
2849.0,0.09100489706322433
2848.0,0.08996173397966996
2847.0,0.0859886549184413
2846.0,0.07988276189998836
2845.0,0.07268271869485571
2844.0,0.06530055735791489
2843.0,0.05833637878381223
2842.0,0.0520923543921794
2841.0,0.046673048698632015
2840.0,0.04207434275181276
2839.0,0.038233911097489706
2838.0,0.03505910597366261
2837.0,0.03244467541517471
2836.0,0.030283444538043214
2835.0,0.02848092734072391
2834.0,0.02697129429093019
2833.0,0.025714890635788086
2832.0,0.024672571479907354
2831.0,0.02378745954049594
2830.0,0.022999492321732283
2829.0,0.022274263017210447
2828.0,0.02160856581442993
2827.0,0.021009617279840048
2826.0,0.020476459878162823
2825.0,0.019999154200706366
2824.0,0.019564945843872267
2823.0,0.019162435736913917
2822.0,0.018787617114749456
2821.0,0.01844963807947447
2820.0,0.018163221669574892
2819.0,0.017928218004019402
2818.0,0.017718203036723237
2817.0,0.017495017452158194
2816.0,0.017238223475610447
2815.0,0.016960616821883625
2814.0,0.016694739351254064
2813.0,0.016463454777149056
2812.0,0.01626415876537505
2811.0,0.0160819260445591
2810.0,0.015913074508447807
2809.0,0.015767552211604054
2808.0,0.015648154740333087
2807.0,0.015539209000323993
2806.0,0.015422912925569028
2805.0,0.015297985252708056
2804.0,0.015171641596966264
2803.0,0.015039921213744853
2802.0,0.014890238078973633
2801.0,0.014721423701354378
2800.0,0.014547140249391119
2799.0,0.014378222747627675
2798.0,0.014215864620008602
2797.0,0.014065740472502433
2796.0,0.013942725571797814
2795.0,0.013851602275536709
2794.0,0.013774577971141132
2793.0,0.013690350618458667
2792.0,0.01359801138879984
2791.0,0.013509435139881204
2790.0,0.013424280436373726
2789.0,0.013329117386848843
2788.0,0.013222478808088186
2787.0,0.013124976814322611
2786.0,0.013055125040101529
2785.0,0.013002278239681272
2784.0,0.012933836445313733
2783.0,0.012830448182678424
2782.0,0.012709896157653403
2781.0,0.012613429257262831
2780.0,0.012567171601711178
2779.0,0.012556098901246376
2778.0,0.012535749157590384
2777.0,0.012469618274802361
2776.0,0.012356359828486214
2775.0,0.012225841074632237
2774.0,0.012116473236730154
2773.0,0.012054734407233045
2772.0,0.012043631248249692
2771.0,0.01205985557605622
2770.0,0.012066092676910964
2769.0,0.012036395234952181
2768.0,0.011971841468072193
2767.0,0.011890527398949125
2766.0,0.011808318817752388
2765.0,0.011735676386288788
2764.0,0.011683559071459569
2763.0,0.011655824338579679
2762.0,0.011636338903720622
2761.0,0.011600446165453852
2760.0,0.011546521650991128
2759.0,0.01150354809550953
2758.0,0.011497524116282564
2757.0,0.011517975009061545
2756.0,0.011527965553576207
2755.0,0.011502656915187435
2754.0,0.011448638158662976
2753.0,0.011388854645448717
2752.0,0.011339376876027485
2751.0,0.01130220942875744
2750.0,0.011271894752365091
2749.0,0.01124320331378629
2748.0,0.01121401159057881
2747.0,0.011183698344625686
2746.0,0.011150877858531534
2745.0,0.011115737732914828
2744.0,0.011085489127483125
2743.0,0.011072801522406611
2742.0,0.011083763911360775
2741.0,0.011108614846326083
2740.0,0.011128238260102355
2739.0,0.01112948662382332
2738.0,0.011111908657894031
2737.0,0.011081766111500753
2736.0,0.011044564182903182
2735.0,0.011004520848450746
2734.0,0.010967601855191422
2733.0,0.01094064810740232
2732.0,0.01092466924211316
2731.0,0.01090903339087047
2730.0,0.01087721830917118
2729.0,0.010824280492843
2728.0,0.010767738631461386
2727.0,0.01073415335162591
2726.0,0.010731887621256804
2725.0,0.010741914387061964
2724.0,0.010737546099402286
2723.0,0.010708052512212672
2722.0,0.01066069938241707
2721.0,0.010607622907024673
2720.0,0.01055807135510366
2719.0,0.010519207810265508
2718.0,0.010495607790681259
2717.0,0.010486065190027472
2716.0,0.010483118472896591
2715.0,0.010474969275527952
2714.0,0.010448806255996118
2713.0,0.010400009790873585
2712.0,0.010342815518244222
2711.0,0.010304556934765199
2710.0,0.010300491940075839
2709.0,0.010316528991832252
2708.0,0.01032304918220489
2707.0,0.010303194773828774
2706.0,0.010262028731154017
2705.0,0.010214186569184082
2704.0,0.010173013428101896
2703.0,0.010148878282943757
2702.0,0.01014490910068174
2701.0,0.010150300890990983
2700.0,0.010146007075520973
2699.0,0.010121749310980182
2698.0,0.010084264122603763
2697.0,0.01004838593052837
2696.0,0.01002478544924865
2695.0,0.010015420094769523
2694.0,0.010013645535021504
2693.0,0.010007476712877179
2692.0,0.009989852771926933
2691.0,0.009968442625434613
2690.0,0.00995982259426387
2689.0,0.009971183387114507
2688.0,0.009991816587898689
2687.0,0.010004082311423107
2686.0,0.009998457298538667
2685.0,0.009977236502246984
2684.0,0.009950105815474442
2683.0,0.009929797673775682
2682.0,0.009926731208283817
2681.0,0.009941670258035967
2680.0,0.009963208193014092
2679.0,0.00997455706056404
2678.0,0.009963874559935568
2677.0,0.00993079520389527
2676.0,0.009887382826880438
2675.0,0.009852724124345309
2674.0,0.009841790363235488
2673.0,0.00985522128116531
2672.0,0.009878512207472438
2671.0,0.009891036212911706
2670.0,0.00987858795506808
2669.0,0.00984412707932599
2668.0,0.009809340450545894
2667.0,0.009799337327993325
2666.0,0.009818965323548649
2665.0,0.009846832423922383
2664.0,0.009857887721595713
2663.0,0.009847821869896202
2662.0,0.009830093786533926
2661.0,0.009815535336539427
2660.0,0.0098044192513162
2659.0,0.009792935438696174
2658.0,0.009773945998401042
2657.0,0.009733497071410142
2656.0,0.009662295486198284
2655.0,0.009574038850609623
2654.0,0.009499123180271423
2653.0,0.009454614134630411
2652.0,0.009430646521358964
2651.0,0.009409428612742767
2650.0,0.009384276753437153
2649.0,0.009353549648123629
2648.0,0.009310637114272617
2647.0,0.009253323242299705
2646.0,0.009194995992146767
2645.0,0.00915366170838457
2644.0,0.009133218814770444
2643.0,0.009124108950863444
2642.0,0.009117111213208476
2641.0,0.009107042444688298
2640.0,0.009087662476520804
2639.0,0.00905447265740288
2638.0,0.009012356281042088
2637.0,0.008972576579413274
2636.0,0.008941644093319087
2635.0,0.00891721080311048
2634.0,0.00889197570324915
2633.0,0.008856431561668604
2632.0,0.008801735539153532
2631.0,0.008727587922573178
2630.0,0.008647026568218365
2629.0,0.008578928548920377
2628.0,0.008535638124605742
2627.0,0.008517524843213753
2626.0,0.008513136487286686
2625.0,0.008502070859868989
2624.0,0.00846728549778995
2623.0,0.008412893649346094
2622.0,0.008363802783114613
2621.0,0.008339390458532374
2620.0,0.00833239846030257
2619.0,0.008321194686503915
2618.0,0.008295794260823523
2617.0,0.008260724049366954
2616.0,0.008218080013394528
2615.0,0.00816385725637891
2614.0,0.008102579439746576
2613.0,0.008051845931821176
2612.0,0.008025607462438852
2611.0,0.008019695969827084
2610.0,0.008017899895591176
2609.0,0.008005745682011275
2608.0,0.007974635094646187
2607.0,0.007920691517063571
2606.0,0.007849474215422545
2605.0,0.007780665322285859
2604.0,0.007737698170222521
2603.0,0.007725172282249209
2602.0,0.00771877806103591
2601.0,0.0076857661854472185
2600.0,0.007620046228274923
2599.0,0.007553170409807573
2598.0,0.007524753562953748
2597.0,0.00754259542116208
2596.0,0.007575722306307833
2595.0,0.007585067390568525
2594.0,0.007556028537027479
2593.0,0.0075027921878636685
2592.0,0.007448122944494684
2591.0,0.007401374050838136
2590.0,0.007353740783776194
2589.0,0.007295382427951247
2588.0,0.007237332471508104
2587.0,0.00720840307770486
2586.0,0.007222804028608263
2585.0,0.007257878980813226
2584.0,0.007275994195028376
2583.0,0.007264066648823116
2582.0,0.007237518193776852
2581.0,0.007209333062778173
2580.0,0.007174584255589223
2579.0,0.007128400631766318
2578.0,0.007080700002033535
2577.0,0.0070445265112227436
2576.0,0.007022870493366315
2575.0,0.007014809841004803
2574.0,0.007022359076126007
2573.0,0.007041877569163064
2572.0,0.0070579905232400365
2571.0,0.007054422459575733
2570.0,0.007024904824842023
2569.0,0.006971196218416065
2568.0,0.006901613034478789
2567.0,0.006835370653396197
2566.0,0.006794625198642639
2565.0,0.006783867038888143
2564.0,0.006787473136817077
2563.0,0.00679327164002008
2562.0,0.006804559209193527
2561.0,0.0068204926955715214
2560.0,0.0068210933244026144
2559.0,0.006788491462006503
2558.0,0.006735129617294867
2557.0,0.006695641698197382
2556.0,0.006692790251302792
2555.0,0.0067200467782989135
2554.0,0.00675279401143407
2553.0,0.006767456266669898
2552.0,0.00675384002773252
2551.0,0.006718540551204825
2550.0,0.00667797961358842
2549.0,0.006647016327476753
2548.0,0.0066358068628411555
2547.0,0.006651786886357501
2546.0,0.006691222345262699
2545.0,0.006728834227699687
2544.0,0.006733369949575749
2543.0,0.00670108888143154
2542.0,0.006660431602604093
2541.0,0.006636170433084541
2540.0,0.006622163147630599
2539.0,0.006597073816944143
2538.0,0.00655154767467284
2537.0,0.0064893214804915365
2536.0,0.006418138734815115
2535.0,0.006356256148430951
2534.0,0.006335348556795642
2533.0,0.006374795262488891
2532.0,0.0064540859349652546
2531.0,0.006525619907560624
2530.0,0.0065561877922947105
2529.0,0.006548871186986677
2528.0,0.006528171746869567
2527.0,0.006512432693392217
2526.0,0.006499278234169022
2525.0,0.006472525600580998
2524.0,0.006425403143632229
2523.0,0.006378197481616705
2522.0,0.006365326927962257
2521.0,0.0064003335225993364
2520.0,0.006458964663678556
2519.0,0.006498306103793414
2518.0,0.0064857656847033245
2517.0,0.0064147089850774795
2516.0,0.006311981121286279
2515.0,0.0062342835756839625
2514.0,0.006233779908256231
2513.0,0.006308664982545004
2512.0,0.006397163947900866
2511.0,0.006433696680526648
2510.0,0.006405098222418441
2509.0,0.006347619221385232
2508.0,0.00630385442979369
2507.0,0.006292087563855835
2506.0,0.00630167052956313
2505.0,0.006302146164422052
2504.0,0.006266584226579351
2503.0,0.006199633835400674
2502.0,0.0061353848012521105
2501.0,0.006099658310823679
2500.0,0.006087133495504771
2499.0,0.0060838746014626474
2498.0,0.006091919448907878
2497.0,0.006113456190425672
2496.0,0.0061286685827687554
2495.0,0.00611570667791847
2494.0,0.006084011331597522
2493.0,0.00606346583273991
2492.0,0.006064011423954671
2491.0,0.006067543660517912
2490.0,0.006057569275651011
2489.0,0.006035876213065277
2488.0,0.0060097792132890685
2487.0,0.005983077519391098
2486.0,0.0059638915958947795
2485.0,0.005964305372180193
2484.0,0.005984276216526484
2483.0,0.006005512449244491
2482.0,0.006006670981280589
2481.0,0.005979943130754644
2480.0,0.005933653702185647
2479.0,0.005885223847874598
2478.0,0.005850097844477736
2477.0,0.005831288580344236
2476.0,0.005821577767127024
2475.0,0.005818817011942648
2474.0,0.0058304295791641435
2473.0,0.005856414368406823
2472.0,0.005879787335134346
2471.0,0.005885802042485045
2470.0,0.005880075659909329
2469.0,0.0058732022190908055
2468.0,0.0058583640253606906
2467.0,0.00582438505301114
2466.0,0.0057842224463207715
2465.0,0.005765895782304482
2464.0,0.005773500979977564
2463.0,0.005779458505637993
2462.0,0.005762220903790358
2461.0,0.005732471512905954
2460.0,0.005711491715183871
2459.0,0.005698956706399143
2458.0,0.005677368583735864
2457.0,0.005640652318712534
2456.0,0.00560382074945496
2455.0,0.005584479691932083
2454.0,0.005584674553947198
2453.0,0.005593784532069154
2452.0,0.0056036620699006735
2451.0,0.005615471609994098
2450.0,0.005631679533941996
2449.0,0.005646804809150983
2448.0,0.005652419236956224
2447.0,0.005650345641516836
2446.0,0.005652265041687293
2445.0,0.005661924073586912
2444.0,0.005665103911501335
2443.0,0.005645442043239387
2442.0,0.005607211646159414
2441.0,0.005574547145279704
2440.0,0.005567620205961885
2439.0,0.005584140712830258
2438.0,0.0056041229259418185
2437.0,0.005608579200642503
2436.0,0.005593084899475629
2435.0,0.005566067928608749
2434.0,0.005536160891909444
2433.0,0.005502499009647788
2432.0,0.005457903997223099
2431.0,0.00539990415748077
2430.0,0.00533754814787589
2429.0,0.005290535074217397
2428.0,0.005282013484803153
2427.0,0.005322356905853912
2426.0,0.005390716290244304
2425.0,0.005440542205567624
2424.0,0.005439749322219426
2423.0,0.005405171713153621
2422.0,0.005383546944133814
2421.0,0.005398319371842505
2420.0,0.0054295478575738425
2419.0,0.005447424942689303
2418.0,0.005447086691136164
2417.0,0.005443398495043869
2416.0,0.005447952110826
2415.0,0.005462993697111719
2414.0,0.005486415514246719
2413.0,0.005510329729619638
2412.0,0.005521708281291715
2411.0,0.005514110824457212
2410.0,0.0054938729380091715
2409.0,0.005469261195105437
2408.0,0.00544089194319379
2407.0,0.005408307094643457
2406.0,0.0053769491287948825
2405.0,0.005351493925135258
2404.0,0.005330719579291455
2403.0,0.005316641133043812
2402.0,0.005320339453168615
2401.0,0.005348975972171876
2400.0,0.0053916628719360695
2399.0,0.0054259106526705105
2398.0,0.005435963243701879
2397.0,0.005422645134620873
2396.0,0.0054010560647153065
2395.0,0.005390583787698921
2394.0,0.00539891654739759
2393.0,0.005412598242129722
2392.0,0.005411624697033875
2391.0,0.005395818999222752
2390.0,0.005386718487463673
2389.0,0.005400572864551992
2388.0,0.005432140105949997
2387.0,0.005470752391886044
2386.0,0.005517733493457435
2385.0,0.005575823639329001
2384.0,0.005630739392760634
2383.0,0.0056574298312171535
2382.0,0.005642327677742771
2381.0,0.005590975100562642
2380.0,0.005518236649463196
2379.0,0.005441431337663513
2378.0,0.005379238738778365
2377.0,0.0053429095119261584
2376.0,0.0053273802542318635
2375.0,0.005322822890157286
2374.0,0.005332955401683243
2373.0,0.005368975380733702
2372.0,0.005425833450736492
2371.0,0.005481268377024736
2370.0,0.0055253419194171444
2369.0,0.005578136765380019
2368.0,0.005660143979262513
2367.0,0.005736371346812295
2366.0,0.005706772133038947
2365.0,0.005504706190427615
2364.0,0.005233895411866662
2363.0,0.005135475373600028
2362.0,0.005329107750995207
2361.0,0.005635502308415411
2360.0,0.005777830093759394
2359.0,0.005715186250281134
2358.0,0.005619810988830772
2357.0,0.005579955136138069
2356.0,0.005501942500904061
2355.0,0.005316108016939453
2354.0,0.005095416380938696
2353.0,0.004958976485380443
2352.0,0.004976297532676321
2351.0,0.005132260006040319
2350.0,0.00534106167283685
2349.0,0.005494181318294873
2348.0,0.005533822867970484
2347.0,0.005505156223766571
2346.0,0.0055128772477225675
2345.0,0.00561038711113745
2344.0,0.005732009856078422
2343.0,0.005812379198054658
2342.0,0.005858197250681634
2341.0,0.0058698904712043
2340.0,0.0058068568442251525
2339.0,0.005644100267876289
2338.0,0.005449727245568913
2337.0,0.005336901259834288
2336.0,0.005361303105999893
2335.0,0.005473888455746717
2334.0,0.005581118603723452
2333.0,0.005611719402534195
2332.0,0.005571888208740147
2331.0,0.005529376012812832
2330.0,0.005557483270653781
2329.0,0.005657719557243012
2328.0,0.005770981117072025
2327.0,0.005856312219732863
2326.0,0.005910968189215467
2325.0,0.005945675749480245
2324.0,0.005945490516640993
2323.0,0.005899427666912437
2322.0,0.005829787741051123
2321.0,0.005767255347848749
2320.0,0.00572380005780726
2319.0,0.005692209548880477
2318.0,0.00567588091727522
2317.0,0.005668917967243681
2316.0,0.005652528583123854
2315.0,0.005613549723685403
2314.0,0.0055746081475957195
2313.0,0.005571788451289282
2312.0,0.0056155560325769115
2311.0,0.00567952010246956
2310.0,0.005726466501981791
2309.0,0.0057362661841402944
2308.0,0.005717068042646914
2307.0,0.005698671615447152
2306.0,0.005704516526221607
2305.0,0.00572596530613117
2304.0,0.005732248804963089
2303.0,0.0057061683264443075
2302.0,0.005660048653898896
2301.0,0.005614006408311985
2300.0,0.005580612314043504
2299.0,0.005569173780183311
2298.0,0.005583427705637574
2297.0,0.00560397131927368
2296.0,0.005598438232410553
2295.0,0.00556429968988548
2294.0,0.005536070167929183
2293.0,0.005538575379199382
2292.0,0.005551160546168121
2291.0,0.005540429693187455
2290.0,0.005502269045885916
2289.0,0.005455500305042048
2288.0,0.005410567763054304
2287.0,0.005368999323171314
2286.0,0.005334511962777336
2285.0,0.005304223735342624
2284.0,0.005264287143176904
2283.0,0.005214953089099955
2282.0,0.005180389709788789
2281.0,0.005170733425728879
2280.0,0.005157224142892155
2279.0,0.0051133810662434085
2278.0,0.005060054571617559
2277.0,0.005033535705703716
2276.0,0.005029068741045457
2275.0,0.005014029859167326
2274.0,0.004984852844619344
2273.0,0.00496943875644815
2272.0,0.004977881619382704
2271.0,0.004986215199559499
2270.0,0.004969647673345274
2269.0,0.004926336343403719
2268.0,0.00486934869869345
2267.0,0.004814574856872554
2266.0,0.0047735575767544796
2265.0,0.004747001519310206
2264.0,0.004734508588522105
2263.0,0.0047523014615014365
2262.0,0.0048108356940493036
2261.0,0.0048680462930676465
2260.0,0.00485003878684625
2259.0,0.004747600852615718
2258.0,0.0046498609416076265
2257.0,0.004641949152929851
2256.0,0.004701349985187037
2255.0,0.004741259145215736
2254.0,0.004730783334410705
2253.0,0.004718379416005183
2252.0,0.004751492763369132
2251.0,0.004816451071581436
2250.0,0.004852967712782055
2249.0,0.004804326420483984
2248.0,0.00467300818803181
2247.0,0.004545500421199178
2246.0,0.004526270694394408
2245.0,0.00461787292982875
2244.0,0.004703306272797702
2243.0,0.0046858880325823995
2242.0,0.004603966773610443
2241.0,0.004561259644960222
2240.0,0.004585353060179869
2239.0,0.004616463937727127
2238.0,0.0046050702479541765
2237.0,0.004555824283849348
2236.0,0.004496159909572189
2235.0,0.0044632720088209205
2234.0,0.004506207436335015
2233.0,0.004636990465173188
2232.0,0.004783644834877013
2231.0,0.00484440153077521
2230.0,0.004785997384273854
2229.0,0.004656885254197982
2228.0,0.004526590505315566
2227.0,0.004450523466950629
2226.0,0.004461136896985608
2225.0,0.004532558415435447
2224.0,0.004573187933368295
2223.0,0.0045093293505284755
2222.0,0.0043606881487224134
2221.0,0.004197598049646893
2220.0,0.004061576384875654
2219.0,0.0039796225697199174
2218.0,0.004006641277799749
2217.0,0.00416426578451448
2216.0,0.004362191090399748
2215.0,0.0044729190803133425
2214.0,0.004478358724537354
2213.0,0.004468622999386813
2212.0,0.004501303356838128
2211.0,0.004537339883355974
2210.0,0.004519962926617399
2209.0,0.004443469073693487
2208.0,0.004330186265289235
2207.0,0.004201136736121323
2206.0,0.004091130530911541
2205.0,0.004042934611793855
2204.0,0.004059431496907906
2203.0,0.004089817734478154
2202.0,0.00407626331562492
2201.0,0.004004103721150468
2200.0,0.003921155811153557
2199.0,0.003918268542678358
2198.0,0.004052019936669771
2197.0,0.004254586102874005
2196.0,0.004366288741599408
2195.0,0.0043057874459351796
2194.0,0.004166079460599789
2193.0,0.004094507872638969
2192.0,0.004117746571621111
2191.0,0.004147855523140446
2190.0,0.0041171047386228
2189.0,0.0040262364979150355
2188.0,0.0038934186094029726
2187.0,0.0037449288502168707
2186.0,0.003649550117974823
2185.0,0.003680718658771783
2184.0,0.0038301903733793273
2183.0,0.004010804823648761
2182.0,0.004140488213655301
2181.0,0.00418873617557964
2180.0,0.004172588561813554
2179.0,0.004144339306707838
2178.0,0.004145527746792311
2177.0,0.004141708421679024
2176.0,0.004060951325690178
2175.0,0.0039291903198865955
2174.0,0.0038735547896536987
2173.0,0.003939172472077802
2172.0,0.004016921841581488
2171.0,0.004045648149924749
2170.0,0.0041678349024596335
2169.0,0.00453074532096057
2168.0,0.0049916823601320204
2167.0,0.005207088921201451
2166.0,0.005024684379807242
2165.0,0.004650913839374468
2164.0,0.004388539017689789
2163.0,0.004309934928593207
2162.0,0.004241729982467456
2161.0,0.003980142591842134
2160.0,0.003500089435874273
2159.0,0.003005056401928921
2158.0,0.002747499405541866
2157.0,0.0027775281784684944
2156.0,0.00293094135072827
2155.0,0.003064475934689853
2154.0,0.0031990626041798888
2153.0,0.003407237572662161
2152.0,0.003656709952169987
2151.0,0.0038415319564962342
2150.0,0.003904079583065834
2149.0,0.0038503414748876537
2148.0,0.003700747445169554
2147.0,0.003508050401637799
2146.0,0.003381515390462654
2145.0,0.0033991426146056294
2144.0,0.0035124505637636667
2143.0,0.003613470155634747
2142.0,0.0036693099719950755
2141.0,0.003725343894520859
2140.0,0.003804853702186318
2139.0,0.0038739233299965557
2138.0,0.00389157523065486
2137.0,0.0038404720888672713
2136.0,0.003723622903039964
2135.0,0.0035751192280886555
2134.0,0.003454782340632389
2133.0,0.003393174495757898
2132.0,0.003366255843748255
2131.0,0.0033553983115027857
2130.0,0.003392991661542536
2129.0,0.0035073093357442975
2128.0,0.003656519192660723
2127.0,0.0037662951556604466
2126.0,0.0038090520940788656
2125.0,0.003805652564592789
2124.0,0.003776007200366485
2123.0,0.00373321781288871
2122.0,0.0037049222315822658
2121.0,0.003710929660555566
2120.0,0.0037310443174458346
2119.0,0.0037381948894810715
2118.0,0.0037524096170929964
2117.0,0.00382195874873709
2116.0,0.003960223381755626
2115.0,0.004135750257816075
2114.0,0.0043100778836298445
2113.0,0.00444945832592342
2112.0,0.004519194102736324
2111.0,0.004511929478819637
2110.0,0.00447304140819786
2109.0,0.004458490785009607
2108.0,0.0044722469187394465
2107.0,0.004478690547794986
2106.0,0.0044629625500221815
2105.0,0.0044382071041959605
2104.0,0.004404294547821692
2103.0,0.004343998710547023
2102.0,0.004260494077445269
2101.0,0.004185782685257063
2100.0,0.004152745719050466
2099.0,0.004178261601863402
2098.0,0.004255143293799761
2097.0,0.004333772875211214
2096.0,0.004341483002711656
2095.0,0.004262659597137945
2094.0,0.00417486368018728
2093.0,0.004166632131218716
2092.0,0.0042398068388973
2091.0,0.004323529375993709
2090.0,0.0043560838506146405
2089.0,0.004319682734120509
2088.0,0.004225911401422019
2087.0,0.004112738058080185
2086.0,0.004036946203268728
2085.0,0.004021736448439535
2084.0,0.00402254384340556
2083.0,0.003984832650948214
2082.0,0.003918790310731793
2081.0,0.0038816430158025925
2080.0,0.003911852630509687
2079.0,0.004019177020844413
2078.0,0.004198102868011856
2077.0,0.004393064685070391
2076.0,0.004493979656187342
2075.0,0.004444147207799623
2074.0,0.004325331065917207
2073.0,0.004263496865852544
2072.0,0.004267852139039072
2071.0,0.004240190425429589
2070.0,0.004128748137635425
2069.0,0.003984518161234207
2068.0,0.0038682431185044722
2067.0,0.003788220482665287
2066.0,0.003741467926302279
2065.0,0.0037333424978824373
2064.0,0.0037347177657028286
2063.0,0.003693290474256076
2062.0,0.003609313551967307
2061.0,0.003546002330483044
2060.0,0.003555044242373352
2059.0,0.003635755267830825
2058.0,0.003765660815711981
2057.0,0.003915394465991371
2056.0,0.004037195842158551
2055.0,0.004098588988712568
2054.0,0.004127118420117247
2053.0,0.004168465484928686
2052.0,0.004206565183592452
2051.0,0.004182227267701583
2050.0,0.004089944054596059
2049.0,0.003989081487883923
2048.0,0.003899831342108041
2047.0,0.003770082590757639
2046.0,0.003583264631010099
2045.0,0.0034215860599691476
2044.0,0.003384675315970468
2043.0,0.0034938585610317257
2042.0,0.0036841357668856503
2041.0,0.003837523638107681
2040.0,0.0038504801130878038
2039.0,0.0037354101209921015
2038.0,0.003632489380854625
2037.0,0.0036590559361281833
2036.0,0.0037514650750300202
2035.0,0.0037366944815489553
2034.0,0.0035597583673918102
2033.0,0.0033459699619247454
2032.0,0.0032289531814256576
2031.0,0.003215349890467716
2030.0,0.0032381729118998487
2029.0,0.0032478020962817575
2028.0,0.0032359312580860114
2027.0,0.0032404485083125075
2026.0,0.0033369133418561423
2025.0,0.003566032038986482
2024.0,0.0038676117271905907
2023.0,0.0041227614758616565
2022.0,0.004240474141038965
2021.0,0.004179813455367578
2020.0,0.003942377108975753
2019.0,0.0035921817110435156
2018.0,0.003261083670418607
2017.0,0.0030767345892608105
2016.0,0.0030757636694623107
2015.0,0.0032225151123148918
2014.0,0.003454239036581715
2013.0,0.003660595529987163
2012.0,0.0037228641852327495
2011.0,0.0036475444060716225
2010.0,0.0035805753136024785
2009.0,0.003623986653225519
2008.0,0.003712141446567318
2007.0,0.0037443781006427793
2006.0,0.0037373965863997673
2005.0,0.0037457106870890486
2004.0,0.003743124386999311
2003.0,0.0036934963890328117
2002.0,0.003657198239809957
2001.0,0.0037154954594158895
2000.0,0.0038374922786128113
1999.0,0.0039218876954181855
1998.0,0.0039231011871623065
1997.0,0.0038587784799539544
1996.0,0.00373279543988505
1995.0,0.0035395681032982513
1994.0,0.0033272254559549427
1993.0,0.0031861087054621943
1992.0,0.003163480727580862
1991.0,0.0032457865673958496
1990.0,0.0034145628658954364
1989.0,0.0036350843200059074
1988.0,0.0038260767529684782
1987.0,0.0039261294043195965
1986.0,0.003961876522611581
1985.0,0.003984687517949056
1984.0,0.003981029199684926
1983.0,0.003912977069332151
1982.0,0.0038019733309589375
1981.0,0.003695020871821865
1980.0,0.003582242570615556
1979.0,0.0034308635545688936
1978.0,0.003265959230868386
1977.0,0.003142163187256623
1976.0,0.0030732823436881614
1975.0,0.003070247987804278
1974.0,0.0031657449635668707
1973.0,0.0033186366284989523
1972.0,0.0033969768511091514
1971.0,0.0033522677179374225
1970.0,0.003308702406150658
1969.0,0.003381512033753811
1968.0,0.0034834475858236307
1967.0,0.0034372327061427486
1966.0,0.0032397426852205672
1965.0,0.003048425369793253
1964.0,0.002959524732986984
1963.0,0.0029677083785177496
1962.0,0.0030625909035127004
1961.0,0.0032184686363679387
1960.0,0.0033422914303090565
1959.0,0.00335647246936926
1958.0,0.00330715035818094
1957.0,0.0033039218694121235
1956.0,0.0033795976638947584
1955.0,0.003476830710897407
1954.0,0.003535829959535954
1953.0,0.0035264551191300938
1952.0,0.003435549591105853
1951.0,0.003300349691857343
1950.0,0.003229609046066073
1949.0,0.003301232685479556
1948.0,0.0034590909561881883
1947.0,0.0035772090393364577
1946.0,0.0035995210722790066
1945.0,0.003560220574123802
1944.0,0.003503359134751559
1943.0,0.0034542333680702515
1942.0,0.0034405840572242644
1941.0,0.003466433230495019
1940.0,0.003489300787866387
1939.0,0.003473863524571827
1938.0,0.003441993637796483
1937.0,0.003433642984798953
1936.0,0.0034475771900139922
1935.0,0.0034666598131495334
1934.0,0.003503973910160813
1933.0,0.003568178706839061
1932.0,0.0036172855679074915
1931.0,0.003607989881697469
1930.0,0.0035648265503993304
1929.0,0.0035345772713275036
1928.0,0.003516520953455271
1927.0,0.0034879517332458442
1926.0,0.0034574989647729367
1925.0,0.0034471048032486337
1924.0,0.003438821263535063
1923.0,0.0034161637021436083
1922.0,0.0034199938796016867
1921.0,0.0034898872115766526
1920.0,0.0035815483132565725
1919.0,0.003617761492351145
1918.0,0.0035886879493658382
1917.0,0.0035479510958126995
1916.0,0.0035232860845611164
1915.0,0.0035067059261109767
1914.0,0.0035094551712111796
1913.0,0.0035569274359393364
1912.0,0.003628021240890173
1911.0,0.0036626874010276234
1910.0,0.0036359533934063873
1909.0,0.003575547975688841
1908.0,0.0035141139322046244
1907.0,0.003464076214109221
1906.0,0.0034326997309107837
1905.0,0.003422875537994856
1904.0,0.003410404879126006
1903.0,0.0033825375392258967
1902.0,0.0033704187203924215
1901.0,0.003399911150218902
1900.0,0.003438026582521511
1899.0,0.003433826259768481
1898.0,0.0033915694165252185
1897.0,0.003367143413767057
1896.0,0.0033911629093828
1895.0,0.0034439966887002084
1894.0,0.0034989957175529047
1893.0,0.0035478656324263672
1892.0,0.003583936283288075
1891.0,0.003602514584349529
1890.0,0.0036114468449359822
1889.0,0.0036085799235183917
1888.0,0.0035781151971848208
1887.0,0.0035263254436343674
1886.0,0.003483564969838635
1885.0,0.003466961237710066
1884.0,0.003451543068430752
1883.0,0.0034098927988460087
1882.0,0.003361129871607841
1881.0,0.003335157069115242
1880.0,0.003323517085313838
1879.0,0.003301676200733407
1878.0,0.0032759856820849856
1877.0,0.003272940896891008
1876.0,0.0032906688186173406
1875.0,0.0033067856011882654
1874.0,0.00332452698072611
1873.0,0.003361355071435367
1872.0,0.0034059143849943796
1871.0,0.00342802530483861
1870.0,0.003423627904435054
1869.0,0.003409669793893613
1868.0,0.0033800182051672866
1867.0,0.0033418489690725662
1866.0,0.003333664593768926
1865.0,0.0033615720820568246
1864.0,0.0033871348885838124
1863.0,0.003377172687969633
1862.0,0.003345148774756463
1861.0,0.003325836853619327
1860.0,0.0033216677059708225
1859.0,0.003310436255437893
1858.0,0.0032903492100408815
1857.0,0.0032760647586568188
1856.0,0.0032638696296946814
1855.0,0.0032392809022559576
1854.0,0.0032091979121093334
1853.0,0.0031926825763865224
1852.0,0.0031940660200523436
1851.0,0.003211142266741544
1850.0,0.0032391326988863186
1849.0,0.003271411084512501
1848.0,0.003291060560471122
1847.0,0.003293052729012083
1846.0,0.003295312475007337
1845.0,0.003311155235702777
1844.0,0.00331254201362205
1843.0,0.003280672027283347
1842.0,0.0032630037566650557
1841.0,0.0032783231308864775
1840.0,0.003287539134975044
1839.0,0.0032625390178554537
1838.0,0.003225791603284545
1837.0,0.003215685862961067
1836.0,0.003222958335882582
1835.0,0.0032185773083515967
1834.0,0.0032071177566820592
1833.0,0.003207506565637037
1832.0,0.0032080932204984953
1831.0,0.0031788725172229642
1830.0,0.0031230169945743826
1829.0,0.0030902561885066356
1828.0,0.0031107123438011406
1827.0,0.0031590799701051385
1826.0,0.0032076678458611246
1825.0,0.003254058496464667
1824.0,0.0032816721452478964
1823.0,0.0032791033541955433
1822.0,0.0032660749521763576
1821.0,0.0032625881470196003
1820.0,0.0032634718379672347
1819.0,0.0032502497111128884
1818.0,0.0032302415661723417
1817.0,0.003226893684458978
1816.0,0.0032321417651176845
1815.0,0.0032308855335149126
1814.0,0.0032406129481656475
1813.0,0.0032900877502848305
1812.0,0.0033667126638404748
1811.0,0.003412026078687452
1810.0,0.0034071272684602734
1809.0,0.0033845644758033738
1808.0,0.0033595480629571095
1807.0,0.0033298463684585953
1806.0,0.0033133703359815208
1805.0,0.0033314391116892154
1804.0,0.0033700863537659918
1803.0,0.003399488808874005
1802.0,0.003416703862204492
1801.0,0.003434106238409798
1800.0,0.0034448832935229127
1799.0,0.00343376727331364
1798.0,0.0034216302980419507
1797.0,0.003431266356892843
1796.0,0.0034506367136032546
1795.0,0.0034537661683326382
1794.0,0.003442536420426489
1793.0,0.003444482245476635
1792.0,0.003452565426798635
1791.0,0.003430007536054898
1790.0,0.0034081429911867562
1789.0,0.0034205794321981245
1788.0,0.0034482352276983845
1787.0,0.0034654679133214687
1786.0,0.0034754698756697573
1785.0,0.0034886148848339606
1784.0,0.003488347246300748
1783.0,0.0034607925449196874
1782.0,0.003425030079489924
1781.0,0.0034133302490321534
1780.0,0.0034323808218313205
1779.0,0.003443829926232914
1778.0,0.0034346770430466857
1777.0,0.003420768769020457
1776.0,0.003420039290706371
1775.0,0.0034325819843704884
1774.0,0.003446403841320539
1773.0,0.0034679473559628944
1772.0,0.0034897507637320323
1771.0,0.0034911145109905424
1770.0,0.003503636708784767
1769.0,0.003539508158568687
1768.0,0.0035643118611141476
1767.0,0.0035519992918033464
1766.0,0.0035253003084126013
1765.0,0.003520156012150795
1764.0,0.0035370707586233237
1763.0,0.003556302639159633
1762.0,0.0035709592762452023
1761.0,0.003590879972872942
1760.0,0.003628497612254195
1759.0,0.0036719760746251164
1758.0,0.0037246075493206545
1757.0,0.003799761623862117
1756.0,0.0038851803484621986
1755.0,0.003952609894059014
1754.0,0.0039939509216473795
1753.0,0.004019273649673152
1752.0,0.004043450428691983
1751.0,0.004057862372801988
1750.0,0.00405528716977703
1749.0,0.004074891354885371
1748.0,0.0041230880928696595
1747.0,0.00416853791981469
1746.0,0.0042042085080288205
1745.0,0.004255458513651409
1744.0,0.004330767902986849
1743.0,0.004400548444897521
1742.0,0.004461151182650786
1741.0,0.0045445404010278
1740.0,0.004645052144642772
1739.0,0.004707853002240999
1738.0,0.004737739859828574
1737.0,0.004785896549956498
1736.0,0.0048525198418250684
1735.0,0.004925891914299248
1734.0,0.004990835774153067
1733.0,0.005011506234132628
1732.0,0.005040096331936308
1731.0,0.005076514727206776
1730.0,0.005093119202242053
1729.0,0.005107795748321984
1728.0,0.005137816474880728
1727.0,0.0051758565377754565
1726.0,0.005218795828514682
1725.0,0.005290679080794181
1724.0,0.0053897776975084435
1723.0,0.005462530934574109
1722.0,0.005499247794616816
1721.0,0.0055428834836862865
1720.0,0.0056105220758563105
1719.0,0.005679111147861027
1718.0,0.0057525963612178425
1717.0,0.005851813641420993
1716.0,0.00595596300874476
1715.0,0.00604552537108086
1714.0,0.006133120597854438
1713.0,0.006242123556668945
1712.0,0.006356372199236592
1711.0,0.006444714782952558
1710.0,0.006513036265593999
1709.0,0.006600847483138765
1708.0,0.006734986797907797
1707.0,0.006904262650777277
1706.0,0.007093110156802562
1705.0,0.007293104284442438
1704.0,0.007484316444173043
1703.0,0.007663122944620387
1702.0,0.007858700552884419
1701.0,0.008203378611228562
1700.0,0.008661010185929343
1699.0,0.00894304096203834
1698.0,0.009097522140052267
1697.0,0.009338484060992724
1696.0,0.009708804305824187
1695.0,0.01004154368155312
1694.0,0.010288630080528353
1693.0,0.010523712963491121
1692.0,0.010768046522733875
1691.0,0.011033013794781204
1690.0,0.011347447312322541
1689.0,0.011704482945357935
1688.0,0.012034119086498025
1687.0,0.012272621745650096
1686.0,0.012443090594555584
1685.0,0.01278805355699893
1684.0,0.013392221557866605
1683.0,0.013870244148805985
1682.0,0.014184220400478642
1681.0,0.0144519637193786
1680.0,0.014707582960078073
1679.0,0.01495511475310133
1678.0,0.015204726030061875
1677.0,0.01550783964853475
1676.0,0.015914933795101283
1675.0,0.016345942256546182
1674.0,0.016647550682457785
1673.0,0.016840891534016536
1672.0,0.01703702242428916
1671.0,0.017312482816126105
1670.0,0.017712023848869936
1669.0,0.01815387969821302
1668.0,0.01851173060580857
1667.0,0.018757562960423555
1666.0,0.01893593494450091
1665.0,0.019125234920097503
1664.0,0.01939288438552793
1663.0,0.01972691237315805
1662.0,0.020031477141001997
1661.0,0.020267536223160524
1660.0,0.02047907911388813
1659.0,0.020667784364805628
1658.0,0.02081978767612864
1657.0,0.02093899341606154
1656.0,0.02104907753321326
1655.0,0.021149490554777068
1654.0,0.02139585952911584
1653.0,0.02182101076930543
1652.0,0.022025318890129077
1651.0,0.022086405056712128
1650.0,0.022100296046548416
1649.0,0.02209575509822519
1648.0,0.02214214711467405
1647.0,0.022254817409000413
1646.0,0.02232419794087777
1645.0,0.02236302046073506
1644.0,0.022417695988180265
1643.0,0.02246584196458275
1642.0,0.022496255114738253
1641.0,0.022511482540586006
1640.0,0.022522672498522626
1639.0,0.022528724609789542
1638.0,0.0225250874315597
1637.0,0.02254935670259513
1636.0,0.022620621160970574
1635.0,0.022644050011631188
1634.0,0.022610655949697377
1633.0,0.02258168019371469
1632.0,0.02254123123525664
1631.0,0.022473083603308217
1630.0,0.022378787862628636
1629.0,0.022271636718126504
1628.0,0.022156842419976504
1627.0,0.022031547414781822
1626.0,0.021904948507928783
1625.0,0.021788000431967262
1624.0,0.02167229717885875
1623.0,0.021511363765725534
1622.0,0.021291930529303737
1621.0,0.021072469993619874
1620.0,0.02088639585866874
1619.0,0.020709244245443372
1618.0,0.020519007730548728
1617.0,0.02031285601680614
1616.0,0.02008607017669775
1615.0,0.019868521870423074
1614.0,0.01968074056406736
1613.0,0.019497297212842518
1612.0,0.019302715107260435
1611.0,0.019109301862307453
1610.0,0.018931495511959488
1609.0,0.018769750644602377
1608.0,0.01861673329672002
1607.0,0.01846587170433614
1606.0,0.01831453442404243
1605.0,0.01816426786405111
1604.0,0.018025637248765575
1603.0,0.017898272654445498
1602.0,0.017771939591841764
1601.0,0.017642097584784897
1600.0,0.01751093481731699
1599.0,0.01737920564470751
1598.0,0.017246421098652275
1597.0,0.01711794105481283
1596.0,0.017000710813846742
1595.0,0.016897207869150006
1594.0,0.016805791778098753
1593.0,0.016719618833111054
1592.0,0.01662804474266041
1591.0,0.016523583268214338
1590.0,0.01641021310779906
1589.0,0.01629929876341621
1588.0,0.016199079748067096
1587.0,0.016108183541090202
1586.0,0.016019737268256326
1585.0,0.015922493092173237
1584.0,0.015814043291291834
1583.0,0.015706658782189537
1582.0,0.01560865650573975
1581.0,0.015526122817308044
1580.0,0.015461877843620627
1579.0,0.015407886870952514
1578.0,0.015341425599861982
1577.0,0.015250591674565956
1576.0,0.015118574257047341
1575.0,0.014973026504462118
1574.0,0.014888406539586438
1573.0,0.014856131801990746
1572.0,0.014831336051783873
1571.0,0.014803670348376992
1570.0,0.014780543207426396
1569.0,0.014735380629718815
1568.0,0.014668264912344842
1567.0,0.014604783767840877
1566.0,0.014549008350309721
1565.0,0.01450356245959494
1564.0,0.014480050108967846
1563.0,0.014468378884550052
1562.0,0.01446523963057892
1561.0,0.014441690554416572
1560.0,0.014489644532406316
1559.0,0.014662290482969076
1558.0,0.014684735628587148
1557.0,0.014687092782925546
1556.0,0.01471588186933082
1555.0,0.014721206702286598
1554.0,0.014727313987826604
1553.0,0.01475198123131859
1552.0,0.014791631020599747
1551.0,0.014824161396649237
1550.0,0.014843600482371273
1549.0,0.014862688101607263
1548.0,0.014884849430643034
1547.0,0.014900087342551698
1546.0,0.014898765209078239
1545.0,0.014896815531679142
1544.0,0.014899826417600629
1543.0,0.014898714319306276
1542.0,0.014908199091483988
1541.0,0.014969594955131747
1540.0,0.0149798486875721
1539.0,0.01486617711953514
1538.0,0.014803985691042434
1537.0,0.0148202090285083
1536.0,0.014833783446447008
1535.0,0.014806855241951883
1534.0,0.014753981128412794
1533.0,0.01470804684801471
1532.0,0.014674002827837974
1531.0,0.014642086687892943
1530.0,0.014609787797902053
1529.0,0.014597916102816286
1528.0,0.014611517729240533
1527.0,0.014625201823604394
1526.0,0.014625923691141324
1525.0,0.014628875021080547
1524.0,0.014634660392963971
1523.0,0.014623839900807963
1522.0,0.014629475194707895
1521.0,0.014676679347667834
1520.0,0.014725814834437946
1519.0,0.014755655690439955
1518.0,0.014764954058499112
1517.0,0.0147735998714651
1516.0,0.014772297053775384
1515.0,0.014748598049553592
1514.0,0.014714476551389476
1513.0,0.014668522686549057
1512.0,0.014601967585598181
1511.0,0.014505071362503098
1510.0,0.0144000693051811
1509.0,0.014310542743361444
1508.0,0.01425076333244623
1507.0,0.014159568511636553
1506.0,0.014053545482941642
1505.0,0.014072650455158323
1504.0,0.014115074968084236
1503.0,0.014095278108899722
1502.0,0.014047710417089802
1501.0,0.014015891343296769
1500.0,0.014010451374236635
1499.0,0.013996084132225615
1498.0,0.013973217542552884
1497.0,0.014002687159496555
1496.0,0.014060639753853646
1495.0,0.014068795766830455
1494.0,0.014048435963725889
1493.0,0.014046290951284915
1492.0,0.014053253135229087
1491.0,0.014038870734689894
1490.0,0.01403049559517349
1489.0,0.014081133084437342
1488.0,0.014151801085993686
1487.0,0.014181521794876372
1486.0,0.014202092234285833
1485.0,0.014255370584887392
1484.0,0.014334213881652357
1483.0,0.014426796689717296
1482.0,0.014565947594732512
1481.0,0.014791328007480422
1480.0,0.015077864176664166
1479.0,0.015433920123159209
1478.0,0.016038227509542063
1477.0,0.017163302054800624
1476.0,0.018931929641824198
1475.0,0.021247996564528592
1474.0,0.024044512595526046
1473.0,0.0268333186291741
1472.0,0.028451912283902064
1471.0,0.028770743430856643
1470.0,0.028738144527529843
1469.0,0.028833188505833565
1468.0,0.029073172583326014
1467.0,0.029452961815325
1466.0,0.030089666281719704
1465.0,0.030915705442608382
1464.0,0.0313874406944294
1463.0,0.031098356124226276
1462.0,0.030193837644203657
1461.0,0.028966433919982694
1460.0,0.027629099935104595
1459.0,0.02634593606709737
1458.0,0.025244949341969546
1457.0,0.02436894998582122
1456.0,0.02369125645184231
1455.0,0.023176319543878623
1454.0,0.022714815120175313
1453.0,0.022226396809885834
1452.0,0.021733562158054394
1451.0,0.02131554079631449
1450.0,0.02100459175204384
1449.0,0.02075633621381173
1448.0,0.02052707197532824
1447.0,0.020331794375273916
1446.0,0.02019012235823017
1445.0,0.020078128853438192
1444.0,0.019972640945592784
1443.0,0.019865335156996275
1442.0,0.019760189942522353
1441.0,0.019662877521201664
1440.0,0.019582406521461485
1439.0,0.019518422168062013
1438.0,0.019458583348136427
1437.0,0.01938283691180683
1436.0,0.019272915704366202
1435.0,0.019150095287463254
1434.0,0.019038957926522104
1433.0,0.018934308479713915
1432.0,0.01882919611964669
1431.0,0.018725283612461778
1430.0,0.018621478374646293
1429.0,0.01852412455429486
1428.0,0.01844624164174194
1427.0,0.01839614824140237
1426.0,0.018362477716070053
1425.0,0.018328856753080384
1424.0,0.018301025155966714
1423.0,0.018290449692002185
1422.0,0.018300247269737595
1421.0,0.018315645811945135
1420.0,0.018325151174590194
1419.0,0.01830838563412781
1418.0,0.01824266011222584
1417.0,0.01815489066828574
1416.0,0.018066881805473785
1415.0,0.01797616149758398
1414.0,0.017882719169466092
1413.0,0.01778426519622967
1412.0,0.017673055062440945
1411.0,0.01754209196068486
1410.0,0.017392076103743555
1409.0,0.017227754192954223
1408.0,0.017044615807764684
1407.0,0.016837568454575468
1406.0,0.016606796796834133
1405.0,0.016357411655681768
1404.0,0.01611564350058857
1403.0,0.01590919865525395
1402.0,0.015732274795193454
1401.0,0.015549000373244824
1400.0,0.015332515127313064
1399.0,0.015096564539046422
1398.0,0.01487696422705716
1397.0,0.014676465352442034
1396.0,0.014460191545318107
1395.0,0.014215082667927814
1394.0,0.013970472850047672
1393.0,0.013759175141103419
1392.0,0.013583775622156676
1391.0,0.013427237259928886
1390.0,0.013271461238939037
1389.0,0.013100856944310253
1388.0,0.01291829471107225
1387.0,0.012752673489285177
1386.0,0.012630455346542342
1385.0,0.012551510679503776
1384.0,0.012510267428600902
1383.0,0.012511330985844836
1382.0,0.012556334207559524
1381.0,0.012630599222751173
1380.0,0.01270765835673206
1379.0,0.012754983869788537
1378.0,0.012735077621335036
1377.0,0.012626890624069052
1376.0,0.01244267106426153
1375.0,0.012225786432942032
1374.0,0.012028150244707731
1373.0,0.011881547925377562
1372.0,0.011785922407900024
1371.0,0.011719713748738066
1370.0,0.011654027683003377
1369.0,0.01156303768144837
1368.0,0.01144589246845061
1367.0,0.011322569552810219
1366.0,0.011201878246818404
1365.0,0.011070522336475637
1364.0,0.01091934400490153
1363.0,0.010763076113803257
1362.0,0.010625656329740392
1361.0,0.010516113359228627
1360.0,0.010429636354049063
1359.0,0.010360819518232494
1358.0,0.010306123410636562
1357.0,0.010262268226992216
1356.0,0.01022956205528439
1355.0,0.010207315778444326
1354.0,0.01018429096545054
1353.0,0.010148156576424892
1352.0,0.01009980051725709
1351.0,0.010049282697606132
1350.0,0.009994995929542148
1349.0,0.009923227537208696
1348.0,0.009834696900203402
1347.0,0.009743825331525692
1346.0,0.009659263380941719
1345.0,0.009579918777910208
1344.0,0.009508235595578542
1343.0,0.009445352824378795
1342.0,0.009377454905131876
1341.0,0.009285304069199316
1340.0,0.009173551835323264
1339.0,0.009070603833449398
1338.0,0.008988295921356526
1337.0,0.00891036669290188
1336.0,0.008825807365231614
1335.0,0.008742004690602882
1334.0,0.008665382621388202
1333.0,0.00859285532393646
1332.0,0.008525353466562904
1331.0,0.008470831267061902
1330.0,0.008427645366934149
1329.0,0.008383989492514378
1328.0,0.00833863432690818
1327.0,0.008304391242096964
1326.0,0.00828558593949218
1325.0,0.008270693845229321
1324.0,0.00825212995121296
1323.0,0.008233179496320528
1322.0,0.008215931752336852
1321.0,0.008197580107164627
1320.0,0.008181184384447355
1319.0,0.008173468075608797
1318.0,0.008170715346859285
1317.0,0.008164323373867684
1316.0,0.008158928973143768
1315.0,0.00816618796542487
1314.0,0.008182193070456246
1313.0,0.008189349838328289
1312.0,0.008183735927962383
1311.0,0.008181571382994177
1310.0,0.008192179524869782
1309.0,0.00820436394196008
1308.0,0.008203146206542297
1307.0,0.008186942536199676
1306.0,0.008163208298198471
1305.0,0.00813798261499909
1304.0,0.008114864781357577
1303.0,0.00809238001184936
1302.0,0.008061569022682343
1301.0,0.008014593291981842
1300.0,0.007957002936768447
1299.0,0.00790163326537642
1298.0,0.007852680377191178
1297.0,0.007806103526494997
1296.0,0.007763615029155737
1295.0,0.0077323805018640005
1294.0,0.0077109383376634325
1293.0,0.00768956824149946
1292.0,0.0076641580239403505
1291.0,0.007638172128902122
1290.0,0.007612777769945008
1289.0,0.007587551066069563
1288.0,0.007568777240027386
1287.0,0.00756223536950444
1286.0,0.007559373520626524
1285.0,0.007546882910093578
1284.0,0.007528569975099875
1283.0,0.007522185840927179
1282.0,0.007534950171249402
1281.0,0.007556470667448039
1280.0,0.00757769932135003
1279.0,0.007601422935667505
1278.0,0.007630748349034594
1277.0,0.0076622239365574
1276.0,0.007694810011129946
1275.0,0.007734212092030117
1274.0,0.007783896276762469
1273.0,0.007841634070619743
1272.0,0.007906682277094098
1271.0,0.007980770826001678
1270.0,0.00806036268004243
1269.0,0.008137727177534247
1268.0,0.008211234154422055
1267.0,0.00828619024502321
1266.0,0.008366347413116901
1265.0,0.008452362371616394
1264.0,0.008546175917037635
1263.0,0.008648673086606577
1262.0,0.00875490124480137
1261.0,0.008859400516202855
1260.0,0.008964861511367928
1259.0,0.009078012887322379
1258.0,0.009200142749597632
1257.0,0.009329888476594128
1256.0,0.009470269356929654
1255.0,0.009624633833043947
1254.0,0.009789615265658393
1253.0,0.009959884379384774
1252.0,0.010135084468247475
1251.0,0.010314816963599637
1250.0,0.010492995950178635
1249.0,0.010665661466094125
1248.0,0.010838195340411628
1247.0,0.011015994697585496
1246.0,0.011194141847223282
1245.0,0.011365279405900834
1244.0,0.011531621786929644
1243.0,0.011700206040334716
1242.0,0.011870641698782785
1241.0,0.012036191538364677
1240.0,0.012193450490716823
1239.0,0.01234393849839253
1238.0,0.012489741841999632
1237.0,0.012633565085706927
1236.0,0.012779177273167665
1235.0,0.012925379601724442
1234.0,0.013062440627275365
1233.0,0.01318081002024615
1232.0,0.01328213099271926
1231.0,0.013377680182579874
1230.0,0.013477095069666347
1229.0,0.013580639544730613
1228.0,0.01368065880833838
1227.0,0.01376892855524496
1226.0,0.013844375272913777
1225.0,0.01391452234540606
1224.0,0.013987933035371304
1223.0,0.014066110539220363
1222.0,0.014144714909363434
1221.0,0.01421989688067295
1220.0,0.01428942804788932
1219.0,0.014350502717155482
1218.0,0.014402563747132023
1217.0,0.014450851434492436
1216.0,0.01450088009834577
1215.0,0.014550416219838571
1214.0,0.014592861819486557
1213.0,0.01462787944273252
1212.0,0.014662303528638652
1211.0,0.014700557849470847
1210.0,0.01474018266814003
1209.0,0.01477723350523669
1208.0,0.01481144182521376
1207.0,0.014846224765077819
1206.0,0.014887262517666242
1205.0,0.01493898139086567
1204.0,0.014998378943181036
1203.0,0.015055099319216218
1202.0,0.015102507437137213
1201.0,0.01514522759158269
1200.0,0.015189990190916922
1199.0,0.015233446463088794
1198.0,0.015266795345046748
1197.0,0.015289226036173748
1196.0,0.015308334872733677
1195.0,0.015330005101151713
1194.0,0.015355572712104668
1193.0,0.015385860479812226
1192.0,0.015419325905742649
1191.0,0.015448082318108854
1190.0,0.015465251390097037
1189.0,0.015476061486229684
1188.0,0.015494042133482808
1187.0,0.01552715379632523
1186.0,0.015574686297445725
1185.0,0.015635087035289548
1184.0,0.01570643157273409
1183.0,0.015779365887019278
1182.0,0.01584080201337351
1181.0,0.01588814321081106
1180.0,0.01593294313837438
1179.0,0.015989040782009405
1178.0,0.01606259676493617
1177.0,0.016152201351166986
1176.0,0.016249893726632828
1175.0,0.01634173673849721
1174.0,0.01641700752646059
1173.0,0.016479659569520876
1172.0,0.016544378950006912
1171.0,0.016621136265511195
1170.0,0.016709494006145
1169.0,0.01680563375818575
1168.0,0.01690621000362795
1167.0,0.01700548255705439
1166.0,0.017097521645511392
1165.0,0.017182429371898417
1164.0,0.017263228253089815
1163.0,0.017337210728311653
1162.0,0.01739926565628249
1161.0,0.01745468782094134
1160.0,0.01751972970740818
1159.0,0.017605129476731412
1158.0,0.01770412119215228
1157.0,0.017800709769115255
1156.0,0.017886356972138827
1155.0,0.017964861795273866
1154.0,0.01804233317754815
1153.0,0.018116367851144597
1152.0,0.018179403603038536
1151.0,0.018233758894351183
1150.0,0.018296629689314742
1149.0,0.01838207224985586
1148.0,0.01848150733010134
1147.0,0.018572675446203186
1146.0,0.018647315263978594
1145.0,0.018717994459410515
1144.0,0.018796201663347632
1143.0,0.018877822222473077
1142.0,0.0189553994865427
1141.0,0.019031646921302613
1140.0,0.01911315744520722
1139.0,0.019201600941340883
1138.0,0.019298272849562575
1137.0,0.01940683611493452
1136.0,0.01952434332446118
1135.0,0.019639701658237783
1134.0,0.01974853954756331
1133.0,0.01985991410688445
1132.0,0.019982519130404854
1131.0,0.02011625472290418
1130.0,0.020263485605165932
1129.0,0.020434083581079128
1128.0,0.020629404614668532
1127.0,0.02083399792400264
1126.0,0.02103459016740018
1125.0,0.021236771116259504
1124.0,0.021452855323223056
1123.0,0.02168424900463811
1122.0,0.021925264396555382
1121.0,0.022173349533906227
1120.0,0.022427605000083565
1119.0,0.022689672384884233
1118.0,0.02297169562746092
1117.0,0.023285948708599985
1116.0,0.023619452706794435
1115.0,0.023939543734358967
1114.0,0.024234946959359415
1113.0,0.02452902481866147
1112.0,0.02484010563965682
1111.0,0.025153589135311454
1110.0,0.02544743649781029
1109.0,0.02571939332847468
1108.0,0.02597222133077626
1107.0,0.026200755788559096
1106.0,0.026414529582388088
1105.0,0.026644461346679596
1104.0,0.02690457176223958
1103.0,0.02717236043519613
1102.0,0.027426804615304216
1101.0,0.027678516805222653
1100.0,0.027939426830210085
1099.0,0.02819240074475316
1098.0,0.028417466707034184
1097.0,0.028623002051081023
1096.0,0.028826110687127454
1095.0,0.029024260677607105
1094.0,0.029209527471576617
1093.0,0.029386594488659122
1092.0,0.029555395097436314
1091.0,0.02970133510822122
1090.0,0.029823201488955196
1089.0,0.029942954538518522
1088.0,0.03006756389425618
1087.0,0.030171036071807072
1086.0,0.030235832334571423
1085.0,0.030281372672314545
1084.0,0.030328631599374635
1083.0,0.030367888097484336
1082.0,0.030385740354142023
1081.0,0.030392740402290667
1080.0,0.0303969115461313
1079.0,0.030377634504145323
1078.0,0.030314646638603684
1077.0,0.03022177750895659
1076.0,0.030128686345133333
1075.0,0.030048497042656816
1074.0,0.02997951756709468
1073.0,0.029916711658468993
1072.0,0.02984648798892285
1071.0,0.02975199817060975
1070.0,0.029636860859300562
1069.0,0.029522884590410123
1068.0,0.029417041420111874
1067.0,0.029305617872689572
1066.0,0.029185947827168192
1065.0,0.029073511017310108
1064.0,0.028969690748156716
1063.0,0.028854110054918773
1062.0,0.028719725604549808
1061.0,0.028585207394854185
1060.0,0.028461073788561525
1059.0,0.028333789643652497
1058.0,0.02819616492904215
1057.0,0.028064042020740143
1056.0,0.02794788029956488
1055.0,0.027833695816428923
1054.0,0.02770801374848788
1053.0,0.02757990032354616
1052.0,0.02746178773630257
1051.0,0.027348250869860986
1050.0,0.027231123726313353
1049.0,0.027116277421285043
1048.0,0.027011010217378395
1047.0,0.026914861045951442
1046.0,0.026828703715694582
1045.0,0.026749960497171904
1044.0,0.02665790207028703
1043.0,0.026528773411356413
1042.0,0.026368770797066794
1041.0,0.02620865381998887
1040.0,0.026063076374692868
1039.0,0.025919913135141907
1038.0,0.025771204240339095
1037.0,0.025625535963938285
1036.0,0.025484002099650967
1035.0,0.025332972390214994
1034.0,0.02517031223925836
1033.0,0.02501210786472586
1032.0,0.02486158404210903
1031.0,0.024694294042083363
1030.0,0.0244856729067616
1029.0,0.02423321509294895
1028.0,0.023941809396740555
1027.0,0.023608137517120754
1026.0,0.02323159311435741
1025.0,0.02282490886254247
1024.0,0.022405557121577192
1023.0,0.0219894555600234
1022.0,0.021595336305981625
1021.0,0.021238659046617443
1020.0,0.020916063334969776
1019.0,0.020608637471424586
1018.0,0.020306033908671098
1017.0,0.020019213488279394
1016.0,0.01976827076590012
1015.0,0.0195667552860686
1014.0,0.019417040845372737
1013.0,0.019310211795254273
1012.0,0.019229171636545174
1011.0,0.0191605853086527
1010.0,0.019104074446845438
1009.0,0.019060588215783113
1008.0,0.019013496228111576
1007.0,0.018933711436717033
1006.0,0.01880393403925295
1005.0,0.018625912463158614
1004.0,0.018405002300400642
1003.0,0.01814327405189661
1002.0,0.017848838963775118
1001.0,0.01753553563253913
1000.0,0.01720947180239886
999.0,0.016868381461783422
998.0,0.016516282385553454
997.0,0.016166532037510995
996.0,0.015828216485808563
995.0,0.015500408610250007
994.0,0.015181796911547623
993.0,0.014876462333830946
992.0,0.014588429732963884
991.0,0.014318524558457727
990.0,0.014067162649280457
989.0,0.013832451995834726
988.0,0.013605774175043214
987.0,0.013378410434552072
986.0,0.013154055691377679
985.0,0.012945902357175285
984.0,0.01275848876710451
983.0,0.012579898467792835
982.0,0.012395422808234628
981.0,0.012203137458000769
980.0,0.012012517180524797
979.0,0.011832771754966297
978.0,0.011666239680995366
977.0,0.011509462938637378
976.0,0.011356935322714434
975.0,0.011205210618738953
974.0,0.011054802261347762
973.0,0.010906317123635111
972.0,0.010755204024080475
971.0,0.010594682362628515
970.0,0.010425488426585748
969.0,0.010258776811251561
968.0,0.010106525369803616
967.0,0.009971316280568828
966.0,0.00984743882236643
965.0,0.009728962236392549
964.0,0.009612350298433374
963.0,0.009492126230104241
962.0,0.009360513932169738
961.0,0.009215946201303468
960.0,0.009069416188429982
959.0,0.00893690718398245
958.0,0.008823847137406169
957.0,0.008720706750827232
956.0,0.008616566340744229
955.0,0.008513566008054795
954.0,0.008424008238535457
953.0,0.008355586366510771
952.0,0.008304727411693169
951.0,0.008263510210479004
950.0,0.008226755576578112
949.0,0.008190212134636173
948.0,0.008147173936567987
947.0,0.008093004493657975
946.0,0.00803250039906276
945.0,0.0079778329214234
944.0,0.007937387722864547
943.0,0.007908614420384383
942.0,0.007882765628386332
941.0,0.00785485180554215
940.0,0.007827459438711899
939.0,0.007806335038300211
938.0,0.007794139252725181
937.0,0.0077873233250306696
936.0,0.007776604430883887
935.0,0.00775074160126871
934.0,0.007703193944076488
933.0,0.007637547958197086
932.0,0.00756625380435008
931.0,0.007503155423913738
930.0,0.007455441152549848
929.0,0.007420001767656682
928.0,0.007385984849020614
927.0,0.007342503903320962
926.0,0.00728765423635961
925.0,0.0072312125681362
924.0,0.007186540079280056
923.0,0.007159151647783687
922.0,0.007144704836907295
921.0,0.007137659671687488
920.0,0.007137676667894201
919.0,0.007145992684408478
918.0,0.0071604433348929405
917.0,0.00717792731405956
916.0,0.007198173338102161
915.0,0.007220212474827906
914.0,0.00723724522648172
913.0,0.007239245682782433
912.0,0.0072185896205746
911.0,0.007169415403879756
910.0,0.007085067117922386
909.0,0.006963230943291328
908.0,0.006813695881660567
907.0,0.006654807286384224
906.0,0.006499738929716248
905.0,0.006350175020287162
904.0,0.006204398565271364
903.0,0.0060649261306180546
902.0,0.005934545307078116
901.0,0.0058105855113371845
900.0,0.005687219988842094
899.0,0.005559255108645158
898.0,0.005421774598510487
897.0,0.005273527269512281
896.0,0.005125097244252277
895.0,0.004995416099758201
894.0,0.004891949423806984
893.0,0.004799877526293052
892.0,0.004699467129607775
891.0,0.004590755151563826
890.0,0.00449422440619664
889.0,0.0044301765602132205
888.0,0.004403877405944678
887.0,0.004407745471606923
886.0,0.0044313530566380665
885.0,0.004470536979007863
884.0,0.0045299998363489
883.0,0.00461520770903944
882.0,0.004722348507361942
881.0,0.00484351034731643
880.0,0.004982303235477095
879.0,0.005151518300740631
878.0,0.005347467170451639
877.0,0.00553799144322204
876.0,0.005688085961277666
875.0,0.005790120477844468
874.0,0.005854971780549707
873.0,0.005876078001968295
872.0,0.005819634115263541
871.0,0.005659094120043281
870.0,0.005411373724515228
869.0,0.005131395771108677
868.0,0.004876201528063428
867.0,0.004676648384108905
866.0,0.004531403320986673
865.0,0.004419534775069428
864.0,0.004322487862912507
863.0,0.004237134338273633
862.0,0.004167488653185407
861.0,0.004108595335939626
860.0,0.004046234591787885
859.0,0.003971502416534095
858.0,0.003887399485820236
857.0,0.0037988205305329314
856.0,0.0037028615621912467
855.0,0.0035931365284472324
854.0,0.0034704278015757276
853.0,0.0033472224884044197
852.0,0.003243945741075279
851.0,0.00317843255773537
850.0,0.003152214757085811
849.0,0.003147057370117194
848.0,0.0031413414324411703
847.0,0.003130992149076521
846.0,0.003129245813590694
845.0,0.0031454202700621266
844.0,0.0031711905407650065
843.0,0.0031918014928869094
842.0,0.0032058242358858607
841.0,0.0032269998342898763
840.0,0.003265867673190056
839.0,0.003314651832178866
838.0,0.0033544494492098453
837.0,0.0033760009715587905
836.0,0.0033877966218910337
835.0,0.0034010088150331803
834.0,0.0034127663544062953
833.0,0.0034141603363691073
832.0,0.003414416785546411
831.0,0.003443541167497075
830.0,0.003518763594965623
829.0,0.003613271068597731
828.0,0.003673837982855232
827.0,0.00367556866131658
826.0,0.0036507689469044945
825.0,0.003654638472915594
824.0,0.0037088797362679338
823.0,0.003789741554328768
822.0,0.003864891095995703
821.0,0.003926124983482876
820.0,0.003984406582533816
819.0,0.0040473550852805715
818.0,0.004110381077019665
817.0,0.004165807408985367
816.0,0.0042133007402985236
815.0,0.0042568135161103506
814.0,0.004292970246606569
813.0,0.004310660130010286
812.0,0.004308207582212786
811.0,0.004304999402902772
810.0,0.004324877225002558
809.0,0.004369151509209638
808.0,0.004417509145530558
807.0,0.004456937710538638
806.0,0.004497190047852623
805.0,0.004552551956319997
804.0,0.004622122501294252
803.0,0.004697675716691165
802.0,0.0047775499048459905
801.0,0.004856740593029258
800.0,0.004911816155628893
799.0,0.004917497461829231
798.0,0.0048807539582665736
797.0,0.004840433826192592
796.0,0.004826113415321985
795.0,0.00482980427259044
794.0,0.0048240946219377644
793.0,0.004797768164100366
792.0,0.0047653656273647284
791.0,0.004747308179529378
790.0,0.004747191551474555
789.0,0.004746470525429014
788.0,0.004719395084118231
787.0,0.004656246803339504
786.0,0.0045734317584079035
785.0,0.004497923250680517
784.0,0.004442419435814644
783.0,0.004399266022765448
782.0,0.004355352452599215
781.0,0.004306140868201691
780.0,0.00425627565077125
779.0,0.0042131488724620435
778.0,0.004180830063031441
777.0,0.00415604270875811
776.0,0.004129772639646097
775.0,0.004095653595123927
774.0,0.004054687796283509
773.0,0.0040095480883781
772.0,0.003960908093091034
771.0,0.003914215039442755
770.0,0.0038806798130635103
769.0,0.003862217777972448
768.0,0.0038449548506757757
767.0,0.003822000582924147
766.0,0.003814872593333433
765.0,0.0038521226480225206
764.0,0.003927763155917573
763.0,0.004000901587803951
762.0,0.0040408907722207215
761.0,0.004054823629109552
760.0,0.004063978387155741
759.0,0.004073375295014057
758.0,0.0040775654116217575
757.0,0.004080644077657703
756.0,0.004093842744232469
755.0,0.004120386810873802
754.0,0.004154375560689207
753.0,0.004187882342224419
752.0,0.004209143266296527
751.0,0.004202428419356719
750.0,0.004163321611196674
749.0,0.004110660426943724
748.0,0.004073357635319611
747.0,0.0040667737459270225
746.0,0.004085009506908531
745.0,0.00410849075964999
744.0,0.004112863409059373
743.0,0.00408120490542443
742.0,0.004021785138658522
741.0,0.0039709772454619395
740.0,0.003968403863255421
739.0,0.004028282764500093
738.0,0.004137020186612512
737.0,0.004276810842599201
736.0,0.004460125029198783
735.0,0.00476351941680668
734.0,0.005325364614459033
733.0,0.006256929105695887
732.0,0.007492923260897228
731.0,0.00872137900342103
730.0,0.009531387729286266
729.0,0.009714147586294086
728.0,0.00942584016857946
727.0,0.009038705938443536
726.0,0.008861822173863186
725.0,0.009010563999511983
724.0,0.009487997398477
723.0,0.010313107175052072
722.0,0.011507238288832506
721.0,0.012928753047476031
720.0,0.014166985125861543
719.0,0.014748497802609516
718.0,0.014502873231928896
717.0,0.013618505320341444
716.0,0.01239534672122395
715.0,0.011068390571783604
714.0,0.00979533170961323
713.0,0.008684735406543149
712.0,0.007796193185415974
711.0,0.007132487550978584
710.0,0.006651617247930463
709.0,0.006296480923890065
708.0,0.006021857349502533
707.0,0.005804364098845957
706.0,0.005639242702806102
705.0,0.005528693228667607
704.0,0.005467627168298369
703.0,0.005440289079551259
702.0,0.005428460804583755
701.0,0.0054142863781985046
700.0,0.0053750342303010915
699.0,0.005289591303090098
698.0,0.005162714006872482
697.0,0.005033086486836527
696.0,0.004941464104918835
695.0,0.004895606700883315
694.0,0.004872438222992468
693.0,0.004845031077024711
692.0,0.004798029002980431
691.0,0.004725580734758853
690.0,0.004634638225007915
689.0,0.004549792164820982
688.0,0.004495097668584028
687.0,0.004468059041444157
686.0,0.004445707732548371
685.0,0.004414690414468613
684.0,0.004380168075517301
683.0,0.004349231223433923
682.0,0.004324150502018233
681.0,0.004311406318597838
680.0,0.004320083469277735
679.0,0.004345887174806398
678.0,0.004369617490115569
677.0,0.004379445061435129
676.0,0.0043808329603641765
675.0,0.0043815327683887385
674.0,0.0043781136550788205
673.0,0.004353878418833479
672.0,0.004287733104564222
671.0,0.004158221313866848
670.0,0.003963478138242622
669.0,0.0037400123735790505
668.0,0.003581129246601823
667.0,0.0036219893304676766
666.0,0.0037876406078816496
665.0,0.0038928495942871857
664.0,0.003917247448011779
663.0,0.003919406548884261
662.0,0.003934223669955222
661.0,0.003952311767297158
660.0,0.003949620404166403
659.0,0.003929416479496881
658.0,0.003914615550890366
657.0,0.00391184127402569
656.0,0.003891167210532124
655.0,0.0038214464524227616
654.0,0.0037228897781167586
653.0,0.003659842967988094
652.0,0.003671900872171018
651.0,0.0037293272016541493
650.0,0.0037665312524587883
649.0,0.0037533070946996726
648.0,0.003716346475443723
647.0,0.0036935299543961863
646.0,0.00368800672463279
645.0,0.003672767070805511
644.0,0.003631548496971523
643.0,0.0035845103441088377
642.0,0.003565516841546639
641.0,0.0035771960876048916
640.0,0.0035835313523979607
639.0,0.00355508903668501
638.0,0.0035108588181971302
637.0,0.0034954863615210535
636.0,0.0035197862656894813
635.0,0.0035437046653138526
634.0,0.003519820770604278
633.0,0.0034395548314385873
632.0,0.003332707116365175
631.0,0.0032449566742852563
630.0,0.0032175376984343567
629.0,0.003261486729360181
628.0,0.003342112125905591
627.0,0.003397778031220315
626.0,0.0033881127060175226
625.0,0.003321196702427129
624.0,0.0032272426740021353
623.0,0.00312616207057983
622.0,0.0030348298255069347
621.0,0.002985798028131535
620.0,0.003016392759897249
619.0,0.0031328782334193693
618.0,0.0032855792717983723
617.0,0.0033925789906991584
616.0,0.0034044313036730306
615.0,0.0033511436536615025
614.0,0.0033155785358047803
613.0,0.0033501619715051636
612.0,0.003426567040494013
611.0,0.003475026471549807
610.0,0.0034699903621156023
609.0,0.003454746377920752
608.0,0.003474350910045011
607.0,0.003514699314333857
606.0,0.003524920713735589
605.0,0.003479100471443385
604.0,0.003397615167062556
603.0,0.003320772302564959
602.0,0.0032723346560702606
601.0,0.0032391090092807016
600.0,0.00318862174121691
599.0,0.0031226807490530514
598.0,0.0031011635087411643
597.0,0.003182671108550616
596.0,0.0033531215487674192
595.0,0.003534200260592155
594.0,0.0036567968962069094
593.0,0.0037058126903825126
592.0,0.0036970989920073697
591.0,0.0036595467513680074
590.0,0.0036362055048460226
589.0,0.003643006814539003
588.0,0.003634142196611491
587.0,0.0035611606721661863
586.0,0.003462532415481225
585.0,0.0034228373398709367
584.0,0.0034338247863688904
583.0,0.0033909900043018124
582.0,0.003261559417889562
581.0,0.0031592076953514715
580.0,0.0031911152010459815
579.0,0.003316303948671011
578.0,0.0034264264815999246
577.0,0.0034897485533158003
576.0,0.0035272353575231813
575.0,0.0035288291775399643
574.0,0.003494802805619937
573.0,0.0034821698019712986
572.0,0.0035175821567045833
571.0,0.003525115077063559
570.0,0.0034298567129399764
569.0,0.003295648660345006
568.0,0.003252100490345019
567.0,0.0033137172585453803
566.0,0.003367597927154029
565.0,0.003326956967556421
564.0,0.0032088292351204473
563.0,0.0030783079011557826
562.0,0.002991830722361751
561.0,0.002980820681761639
560.0,0.003041570818630719
559.0,0.0031353651301633673
558.0,0.0032290426889052554
557.0,0.003325557952033674
556.0,0.0034229886628317097
555.0,0.0034779301146445705
554.0,0.0034575073220738974
553.0,0.0033843661562485694
552.0,0.0032895491415128007
551.0,0.0031895520198333156
550.0,0.003131951034256541
