cm-1,A
4000.0,0.0008996945819598062
3999.0,0.0008928330088863556
3998.0,0.0008901864752438081
3997.0,0.0008914557982610551
3996.0,0.0008947811114007388
3995.0,0.0008985828421310361
3994.0,0.0009027056975144808
3993.0,0.0009074539151147044
3992.0,0.000912622613387763
3991.0,0.0009177323240968731
3990.0,0.00092246666772421
3989.0,0.0009258997495607793
3988.0,0.0009256697867255654
3987.0,0.0009194141587010604
3986.0,0.0009078557627210842
3985.0,0.0008956053350639278
3984.0,0.0008874959284063083
3983.0,0.0008849244287656368
3982.0,0.0008857713125260086
3981.0,0.0008874079107612375
3980.0,0.0008891813265761539
3979.0,0.0008917377001417572
3978.0,0.0008958989902919635
3977.0,0.00090218517772189
3976.0,0.0009100302766288939
3975.0,0.0009170789096248758
3974.0,0.0009202312759869608
3973.0,0.0009190287756998088
3972.0,0.00091712561970704
3971.0,0.000918960651551619
3970.0,0.000924838903395289
3969.0,0.000930240681400464
3968.0,0.0009307258594312725
3967.0,0.0009259423243897736
3966.0,0.0009192890218844411
3965.0,0.0009149154936774736
3964.0,0.0009152948143891422
3963.0,0.0009204091179257912
3962.0,0.0009271924140878099
3961.0,0.0009308462835487196
3960.0,0.0009281126828895149
3959.0,0.0009203309427612502
3958.0,0.0009132190545459756
3957.0,0.0009122308701015238
3956.0,0.0009182192582171522
3955.0,0.0009263445193286373
3954.0,0.0009298558314704518
3953.0,0.0009258082269157667
3952.0,0.0009168930593082877
3951.0,0.000908788215759767
3950.0,0.0009052180188027863
3949.0,0.0009050875499138655
3948.0,0.0009045827252659538
3947.0,0.0009010250219356072
3946.0,0.0008951296958141838
3945.0,0.0008903185001466756
3944.0,0.0008888571104614827
3943.0,0.0008897020673791739
3942.0,0.000890370178337852
3941.0,0.0008902521347452313
3940.0,0.0008919869733678126
3939.0,0.0008980061839746704
3938.0,0.0009073322651562458
3937.0,0.0009164088080738917
3936.0,0.0009220171815428283
3935.0,0.0009233362782194443
3934.0,0.0009207431743798889
3933.0,0.0009148277967734792
3932.0,0.0009073053851002544
3931.0,0.0009016361844921108
3930.0,0.000900370601242081
3929.0,0.0009026691037729989
3928.0,0.0009067265500098984
3927.0,0.0009128506089981945
3926.0,0.0009226528929750246
3925.0,0.0009347034447856105
3924.0,0.000944821704226315
3923.0,0.0009499678560884583
3922.0,0.00094926387653726
3921.0,0.000942726738141371
3920.0,0.0009306253175740764
3919.0,0.0009154829982552727
3918.0,0.0009027692193810475
3917.0,0.0008974075504252317
3916.0,0.0009002759563380967
3915.0,0.0009077701869750284
3914.0,0.0009147081715549306
3913.0,0.000917781809843009
3912.0,0.0009178001652165469
3911.0,0.0009188415553182065
3910.0,0.0009246247448776346
3909.0,0.0009350921659212943
3908.0,0.0009472863945123042
3907.0,0.0009578016193564991
3906.0,0.0009648610734465609
3905.0,0.0009670684566980784
3904.0,0.0009622410932802017
3903.0,0.0009484832919981678
3902.0,0.0009268954076005506
3901.0,0.0009039785153510177
3900.0,0.0008896070858162297
3899.0,0.0008910166885521568
3898.0,0.0009067404071752307
3897.0,0.0009268343132483748
3896.0,0.0009395112523209455
3895.0,0.0009383885665207054
3894.0,0.0009267466552091799
3893.0,0.0009157171092720956
3892.0,0.0009156270358709477
3891.0,0.0009249570528329656
3890.0,0.0009333265730547958
3889.0,0.0009345221304131964
3888.0,0.0009309429820981902
3887.0,0.0009273938958668675
3886.0,0.0009254925202738917
3885.0,0.0009241936490962232
3884.0,0.000923187213185169
3883.0,0.0009217639583580326
3882.0,0.0009162782147576019
3881.0,0.0009048816833182563
3880.0,0.0008936576326267986
3879.0,0.0008919931935430976
3878.0,0.0009028652570529185
3877.0,0.0009215605228790934
3876.0,0.000940436072744303
3875.0,0.0009509760252997129
3874.0,0.000947382701061387
3873.0,0.0009329455503867745
3872.0,0.000919618524204567
3871.0,0.0009179985630623604
3870.0,0.0009285272773146887
3869.0,0.0009422617059213303
3868.0,0.00095158932671646
3867.0,0.0009551540390685875
3866.0,0.0009530462441372112
3865.0,0.0009456357829828615
3864.0,0.0009372250068898167
3863.0,0.0009338481673930757
3862.0,0.0009376965187500755
3861.0,0.000946732482392599
3860.0,0.0009582661227398753
3859.0,0.0009686392080025513
3858.0,0.000973396673355068
3857.0,0.0009693402490579118
3856.0,0.0009578106716098198
3855.0,0.0009450114849219385
3854.0,0.0009371819775381555
3853.0,0.0009327044967701262
3852.0,0.000928036937324469
3851.0,0.0009248323887517586
3850.0,0.000924971008797168
3849.0,0.0009288107104032241
3848.0,0.0009358742738077379
3847.0,0.0009461969264720608
3846.0,0.0009585966338716877
3845.0,0.0009688553701269909
3844.0,0.0009722820700282042
3843.0,0.000965872313363893
3842.0,0.0009512809910334464
3841.0,0.0009352733456640368
3840.0,0.0009260478301968953
3839.0,0.0009282005074721868
3838.0,0.0009393847631903023
3837.0,0.0009512039638690179
3836.0,0.0009574464060927018
3835.0,0.0009592235836232963
3834.0,0.0009609074703403838
3833.0,0.0009642236513788685
3832.0,0.0009669348270592479
3831.0,0.0009665352130524517
3830.0,0.000963983140681599
3829.0,0.0009625990225807695
3828.0,0.0009648805680645819
3827.0,0.0009696638256136971
3826.0,0.0009728317558993478
3825.0,0.0009727467312681442
3824.0,0.0009733012389760275
3823.0,0.0009794607821832055
3822.0,0.0009906048033883632
3821.0,0.0009983884555868146
3820.0,0.0009982560342210955
3819.0,0.0009967037566845642
3818.0,0.0010001084160707143
3817.0,0.0010062294428457817
3816.0,0.001006250744250754
3815.0,0.0009964423754864836
3814.0,0.0009846556352482174
3813.0,0.000979318537834889
3812.0,0.000979586332054627
3811.0,0.0009791316036598116
3810.0,0.0009755058491438245
3809.0,0.0009741782367906366
3808.0,0.000982936454959653
3807.0,0.001000628349983552
3806.0,0.0010153234699309308
3805.0,0.0010186305953437031
3804.0,0.0010122840357810314
3803.0,0.0010005208070057712
3802.0,0.0009860104833569598
3801.0,0.0009705204290508152
3800.0,0.0009579538065807663
3799.0,0.0009527325834502959
3798.0,0.0009559011177846413
3797.0,0.0009649660147081022
3796.0,0.0009759491667823065
3795.0,0.0009864862113999474
3794.0,0.0009959934020373389
3793.0,0.0010041108353757667
3792.0,0.0010103555655615495
3791.0,0.0010152432219478554
3790.0,0.0010195837929160333
3789.0,0.001023033552433689
3788.0,0.0010243207322372851
3787.0,0.0010231151180089444
3786.0,0.0010197690370161343
3785.0,0.0010138559144126716
3784.0,0.0010050982087460754
3783.0,0.0009962970341713647
3782.0,0.0009932421414735751
3781.0,0.0010006484089713098
3780.0,0.0010167881609576836
3779.0,0.0010329216707800344
3778.0,0.0010411941512703787
3777.0,0.0010416528463034294
3776.0,0.001039873967326077
3775.0,0.0010397331561756568
3774.0,0.0010419966874225905
3773.0,0.0010464558974707205
3772.0,0.0010530419890426657
3771.0,0.001059201336341931
3770.0,0.0010601674416012906
3769.0,0.0010545301317590652
3768.0,0.0010470710763574066
3767.0,0.0010436148208222405
3766.0,0.00104586888775149
3765.0,0.0010514670816705275
3764.0,0.0010584465176377983
3763.0,0.0010671930461869025
3762.0,0.0010768028857793582
3761.0,0.0010828505880603185
3760.0,0.001082042489926288
3759.0,0.0010780211434445524
3758.0,0.0010782517016953456
3757.0,0.0010856214000308684
3756.0,0.0010983821134894966
3755.0,0.0011145749494734301
3754.0,0.0011314685663476377
3753.0,0.0011439960043189991
3752.0,0.0011476280591926832
3751.0,0.0011451872218515811
3750.0,0.0011439834873347432
3749.0,0.0011436933617858997
3748.0,0.0011397567455633936
3747.0,0.001132078953392741
3746.0,0.0011232837595881234
3745.0,0.0011152078881196239
3744.0,0.0011091629164933637
3743.0,0.001107744781995405
3742.0,0.0011141788419697218
3741.0,0.0011274374613126316
3740.0,0.0011419606833957437
3739.0,0.0011512586917770155
3738.0,0.001151434530638937
3737.0,0.0011400322932918722
3736.0,0.0011162382131443445
3735.0,0.0010855919712089252
3734.0,0.0010603849954246639
3733.0,0.0010495253533190241
3732.0,0.0010523201470358612
3731.0,0.0010642864305790939
3730.0,0.0010842606071278199
3729.0,0.0011135862847460876
3728.0,0.0011495470526431042
3727.0,0.0011810652129872214
3726.0,0.0011963593485730282
3725.0,0.0011961896241790824
3724.0,0.0011924933509343144
3723.0,0.0011946524640286693
3722.0,0.0012028768872195243
3721.0,0.0012138632679475863
3720.0,0.0012271005498734923
3719.0,0.0012449323860549495
3718.0,0.0012683122812317269
3717.0,0.0012955496542649196
3716.0,0.001326436142337815
3715.0,0.0013624429528646927
3714.0,0.001402372618958239
3713.0,0.001440400929357346
3712.0,0.0014719934831333732
3711.0,0.001502193335905214
3710.0,0.0015415862494099035
3709.0,0.0015938581944183816
3708.0,0.0016529361005815355
3707.0,0.0017115470920521462
3706.0,0.0017694495144061424
3705.0,0.0018350047863472754
3704.0,0.0019192886519229144
3703.0,0.0020257256838869665
3702.0,0.002143904377988105
3701.0,0.00225679084731945
3700.0,0.0023560286228349768
3699.0,0.0024428631070803754
3698.0,0.0025169635628903273
3697.0,0.0025711500328985783
3696.0,0.0025986241187857012
3695.0,0.002601095664971599
3694.0,0.00258690857509722
3693.0,0.0025646218069685918
3692.0,0.0025413949786020477
3691.0,0.0025219066975204012
3690.0,0.0025043115688773796
3689.0,0.0024833667484679468
3688.0,0.002458887000582973
3687.0,0.0024366171893790054
3686.0,0.002420433270043359
3685.0,0.002409822184074071
3684.0,0.0024033405030787322
3683.0,0.002402531819997399
3682.0,0.002410658227093519
3681.0,0.0024273199992236494
3680.0,0.0024470430806953192
3679.0,0.002466492174949385
3678.0,0.0024896381220500903
3677.0,0.002522264441344612
3676.0,0.00255965023764699
3675.0,0.0025902167832889582
3674.0,0.002613302801533409
3673.0,0.0026371602617098117
3672.0,0.002665216496524599
3671.0,0.0026941579399644903
3670.0,0.0027213194458644363
3669.0,0.0027518745402061754
3668.0,0.002792352403560445
3667.0,0.0028393753496578364
3666.0,0.002884024981692352
3665.0,0.0029207487394319488
3664.0,0.0029513819470448188
3663.0,0.002981927561252624
3662.0,0.003015937451805572
3661.0,0.003052101169036068
3660.0,0.0030883047759064476
3659.0,0.0031252947772509813
3658.0,0.0031644363657103583
3657.0,0.003203433096437003
3656.0,0.0032359777454256493
3655.0,0.003258649988613269
3654.0,0.0032742420370855344
3653.0,0.0032877480962439053
3652.0,0.0033030033191063547
3651.0,0.003321856479270249
3650.0,0.003342129613962583
3649.0,0.0033584138379774055
3648.0,0.0033692362065967
3647.0,0.0033788409457084986
3646.0,0.003392438563402259
3645.0,0.0034123692873511023
3644.0,0.003437825103413352
3643.0,0.0034648111649476345
3642.0,0.003486985927504612
3641.0,0.0035002264650099806
3640.0,0.003506656134923826
3639.0,0.003512292777377219
3638.0,0.003521194626895873
3637.0,0.003534230631879497
3636.0,0.003552120601862799
3635.0,0.0035764030588163707
3634.0,0.003605696384353753
3633.0,0.003635816624212137
3632.0,0.0036650240457031767
3631.0,0.0036973282380808247
3630.0,0.003738220089214148
3629.0,0.0037849420048442235
3628.0,0.0038282605847609584
3627.0,0.003866829003071154
3626.0,0.00390583866782366
3625.0,0.003949751322880897
3624.0,0.004000980309092757
3623.0,0.0040601141909260025
3622.0,0.004125963442534963
3621.0,0.0041929440992840355
3620.0,0.004249333527116387
3619.0,0.004282973402110757
3618.0,0.004291331042942521
3617.0,0.004281141487925426
3616.0,0.004261609250777464
3615.0,0.004241784794443963
3614.0,0.004228738976681207
3613.0,0.0042240375231439075
3612.0,0.004222468007643897
3611.0,0.004217004798438633
3610.0,0.004206634339999554
3609.0,0.004198962616204606
3608.0,0.004204845032413703
3607.0,0.004228750437238004
3606.0,0.00426492749485333
3605.0,0.00430316046524243
3604.0,0.004335739434156577
3603.0,0.004360529414596176
3602.0,0.004380729299341349
3601.0,0.004401016042748164
3600.0,0.004423489603227365
3599.0,0.004446964991403881
3598.0,0.004470047904783697
3597.0,0.004494510007022194
3596.0,0.004525164730379927
3595.0,0.004563589114345183
3594.0,0.004604027551951902
3593.0,0.004638199546755438
3592.0,0.004663720740894547
3591.0,0.004686415733581195
3590.0,0.004715819607569682
3589.0,0.004756815948290128
3588.0,0.004802013393193527
3587.0,0.004838731909790805
3586.0,0.004865305749970974
3585.0,0.004890709153893262
3584.0,0.004921963366205143
3583.0,0.0049588536205636725
3582.0,0.004996613781311599
3581.0,0.0050314837531767196
3580.0,0.005065168844058584
3579.0,0.005103124018985306
3578.0,0.005148386829182191
3577.0,0.005197473702778553
3576.0,0.005243051288837697
3575.0,0.005279992104285494
3574.0,0.005309071244630384
3573.0,0.005335174754380146
3572.0,0.0053623400182035265
3571.0,0.005391254771419463
3570.0,0.005421420874799004
3569.0,0.005453800288817544
3568.0,0.005489549020739998
3567.0,0.005527136627507226
3566.0,0.005563874626524062
3565.0,0.005597743067916887
3564.0,0.0056275029260931956
3563.0,0.005654209855195933
3562.0,0.005681757415099896
3561.0,0.005714507049830602
3560.0,0.005752623541178153
3559.0,0.005790967007805156
3558.0,0.005824343307006444
3557.0,0.005853266647079672
3556.0,0.005883331362449479
3555.0,0.005918998730524376
3554.0,0.005958871565053217
3553.0,0.005997997087316288
3552.0,0.00603432700869169
3551.0,0.006069869072894648
3550.0,0.006105600547424717
3549.0,0.006138908456299587
3548.0,0.006166761724442488
3547.0,0.006189890372300297
3546.0,0.0062133856836218285
3545.0,0.006243541221343181
3544.0,0.006284569717604878
3543.0,0.0063365643934246655
3542.0,0.006394536194110744
3541.0,0.006449610124164956
3540.0,0.0064939541599606555
3539.0,0.006526765547705446
3538.0,0.006555234165583282
3537.0,0.006588145123692865
3536.0,0.0066283353008220755
3535.0,0.006672283971572827
3534.0,0.006716864987482078
3533.0,0.006763739733288464
3532.0,0.006816443711786585
3531.0,0.006874337784059388
3530.0,0.006930760155967634
3529.0,0.006977591319519074
3528.0,0.007011432258496328
3527.0,0.00703614969301033
3526.0,0.007060334261945755
3525.0,0.007092428450585142
3524.0,0.007135960403824108
3523.0,0.007187043682858475
3522.0,0.007236824351663335
3521.0,0.0072779511824520235
3520.0,0.0073100745071084244
3519.0,0.007339734595646722
3518.0,0.007374521259303667
3517.0,0.007416313190104917
3516.0,0.007460032439955277
3515.0,0.0074994098437216675
3514.0,0.007534158574120537
3513.0,0.007570709066114081
3512.0,0.007615350073215815
3511.0,0.007667167524023544
3510.0,0.007718855092082491
3509.0,0.007763840176863391
3508.0,0.007800174001252314
3507.0,0.007827499455463165
3506.0,0.007843838712813156
3505.0,0.007848266255563252
3504.0,0.007846278150736897
3503.0,0.007849005128106223
3502.0,0.007864356414873586
3501.0,0.007890290704581459
3500.0,0.007918570221892782
3499.0,0.007943421700389794
3498.0,0.00796511633446003
3497.0,0.007986396154110474
3496.0,0.008007915273022869
3495.0,0.008028594866734578
3494.0,0.008048807725183653
3493.0,0.008070231323066578
3492.0,0.008091753960533691
3491.0,0.008107907468868076
3490.0,0.008113677291761797
3489.0,0.00811062394188991
3488.0,0.00810707025049177
3487.0,0.008112313633240902
3486.0,0.008130554166239203
3485.0,0.00815834200572466
3484.0,0.008184991817591991
3483.0,0.008197367998666022
3482.0,0.008190595899256468
3481.0,0.008175734080867672
3480.0,0.00817248022424823
3479.0,0.008191226450572662
3478.0,0.008223847685943145
3477.0,0.008253401276555172
3476.0,0.008270791699770437
3475.0,0.00828013296123709
3474.0,0.008289016174070563
3473.0,0.008296900220032924
3472.0,0.008295879618142082
3471.0,0.00828235642536757
3470.0,0.008265336141998663
3469.0,0.00826090571535599
3468.0,0.008277300698673457
3467.0,0.008306979833864261
3466.0,0.008335763637934902
3465.0,0.008357708414086517
3464.0,0.008377694596577315
3463.0,0.00840082753593987
3462.0,0.008424700054809922
3461.0,0.008444360982994488
3460.0,0.00846015110328315
3459.0,0.008475919749488841
3458.0,0.008492081047820161
3457.0,0.008505446024538444
3456.0,0.008515448352948452
3455.0,0.008526165183536246
3454.0,0.008541418284965687
3453.0,0.00856017961179779
3452.0,0.00857781029730053
3451.0,0.008590610631597908
3450.0,0.00859903219768476
3449.0,0.008607820742024647
3448.0,0.008622741642362193
3447.0,0.00864512291465597
3446.0,0.008669998837722423
3445.0,0.008691461809889613
3444.0,0.008708528909674178
3443.0,0.008723937478187529
3442.0,0.008738621334263298
3441.0,0.00874997596389593
3440.0,0.008755821670451719
3439.0,0.008757917910271406
3438.0,0.008760927712296989
3437.0,0.008769264363206014
3436.0,0.008784671756474504
3435.0,0.008805097702890096
3434.0,0.008826341255838909
3433.0,0.008846110137333604
3432.0,0.008866074907435507
3431.0,0.008888418133323257
3430.0,0.008911226362569587
3429.0,0.008929814559361576
3428.0,0.008942498660004081
3427.0,0.008952575771396578
3426.0,0.008964306699523195
3425.0,0.008979450297147442
3424.0,0.0089978070881793
3423.0,0.009018066494579752
3422.0,0.009037118200517736
3421.0,0.009051175910943735
3420.0,0.009059532616930184
3419.0,0.009065693953372757
3418.0,0.009073620076319632
3417.0,0.0090840391484679
3416.0,0.00909506460318839
3415.0,0.009105072338478936
3414.0,0.009114060410594224
3413.0,0.00912292326288369
3412.0,0.00913197871840061
3411.0,0.009140020754748207
3410.0,0.009145362605805419
3409.0,0.00914883882100361
3408.0,0.009154794389727994
3407.0,0.00916687557708351
3406.0,0.009183045804804972
3405.0,0.009197210593585407
3404.0,0.00920597011173169
3403.0,0.009211646659687309
3402.0,0.009218285951335378
3401.0,0.009226988854772768
3400.0,0.009236278001397156
3399.0,0.009244727816151104
3398.0,0.009251464971200607
3397.0,0.0092557234251993
3396.0,0.009257724908639745
3395.0,0.009259560107948815
3394.0,0.009264461671969018
3393.0,0.009275289347209155
3392.0,0.009292700970624634
3391.0,0.009312898552871105
3390.0,0.00932777331983527
3389.0,0.009330533518841532
3388.0,0.009322722987371952
3387.0,0.009313711309714005
3386.0,0.009311341338207237
3385.0,0.009314356583837481
3384.0,0.009315894229504885
3383.0,0.009312541183094493
3382.0,0.00930719314961522
3381.0,0.009304114077263736
3380.0,0.009304439554773006
3379.0,0.009307122343279395
3378.0,0.009312328166863535
3377.0,0.009321962939116897
3376.0,0.009336464147155941
3375.0,0.009352028937355567
3374.0,0.009362497904312627
3373.0,0.009364644603850844
3372.0,0.009360778313591035
3371.0,0.009355397017504204
3370.0,0.009350308438946811
3369.0,0.009344593553265959
3368.0,0.009338442785321617
3367.0,0.009334185493183088
3366.0,0.00933325026107052
3365.0,0.009334831801338973
3364.0,0.009338379596348907
3363.0,0.009344658164519654
3362.0,0.009352696123136208
3361.0,0.009357764881698297
3360.0,0.009354804799340928
3359.0,0.00934348939558912
3358.0,0.009328681298849706
3357.0,0.00931637759778144
3356.0,0.009309730417479681
3355.0,0.009307639174942055
3354.0,0.009306052483114462
3353.0,0.009301541083836464
3352.0,0.009294642124419447
3351.0,0.009289229949407016
3350.0,0.009288086784011301
3349.0,0.009289954917755682
3348.0,0.009291122144906905
3347.0,0.009288319251023462
3346.0,0.00927933333153685
3345.0,0.009262701797724399
3344.0,0.009239054907491261
3343.0,0.009212602987566166
3342.0,0.009190214388852426
3341.0,0.009178478136602419
3340.0,0.00918037471276178
3339.0,0.009192585339040302
3338.0,0.009205789144104734
3337.0,0.009210384290994843
3336.0,0.009204157560863967
3335.0,0.009193396733444884
3334.0,0.009185425055072463
3333.0,0.009181646798142679
3332.0,0.009179008851006594
3331.0,0.009175806198331476
3330.0,0.009173375740367518
3329.0,0.009173203109060267
3328.0,0.009175134222056375
3327.0,0.009178479536647246
3326.0,0.00918261378162487
3325.0,0.009185626444638405
3324.0,0.009184104791547843
3323.0,0.009175684609762523
3322.0,0.009161617223709697
3321.0,0.00914618390081904
3320.0,0.009133691329070404
3319.0,0.009126305626866123
3318.0,0.009124312656374029
3317.0,0.009127213329451565
3316.0,0.009133367194252628
3315.0,0.0091387206258682
3314.0,0.00913780369338028
3313.0,0.009127743178780913
3312.0,0.009111065126528393
3311.0,0.009093472066959653
3310.0,0.009079132504980972
3309.0,0.009068940323293386
3308.0,0.009062210701019157
3307.0,0.009058005763920924
3306.0,0.009055141308655514
3305.0,0.009053144654195558
3304.0,0.009053178111060104
3303.0,0.009055588664346586
3302.0,0.00905637556652794
3301.0,0.009049255447712685
3300.0,0.009032873653236694
3299.0,0.009013605307449856
3298.0,0.008999275801459296
3297.0,0.00899182203275041
3296.0,0.008988127641114473
3295.0,0.008986101687443038
3294.0,0.008986680026956122
3293.0,0.008990313495493816
3292.0,0.008994507280888601
3291.0,0.008995833662737224
3290.0,0.00899270707845797
3289.0,0.008985271789711341
3288.0,0.008973977859158532
3287.0,0.008959637722147877
3286.0,0.00894441982158838
3285.0,0.008931314064449726
3284.0,0.008921773367594187
3283.0,0.008914073128654403
3282.0,0.008904800568837194
3281.0,0.008892536879583671
3280.0,0.008879442754049982
3279.0,0.008868351039365088
3278.0,0.008858709164443526
3277.0,0.008846756749538828
3276.0,0.008830220698693571
3275.0,0.00881171606779847
3274.0,0.008796383455318243
3273.0,0.008786330492009957
3272.0,0.00877805178367119
3271.0,0.00876544356782085
3270.0,0.008745432923853292
3269.0,0.008720969074522288
3268.0,0.008698678852220448
3267.0,0.008683318435843506
3266.0,0.008674169965025517
3265.0,0.008666404961591096
3264.0,0.008655313318273477
3263.0,0.008639296962430505
3262.0,0.008619973826166675
3261.0,0.00860033026675463
3260.0,0.008582156773358458
3259.0,0.008564682097238461
3258.0,0.008546244920728226
3257.0,0.00852723662076376
3256.0,0.008509697210885693
3255.0,0.008493514910921741
3254.0,0.008475538829467454
3253.0,0.00845433057837989
3252.0,0.008433588168340594
3251.0,0.008417904904710626
3250.0,0.00840674125444707
3249.0,0.008395838736974855
3248.0,0.008383590479769795
3247.0,0.008372051853716521
3246.0,0.00836117780273032
3245.0,0.008345988777571093
3244.0,0.008321574530193386
3243.0,0.008288795362500637
3242.0,0.008253651931727037
3241.0,0.008223024393338503
3240.0,0.008201748632967307
3239.0,0.008190744007213114
3238.0,0.008185432603109716
3237.0,0.008177357671812506
3236.0,0.00816002487507623
3235.0,0.008133938824615916
3234.0,0.008105620731295804
3233.0,0.008081923907648851
3232.0,0.008065185983567615
3231.0,0.008052609413775797
3230.0,0.008039534368136219
3229.0,0.00802353398470072
3228.0,0.008005414812755495
3227.0,0.007986520163501798
3226.0,0.007966672114615011
3225.0,0.007945942957992195
3224.0,0.007926698263570928
3223.0,0.00791113375795558
3222.0,0.007897278358351786
3221.0,0.007880265983762933
3220.0,0.007857770446317995
3219.0,0.007831838290587888
3218.0,0.0078052565992685445
3217.0,0.007778935174710967
3216.0,0.007753436053383005
3215.0,0.007730158500803722
3214.0,0.007709510514728797
3213.0,0.007689822843669576
3212.0,0.007669211791490242
3211.0,0.007646802669980518
3210.0,0.007621545747013576
3209.0,0.00759218726173541
3208.0,0.007559541803507229
3207.0,0.0075267013409122206
3206.0,0.00749573839564621
3205.0,0.007466150886181798
3204.0,0.007437672035913747
3203.0,0.007412180195343822
3202.0,0.007390853242612875
3201.0,0.00737147727489422
3200.0,0.0073509318388794605
3199.0,0.007329032108521847
3198.0,0.007307632644363514
3197.0,0.007286840982347172
3196.0,0.007264693519444559
3195.0,0.007240564633104088
3194.0,0.0072166722524283425
3193.0,0.007195473653829592
3192.0,0.0071767745064121365
3191.0,0.007158207432534673
3190.0,0.007138119057975543
3189.0,0.007117087586956779
3188.0,0.007096086193604922
3187.0,0.0070735483136458045
3186.0,0.007045703453433483
3185.0,0.007011067860317789
3184.0,0.006973702260536289
3183.0,0.006940179354627981
3182.0,0.006913243409031442
3181.0,0.006890033967645102
3180.0,0.006866496603140607
3179.0,0.006841494628528727
3178.0,0.006815876253641155
3177.0,0.006789326369479378
3176.0,0.006759925805565042
3175.0,0.0067267588947751795
3174.0,0.006692183334732578
3173.0,0.00666105520012199
3172.0,0.0066367860752567995
3171.0,0.006617160233913664
3170.0,0.0065949165946033676
3169.0,0.006564478197754397
3168.0,0.006528205216574302
3167.0,0.006494244699757182
3166.0,0.006468096274917286
3165.0,0.006448122340083339
3164.0,0.006429116166898735
3163.0,0.006407676632962794
3162.0,0.006383279678700878
3161.0,0.006356529189647913
3160.0,0.00632854830938737
3159.0,0.006300950388800788
3158.0,0.006274438140722056
3157.0,0.006247819868883125
3156.0,0.0062197043013310395
3155.0,0.006190765211758271
3154.0,0.006163240818450355
3153.0,0.006138367767224453
3152.0,0.006115122261205067
3151.0,0.006091515292114596
3150.0,0.0060666599862845005
3149.0,0.006041380866015653
3148.0,0.006016915593629357
3147.0,0.005993304406269814
3146.0,0.005969609889729271
3145.0,0.005945831233427379
3144.0,0.005923620289023246
3143.0,0.005904171697220843
3142.0,0.005885937113162754
3141.0,0.005865355748743147
3140.0,0.005839687877175255
3139.0,0.005808833493917596
3138.0,0.005775379440793074
3137.0,0.005743798047480664
3136.0,0.0057182550832357406
3135.0,0.005699287440187429
3134.0,0.005683047319488095
3133.0,0.005665144322769214
3132.0,0.005644677805816859
3131.0,0.005623218498670476
3130.0,0.005601243244285811
3129.0,0.005578183597546551
3128.0,0.0055552154612620915
3127.0,0.00553484602389657
3126.0,0.005517499753507435
3125.0,0.005500985842142564
3124.0,0.005483632435723043
3123.0,0.005465771781900227
3122.0,0.0054475105976694695
3121.0,0.0054275413866693815
3120.0,0.005405510679091199
3119.0,0.0053836518941628424
3118.0,0.005364994764962573
3117.0,0.005351062983333339
3116.0,0.00534137903330301
3115.0,0.00533336487514248
3114.0,0.005322409756153853
3113.0,0.0053048372704339606
3112.0,0.0052824195049734814
3111.0,0.005261539622487598
3110.0,0.005246113988453324
3109.0,0.005232884395281198
3108.0,0.005215953552437345
3107.0,0.005195099197282258
3106.0,0.005176727262846143
3105.0,0.00516644194808731
3104.0,0.005162623237902477
3103.0,0.005158000376782843
3102.0,0.005146348463014047
3101.0,0.005126992152397239
3100.0,0.005103643004396946
3099.0,0.005080395486733837
3098.0,0.005059774509805328
3097.0,0.005043581596283761
3096.0,0.005033279298748548
3095.0,0.005028177732340957
3094.0,0.005024138628070941
3093.0,0.005015954749211444
3092.0,0.00500134003499651
3091.0,0.004981891312457512
3090.0,0.0049605467131784995
3089.0,0.004939207661149335
3088.0,0.0049188428780008115
3087.0,0.004900509544545855
3086.0,0.004885284624733398
3085.0,0.004873651373791009
3084.0,0.004865357284567705
3083.0,0.004859493435887904
3082.0,0.004854426843546099
3081.0,0.004848125492008809
3080.0,0.004839223441031112
3079.0,0.004828122359448732
3078.0,0.0048170471053626115
3077.0,0.004808309748145953
3076.0,0.004801691881880591
3075.0,0.004793626559845285
3074.0,0.0047802323690435715
3073.0,0.004761434306985078
3072.0,0.004741107284035333
3071.0,0.004723132643880291
3070.0,0.004708332300090271
3069.0,0.004695532243717142
3068.0,0.004683360011826141
3067.0,0.0046699215518568185
3066.0,0.004653152445652937
3065.0,0.004633645019537793
3064.0,0.004615800212071167
3063.0,0.004603542725845781
3062.0,0.004595559181302795
3061.0,0.004586835224263415
3060.0,0.00457434711245696
3059.0,0.004559742756850452
3058.0,0.004546584336136741
3057.0,0.004536537943928549
3056.0,0.004527862577523499
3055.0,0.0045162651433530996
3054.0,0.004498244285480449
3053.0,0.004475163719365021
3052.0,0.004453090010532815
3051.0,0.004436874741829625
3050.0,0.004425081655745527
3049.0,0.004412639903601596
3048.0,0.004397864323093538
3047.0,0.004383867254856947
3046.0,0.004373764340706052
3045.0,0.004367341205561269
3044.0,0.004362420361160423
3043.0,0.004356695417747413
3042.0,0.004347555606397091
3041.0,0.004333296867456807
3040.0,0.004316235984630742
3039.0,0.0043028175209260545
3038.0,0.004298625548753439
3037.0,0.004303882253898783
3036.0,0.004314252515795933
3035.0,0.004324965519299015
3034.0,0.0043335761954709515
3033.0,0.004340081061509978
3032.0,0.004345975584946126
3031.0,0.004353337999030203
3030.0,0.004364480181742383
3029.0,0.004382081321421726
3028.0,0.004408482314391913
3027.0,0.004444047169764516
3026.0,0.004487053510616209
3025.0,0.004536693140761686
3024.0,0.004594858814968979
3023.0,0.004662950555998143
3022.0,0.004737884004879427
3021.0,0.004814398395400434
3020.0,0.004892153717997301
3019.0,0.004977661752236569
3018.0,0.005078699648987843
3017.0,0.005198104359224549
3016.0,0.0053336568773803385
3015.0,0.005481219227248414
3014.0,0.005636725505875553
3013.0,0.005797652486703873
3012.0,0.005965212742109395
3011.0,0.0061444808815539235
3010.0,0.006340566188000503
3009.0,0.006554048929004781
3008.0,0.006780459115306188
3007.0,0.0070135260774801126
3006.0,0.0072486162518754695
3005.0,0.007484483323742339
3004.0,0.007722708255452338
3003.0,0.007964423507557593
3002.0,0.008206228632136431
3001.0,0.008438853871234121
3000.0,0.008650845649470953
2999.0,0.008832943867264938
2998.0,0.00897893444229934
2997.0,0.009083334175961357
2996.0,0.00914000958409343
2995.0,0.009143347503843888
2994.0,0.00908887977337446
2993.0,0.00897266007917963
2992.0,0.008792602908672486
2991.0,0.008552409540708038
2990.0,0.008264415246714145
2989.0,0.007947646540068902
2988.0,0.007622598451905032
2987.0,0.0073072629031706755
2986.0,0.0070151114955678325
2985.0,0.006755152811049355
2984.0,0.0065323030516077655
2983.0,0.006347421195187532
2982.0,0.006197294579073365
2981.0,0.006075779477892442
2980.0,0.005976520202757619
2979.0,0.005895422885563884
2978.0,0.005830987607297745
2977.0,0.005782523151761323
2976.0,0.005748387667601572
2975.0,0.005725615149104989
2974.0,0.005711169721292467
2973.0,0.0057030811980061475
2972.0,0.00570051290558481
2971.0,0.0057030625370618265
2970.0,0.005710417145710736
2969.0,0.0057222108353040535
2968.0,0.0057375747990238285
2967.0,0.005755005186306961
2966.0,0.005773520983859224
2965.0,0.005794336489434041
2964.0,0.005820754174570971
2963.0,0.005855902657559021
2962.0,0.0059012714541241
2961.0,0.005957850502997567
2960.0,0.006027733480597121
2959.0,0.006113287028400097
2958.0,0.0062148328406971
2957.0,0.006330524857107982
2956.0,0.006459216756561949
2955.0,0.006603190654292813
2954.0,0.0067673735357915155
2953.0,0.006955150788946774
2952.0,0.007164021505936904
2951.0,0.007384027910027971
2950.0,0.007600507470727335
2949.0,0.007798328030355104
2948.0,0.007964916928352708
2947.0,0.008089815053080996
2946.0,0.008163158531218137
2945.0,0.008175736558785701
2944.0,0.008121198113212385
2943.0,0.00799885619745965
2942.0,0.007815065400939882
2941.0,0.007582596375853677
2940.0,0.007318838909655533
2939.0,0.007043342362186809
2938.0,0.00677406794345457
2937.0,0.0065243764620086546
2936.0,0.0063020456111912496
2935.0,0.006110091776074026
2934.0,0.005947736964496368
2933.0,0.005810647116947541
2932.0,0.005691401691768065
2931.0,0.005581573739298642
2930.0,0.005475598581738416
2929.0,0.005372800699698105
2928.0,0.005275478724025191
2927.0,0.005184618590861755
2926.0,0.005097673792474218
2925.0,0.005010650943859485
2924.0,0.004921536681208841
2923.0,0.004831186356476643
2922.0,0.004741303438884549
2921.0,0.0046520025798026795
2920.0,0.0045617420013475025
2919.0,0.004469515140051061
2918.0,0.004377532038743102
2917.0,0.004291442012573929
2916.0,0.004217944221706974
2915.0,0.004161627497856969
2914.0,0.004123395461949493
2913.0,0.0041002512481844115
2912.0,0.004086071010557329
2911.0,0.004073936839360743
2910.0,0.00405945925710997
2909.0,0.004042318140645761
2908.0,0.004024198914083393
2907.0,0.004006181760741401
2906.0,0.003989115720582573
2905.0,0.003975008568316262
2904.0,0.003965391167852519
2903.0,0.003958267740856799
2902.0,0.00394874862623466
2901.0,0.0039332261529918654
2900.0,0.003911903710419468
2899.0,0.0038867225625259013
2898.0,0.0038597326236704897
2897.0,0.003834056220011796
2896.0,0.003813687598530355
2895.0,0.003800309287085756
2894.0,0.0037917838375296237
2893.0,0.0037856771882106054
2892.0,0.0037828123060368287
2891.0,0.003786195377795314
2890.0,0.0037974282812344275
2889.0,0.003816060331945069
2888.0,0.0038410664009315334
2887.0,0.003870936954303532
2886.0,0.0039028436597177314
2885.0,0.003933828276525855
2884.0,0.003962407752307495
2883.0,0.003987339986772024
2882.0,0.004005270163564484
2881.0,0.004011260533958474
2880.0,0.004001944878117778
2879.0,0.0039761237207798315
2878.0,0.0039327515956400615
2877.0,0.003870518141650863
2876.0,0.003790932741594732
2875.0,0.0037005714735995066
2874.0,0.0036089172814738057
2873.0,0.003523772134748862
2872.0,0.0034482767020496833
2871.0,0.0033810574896091933
2870.0,0.003318829071492553
2869.0,0.003259618718172122
2868.0,0.0032049717460311054
2867.0,0.0031590712259339983
2866.0,0.003125569618953429
2865.0,0.003104737204421024
2864.0,0.0030931073917689774
2863.0,0.0030853123905927996
2862.0,0.00307687593665858
2861.0,0.0030668505166320556
2860.0,0.003058165184425004
2859.0,0.0030547857338780178
2858.0,0.00305722664705053
2857.0,0.0030607024797383183
2856.0,0.003057420640921975
2855.0,0.00304096361173398
2854.0,0.0030092486490877184
2853.0,0.002964441703939646
2852.0,0.0029112339926571753
2851.0,0.002854841574990295
2850.0,0.00280040969042967
2849.0,0.002752248341482611
2848.0,0.0027122512793119097
2847.0,0.002678818300865261
2846.0,0.002649168350130097
2845.0,0.0026229663299800598
2844.0,0.0026023234678187526
2843.0,0.0025873057924748416
2842.0,0.0025731967520057175
2841.0,0.00255467059361288
2840.0,0.002532140256842389
2839.0,0.0025110459364135708
2838.0,0.0024947466311828624
2837.0,0.002480597315322855
2836.0,0.0024646768320331896
2835.0,0.0024479751162056283
2834.0,0.002434781971140817
2833.0,0.0024258754079822453
2832.0,0.0024167286014557124
2831.0,0.0024031885331062507
2830.0,0.0023865023008259063
2829.0,0.0023711561920581187
2828.0,0.0023592444259459976
2827.0,0.0023491932649720017
2826.0,0.002339130238881831
2825.0,0.002328890712677978
2824.0,0.0023185409792847948
2823.0,0.0023069044707609496
2822.0,0.002292823231743859
2821.0,0.002276822444307182
2820.0,0.0022605093951394745
2819.0,0.0022448958632128955
2818.0,0.002230102933464991
2817.0,0.002215883934993055
2816.0,0.002201275825372011
2815.0,0.0021844126768163392
2814.0,0.002164224810064231
2813.0,0.0021424024175267604
2812.0,0.0021224579600302414
2811.0,0.0021063773800039823
2810.0,0.0020932043372772747
2809.0,0.0020811749775033646
2808.0,0.0020699398540884794
2807.0,0.002060025048182671
2806.0,0.0020511277490986575
2805.0,0.0020422044593242815
2804.0,0.0020328775397483612
2803.0,0.002023584687954975
2802.0,0.0020142840189068425
2801.0,0.0020040766540838713
2800.0,0.0019926437750511254
2799.0,0.001981389838077251
2798.0,0.0019723377158910958
2797.0,0.0019657338897438883
2796.0,0.001959325822483828
2795.0,0.0019504416194572618
2794.0,0.0019387575685099212
2793.0,0.0019267223864572174
2792.0,0.0019169796548969952
2791.0,0.0019094671149359438
2790.0,0.0019016566795935007
2789.0,0.001891955338676575
2788.0,0.0018820076541718688
2787.0,0.0018746611247966172
2786.0,0.0018699601973955482
2785.0,0.0018644152063617588
2784.0,0.0018548514861319605
2783.0,0.0018420842994060298
2782.0,0.0018296956755649474
2781.0,0.0018198670095956031
2780.0,0.0018119096485810313
2779.0,0.0018045050576663284
2778.0,0.0017973787717104786
2777.0,0.0017904367879659957
2776.0,0.0017832386341252327
2775.0,0.0017766308570109093
2774.0,0.001773251990122076
2773.0,0.001774362629692306
2772.0,0.0017767755199663855
2771.0,0.0017749584066005927
2770.0,0.0017666932954590602
2769.0,0.0017552637231248117
2768.0,0.0017460890643773513
2767.0,0.0017422580711493863
2766.0,0.0017430702931723204
2765.0,0.0017452469456353701
2764.0,0.0017452720794725136
2763.0,0.0017416346959105732
2762.0,0.0017356879496578004
2761.0,0.0017298525087453987
2760.0,0.0017250167589280717
2759.0,0.0017206213814490185
2758.0,0.0017169089471836987
2757.0,0.0017152897818254187
2756.0,0.001716065739789674
2755.0,0.0017172354006897879
2754.0,0.0017163177057726957
2753.0,0.0017123168456642354
2752.0,0.0017055228829510002
2751.0,0.001696868346028274
2750.0,0.0016884343851093636
2749.0,0.0016831148412394456
2748.0,0.001682195174930835
2747.0,0.001683771422167463
2746.0,0.0016845519647152312
2745.0,0.0016827073321825843
2744.0,0.0016786141466276312
2743.0,0.0016738016006906946
2742.0,0.0016699604660199668
2741.0,0.0016680885984804309
2740.0,0.0016675162593472685
2739.0,0.0016662196447412084
2738.0,0.0016627066930407883
2737.0,0.0016570992167577576
2736.0,0.0016500447440378706
2735.0,0.0016418330034671282
2734.0,0.0016335388335191468
2733.0,0.0016276814145179948
2732.0,0.0016258515998708789
2731.0,0.001626093426044345
2730.0,0.001624127445821891
2729.0,0.0016175012184269162
2728.0,0.001607580794210813
2727.0,0.001597589560193138
2726.0,0.001589582207448259
2725.0,0.0015835860010996626
2724.0,0.0015789690812776785
2723.0,0.001575969812889537
2722.0,0.0015753471883881171
2721.0,0.0015765183886649239
2720.0,0.0015768328339280792
2719.0,0.0015739060372018522
2718.0,0.001568407521058563
2717.0,0.0015632872290643031
2716.0,0.0015601517818378272
2715.0,0.0015578070917591008
2714.0,0.0015544987900615215
2713.0,0.0015498446805090656
2712.0,0.0015440761871767577
2711.0,0.0015376139631063347
2710.0,0.0015326138983858344
2709.0,0.001532633152983933
2708.0,0.0015384260587452423
2707.0,0.001545297911329495
2706.0,0.0015470829381939882
2705.0,0.0015422729328470244
2704.0,0.0015344205095398887
2703.0,0.0015272910348717284
2702.0,0.0015221218524126216
2701.0,0.0015190911824891006
2700.0,0.001518488423045966
2699.0,0.001519329769043312
2698.0,0.0015191476320970784
2697.0,0.001516692390490117
2696.0,0.0015136114634803554
2695.0,0.0015123952287310887
2694.0,0.001513542393632986
2693.0,0.0015157238327070462
2692.0,0.001517559737268659
2691.0,0.0015180366798823492
2690.0,0.0015161761958880809
2689.0,0.0015119251360081044
2688.0,0.0015072594759071268
2687.0,0.0015048038103582515
2686.0,0.0015050756232689395
2685.0,0.0015060280928530852
2684.0,0.0015055556361989306
2683.0,0.0015034767572969614
2682.0,0.001500680387346722
2681.0,0.0014977157091249904
2680.0,0.001495248057083896
2679.0,0.0014948341040034135
2678.0,0.001497626335356655
2677.0,0.001502499024897184
2676.0,0.0015069506352667975
2675.0,0.0015096823637506863
2674.0,0.001510731762450994
2673.0,0.001509243387546566
2672.0,0.001503521339266624
2671.0,0.001494508824644476
2670.0,0.0014870799570065557
2669.0,0.0014860292646116948
2668.0,0.0014917052934397203
2667.0,0.0015012589821739785
2666.0,0.0015129785455216833
2665.0,0.0015273385686933227
2664.0,0.0015447265569365628
2663.0,0.0015645331075137723
2662.0,0.0015862952210437113
2661.0,0.0016093655266461943
2660.0,0.0016313196854779392
2659.0,0.0016489570466657992
2658.0,0.0016616869050086066
2657.0,0.0016720765010226363
2656.0,0.0016822628445854353
2655.0,0.0016916450865992177
2654.0,0.0016990669275965807
2653.0,0.0017056968574113798
2652.0,0.0017139754798543177
2651.0,0.0017244270782309648
2650.0,0.0017347715107982136
2649.0,0.001742068295683923
2648.0,0.0017453609841606194
2647.0,0.0017464415375453971
2646.0,0.001748304378594303
2645.0,0.0017523083448844267
2644.0,0.0017567958996307668
2643.0,0.001759062358690491
2642.0,0.0017584768443786544
2641.0,0.0017568485336003064
2640.0,0.0017559020436704337
2639.0,0.0017555347148870849
2638.0,0.001754618330131308
2637.0,0.0017525056529000957
2636.0,0.0017495109505092751
2635.0,0.0017466241107186075
2634.0,0.0017446384223703116
2633.0,0.00174310528506491
2632.0,0.0017407318264754
2631.0,0.0017374741914738916
2630.0,0.001735100018094518
2629.0,0.0017345067406123195
2628.0,0.0017338494122783312
2627.0,0.001731057264017206
2626.0,0.001726869123103803
2625.0,0.0017231599915920118
2624.0,0.001719495042010499
2623.0,0.001714061644730057
2622.0,0.0017070479698239457
2621.0,0.0017001392657424318
2620.0,0.0016933677850150615
2619.0,0.001685767687577647
2618.0,0.001678789490353327
2617.0,0.001675525118096138
2616.0,0.001676285916599113
2615.0,0.001678129848472135
2614.0,0.0016789906753982577
2613.0,0.001679062025428688
2612.0,0.0016780349024525308
2611.0,0.0016746696072843718
2610.0,0.001669866575601088
2609.0,0.0016666873891753907
2608.0,0.0016661715280489012
2607.0,0.00166620396586453
2606.0,0.0016651866144110753
2605.0,0.0016634752372646543
2604.0,0.0016604918064287676
2603.0,0.0016543655555661366
2602.0,0.0016460466878727323
2601.0,0.00164032208146573
2600.0,0.0016404917263606656
2599.0,0.0016445453817027604
2598.0,0.0016480214947156217
2597.0,0.0016480097141099012
2596.0,0.0016432817715867402
2595.0,0.001633837753016656
2594.0,0.0016223097671043561
2593.0,0.0016131610497804392
2592.0,0.0016082649883363534
2591.0,0.001604938995120442
2590.0,0.00159977134433408
2589.0,0.0015924523077431535
2588.0,0.001584652273429902
2587.0,0.0015772769611552353
2586.0,0.0015703644546140876
2585.0,0.0015644157093322412
2584.0,0.0015608574363285815
2583.0,0.0015616105161042784
2582.0,0.0015673362251043485
2581.0,0.001574722967047936
2580.0,0.0015775327143479933
2579.0,0.0015731169675285749
2578.0,0.0015661597770155686
2577.0,0.0015624529992216121
2576.0,0.0015608486994209405
2575.0,0.001556169727970015
2574.0,0.0015484641233724345
2573.0,0.0015432718761825255
2572.0,0.0015429337121811637
2571.0,0.0015437583311924301
2570.0,0.001542445281313578
2569.0,0.0015392734736929064
2568.0,0.0015340405610375367
2567.0,0.0015252285916140353
2566.0,0.0015150447091951057
2565.0,0.0015091133664931445
2564.0,0.0015085293768607145
2563.0,0.001507854729919863
2562.0,0.0015037903780830714
2561.0,0.0015003084505553117
2560.0,0.0015016894781889466
2559.0,0.0015053391576426922
2558.0,0.0015056642988491012
2557.0,0.001501308048142679
2556.0,0.0014949069139459671
2555.0,0.0014889054431693758
2554.0,0.0014848226078982682
2553.0,0.0014838892561351176
2552.0,0.0014855048531251763
2551.0,0.0014874572710944693
2550.0,0.0014895512127442
2549.0,0.0014940569970900092
2548.0,0.0015008141206844915
2547.0,0.001505331617069317
2546.0,0.0015038945601561356
2545.0,0.0014975251551515082
2544.0,0.0014893149399636228
2543.0,0.0014812773162494273
2542.0,0.001475286983375273
2541.0,0.0014730550059046574
2540.0,0.0014728672709785372
2539.0,0.0014700634540064995
2538.0,0.0014631434266244615
2537.0,0.001456172905794394
2536.0,0.001453283387659578
2535.0,0.00145395488829917
2534.0,0.001455257711004885
2533.0,0.0014551048374892264
2532.0,0.0014517086944385005
2531.0,0.0014440913351880806
2530.0,0.0014355343554335659
2529.0,0.0014325022980898176
2528.0,0.0014372442996321488
2527.0,0.0014446452472895695
2526.0,0.0014489785700734488
2525.0,0.0014506392410357158
2524.0,0.0014533811784051317
2523.0,0.0014575768314658278
2522.0,0.0014592655506535446
2521.0,0.0014546662424550065
2520.0,0.001444254007790275
2519.0,0.0014334829788865326
2518.0,0.0014291544090596605
2517.0,0.0014325626834864448
2516.0,0.0014367806990270226
2515.0,0.0014340143887741586
2514.0,0.0014249104536093375
2513.0,0.001416623121799323
2512.0,0.001412835271380721
2511.0,0.0014111312584718595
2510.0,0.0014097580602729714
2509.0,0.0014103407260246748
2508.0,0.0014125133479828474
2507.0,0.0014121778301143396
2506.0,0.001407790997067251
2505.0,0.0014033058615878916
2504.0,0.0014022045924452853
2503.0,0.001403042785667504
2502.0,0.001403123641127209
2501.0,0.00140213027381058
2500.0,0.0013999459098010675
2499.0,0.0013952677422612273
2498.0,0.0013887532240354388
2497.0,0.0013835982543231567
2496.0,0.0013809301979766941
2495.0,0.001378249293103464
2494.0,0.0013737293474652174
2493.0,0.0013677555228453048
2492.0,0.0013590200502349634
2491.0,0.001344452665333166
2490.0,0.0013255191407767803
2489.0,0.0013098041911199134
2488.0,0.001303229760063129
2487.0,0.0013041944172230372
2486.0,0.0013074854946137661
2485.0,0.0013101194093649937
2484.0,0.001311337431452337
2483.0,0.0013108147816518038
2482.0,0.00130928291063619
2481.0,0.001307925238041553
2480.0,0.001305747330743829
2479.0,0.0013006893178650935
2478.0,0.0012939497895265327
2477.0,0.0012891683129428754
2476.0,0.0012865469038075715
2475.0,0.0012822414782817496
2474.0,0.00127462698274315
2473.0,0.001266669128823975
2472.0,0.0012610688271842859
2471.0,0.0012576926644292433
2470.0,0.0012566329124918407
2469.0,0.0012586161423147138
2468.0,0.0012612696131910572
2467.0,0.0012605684576007233
2466.0,0.0012576395645248362
2465.0,0.0012585201785109425
2464.0,0.001265056520916942
2463.0,0.0012716503553399502
2462.0,0.0012737705662302335
2461.0,0.0012744412551201488
2460.0,0.00127904499726757
2459.0,0.0012882764777527355
2458.0,0.001299602463044372
2457.0,0.0013115678325545937
2456.0,0.0013229576416070644
2455.0,0.0013306946640137766
2454.0,0.0013320314487883572
2453.0,0.0013273212038674238
2452.0,0.001318934155422399
2451.0,0.0013091820070222611
2450.0,0.0013000392269615774
2449.0,0.0012926525454988742
2448.0,0.0012867504977125928
2447.0,0.0012824860703863645
2446.0,0.0012815910457177498
2445.0,0.0012835900037616082
2444.0,0.0012831488640659386
2443.0,0.0012762698874751596
2442.0,0.0012674859957739527
2441.0,0.001264925309671333
2440.0,0.0012692655487865122
2439.0,0.0012740934050584976
2438.0,0.0012765447629175927
2437.0,0.0012802327836816069
2436.0,0.0012871947484954147
2435.0,0.0012943227683831645
2434.0,0.0012991814402288067
2433.0,0.0013026638006446568
2432.0,0.0013044773631817037
2431.0,0.0013025569609940038
2430.0,0.001298373407810255
2429.0,0.001296152459097174
2428.0,0.0012952535548848444
2427.0,0.0012901246972300783
2426.0,0.0012797796513843564
2425.0,0.001270643105432985
2424.0,0.001267739668125921
2423.0,0.0012694906631506068
2422.0,0.0012735281612143699
2421.0,0.0012807892305423826
2420.0,0.0012906064515248639
2419.0,0.0012978290167743557
2418.0,0.0012985241284024832
2417.0,0.0012942321604666603
2416.0,0.0012885317576367494
2415.0,0.001283889697662652
2414.0,0.0012831989772810715
2413.0,0.0012891254628411414
2412.0,0.0012999418926221452
2411.0,0.0013102638060592936
2410.0,0.001316524806883463
2409.0,0.0013170719905517185
2408.0,0.0013079341751536628
2407.0,0.0012863029637468614
2406.0,0.0012591088486655145
2405.0,0.0012398587795155705
2404.0,0.0012344275357345183
2403.0,0.0012367267117572402
2402.0,0.001239735884433723
2401.0,0.0012430721393640882
2400.0,0.0012473689427087375
2399.0,0.0012493009200818831
2398.0,0.0012464429659242422
2397.0,0.001240710295093294
2396.0,0.0012330306179644689
2395.0,0.0012206412909242237
2394.0,0.0012036879782433947
2393.0,0.0011886873287167026
2392.0,0.0011809504327696182
2391.0,0.0011779796287200628
2390.0,0.0011737969529938097
2389.0,0.001165624615053669
2388.0,0.0011532777414213062
2387.0,0.001136477956996923
2386.0,0.0011163381613345502
2385.0,0.0010956866431986708
2384.0,0.0010745729292332732
2383.0,0.0010484343219162267
2382.0,0.0010131968251959032
2381.0,0.0009695036588790141
2380.0,0.0009206040639469842
2379.0,0.0008707670303879588
2378.0,0.0008281948995580873
2377.0,0.0008027209118078708
2376.0,0.0007954393962816927
2375.0,0.0007946249141853323
2374.0,0.0007876221949996908
2373.0,0.0007726488860464566
2372.0,0.0007555291097660453
2371.0,0.0007434267710521807
2370.0,0.0007462832442908162
2369.0,0.0007712626234673101
2368.0,0.000807192648233804
2367.0,0.0008281900790463792
2366.0,0.0008222125104821961
2365.0,0.0008024135185687642
2364.0,0.0007862911911380941
2363.0,0.0007810375066020177
2362.0,0.000789156015246049
2361.0,0.0008138613586921153
2360.0,0.0008447880722827034
2359.0,0.0008564729858995738
2358.0,0.0008450165033221865
2357.0,0.0008306940155299919
2356.0,0.000827283269756044
2355.0,0.0008286876766058835
2354.0,0.0008264748794022938
2353.0,0.0008227192475717197
2352.0,0.0008108757569521035
2351.0,0.0007875533626293197
2350.0,0.0007659961490185079
2349.0,0.0007622282822915158
2348.0,0.0007798889493481051
2347.0,0.000803811491849684
2346.0,0.0008298985062290871
2345.0,0.0008653755905642204
2344.0,0.0009103355431629467
2343.0,0.0009500636878619743
2342.0,0.0009684114205871896
2341.0,0.0009758218411296932
2340.0,0.000986166689553779
2339.0,0.0010024135055637124
2338.0,0.0010192292435433489
2337.0,0.0010370845954295552
2336.0,0.0010548913143256823
2335.0,0.0010654841583680017
2334.0,0.0010617455760622183
2333.0,0.0010497668603755383
2332.0,0.0010377793428097053
2331.0,0.0010320733093175682
2330.0,0.0010386109728407922
2329.0,0.0010665683275959438
2328.0,0.0011349541995321624
2327.0,0.0012481994942996056
2326.0,0.0013939950242790663
2325.0,0.0015292582047522776
2324.0,0.0016042466654218718
2323.0,0.0015982907076184814
2322.0,0.0015384400222813977
2321.0,0.0014763569966156174
2320.0,0.0014354468953788125
2319.0,0.00141036341817635
2318.0,0.0013894684986811149
2317.0,0.0013721182056914939
2316.0,0.0013565055046333304
2315.0,0.0013385319343347272
2314.0,0.0013222583573189864
2313.0,0.0013170173819423063
2312.0,0.0013238900490640591
2311.0,0.0013314129861936505
2310.0,0.001335450115112251
2309.0,0.0013417708326956953
2308.0,0.0013554212558970094
2307.0,0.0013708850722729954
2306.0,0.0013839656463518072
2305.0,0.001395220239557869
2304.0,0.0014041489509960788
2303.0,0.0014071786054464905
2302.0,0.0014079437843087488
2301.0,0.001416911106444
2300.0,0.0014376536898014964
2299.0,0.0014599891716564613
2298.0,0.0014750036590774503
2297.0,0.0014850224955037866
2296.0,0.0014986687430176336
2295.0,0.0015187927274637589
2294.0,0.001545027800430521
2293.0,0.001575105492669634
2292.0,0.001604693901429897
2291.0,0.001628950256920574
2290.0,0.0016516522345658413
2289.0,0.0016818975033800118
2288.0,0.0017199580274862823
2287.0,0.0017524825805436668
2286.0,0.0017670839130371392
2285.0,0.0017635963988408684
2284.0,0.0017481654215589413
2283.0,0.0017250827278028195
2282.0,0.0016988564517879264
2281.0,0.001676012546009986
2280.0,0.0016579685169432262
2279.0,0.0016403524385203427
2278.0,0.0016225070343048231
2277.0,0.001610439921657269
2276.0,0.0016054310854196042
2275.0,0.0015999218968997155
2274.0,0.0015895192085834818
2273.0,0.0015796410622398544
2272.0,0.001575718627433142
2271.0,0.0015748264803170735
2270.0,0.0015723143092304093
2269.0,0.0015674776402856822
2268.0,0.001559544146702612
2267.0,0.0015466340836207705
2266.0,0.0015316841793476456
2265.0,0.00152051308052802
2264.0,0.0015133727848358047
2263.0,0.0015076771956099141
2262.0,0.001508696886143354
2261.0,0.0015239116427651575
2260.0,0.0015470731352699362
2259.0,0.0015616481923183883
2258.0,0.0015602693006952668
2257.0,0.0015475823027093997
2256.0,0.0015250647583018619
2255.0,0.0014916134028066695
2254.0,0.0014588046964642222
2253.0,0.0014452812475687046
2252.0,0.0014519283895875065
2251.0,0.0014611720641791814
2250.0,0.0014644690215798173
2249.0,0.0014703514699029138
2248.0,0.0014828158599811802
2247.0,0.001492489084247753
2246.0,0.0014959129064992644
2245.0,0.0015026334237427236
2244.0,0.0015157364452182012
2243.0,0.001524756216601071
2242.0,0.0015259142672314702
2241.0,0.0015296430418301847
2240.0,0.0015403331049484443
2239.0,0.0015474751490826783
2238.0,0.0015451506747229244
2237.0,0.0015418039418125678
2236.0,0.0015426703464761788
2235.0,0.0015415844422174102
2234.0,0.0015381285441885633
2233.0,0.0015429398917546871
2232.0,0.001556416217718646
2231.0,0.0015620510223302915
2230.0,0.0015510876570599226
2229.0,0.0015357555032003943
2228.0,0.001529294170526341
2227.0,0.0015299672758654925
2226.0,0.001532568801354447
2225.0,0.0015362275244358778
2224.0,0.0015348327723772297
2223.0,0.0015204955726871028
2222.0,0.0015028272460118662
2221.0,0.0015033507018574368
2220.0,0.0015232277616466082
2219.0,0.0015398828136122021
2218.0,0.001542185404169229
2217.0,0.0015435491910700443
2216.0,0.0015520873701655269
2215.0,0.0015548887249527523
2214.0,0.0015445312952164832
2213.0,0.0015354415628772583
2212.0,0.0015387823672727214
2211.0,0.00154388463998529
2210.0,0.0015388943908525897
2209.0,0.0015293399597512561
2208.0,0.0015238127846197483
2207.0,0.001520801898236896
2206.0,0.0015201105980481146
2205.0,0.0015269553224432878
2204.0,0.0015360620261255515
2203.0,0.0015342363186415745
2202.0,0.001526781646371811
2201.0,0.001536637983240867
2200.0,0.001568183034761661
2199.0,0.0015974374995104217
2198.0,0.0016076509980662154
2197.0,0.0016090145978173763
2196.0,0.0016130499518446876
2195.0,0.0016151039943827778
2194.0,0.0016153783442805774
2193.0,0.001629717602689421
2192.0,0.0016634012485692159
2191.0,0.0016975308427478776
2190.0,0.0017158367932664476
2189.0,0.0017245182277060124
2188.0,0.001734750463861181
2187.0,0.0017473099536416156
2186.0,0.0017626015835215281
2185.0,0.001779449817042944
2184.0,0.001776233112563284
2183.0,0.001724652764283744
2182.0,0.001636691735185876
2181.0,0.001568017769144613
2180.0,0.001557113448791243
2179.0,0.0015865238101523181
2178.0,0.0016146369536286852
2177.0,0.0016162336680385061
2176.0,0.001586023964436848
2175.0,0.0015367237612005577
2174.0,0.0015068071310811264
2173.0,0.0015397048118536687
2172.0,0.0016392705687210754
2171.0,0.001768485993411419
2170.0,0.0018938993752675864
2169.0,0.0020029994897300045
2168.0,0.0020807055921294166
2167.0,0.0021074532640250293
2166.0,0.002096066654343654
2165.0,0.002098435221365019
2164.0,0.0021511272064791693
2163.0,0.0022309783617392295
2162.0,0.0022655038932966917
2161.0,0.0021640263815290504
2160.0,0.00186135183890091
2159.0,0.0013959361761356733
2158.0,0.0009419061441706347
2157.0,0.0006803352635555888
2156.0,0.0006349181482274589
2155.0,0.0006978250115160997
2154.0,0.0007813903951922078
2153.0,0.0008722992100087617
2152.0,0.0009698893044938954
2151.0,0.0010480069136308465
2150.0,0.0010885586487835081
2149.0,0.0011016947803771059
2148.0,0.0010976222153770213
2147.0,0.001076142598095494
2146.0,0.001052138313243937
2145.0,0.0010514981743524692
2144.0,0.0010721021339077724
2143.0,0.001085458301607124
2142.0,0.0010829660410517942
2141.0,0.0010843944096800035
2140.0,0.0010963392487064333
2139.0,0.0010990597914152227
2138.0,0.0010794107726059127
2137.0,0.0010416690921028508
2136.0,0.0009840145358955192
2135.0,0.0009028411609388587
2134.0,0.0008263843495836012
2133.0,0.0008022035860157946
2132.0,0.0008405043039315391
2131.0,0.0009026787712655259
2130.0,0.0009534027350473762
2129.0,0.0009917108140176062
2128.0,0.0010289605564873302
2127.0,0.0010665490050386676
2126.0,0.0011047868032377254
2125.0,0.001148177749823634
2124.0,0.0011928552138299674
2123.0,0.0012287974243939377
2122.0,0.0012581690076779494
2121.0,0.001291291393472979
2120.0,0.0013239327377205523
2119.0,0.0013428731938684851
2118.0,0.0013545631395339686
2117.0,0.0013814263778231203
2116.0,0.0014259488890519937
2115.0,0.0014651102878555445
2114.0,0.0014853231314274863
2113.0,0.001496004883583369
2112.0,0.0015034246601087792
2111.0,0.0014990729220596547
2110.0,0.0014829712010412267
2109.0,0.001471516302744688
2108.0,0.0014721972001865043
2107.0,0.0014756679125554127
2106.0,0.0014801188611681434
2105.0,0.001496492992078498
2104.0,0.0015217994739842322
2103.0,0.0015359158421024142
2102.0,0.0015340654039448058
2101.0,0.001534090910161405
2100.0,0.00154215967136824
2099.0,0.0015390351476020398
2098.0,0.0015112218507167224
2097.0,0.001469029710911449
2096.0,0.0014241903639165973
2095.0,0.001377624661317441
2094.0,0.001339286962660348
2093.0,0.001330193860003865
2092.0,0.0013530656820704558
2091.0,0.0013868778878196586
2090.0,0.0014175877782735336
2089.0,0.001449054735440855
2088.0,0.0014790497707522395
2087.0,0.0014944172576891652
2086.0,0.0014979713673073539
2085.0,0.0015112722362488338
2084.0,0.001540869666903571
2083.0,0.0015685459159485056
2082.0,0.0015838853204185699
2081.0,0.0015975457426059035
2080.0,0.0016137746668449054
2079.0,0.0016194667349002912
2078.0,0.0016114672682996053
2077.0,0.0016042777881575458
2076.0,0.0016007500931910278
2075.0,0.0015857010295616328
2074.0,0.0015588934460467724
2073.0,0.001541469152636606
2072.0,0.0015390551032901474
2071.0,0.0015322662206377366
2070.0,0.0015145205012179047
2069.0,0.0015037462896491714
2068.0,0.0015059342657804747
2067.0,0.0015039512828561392
2066.0,0.0014935428911684308
2065.0,0.0014914897663403854
2064.0,0.0014966558693394372
2063.0,0.0014839430425566975
2062.0,0.0014502208008630446
2061.0,0.001424204460325444
2060.0,0.0014203571191548808
2059.0,0.0014231071009456837
2058.0,0.001425394692501926
2057.0,0.0014368739394464796
2056.0,0.0014479784137334095
2055.0,0.0014403574040536458
2054.0,0.0014448963192359768
2053.0,0.0015244828540908137
2052.0,0.00167438576510497
2051.0,0.0017987998708334423
2050.0,0.00181602472928786
2049.0,0.001743507674588547
2048.0,0.001647938271964864
2047.0,0.0015603788765810689
2046.0,0.0014904080508328806
2045.0,0.0014670781980486108
2044.0,0.0015012834319027468
2043.0,0.001551465015058323
2042.0,0.0015773974633860263
2041.0,0.001590130832382731
2040.0,0.0016115596836076352
2039.0,0.001627674065820965
2038.0,0.0016220375493731485
2037.0,0.0016086283597557221
2036.0,0.0015946130458492638
2035.0,0.001557032920848588
2034.0,0.0014911375619663266
2033.0,0.0014326415251885321
2032.0,0.001399085350895932
2031.0,0.0013673970940123578
2030.0,0.0013379396198961375
2029.0,0.001351817710723728
2028.0,0.0014128865984228698
2027.0,0.0014626703393785577
2026.0,0.0014656717845959466
2025.0,0.0014502460931501717
2024.0,0.0014359472616942153
2023.0,0.001396820922423788
2022.0,0.0013328749984335751
2021.0,0.001300063307029689
2020.0,0.001323499951886371
2019.0,0.0013505479610156671
2018.0,0.00133504028727133
2017.0,0.0013053159850350707
2016.0,0.0013050824059755444
2015.0,0.0013292762474106706
2014.0,0.001364140292182243
2013.0,0.001423813174830527
2012.0,0.0015029074941947163
2011.0,0.0015498919879557535
2010.0,0.0015272131453459075
2009.0,0.00145209206517688
2008.0,0.0013536195022787337
2007.0,0.0012445855970124263
2006.0,0.0011599266581668929
2005.0,0.001153691691522604
2004.0,0.0012234900666526246
2003.0,0.0013002032855071572
2002.0,0.001334579466009021
2001.0,0.0013401924878487304
2000.0,0.0013415948924623555
1999.0,0.0013399799632722044
1998.0,0.0013482689913556526
1997.0,0.0013939660421418878
1996.0,0.0014619512962076979
1995.0,0.0014956398195046072
1994.0,0.0014781102051360795
1993.0,0.0014575711268904343
1992.0,0.0014682465671161896
1991.0,0.0014843862547651034
1990.0,0.0014857585446232202
1989.0,0.0014970155490492715
1988.0,0.0015292298301986787
1987.0,0.0015524226748281585
1986.0,0.0015593167779795278
1985.0,0.0015925129164954346
1984.0,0.0016747607954159054
1983.0,0.0017749107290755003
1982.0,0.0018704404950134223
1981.0,0.0019714072968371695
1980.0,0.002048183745012116
1979.0,0.0020143535062826117
1978.0,0.0018444807183480055
1977.0,0.001643483990445399
1976.0,0.0015221621650213823
1975.0,0.0014754647735312515
1974.0,0.001451042353897433
1973.0,0.0014411231455260713
1972.0,0.0014445162087101042
1971.0,0.0014246502922853842
1970.0,0.001368160457316322
1969.0,0.00132109944716727
1968.0,0.0013172957071519499
1967.0,0.0013276452591774756
1966.0,0.001323501973532894
1965.0,0.0013241298552249827
1964.0,0.001338647592700555
1963.0,0.0013306543945681946
1962.0,0.0012782218976686156
1961.0,0.001211797948563491
1960.0,0.0011607487544230898
1959.0,0.0011184846873991945
1958.0,0.0010869864571075325
1957.0,0.0010907237757654385
1956.0,0.0011215080984490185
1955.0,0.0011333924409647872
1954.0,0.0011153058920127458
1953.0,0.0011086954473156225
1952.0,0.0011312975944320336
1951.0,0.0011461586353193223
1950.0,0.0011282569317766777
1949.0,0.0011018937897126335
1948.0,0.0010882600748180215
1947.0,0.0010727911790450535
1946.0,0.0010493738593930944
1945.0,0.0010404210924084083
1944.0,0.0010474532250934543
1943.0,0.0010356246344471562
1942.0,0.0009956025629937598
1941.0,0.0009646735112409195
1940.0,0.0009586136639581427
1939.0,0.0009503521618645706
1938.0,0.0009300750321498512
1937.0,0.0009236390053853863
1936.0,0.0009360316208550847
1935.0,0.0009341221440760383
1934.0,0.0009074763010197902
1933.0,0.0008895721594191221
1932.0,0.0008955461330330584
1931.0,0.0008972893433686305
1930.0,0.0008816977888909299
1929.0,0.000876765236899404
1928.0,0.0008961045362501838
1927.0,0.0009100273980267831
1926.0,0.0008993589074390569
1925.0,0.0008859675508364889
1924.0,0.0008887710566670838
1923.0,0.0008946090435522317
1922.0,0.0008968244674154059
1921.0,0.0009138790660150331
1920.0,0.0009438356007436266
1919.0,0.0009510632335489623
1918.0,0.0009237677701721856
1917.0,0.0009019675151701657
1916.0,0.0009116598829573283
1915.0,0.0009280294419754262
1914.0,0.0009307377694507148
1913.0,0.0009357224360110388
1912.0,0.000952780717877753
1911.0,0.0009582399945860928
1910.0,0.0009377354977761626
1909.0,0.0009165426311006245
1908.0,0.0009166240563904466
1907.0,0.0009227366717339909
1906.0,0.0009206992429534871
1905.0,0.0009232453342856951
1904.0,0.0009362277573546607
1903.0,0.0009405931197351226
1902.0,0.0009291969384197757
1901.0,0.000923610056116652
1900.0,0.0009336071774507348
1899.0,0.0009379107428434087
1898.0,0.000926043479692708
1897.0,0.0009168713007481162
1896.0,0.000919254317708805
1895.0,0.0009149900536423027
1894.0,0.0009017022384398901
1893.0,0.0009057537945406781
1892.0,0.0009311112740731666
1891.0,0.0009435414496518219
1890.0,0.0009246792506868834
1889.0,0.0009036928950406336
1888.0,0.00090345975070433
1887.0,0.0009044610819861733
1886.0,0.0008919707232034725
1885.0,0.0008854291778599068
1884.0,0.0008974411383619438
1883.0,0.0009082343210862472
1882.0,0.0009047453186963865
1881.0,0.0009047462024238625
1880.0,0.0009170801638184384
1879.0,0.0009197939951017401
1878.0,0.000903977377328684
1877.0,0.0008965945946347051
1876.0,0.0009132758117424207
1875.0,0.0009317182964826143
1874.0,0.0009359477400206558
1873.0,0.0009428432784641073
1872.0,0.0009614402453901479
1871.0,0.0009675523669658672
1870.0,0.0009448619626802124
1869.0,0.000920603851649166
1868.0,0.0009216395647826782
1867.0,0.0009320722896392186
1866.0,0.0009368899893415024
1865.0,0.0009498385047690141
1864.0,0.000973733970425744
1863.0,0.0009839944192744038
1862.0,0.0009711938692126417
1861.0,0.0009627338614548501
1860.0,0.000977153840382698
1859.0,0.0009952401423081727
1858.0,0.001000916838977872
1857.0,0.0010087872616035575
1856.0,0.0010272066052420972
1855.0,0.0010360210251627849
1854.0,0.001027175157795976
1853.0,0.0010254825041317408
1852.0,0.0010459075586977745
1851.0,0.0010663558676917624
1850.0,0.001072134374516473
1849.0,0.0010838075726625738
1848.0,0.0011140339135215604
1847.0,0.0011383725652550376
1846.0,0.0011383438577791535
1845.0,0.0011373691376716536
1844.0,0.0011583390490654598
1843.0,0.0011824655762075439
1842.0,0.001198213126701644
1841.0,0.001224050517985482
1840.0,0.0012647149637536824
1839.0,0.0012981795552236455
1838.0,0.001318083600997228
1837.0,0.0013502825650343637
1836.0,0.001404843924011467
1835.0,0.0014554974678521204
1834.0,0.0014899324717408953
1833.0,0.00153137680648741
1832.0,0.0015901982366793082
1831.0,0.0016375558389946552
1830.0,0.0016587416495759916
1829.0,0.0016906525084976805
1828.0,0.0017521469292246209
1827.0,0.0018072118921816042
1826.0,0.0018330633977653756
1825.0,0.001858108814445608
1824.0,0.0019055942250090318
1823.0,0.0019525819578423884
1822.0,0.001982304081750936
1821.0,0.0020133481018565396
1820.0,0.0020519989719816755
1819.0,0.002070395247532294
1818.0,0.002062731116293405
1817.0,0.0020710027487928877
1816.0,0.0021212884019255807
1815.0,0.0021866380916980423
1814.0,0.002242344841142123
1813.0,0.0023027614029386668
1812.0,0.002375771773321256
1811.0,0.002435245192828622
1810.0,0.002473847288036911
1809.0,0.002526702267727259
1808.0,0.0026084301738834546
1807.0,0.002688318863720525
1806.0,0.00275142074290781
1805.0,0.00282521151059677
1804.0,0.002924068212458012
1803.0,0.0030220281719091713
1802.0,0.003109273809339162
1801.0,0.003224053215785643
1800.0,0.003381653631841136
1799.0,0.0035415792224104186
1798.0,0.0036887560306086108
1797.0,0.003862949333942275
1796.0,0.004082553162905292
1795.0,0.0043174338739182935
1794.0,0.004566896326061302
1793.0,0.004900350732829766
1792.0,0.005350752494239917
1791.0,0.005848089078942279
1790.0,0.006357908302726566
1789.0,0.006932405776082279
1788.0,0.007608564790038347
1787.0,0.008382738373282279
1786.0,0.009271428393864075
1785.0,0.01030047999962911
1784.0,0.011422687819228276
1783.0,0.012564082538309053
1782.0,0.013749517138802349
1781.0,0.015058680980070547
1780.0,0.01645177861308474
1779.0,0.01779014539347146
1778.0,0.019034453085073795
1777.0,0.020248852056775755
1776.0,0.021452558435148206
1775.0,0.022622766043016544
1774.0,0.023846670298314596
1773.0,0.025307060184647918
1772.0,0.026969382942742547
1771.0,0.02854664683868616
1770.0,0.029998724906144483
1769.0,0.03158686035484562
1768.0,0.03347442438848313
1767.0,0.03553149704809412
1766.0,0.03756652057423911
1765.0,0.03960613460900939
1764.0,0.04185048634335086
1763.0,0.044495753351757074
1762.0,0.047517109981595446
1761.0,0.05055134061765121
1760.0,0.05322983330031439
1759.0,0.05557449425407692
1758.0,0.0578878998268639
1757.0,0.06031447999485256
1756.0,0.06255556760633472
1755.0,0.06426478244667821
1754.0,0.06552477162860329
1753.0,0.06663430003645526
1752.0,0.06772275996291773
1751.0,0.06866581874412676
1750.0,0.06932744205728215
1749.0,0.06969263238732007
1748.0,0.06971951749498151
1747.0,0.06935019655494863
1746.0,0.06859947139546795
1745.0,0.0674547568058293
1744.0,0.06583305401999366
1743.0,0.06373650256782043
1742.0,0.061226123526519884
1741.0,0.05816785524459259
1740.0,0.05441938095422851
1739.0,0.05044838666015736
1738.0,0.04701336063880594
1737.0,0.04417234275740823
1736.0,0.0412569370195254
1735.0,0.03750887820449461
1734.0,0.0331772350500029
1733.0,0.029619268055340067
1732.0,0.027196973144320208
1731.0,0.025299501007502983
1730.0,0.023525865153913448
1729.0,0.021841910251982684
1728.0,0.020350426822474076
1727.0,0.019106236994018193
1726.0,0.01806295839561412
1725.0,0.01711577774528762
1724.0,0.01620474287615797
1723.0,0.01538697598911764
1722.0,0.014736408297783549
1721.0,0.014208971846510512
1720.0,0.013677314759359398
1719.0,0.013049582737550058
1718.0,0.012340077193917632
1717.0,0.011638293197644556
1716.0,0.011005780262816041
1715.0,0.01045633316554293
1714.0,0.009983034755549718
1713.0,0.009552436109856113
1712.0,0.009129931107647175
1711.0,0.008718569882554855
1710.0,0.008343744443732919
1709.0,0.00800817218491151
1708.0,0.007683308812525156
1707.0,0.00734452640364971
1706.0,0.007002395123946002
1705.0,0.00669602728000927
1704.0,0.006455329605937352
1703.0,0.00627249115345755
1702.0,0.00610928248057873
1701.0,0.0059114553838879175
1700.0,0.005674461794513241
1699.0,0.005494751700349029
1698.0,0.0054053120016222655
1697.0,0.005331989976060437
1696.0,0.005218446102922846
1695.0,0.005108081245319498
1694.0,0.005065196500809385
1693.0,0.005068148111813998
1692.0,0.005064913316190711
1691.0,0.005042700462439553
1690.0,0.005022946579215191
1689.0,0.005018806378536003
1688.0,0.005021254706362217
1687.0,0.005022963345629692
1686.0,0.00503333022110238
1685.0,0.005054847581802881
1684.0,0.005062014597095389
1683.0,0.005057672549649687
1682.0,0.005075801574398671
1681.0,0.005108840206051293
1680.0,0.005138693199627466
1679.0,0.005166757526491094
1678.0,0.005201589404286
1677.0,0.0052390506006917215
1676.0,0.005267628569276741
1675.0,0.005289033331478121
1674.0,0.005317134334165442
1673.0,0.005352551921046942
1672.0,0.005380730232497513
1671.0,0.005402631496871541
1670.0,0.00543399307282459
1669.0,0.005470931854325133
1668.0,0.005494672837583403
1667.0,0.005507880450897739
1666.0,0.0055243481518685794
1665.0,0.005546076708473305
1664.0,0.0055658299117493345
1663.0,0.005583837432982113
1662.0,0.00560570359846997
1661.0,0.005628394530349515
1660.0,0.005643176269855088
1659.0,0.005650896769679928
1658.0,0.0056604497543193055
1657.0,0.005672633045159588
1656.0,0.005675977578077077
1655.0,0.005668707928052305
1654.0,0.00567583141823679
1653.0,0.005695102965042959
1652.0,0.005683763224046484
1651.0,0.005667138536965718
1650.0,0.005659154545198608
1649.0,0.005648773023595632
1648.0,0.005628470134356508
1647.0,0.005596366049537854
1646.0,0.005555168610320332
1645.0,0.005511114631522297
1644.0,0.005466604213974806
1643.0,0.005423897976284661
1642.0,0.005387019587002915
1641.0,0.005357402562190928
1640.0,0.005332519289098869
1639.0,0.005310734854699402
1638.0,0.005292748949587516
1637.0,0.005272003487631766
1636.0,0.0052317048473715
1635.0,0.005168825017894189
1634.0,0.005110254708291868
1633.0,0.0050661139355059155
1632.0,0.005025615781868815
1631.0,0.004985165822886305
1630.0,0.004947177490675556
1629.0,0.0049061242278242885
1628.0,0.004852532443636919
1627.0,0.0047906778074677855
1626.0,0.004731450271041519
1625.0,0.0046731901445643195
1624.0,0.004605433091153799
1623.0,0.00453018978987039
1622.0,0.004462011257962079
1621.0,0.0044046039312011145
1620.0,0.0043466886045562935
1619.0,0.0042787130408318205
1618.0,0.004200531508019025
1617.0,0.004113899971844447
1616.0,0.004024869063121784
1615.0,0.003949380690726742
1614.0,0.003891445223352702
1613.0,0.003835660647759433
1612.0,0.00376935174485694
1611.0,0.0036962078548098192
1610.0,0.0036263913722193643
1609.0,0.003560852332502291
1608.0,0.003494704070752616
1607.0,0.0034302460755126444
1606.0,0.0033712109707016965
1605.0,0.0033134320760053
1604.0,0.0032514452321406985
1603.0,0.0031897523624140074
1602.0,0.003137079209845549
1601.0,0.0030917286869306124
1600.0,0.0030460080215846345
1599.0,0.002999808422671106
1598.0,0.002957272112798291
1597.0,0.00291518729166815
1596.0,0.002867767325826141
1595.0,0.002820147501010559
1594.0,0.0027826146187153785
1593.0,0.002754216355497341
1592.0,0.0027264715122113235
1591.0,0.0026988163976474065
1590.0,0.002675776393936527
1589.0,0.002653887633015608
1588.0,0.002626225522071648
1587.0,0.0025968628687187646
1586.0,0.002576273560166624
1585.0,0.0025642782179642128
1584.0,0.0025525713092966608
1583.0,0.0025382439036275464
1582.0,0.0025266723785920897
1581.0,0.0025209322890682286
1580.0,0.0025182996100285883
1579.0,0.0025157325734920266
1578.0,0.002513157547705671
1577.0,0.0025067750232224493
1576.0,0.002488942643893713
1575.0,0.0024702929572268757
1574.0,0.002469267753037018
1573.0,0.0024803901946397994
1572.0,0.0024881281325393897
1571.0,0.0024902337865877183
1570.0,0.002495576297843588
1569.0,0.002505234231141965
1568.0,0.0025138048373614685
1567.0,0.0025213389677670403
1566.0,0.002532331523778045
1565.0,0.0025476524490016163
1564.0,0.0025632575825830966
1563.0,0.0025749516912949642
1562.0,0.00258244459118354
1561.0,0.002589119945189521
1560.0,0.002606151420728395
1559.0,0.0026331226730122743
1558.0,0.0026510752864773316
1557.0,0.0026670463567365086
1556.0,0.002678200634793818
1555.0,0.002683255443484107
1554.0,0.0026943410593215544
1553.0,0.00271630144361378
1552.0,0.0027381119185880248
1551.0,0.0027529374412590727
1550.0,0.0027688966903774174
1549.0,0.002789714134221536
1548.0,0.002807408298621277
1547.0,0.0028167250692764352
1546.0,0.0028255834944993
1545.0,0.0028437778293617837
1544.0,0.002866957647257108
1543.0,0.002885152627980337
1542.0,0.00290192645380159
1541.0,0.002922141914841272
1540.0,0.0029338642983196177
1539.0,0.002933786670875616
1538.0,0.00294492646644446
1537.0,0.002969215114613106
1536.0,0.002988768073716272
1535.0,0.0029976736502638776
1534.0,0.0030061322299909906
1533.0,0.003019809866407842
1532.0,0.0030305653287837214
1531.0,0.0030381502867626925
1530.0,0.0030504158078639284
1529.0,0.0030690498113510514
1528.0,0.0030856731253443735
1527.0,0.0030955356996710164
1526.0,0.0031080178644009703
1525.0,0.0031311650551430386
1524.0,0.0031550430351491117
1523.0,0.0031681394779789996
1522.0,0.003175772604262001
1521.0,0.0031863322597120948
1520.0,0.0031967125819969584
1519.0,0.0032043558399215072
1518.0,0.0032110291992722443
1517.0,0.003218512399884595
1516.0,0.003221358979404042
1515.0,0.0032181223411727232
1514.0,0.003215773030245922
1513.0,0.0032179347892301027
1512.0,0.003219755248820691
1511.0,0.0032177343098101297
1510.0,0.003217533496472278
1509.0,0.0032258580692330896
1508.0,0.0032363326670815564
1507.0,0.0032301064934025583
1506.0,0.003215452084772602
1505.0,0.0032216429832867075
1504.0,0.003241884263307568
1503.0,0.003258885211667741
1502.0,0.0032725012959610635
1501.0,0.0032896230270059367
1500.0,0.003305983796602893
1499.0,0.003309911179594339
1498.0,0.0033064460707259297
1497.0,0.0033119694765061485
1496.0,0.0033245837155085065
1495.0,0.0033385035644331604
1494.0,0.003364422157179992
1493.0,0.0034048180900533714
1492.0,0.003441013881419008
1491.0,0.0034573645409423604
1490.0,0.0034693001090279826
1489.0,0.003500636139297157
1488.0,0.0035410647595362915
1487.0,0.00357531004586986
1486.0,0.003614242614921631
1485.0,0.0036686066437013574
1484.0,0.0037285362516753778
1483.0,0.0037818845999416486
1482.0,0.0038392369644718524
1481.0,0.003915186710251241
1480.0,0.003999175667464875
1479.0,0.004076545203503272
1478.0,0.004161546322444055
1477.0,0.004278356081883002
1476.0,0.004419957573158405
1475.0,0.004571605539802069
1474.0,0.004772664552658896
1473.0,0.005089707104240817
1472.0,0.005495908184736869
1471.0,0.005906071963266775
1470.0,0.006322834535562625
1469.0,0.006794041068688564
1468.0,0.007342190155203645
1467.0,0.007999886847583338
1466.0,0.008853403641489458
1465.0,0.009945205437942502
1464.0,0.011121262758586471
1463.0,0.012187218347044849
1462.0,0.013133565931384962
1461.0,0.014035209959221435
1460.0,0.014924096493350563
1459.0,0.01583339717480136
1458.0,0.01686693670816709
1457.0,0.017985079239700923
1456.0,0.018831308692247726
1455.0,0.019285475345000025
1454.0,0.019536543206140018
1453.0,0.019697587663141454
1452.0,0.019755072847007536
1451.0,0.019681765500793622
1450.0,0.019475625801123622
1449.0,0.01909974889101724
1448.0,0.018499414559253618
1447.0,0.01770841464333897
1446.0,0.016809161854402645
1445.0,0.01581328026806872
1444.0,0.014693377050894046
1443.0,0.013478731157518999
1442.0,0.012260423392702047
1441.0,0.011129827858315944
1440.0,0.010138392620473972
1439.0,0.009278126735122716
1438.0,0.00848222837565336
1437.0,0.0077022983334427385
1436.0,0.007030403358986357
1435.0,0.006581262973540418
1434.0,0.006302839836302628
1433.0,0.006080964531491418
1432.0,0.00586581975999662
1431.0,0.005667463428645327
1430.0,0.0054963213075276554
1429.0,0.005343522460053424
1428.0,0.005212419758230186
1427.0,0.00511488487921239
1426.0,0.005037440883415044
1425.0,0.004955769389167079
1424.0,0.0048719761566036164
1423.0,0.004806686717946258
1422.0,0.0047562357307302135
1421.0,0.0046967153293643185
1420.0,0.004624971499007406
1419.0,0.004563829475610222
1418.0,0.00452056344726491
1417.0,0.004479269013454042
1416.0,0.0044372870741354225
1415.0,0.004403358676908725
1414.0,0.004373549058931848
1413.0,0.0043358508632839535
1412.0,0.004293134804684795
1411.0,0.004259066693885337
1410.0,0.004234064603862946
1409.0,0.004208544177304089
1408.0,0.004185604075099347
1407.0,0.004177123372247312
1406.0,0.004180933526382951
1405.0,0.004189750183166128
1404.0,0.004215349295331389
1403.0,0.004272237411583301
1402.0,0.004354025890700717
1401.0,0.004458661633959738
1400.0,0.004614640996861624
1399.0,0.0048473677367366534
1398.0,0.005143059555309918
1397.0,0.005501377596753487
1396.0,0.005980045215731606
1395.0,0.0066245513859663156
1394.0,0.007379810528586333
1393.0,0.008154691009535664
1392.0,0.008924124992354756
1391.0,0.009702998031792118
1390.0,0.010505573672887108
1389.0,0.011359372480226651
1388.0,0.012288035348770175
1387.0,0.01323247734360597
1386.0,0.014062715826157993
1385.0,0.014707623704024998
1384.0,0.01517084697304533
1383.0,0.015448919061039925
1382.0,0.015515150490096233
1381.0,0.015355693701831121
1380.0,0.01498088637852751
1379.0,0.014426151941250496
1378.0,0.013768663396180207
1377.0,0.013112555719416061
1376.0,0.012552173305532691
1375.0,0.012173486019916656
1374.0,0.012050067585428245
1373.0,0.01218431601871833
1372.0,0.012494467135258792
1371.0,0.012886620252343377
1370.0,0.013294952885295688
1369.0,0.013670003399470443
1368.0,0.013971637908216303
1367.0,0.014185303539935933
1366.0,0.014328014025735473
1365.0,0.01442954499865343
1364.0,0.014513643683164358
1363.0,0.014590429046280533
1362.0,0.014656028311386026
1361.0,0.014698294528192813
1360.0,0.014703856363087419
1359.0,0.01466135851376631
1358.0,0.014561695542372854
1357.0,0.014396886449267968
1356.0,0.014161161223229439
1355.0,0.013857180179354622
1354.0,0.013498777796783127
1353.0,0.01310189575662168
1352.0,0.012675304438853207
1351.0,0.01222617067649663
1350.0,0.011767599512815535
1349.0,0.011316640861055967
1348.0,0.010885548342674335
1347.0,0.010479938410742488
1346.0,0.010102324806143478
1345.0,0.009754115859306288
1344.0,0.009436477655764322
1343.0,0.009149912141882537
1342.0,0.008889960047853978
1341.0,0.008645687795752525
1340.0,0.0084097144977066
1339.0,0.008189750319452495
1338.0,0.007999264579004338
1337.0,0.007837552921865748
1336.0,0.007692125809390335
1335.0,0.0075555776626710595
1334.0,0.007428455061906361
1333.0,0.007310347625381004
1332.0,0.007199233070660768
1331.0,0.007098884336530558
1330.0,0.00701703339127243
1329.0,0.006955462524907882
1328.0,0.006909335524863072
1327.0,0.0068759677452181235
1326.0,0.006856078772056599
1325.0,0.006847449103219808
1324.0,0.006844032398370704
1323.0,0.006841982117745652
1322.0,0.006840547067975777
1321.0,0.006837045257428023
1320.0,0.006827489864697502
1319.0,0.006813171380821088
1318.0,0.006800470101090942
1317.0,0.0067925177983391115
1316.0,0.006787184946167675
1315.0,0.006783663188499243
1314.0,0.00678475129626588
1313.0,0.006791870691013483
1312.0,0.006803114999729413
1311.0,0.006816751227906443
1310.0,0.006831445219229354
1309.0,0.006843382769834138
1308.0,0.006848540206298697
1307.0,0.006848062252407533
1306.0,0.006845645612644561
1305.0,0.006840184607920869
1304.0,0.0068262723998582815
1303.0,0.006801965857779835
1302.0,0.0067697014709754266
1301.0,0.006728715333909355
1300.0,0.006672393571417908
1299.0,0.006594398687056141
1298.0,0.006492697228987229
1297.0,0.006367496851692947
1296.0,0.0062217775082644864
1295.0,0.00606550747200415
1294.0,0.005914654401163161
1293.0,0.005785416717384562
1292.0,0.005693408056043793
1291.0,0.005656357304963302
1290.0,0.0056910938452713715
1289.0,0.005807033921380293
1288.0,0.006006016048935583
1287.0,0.006286682322042221
1286.0,0.006645098084629323
1285.0,0.007072489148259736
1284.0,0.007556279419688571
1283.0,0.00808415334338617
1282.0,0.008645758339087466
1281.0,0.009230186397535546
1280.0,0.009823617328138762
1279.0,0.010411605518285
1278.0,0.01098306175030388
1277.0,0.01152895577464076
1276.0,0.012038554677852325
1275.0,0.012501895559031417
1274.0,0.012915578301663306
1273.0,0.013280391876933487
1272.0,0.013593515015607927
1271.0,0.01384924403835255
1270.0,0.014046595829842051
1269.0,0.014188755324170379
1268.0,0.01427577371867374
1267.0,0.014305427079009683
1266.0,0.014280466026180182
1265.0,0.0142081869241138
1264.0,0.014094783042931502
1263.0,0.013946602160160991
1262.0,0.013773642581200224
1261.0,0.01358503413170673
1260.0,0.013384591875734911
1259.0,0.0131763746800292
1258.0,0.01296992972797715
1257.0,0.012774309954222596
1256.0,0.01259214211629759
1255.0,0.01242460348737751
1254.0,0.012276753463179855
1253.0,0.012152939216277768
1252.0,0.012052225970695886
1251.0,0.01197328844705405
1250.0,0.011918961032576933
1249.0,0.011891372558864423
1248.0,0.01188749245947174
1247.0,0.011904054811861407
1246.0,0.011942454661645004
1245.0,0.01200431755399173
1244.0,0.012086796988304246
1243.0,0.012187115657506445
1242.0,0.012307397816636546
1241.0,0.012449871025088387
1240.0,0.01261148379218646
1239.0,0.012788790243552051
1238.0,0.012984574164014455
1237.0,0.013203990325458104
1236.0,0.013447669872470095
1235.0,0.013715017587290528
1234.0,0.014011296966780388
1233.0,0.014344495323300226
1232.0,0.0147172528538464
1231.0,0.015128516372389957
1230.0,0.015580745666177096
1229.0,0.016077648757001725
1228.0,0.01661627180583999
1227.0,0.017189760284839366
1226.0,0.017797354234606988
1225.0,0.018442874893129943
1224.0,0.01912355926942786
1223.0,0.019830407299226006
1222.0,0.020559985719413622
1221.0,0.021314349369680866
1220.0,0.022087586292991727
1219.0,0.022864569437397463
1218.0,0.023635114937001243
1217.0,0.024395843393770867
1216.0,0.025135780508464933
1215.0,0.025835815886958657
1214.0,0.02648544204653809
1213.0,0.027083358550420537
1212.0,0.027619259687113186
1211.0,0.028075108756522804
1210.0,0.02844893889997977
1209.0,0.02875773000163573
1208.0,0.02901425384927983
1207.0,0.029222133658268656
1206.0,0.02939510988315667
1205.0,0.029558263294991456
1204.0,0.02972747846122438
1203.0,0.02990909170427361
1202.0,0.030120813506104634
1201.0,0.03039031593831442
1200.0,0.030731113244778556
1199.0,0.031141441874529475
1198.0,0.03162907394447403
1197.0,0.03221560017768293
1196.0,0.032913431888309225
1195.0,0.033721399123002385
1194.0,0.0346470604938124
1193.0,0.03571008667519438
1192.0,0.03691731993823575
1191.0,0.03825794180106556
1190.0,0.039730175228897
1189.0,0.041345955493061234
1188.0,0.04309683625107396
1187.0,0.04493907397185477
1186.0,0.04682046602152354
1185.0,0.048688903222606994
1184.0,0.05045710789707357
1183.0,0.05198869065983043
1182.0,0.053133720342067946
1181.0,0.053745661918466824
1180.0,0.05366296870444467
1179.0,0.05274629599000435
1178.0,0.05097014402612289
1177.0,0.04844308258506615
1176.0,0.04534269089741009
1175.0,0.04187905120166055
1174.0,0.03829056204028465
1173.0,0.034795094535511085
1172.0,0.03152834303493117
1171.0,0.02855181632724363
1170.0,0.025896947555171648
1169.0,0.023574327841872654
1168.0,0.02156336026988083
1167.0,0.01982718777106477
1166.0,0.018337384105017365
1165.0,0.017072554834109997
1164.0,0.01600505561192044
1163.0,0.015105320068219037
1162.0,0.014352728225797303
1161.0,0.013731422440307743
1160.0,0.013221837377530816
1159.0,0.01280569078012291
1158.0,0.012473748175286938
1157.0,0.01222101046122454
1156.0,0.012039584710250063
1155.0,0.011923908107670854
1154.0,0.01187822872210459
1153.0,0.011912354284866578
1152.0,0.012034186802138835
1151.0,0.01225249241416534
1150.0,0.012582827398864368
1149.0,0.013044189265865917
1148.0,0.013652064638369462
1147.0,0.014418913524268249
1146.0,0.015357165458083598
1145.0,0.016473703066280914
1144.0,0.017760481738423844
1143.0,0.019195459623494303
1142.0,0.020752058195111018
1141.0,0.022399566559645527
1140.0,0.024093510305880275
1139.0,0.025779856531180697
1138.0,0.027416227807241823
1137.0,0.028977201912749585
1136.0,0.03043687331534862
1135.0,0.031767359392385654
1134.0,0.03296152205564586
1133.0,0.03403300086386358
1132.0,0.034984294754534635
1131.0,0.0357952660181255
1130.0,0.036444485853048506
1129.0,0.03691207118799424
1128.0,0.037158246899547505
1127.0,0.037136410654888444
1126.0,0.03684197992579483
1125.0,0.03632373990228226
1124.0,0.03564726049901085
1123.0,0.03487789806652143
1122.0,0.0340925124391455
1121.0,0.03336542923704015
1120.0,0.032734855160161405
1119.0,0.03220627493385303
1118.0,0.03178528408292202
1117.0,0.03148389593986591
1116.0,0.031302234636588634
1115.0,0.031234510677669733
1114.0,0.031294963052653134
1113.0,0.031513993880257454
1112.0,0.031907862755304044
1111.0,0.03247410535031319
1110.0,0.03321417298658953
1109.0,0.03413286244731622
1108.0,0.035211698999985205
1107.0,0.03640975902296075
1106.0,0.037697169816961695
1105.0,0.03906218887090269
1104.0,0.040481038871565435
1103.0,0.04191393045076589
1102.0,0.043341669649615895
1101.0,0.04477377481646266
1100.0,0.046209816240204815
1099.0,0.047629126606862
1098.0,0.049029115814816164
1097.0,0.05043284929430947
1096.0,0.05184540030977142
1095.0,0.05324611062847694
1094.0,0.05463620160937907
1093.0,0.056045423043885094
1092.0,0.057477259109467056
1091.0,0.058898283870700584
1090.0,0.06029566314919418
1089.0,0.06168943465706268
1088.0,0.06307001692172731
1087.0,0.06438143646993344
1086.0,0.06558597774789074
1085.0,0.06668382156656398
1084.0,0.06764981164067319
1083.0,0.06842018852724897
1082.0,0.06896504195813971
1081.0,0.06930515257761388
1080.0,0.06943770360074666
1079.0,0.0693169531825552
1078.0,0.0689249618032252
1077.0,0.06828786582092511
1076.0,0.0674077039504486
1075.0,0.06625125776249711
1074.0,0.06481845235137709
1073.0,0.0631527505715017
1072.0,0.061280503370995235
1071.0,0.05921047919886265
1070.0,0.05699412797572106
1069.0,0.05472036755602143
1068.0,0.05245267650950291
1067.0,0.050228531625961644
1066.0,0.048111751445395756
1065.0,0.04619020334144657
1064.0,0.0445256606063367
1063.0,0.043147140358975045
1062.0,0.04208227998605544
1061.0,0.04135121100176108
1060.0,0.04093018462349618
1059.0,0.040756810648417095
1058.0,0.040773205489286334
1057.0,0.040937213691156236
1056.0,0.04119810736363648
1055.0,0.04150273081851392
1054.0,0.041834672519667084
1053.0,0.042214994677448714
1052.0,0.042654562879157115
1051.0,0.043137561459970435
1050.0,0.0436573071957891
1049.0,0.04422062839432574
1048.0,0.044801371543357504
1047.0,0.04533656428647634
1046.0,0.04577951653061901
1045.0,0.04611516228651963
1044.0,0.04632175034228135
1043.0,0.04636253630086204
1042.0,0.0462206339811722
1041.0,0.045903859679298664
1040.0,0.04541087972146043
1039.0,0.04473057574708429
1038.0,0.043879048295924844
1037.0,0.04290241759813292
1036.0,0.04184168011326212
1035.0,0.040727338251622995
1034.0,0.03960491569591642
1033.0,0.038530243921440964
1032.0,0.037535114417172846
1031.0,0.03662322767955231
1030.0,0.035795606450090035
1029.0,0.03505264667575878
1028.0,0.03437248745660003
1027.0,0.033714137950947284
1026.0,0.03304579748311465
1025.0,0.0323519171731094
1024.0,0.03161590755824118
1023.0,0.030819098338288768
1022.0,0.02995860807935293
1021.0,0.029048286705058938
1020.0,0.02810224781753692
1019.0,0.027133157801681334
1018.0,0.026162429087991258
1017.0,0.025214049032821557
1016.0,0.024299437675525754
1015.0,0.023421150154506996
1014.0,0.02258710009274218
1013.0,0.021808511971692163
1012.0,0.021088046454394428
1011.0,0.02042139464816331
1010.0,0.01980671431575615
1009.0,0.01924274140549106
1008.0,0.01872154447592912
1007.0,0.018232389624007302
1006.0,0.01776964522490885
1005.0,0.017329843233636934
1004.0,0.016906105863975028
1003.0,0.016493675252765936
1002.0,0.01609602669333617
1001.0,0.015717312540623234
1000.0,0.015353286134091468
999.0,0.01499722074080349
998.0,0.014649972283168083
997.0,0.014316510949119145
996.0,0.013996970522589105
995.0,0.01368871160017985
994.0,0.013393116709500556
993.0,0.013112626584245064
992.0,0.01284425392138519
991.0,0.012583156865733207
990.0,0.012329690034345302
989.0,0.012086314473297145
988.0,0.011850544433159279
987.0,0.011617496509706173
986.0,0.011387141875972315
985.0,0.011163202807304307
984.0,0.010946635608060059
983.0,0.010734851947545018
982.0,0.010525456273032583
981.0,0.010317067122106444
980.0,0.01010899232380571
979.0,0.00990351511560195
978.0,0.009705538416538513
977.0,0.00951679861673294
976.0,0.00933377277795321
975.0,0.009153919017047811
974.0,0.008979733711405698
973.0,0.008813763656573438
972.0,0.0086545752289319
971.0,0.00850166743601127
970.0,0.0083601338698248
969.0,0.008236472943173544
968.0,0.008133707225855942
967.0,0.008054884334816683
966.0,0.008008260756809693
965.0,0.008005225985393626
964.0,0.008055383687983777
963.0,0.008165023900505218
962.0,0.00833426923402079
961.0,0.008549538415994753
960.0,0.008780608199717637
959.0,0.008990144198845843
958.0,0.009147494225731623
957.0,0.009234030805316219
956.0,0.009241465297822412
955.0,0.009172378597598669
954.0,0.009041218111068977
953.0,0.008868596687319107
952.0,0.008673170695110014
951.0,0.008469700778348042
950.0,0.008270035346048352
949.0,0.008080706660055802
948.0,0.007901749650118684
947.0,0.007731855054155124
946.0,0.007573040319899893
945.0,0.0074278322548334
944.0,0.007294842737000184
943.0,0.0071704649691310355
942.0,0.007053029506315468
941.0,0.006942962785943861
940.0,0.006841064494751092
939.0,0.006748693876170367
938.0,0.00666722786678595
937.0,0.006595369089029602
936.0,0.006529340767739103
935.0,0.006467126731859271
934.0,0.006409828727484971
933.0,0.00635791025371368
932.0,0.006309698367729211
931.0,0.006264938360884672
930.0,0.006225877416481302
929.0,0.006192979803997427
928.0,0.006163460509577268
927.0,0.006136135835189472
926.0,0.00611378729914008
925.0,0.00609825680098258
924.0,0.006086916878343108
923.0,0.006076520541327292
922.0,0.00606678775980217
921.0,0.006057532862995849
920.0,0.006046227898725887
919.0,0.00603194388566154
918.0,0.006018475035248093
917.0,0.00600980887600111
916.0,0.006004618062198959
915.0,0.005997904437475847
914.0,0.005985631540031068
913.0,0.005965178109899737
912.0,0.005934137368885255
911.0,0.005892093994901138
910.0,0.005841854807309289
909.0,0.0057864651879039
908.0,0.005726955575454128
907.0,0.00566465480101332
906.0,0.0056027220079184915
905.0,0.005543409015490355
904.0,0.005486847801392055
903.0,0.005434276838940887
902.0,0.005389002247873577
901.0,0.0053522410727213435
900.0,0.005321493342513884
899.0,0.005294630695793606
898.0,0.005271383558851006
897.0,0.005248489451309205
896.0,0.005217705404839442
895.0,0.005171707369906278
894.0,0.005108540993684562
893.0,0.005028080762169066
892.0,0.004928926647974612
891.0,0.0048127629694843235
890.0,0.00468848911321495
889.0,0.004568985691011279
888.0,0.004467487651202696
887.0,0.004400137561663513
886.0,0.004387582054828756
885.0,0.004449129906320569
884.0,0.004596857353047726
883.0,0.004837109787023824
882.0,0.005173607425273664
881.0,0.005604685594866295
880.0,0.006118912129474274
879.0,0.0066966013469198175
878.0,0.007314968288361442
877.0,0.007949895985109716
876.0,0.008574905362034785
875.0,0.009162759792609491
874.0,0.009688148943242882
873.0,0.01012710997487495
872.0,0.01045882628421446
871.0,0.010676173963121356
870.0,0.010793853339546512
869.0,0.01083946627401459
868.0,0.010835949809804351
867.0,0.010794518151751949
866.0,0.010717858981616691
865.0,0.010601675717725963
864.0,0.01043500008514081
863.0,0.01020569706102795
862.0,0.00990575065977672
861.0,0.009529307543980313
860.0,0.009072001980902382
859.0,0.00854021562488972
858.0,0.00795880000755378
857.0,0.007364214761720968
856.0,0.006791883567673584
855.0,0.0062722659114770336
854.0,0.00583082323707426
853.0,0.005482898594024781
852.0,0.005228773931373256
851.0,0.005055934109235237
850.0,0.004942950198994123
849.0,0.004860196933658064
848.0,0.004774342832881286
847.0,0.0046604657013205745
846.0,0.004510625358002523
845.0,0.0043294256652792185
844.0,0.004125334210623543
843.0,0.0039092720902989915
842.0,0.0036959895684678615
841.0,0.003499531425232471
840.0,0.0033273571209408073
839.0,0.0031808198151037524
838.0,0.0030585628948166443
837.0,0.002957039487732482
836.0,0.0028709879020191002
835.0,0.0027968618491144084
834.0,0.002734188256902816
833.0,0.002681869323549457
832.0,0.002635925313560384
831.0,0.0025929653321656526
830.0,0.0025530042096408665
829.0,0.002516739106113314
828.0,0.0024833864218495325
827.0,0.0024537274987932655
826.0,0.002431107936554412
825.0,0.0024157601465749174
824.0,0.002402344262782105
823.0,0.0023866748129203414
822.0,0.0023698524824753197
821.0,0.0023528206693200224
820.0,0.0023331984266672465
819.0,0.0023106597815188007
818.0,0.002289812784554487
817.0,0.002274707621368309
816.0,0.0022646285677849964
815.0,0.0022575152128783546
814.0,0.0022531435307167145
813.0,0.0022500487844271683
812.0,0.0022437361022525143
811.0,0.002231979626401496
810.0,0.002218824041919292
809.0,0.0022097839066685067
808.0,0.002205766562473073
807.0,0.0022046594532543155
806.0,0.0022057223658210317
805.0,0.0022089511527959606
804.0,0.002212863373918501
803.0,0.0022163726695902256
802.0,0.0022209034591494066
801.0,0.0022280495149974685
800.0,0.002237355664780427
799.0,0.0022486246571856118
798.0,0.0022636696314647566
797.0,0.0022834892474085412
796.0,0.0023067850844386206
795.0,0.00233394259227215
794.0,0.0023695901478117433
793.0,0.0024184950916769947
792.0,0.002481558878069513
791.0,0.002558010803750067
790.0,0.0026481186691624933
789.0,0.0027508853795350317
788.0,0.002862306122789181
787.0,0.002979344390325379
786.0,0.003103168368881833
785.0,0.003235254232392964
784.0,0.003372474748041702
783.0,0.003509230393984754
782.0,0.0036428205062849425
781.0,0.003774187469614011
780.0,0.0039053904685669204
779.0,0.004039102168607598
778.0,0.004179002188417506
777.0,0.0043283769108856925
776.0,0.004489458510670042
775.0,0.00466456204084085
774.0,0.004854720322456111
773.0,0.005056352041503514
772.0,0.005263803581884319
771.0,0.005477610439182084
770.0,0.005706213014512502
769.0,0.0059568945789140425
768.0,0.006229274255468771
767.0,0.006520671151639099
766.0,0.006832812564046059
765.0,0.007168540224990876
764.0,0.007525379272785862
763.0,0.007896466366124467
762.0,0.008274193493694742
761.0,0.008648522539269546
760.0,0.00900480892573281
759.0,0.009327716785054889
758.0,0.009605100756678302
757.0,0.009825605606425201
756.0,0.009977481328429178
755.0,0.010055003256921956
754.0,0.010063132516905519
753.0,0.01001220360603878
752.0,0.00991214319765552
751.0,0.00977564876464287
750.0,0.009621102696905567
749.0,0.009465256368807542
748.0,0.00931491843496308
747.0,0.009169714231838336
746.0,0.009029164189211538
745.0,0.008891839078876706
744.0,0.008751148380147417
743.0,0.00859840956286298
742.0,0.008428904064388981
741.0,0.008240546266686397
740.0,0.00802827326735981
739.0,0.007783913279711898
738.0,0.007500357916674373
737.0,0.007173455272066554
736.0,0.006803184067228655
735.0,0.0063977836070707676
734.0,0.005976501475963552
733.0,0.005565731705071065
732.0,0.005191869337914677
731.0,0.00487645049569227
730.0,0.004632823647614872
729.0,0.004462996952170757
728.0,0.004359805894922308
727.0,0.004316324808718091
726.0,0.004331152900754828
725.0,0.0044013309272790705
724.0,0.0045155686997864816
723.0,0.004662035814494779
722.0,0.004839457165249231
721.0,0.00505184057776012
720.0,0.005292508868712038
719.0,0.00554213762952231
718.0,0.005784301677984806
717.0,0.00601432099955017
716.0,0.006232781609757857
715.0,0.006437676126165321
714.0,0.006622112057869681
713.0,0.0067756395711185725
712.0,0.0068909289920697486
711.0,0.006973112490894835
710.0,0.007038227219197347
709.0,0.00709839173609343
708.0,0.007153148578814937
707.0,0.007198100535801439
706.0,0.0072346176301830364
705.0,0.007265694813552024
704.0,0.007289912941127994
703.0,0.007306472668280788
702.0,0.007319455288427685
701.0,0.00733000741036809
700.0,0.007330969022575299
699.0,0.007316691270336011
698.0,0.007292239088713032
697.0,0.007265799319115876
696.0,0.007238168485604442
695.0,0.007207018643592364
694.0,0.0071749047626031084
693.0,0.007144837559335518
692.0,0.00711362929943977
691.0,0.0070781358445740575
690.0,0.007043112745898927
689.0,0.00701408611667477
688.0,0.006986787346232249
687.0,0.00695325533984862
686.0,0.0069137308389727835
685.0,0.006872968878791425
684.0,0.006831311272577498
683.0,0.006788179638904516
682.0,0.006747676292025636
681.0,0.006712768154290555
680.0,0.006679844836467134
679.0,0.006645858680778034
678.0,0.006614528716402128
677.0,0.00658777646309258
676.0,0.006557565684746478
675.0,0.00651842168167301
674.0,0.0064759776102821
673.0,0.006435353553975684
672.0,0.006391550823372597
671.0,0.006340778138952598
670.0,0.006291460276342059
669.0,0.006260014027358984
668.0,0.006246498791952887
667.0,0.006223388852813004
666.0,0.006181394564897566
665.0,0.006132552531196687
664.0,0.006086438006629377
663.0,0.006041944638515172
662.0,0.005996467820213552
661.0,0.005950230449649407
660.0,0.005900272652802074
659.0,0.005841683462541386
658.0,0.005775805912940772
657.0,0.005708283552283415
656.0,0.005640315325582977
655.0,0.005573635585433823
654.0,0.0055153562737315955
653.0,0.005468334450364241
652.0,0.0054237498533024064
651.0,0.005372326830708851
650.0,0.005317671679734418
649.0,0.005269310644756792
648.0,0.005226825274830265
647.0,0.0051800926868854
646.0,0.005121629872138163
645.0,0.005051332886954443
644.0,0.004973417228756961
643.0,0.00489461390315461
642.0,0.004819366012947299
641.0,0.004743351256811705
640.0,0.004660464688481201
639.0,0.004578198439355045
638.0,0.004512877639437891
637.0,0.004465459346238099
636.0,0.0044183976778411765
635.0,0.004361084513548547
634.0,0.004301396861117941
633.0,0.004245093158602118
632.0,0.004182311755465134
631.0,0.004103893332838953
630.0,0.004014852407536961
629.0,0.003922881497169091
628.0,0.0038290306777782517
627.0,0.0037378476824661035
626.0,0.003658049357495594
625.0,0.0035830811682224448
624.0,0.0034924199603390957
623.0,0.0033839692686794577
622.0,0.0032817987227265356
621.0,0.0031966350100254125
620.0,0.00310776713472342
619.0,0.0030026735293031256
618.0,0.0029050961317108985
617.0,0.002839378965086071
616.0,0.002793635504887401
615.0,0.0027454544372867663
614.0,0.00269819077011411
613.0,0.0026669518131524498
612.0,0.002649480108340997
611.0,0.0026299433982676567
610.0,0.002600567785705888
609.0,0.002568449525339295
608.0,0.00254871381362608
607.0,0.0025560196984159376
606.0,0.002590603350503929
605.0,0.0026307487251796676
604.0,0.002650973191929579
603.0,0.00264521358837561
602.0,0.002621440299602061
601.0,0.0025799819252881728
600.0,0.0025166719638865156
599.0,0.002444924715284645
598.0,0.0023907830734941297
597.0,0.0023605159699111276
596.0,0.0023341542295366004
595.0,0.0022942010374997837
594.0,0.002242724768597293
593.0,0.0021880192874492886
592.0,0.0021345110098536842
591.0,0.0020899127838666454
590.0,0.0020592270593152865
589.0,0.002027271770388652
588.0,0.0019700632886810593
587.0,0.0018866417981757031
586.0,0.001800508903534088
585.0,0.001726119506040835
584.0,0.0016578076268532775
583.0,0.0015952458358976093
582.0,0.0015496784083043258
581.0,0.0015180310533846886
580.0,0.0014821544660129473
579.0,0.0014368732479859894
578.0,0.0013878470752230806
577.0,0.0013242275576790669
576.0,0.0012346815479678287
575.0,0.0011520003605766478
574.0,0.0011278268111811068
573.0,0.0011573517625436793
572.0,0.0011823603585789577
571.0,0.001162989216906293
570.0,0.0011123339668705308
569.0,0.0010606095194937949
568.0,0.001021187054225858
567.0,0.001001078618515159
566.0,0.00100297614055753
565.0,0.0010112286380850443
564.0,0.001007920639538645
563.0,0.0009983983263892977
562.0,0.0009950769248603369
561.0,0.000985781848424112
560.0,0.0009544187317643634
559.0,0.0009202315505552807
558.0,0.0009153163405098788
557.0,0.0009329369363543353
556.0,0.0009410616178652464
555.0,0.0009356354236107964
554.0,0.0009367687015527553
553.0,0.0009404791991126232
552.0,0.0009246844851735873
551.0,0.0008956980591885732
550.0,0.0008773671728674491
