cm-1,A
4000.0,0.003279570624936716
3999.0,0.003336391679068889
3998.0,0.0033764895275783524
3997.0,0.0033997753823979196
3996.0,0.0034185579584358385
3995.0,0.0034285297337470887
3994.0,0.0034117376541328934
3993.0,0.003364555631578184
3992.0,0.0033084417123218825
3991.0,0.0032704693457214426
3990.0,0.003262083014770982
3989.0,0.003279043322306297
3988.0,0.003312714393319616
3987.0,0.0033548439707087856
3986.0,0.0033989464427623267
3985.0,0.0034422141981986457
3984.0,0.0034814938056989264
3983.0,0.003506796783012354
3982.0,0.0035071506035912227
3981.0,0.003486514331078062
3980.0,0.0034672356251629916
3979.0,0.003470628315054786
3978.0,0.00349701580566872
3977.0,0.0035295857213738253
3976.0,0.0035530992949915838
3975.0,0.0035626085344624484
3974.0,0.003561904837894113
3973.0,0.003563719747102047
3972.0,0.003588596363338876
3971.0,0.003648951948496352
3970.0,0.003734278964257959
3969.0,0.003817270604660602
3968.0,0.00387091267655019
3967.0,0.003882065534680063
3966.0,0.0038546819707202997
3965.0,0.0038098085995478016
3964.0,0.0037740382423957722
3963.0,0.0037580014818198674
3962.0,0.003747410043870412
3961.0,0.0037268095484222444
3960.0,0.003708541056883752
3959.0,0.0037178168614713913
3958.0,0.003758921266962572
3957.0,0.0038119690869562184
3956.0,0.0038509650322989114
3955.0,0.0038591339319646225
3954.0,0.0038274632311366737
3953.0,0.0037605991724989508
3952.0,0.0036820632858077067
3951.0,0.0036301915606336797
3950.0,0.00363720579208166
3949.0,0.0036947655777275143
3948.0,0.0037570648449645264
3947.0,0.0037937033189859946
3946.0,0.0038210017975705245
3945.0,0.0038610399914670284
3944.0,0.0038983077721447736
3943.0,0.0038877973117429424
3942.0,0.0038130338644731428
3941.0,0.003736480311966042
3940.0,0.0037396058836404265
3939.0,0.003808114545316498
3938.0,0.0038503044133046185
3937.0,0.0038189225121288226
3936.0,0.003754083900621581
3935.0,0.0037220572704571592
3934.0,0.0037378855336896687
3933.0,0.0037704750961689067
3932.0,0.003783543342541223
3931.0,0.0037618680034189594
3930.0,0.0037226255225311887
3929.0,0.0036908474813928116
3928.0,0.003680852696841602
3927.0,0.0036935118355407755
3926.0,0.003705793706744207
3925.0,0.0036853705767903346
3924.0,0.003640914260055703
3923.0,0.00363470677150729
3922.0,0.003690155487592977
3921.0,0.003739996809197836
3920.0,0.003746861477663163
3919.0,0.0037868415199216344
3918.0,0.00392725545050031
3917.0,0.004103954956814948
3916.0,0.004215400936018864
3915.0,0.00426535979088229
3914.0,0.004307491625287457
3913.0,0.004323031651973593
3912.0,0.004256543168323912
3911.0,0.004107912401075747
3910.0,0.003919955970029537
3909.0,0.003737140746054555
3908.0,0.003590726305276645
3907.0,0.003546104378690171
3906.0,0.003680583064057056
3905.0,0.0039834571909294954
3904.0,0.0042658380474144865
3903.0,0.0043356383833471415
3902.0,0.0042465144639769106
3901.0,0.004187014107845603
3900.0,0.004212618019848274
3899.0,0.004247997657408697
3898.0,0.004251896272406875
3897.0,0.004235112212588269
3896.0,0.004161432622030165
3895.0,0.0039848556213673905
3894.0,0.003793316128851318
3893.0,0.0037658954503627957
3892.0,0.003897003731171616
3891.0,0.003940643685413131
3890.0,0.003828515899551915
3889.0,0.0038303408449646015
3888.0,0.0040539893205292655
3887.0,0.004298256819533348
3886.0,0.004327356643236588
3885.0,0.004070550084387016
3884.0,0.0037386385604817485
3883.0,0.0036268697884645432
3882.0,0.003720019822569318
3881.0,0.003817115367053956
3880.0,0.0037865186265594875
3879.0,0.0036799377667215763
3878.0,0.003707417381003471
3877.0,0.003890884571436838
3876.0,0.003991177865482963
3875.0,0.0038313238483098644
3874.0,0.003455765153020216
3873.0,0.003137311986849028
3872.0,0.0031788954044792046
3871.0,0.003542512558561639
3870.0,0.0038246271629313686
3869.0,0.0037704466032121957
3868.0,0.003679571289046179
3867.0,0.0038625862432601667
3866.0,0.004088682059081127
3865.0,0.004087666564918659
3864.0,0.003956649076574248
3863.0,0.0038886026734314162
3862.0,0.00392530350979807
3861.0,0.00396951827108831
3860.0,0.003908923449626556
3859.0,0.0037235100738419683
3858.0,0.0034312237551767984
3857.0,0.00309098390793513
3856.0,0.002819443411622132
3855.0,0.0028535065105348163
3854.0,0.0032953360695708034
3853.0,0.003553314649674932
3852.0,0.0033190188697285548
3851.0,0.0033735449578059205
3850.0,0.0038998828216140757
3849.0,0.0043168901284850025
3848.0,0.004411761485297393
3847.0,0.004338562440252694
3846.0,0.004239273078600919
3845.0,0.004120400732624086
3844.0,0.0039412951541196554
3843.0,0.0036892146639477593
3842.0,0.0034379414901529425
3841.0,0.003308046372613265
3840.0,0.003331846002448003
3839.0,0.003439302496684657
3838.0,0.0035151469813428943
3837.0,0.003535212913666994
3836.0,0.0036081503252990404
3835.0,0.003819432421643074
3834.0,0.004097181815025061
3833.0,0.004310701266016985
3832.0,0.004385976311645064
3831.0,0.004356297250865244
3830.0,0.004330460983811398
3829.0,0.004371179250107254
3828.0,0.004408968029239076
3827.0,0.004300397333971908
3826.0,0.003987400960094903
3825.0,0.0036216894859405456
3824.0,0.0034214459587198123
3823.0,0.0034550028381115892
3822.0,0.0036570980471442513
3821.0,0.003778534724185297
3820.0,0.0036143206289704338
3819.0,0.0035452096349746012
3818.0,0.003840470181550617
3817.0,0.004184740683740635
3816.0,0.0042843342865953055
3815.0,0.004172861452800547
3814.0,0.004182929101788524
3813.0,0.004444324403869668
3812.0,0.004627979562467653
3811.0,0.004517411145409269
3810.0,0.004316729844833762
3809.0,0.004301359524903221
3808.0,0.004446488700011518
3807.0,0.004416183853939144
3806.0,0.004047607306977478
3805.0,0.0036882298362207917
3804.0,0.003663920558965434
3803.0,0.0038519451413150836
3802.0,0.003972849288031632
3801.0,0.0037886993276984495
3800.0,0.003450049254361369
3799.0,0.0034610041972026936
3798.0,0.0038030592485843763
3797.0,0.004070458049373379
3796.0,0.004133915019373742
3795.0,0.0041545351778857105
3794.0,0.00431079843105827
3793.0,0.0045576177337225635
3792.0,0.004725851533561622
3791.0,0.004751644612345443
3790.0,0.004682966154681438
3789.0,0.004559885955016446
3788.0,0.004412646477394026
3787.0,0.004296471349902365
3786.0,0.0042525179551190975
3785.0,0.0042325388815357915
3784.0,0.004161964742555589
3783.0,0.004066686990383251
3782.0,0.00403214065110233
3781.0,0.004077543069885271
3780.0,0.004158469345087333
3779.0,0.004211381759585263
3778.0,0.004236444483346324
3777.0,0.004325605200674595
3776.0,0.004473549611184761
3775.0,0.004549626969670571
3774.0,0.00450458366317834
3773.0,0.004445024212038271
3772.0,0.004462844523797634
3771.0,0.004501255810081201
3770.0,0.004428500633514194
3769.0,0.004249400448113304
3768.0,0.004154219713360953
3767.0,0.004252714489782363
3766.0,0.00439826473416826
3765.0,0.004407355184400922
3764.0,0.004301140595151099
3763.0,0.004234181525535197
3762.0,0.004227328636625284
3761.0,0.004161299250478775
3760.0,0.00402479085901458
3759.0,0.0039088360165846735
3758.0,0.0038191393344559066
3757.0,0.0037159895064253785
3756.0,0.0036070879194064816
3755.0,0.003511064831012994
3754.0,0.0033847077427286796
3753.0,0.0032269111474219434
3752.0,0.00321177189995964
3751.0,0.0034058579605345148
3750.0,0.003492989357008966
3749.0,0.0033423716862432847
3748.0,0.0032845272749325565
3747.0,0.0035568743135618707
3746.0,0.004050210146069939
3745.0,0.004451979120370162
3744.0,0.004354175560021987
3743.0,0.0038783160681674627
3742.0,0.003708368606873281
3741.0,0.0038315960998396674
3740.0,0.0037385555172875784
3739.0,0.003399727213775775
3738.0,0.0031015543093509002
3737.0,0.0030098194015280707
3736.0,0.0030511791229970824
3735.0,0.003101018174480861
3734.0,0.003191021366670205
3733.0,0.0034175263607809907
3732.0,0.0036921912100171955
3731.0,0.0039020116538468434
3730.0,0.00410699596175057
3729.0,0.0043392733574681985
3728.0,0.004472396408276454
3727.0,0.00439909825789276
3726.0,0.00419856000947849
3725.0,0.0040643516118951985
3724.0,0.004099181117453565
3723.0,0.004220440367804846
3722.0,0.004318103559121085
3721.0,0.004371506081172882
3720.0,0.0043991350841298855
3719.0,0.0043661349981840274
3718.0,0.004190441786225456
3717.0,0.0038716272084435895
3716.0,0.0035429350600370297
3715.0,0.00335859205363084
3714.0,0.0033815238012588796
3713.0,0.0036321656519148118
3712.0,0.0040663215539113885
3711.0,0.004459438142338169
3710.0,0.004665679574651039
3709.0,0.004830337473689984
3708.0,0.00505491542880105
3707.0,0.005268912420141865
3706.0,0.005426343833555657
3705.0,0.0055809224040521185
3704.0,0.005808087248555574
3703.0,0.006125308582188479
3702.0,0.006453705341720869
3701.0,0.0066754871203832875
3700.0,0.006801161263685927
3699.0,0.006942547154239094
3698.0,0.007087763898485403
3697.0,0.007109562649326632
3696.0,0.006961271637038746
3695.0,0.006713094757591796
3694.0,0.006410623333176702
3693.0,0.006016690808602322
3692.0,0.005567386850382267
3691.0,0.005275341442998413
3690.0,0.00531005825224197
3689.0,0.005479844466251792
3688.0,0.005511367004030272
3687.0,0.005523716678051228
3686.0,0.005713282513934759
3685.0,0.005959468611504464
3684.0,0.006034794708549628
3683.0,0.005912135538060326
3682.0,0.005722609165655233
3681.0,0.005532780826138688
3680.0,0.005269431754977877
3679.0,0.004930486016983987
3678.0,0.004712951223202722
3677.0,0.004819197808016536
3676.0,0.005115353640042793
3675.0,0.005070979065262764
3674.0,0.004731394054672874
3673.0,0.004761972984753157
3672.0,0.0051557042867918165
3671.0,0.005499876009582742
3670.0,0.005669789783817549
3669.0,0.005658815140270421
3668.0,0.005687569591993272
3667.0,0.0059467972304336775
3666.0,0.00623260219449113
3665.0,0.006336507283386916
3664.0,0.006294343109056889
3663.0,0.006223110185334786
3662.0,0.006155143866810826
3661.0,0.006045795767758657
3660.0,0.00588102654327872
3659.0,0.0057339096791832606
3658.0,0.005696875227466938
3657.0,0.005758493230064431
3656.0,0.005751151470125126
3655.0,0.005580194443677654
3654.0,0.005381621158833184
3653.0,0.005197115269701437
3652.0,0.00493536895970903
3651.0,0.004759529458358794
3650.0,0.005029790242956137
3649.0,0.005535354149275312
3648.0,0.005729153783306495
3647.0,0.005702819182386503
3646.0,0.005786498160055564
3645.0,0.005996942148864107
3644.0,0.006185586527091362
3643.0,0.006248174727950287
3642.0,0.006205916910790348
3641.0,0.006155488587010342
3640.0,0.006155730149927761
3639.0,0.006170632076108058
3638.0,0.006133097171455566
3637.0,0.006065424019577298
3636.0,0.006044132032229336
3635.0,0.006052632790650029
3634.0,0.005988047565490619
3633.0,0.005823930860868012
3632.0,0.005678026115201292
3631.0,0.005672317213642473
3630.0,0.00592268019337574
3629.0,0.0063745421040419525
3628.0,0.0066648242524269975
3627.0,0.006849069408278447
3626.0,0.007222483277297747
3625.0,0.007566735206140041
3624.0,0.007639385605328076
3623.0,0.00754058678920203
3622.0,0.007483645445114279
3621.0,0.007571417811974516
3620.0,0.007732240352595458
3619.0,0.0077644170861758555
3618.0,0.007554913316929129
3617.0,0.007256997752914791
3616.0,0.007042657563716106
3615.0,0.006911950543450151
3614.0,0.0068200380364052664
3613.0,0.006757371540537179
3612.0,0.006749391758107523
3611.0,0.0068388535762769626
3610.0,0.007020298794459222
3609.0,0.0072417164118095435
3608.0,0.007442319647263775
3607.0,0.007563981565746267
3606.0,0.007601758425148599
3605.0,0.007569137966361708
3604.0,0.007460512726254675
3603.0,0.007321499402710518
3602.0,0.007236576446687789
3601.0,0.007214968413520009
3600.0,0.007180643011103419
3599.0,0.007090235538391254
3598.0,0.006971699774490716
3597.0,0.006873732658402323
3596.0,0.006844798934946434
3595.0,0.006900963027678227
3594.0,0.007005582758573919
3593.0,0.007107994131455882
3592.0,0.007184137415231653
3591.0,0.0072065749154473
3590.0,0.007162089167302731
3589.0,0.00711231069195566
3588.0,0.007144135076389495
3587.0,0.007208070109478354
3586.0,0.007247016783507514
3585.0,0.007343093718266459
3584.0,0.007498418730172332
3583.0,0.007605618457143224
3582.0,0.007624111285563022
3581.0,0.00758868791055466
3580.0,0.007531108065555417
3579.0,0.00746326721245639
3578.0,0.007411460017704487
3577.0,0.007416945872059539
3576.0,0.007505125128477928
3575.0,0.007644896522401568
3574.0,0.00775774001945918
3573.0,0.007769952347493385
3572.0,0.00765957340609608
3571.0,0.0074627212832080875
3570.0,0.007259657346280122
3569.0,0.00715587259348089
3568.0,0.007219922160492682
3567.0,0.00734189329591802
3566.0,0.007336554531818395
3565.0,0.007267025096344077
3564.0,0.0073045971094381785
3563.0,0.007462081849181214
3562.0,0.0076853474538208875
3561.0,0.00794470173831221
3560.0,0.008200133332212199
3559.0,0.008385433409783745
3558.0,0.00845070923811647
3557.0,0.008397541466013196
3556.0,0.00828114940452411
3555.0,0.008189846102320089
3554.0,0.008193574848752628
3553.0,0.008284037859801637
3552.0,0.008371756711097113
3551.0,0.008383183472821656
3550.0,0.00832861284425412
3549.0,0.008262046340780045
3548.0,0.0082420449870275
3547.0,0.008321556278821116
3546.0,0.008493090431613668
3545.0,0.008680913112088686
3544.0,0.008832240889970725
3543.0,0.008957256400795971
3542.0,0.009071279251916343
3541.0,0.00915774201918803
3540.0,0.009192635427305446
3539.0,0.0091817438540709
3538.0,0.009160078719602862
3537.0,0.00916400367252414
3536.0,0.00920723257097557
3535.0,0.009287061593906791
3534.0,0.00939022777889452
3533.0,0.009478578829629183
3532.0,0.009496338769476476
3531.0,0.009414251710184136
3530.0,0.00926668326064087
3529.0,0.009133035875097426
3528.0,0.009083311468201401
3527.0,0.009132666852029795
3526.0,0.0092414854167929
3525.0,0.009344944966562643
3524.0,0.009400263720254305
3523.0,0.00941912085322148
3522.0,0.00945039614368854
3521.0,0.009526030631481594
3520.0,0.009626540799438662
3519.0,0.009707128157596454
3518.0,0.009750729525118662
3517.0,0.009782236074207655
3516.0,0.00982724078865624
3515.0,0.009873884458508913
3514.0,0.009890376883432797
3513.0,0.009871910130415634
3512.0,0.009854063447264557
3511.0,0.009877900034507054
3510.0,0.009950393322077677
3509.0,0.010037843175341267
3508.0,0.010105586150429027
3507.0,0.010149019259412282
3506.0,0.010181916154104468
3505.0,0.010218816000188717
3504.0,0.010267531249815078
3503.0,0.010317071321241836
3502.0,0.010351459006099116
3501.0,0.010377256835579518
3500.0,0.010410075533668926
3499.0,0.010450648520397515
3498.0,0.01049359564995115
3497.0,0.010542284240593367
3496.0,0.010605916581219382
3495.0,0.010684780677096974
3494.0,0.010762900950965906
3493.0,0.010816234159854318
3492.0,0.010830524890295982
3491.0,0.01081579963439841
3490.0,0.010802300919767641
3489.0,0.010815207060544021
3488.0,0.010850539165158596
3487.0,0.010884135923919581
3486.0,0.010906592638461325
3485.0,0.010936592485913877
3484.0,0.010995009747219255
3483.0,0.011073033341033782
3482.0,0.011131480188853397
3481.0,0.011136744106170961
3480.0,0.011095899021733632
3479.0,0.011044674974729465
3478.0,0.011012484465016978
3477.0,0.01101343918262654
3476.0,0.011056153867361068
3475.0,0.011139823544774967
3474.0,0.011241844308430808
3473.0,0.01132439239856106
3472.0,0.011360986793865768
3471.0,0.011355968972114931
3470.0,0.011340277748551758
3469.0,0.01134791308856461
3468.0,0.011391775182734062
3467.0,0.011461287034831647
3466.0,0.011539721885325462
3465.0,0.011616330505081969
3464.0,0.011681439937341803
3463.0,0.0117259496375289
3462.0,0.011756682386312486
3461.0,0.011801816076743087
3460.0,0.011883046428605597
3459.0,0.011982052851051112
3458.0,0.012050212159699824
3457.0,0.012058428962063595
3456.0,0.012026725753069182
3455.0,0.012000883527681722
3454.0,0.012007409129735584
3453.0,0.012037820368274221
3452.0,0.012072425400278433
3451.0,0.01210481029235964
3450.0,0.012137359913523004
3449.0,0.012163313813266446
3448.0,0.012173467572055598
3447.0,0.012178354731327421
3446.0,0.012210796687201066
3445.0,0.0122932348307551
3444.0,0.012405120869345213
3443.0,0.012497988191553445
3442.0,0.01254191953237364
3441.0,0.012545219352367073
3440.0,0.012535169933268333
3439.0,0.012534813908364993
3438.0,0.012559839708884753
3437.0,0.012623681329726456
3436.0,0.012728470481921147
3435.0,0.012851526161657984
3434.0,0.012947472533525569
3433.0,0.012973047199175799
3432.0,0.012922524926522766
3431.0,0.012840326047981097
3430.0,0.012789487715326397
3429.0,0.012799405865550912
3428.0,0.012850892319645722
3427.0,0.012908314697817249
3426.0,0.012955014581213727
3425.0,0.01299473948183005
3424.0,0.013033491205433866
3423.0,0.01307369378242474
3422.0,0.013120227256237144
3421.0,0.01317631785211762
3420.0,0.013228847996942152
3419.0,0.01325362910067348
3418.0,0.013245561769341448
3417.0,0.013235344963711513
3416.0,0.013263214062424276
3415.0,0.013328820227168737
3414.0,0.01337951685571256
3413.0,0.013369294299159878
3412.0,0.013325712540921148
3411.0,0.013333827257825996
3410.0,0.013444089044444545
3409.0,0.013612058263118943
3408.0,0.013744780684693907
3407.0,0.013796753232806103
3406.0,0.013803807691992916
3405.0,0.013827390406098625
3404.0,0.013880832816318536
3403.0,0.013919355322558943
3402.0,0.013898132702562838
3401.0,0.013827649498428005
3400.0,0.013759527343701283
3399.0,0.013721054010915973
3398.0,0.013684700027781438
3397.0,0.013615280736361503
3396.0,0.013529029062943128
3395.0,0.013477018714082675
3394.0,0.013478853743580588
3393.0,0.013506008512633307
3392.0,0.01353679618851229
3391.0,0.01359251886470524
3390.0,0.013693108524707266
3389.0,0.01380315833184876
3388.0,0.013858680550313567
3387.0,0.013843083969848631
3386.0,0.013807518459866476
3385.0,0.013807713909755909
3384.0,0.013841132404140286
3383.0,0.013860656257202997
3382.0,0.013834833804602913
3381.0,0.013776746727554644
3380.0,0.013721721820868518
3379.0,0.013696707454739346
3378.0,0.013716195164779128
3377.0,0.013788077521645896
3376.0,0.013901515351451572
3375.0,0.01401117103479093
3374.0,0.014059936073502241
3373.0,0.014034951811597952
3372.0,0.013990311938380358
3371.0,0.013995048374196465
3370.0,0.01406075384717951
3369.0,0.014135517563072481
3368.0,0.014168596180311747
3367.0,0.014161603417745965
3366.0,0.014146119279873116
3365.0,0.014131684491594503
3364.0,0.014101627178754416
3363.0,0.014055217831259095
3362.0,0.014026410490398409
3361.0,0.014046818541949245
3360.0,0.014101340378916475
3359.0,0.014139439422650994
3358.0,0.01413418026164082
3357.0,0.014117129653047716
3356.0,0.014142729517399925
3355.0,0.014219087125054618
3354.0,0.014290014461906576
3353.0,0.014295775187637475
3352.0,0.014239466827361772
3351.0,0.014178828735291672
3350.0,0.014160304887635734
3349.0,0.01418263549887296
3348.0,0.014223169131187943
3347.0,0.014270375792931757
3346.0,0.01431347762868606
3345.0,0.014323072671034495
3344.0,0.014272506581438752
3343.0,0.014176657422927015
3342.0,0.014086773250340294
3341.0,0.014041775076072918
3340.0,0.01403901407989842
3339.0,0.014055734666087935
3338.0,0.014084721627159298
3337.0,0.014137883651084635
3336.0,0.014220611333736713
3335.0,0.014314045041711486
3334.0,0.014386878276010213
3333.0,0.014421070500102877
3332.0,0.014421412675724225
3331.0,0.01439855543810745
3330.0,0.014350585163668706
3329.0,0.014274657551579532
3328.0,0.014195818549986347
3327.0,0.014162294602211689
3326.0,0.014196252603533754
3325.0,0.014264736513785327
3324.0,0.014318546316093365
3323.0,0.01434766251119584
3322.0,0.01437500102135434
3321.0,0.014405126825398035
3320.0,0.014410498236082137
3319.0,0.014372793288864785
3318.0,0.01431143033448179
3317.0,0.014258151145363867
3316.0,0.014222734208937136
3315.0,0.014196995586386034
3314.0,0.014175487511193047
3313.0,0.014154123142640852
3312.0,0.014120426394250644
3311.0,0.014066481153337106
3310.0,0.014009225583899106
3309.0,0.013980551392006497
3308.0,0.013995885314990658
3307.0,0.014044955802553546
3306.0,0.014113400761083233
3305.0,0.014199648712381063
3304.0,0.014304704720262705
3303.0,0.014412554677201359
3302.0,0.014487532583666488
3301.0,0.014494241331590035
3300.0,0.01442489629712793
3299.0,0.014313077947564215
3298.0,0.01421793631491039
3297.0,0.014183527877689641
3296.0,0.014205450254826314
3295.0,0.014237090689839894
3294.0,0.014231560319313972
3293.0,0.014180876246932456
3292.0,0.014118632676841929
3291.0,0.014087183638385459
3290.0,0.014103268335637898
3289.0,0.014151987126011345
3288.0,0.01420559866635172
3287.0,0.014241494170799614
3286.0,0.014246795227757767
3285.0,0.014221518700125706
3284.0,0.014185886936953492
3283.0,0.014170690856444484
3282.0,0.014183640180206541
3281.0,0.014190224732642219
3280.0,0.01414555814268267
3279.0,0.014048249685137855
3278.0,0.013948176310249964
3277.0,0.013894440549692626
3276.0,0.013887157105246954
3275.0,0.013889918932808012
3274.0,0.013877975791789395
3273.0,0.013857865005902421
3272.0,0.01384613439301774
3271.0,0.013849591300513872
3270.0,0.013870640090458325
3269.0,0.013914699339969309
3268.0,0.013978275228941489
3267.0,0.014034651568268247
3266.0,0.014046937224550513
3265.0,0.014004769720822405
3264.0,0.013943122570096188
3263.0,0.01391133438242944
3262.0,0.013921868437745732
3261.0,0.013940298337632787
3260.0,0.013929583184128323
3259.0,0.013892640052883477
3258.0,0.013859842330620011
3257.0,0.01384456228533884
3256.0,0.013834115637565692
3255.0,0.013826354709291614
3254.0,0.01384458204376101
3253.0,0.013897799072761435
3252.0,0.013948070052876238
3251.0,0.013946893658281924
3250.0,0.013898693604260937
3249.0,0.013860418330907658
3248.0,0.013872464550122032
3247.0,0.013911923614772517
3246.0,0.013927856658797536
3245.0,0.01390721172296884
3244.0,0.013884340188012698
3243.0,0.013889481643500595
3242.0,0.01391205122489068
3241.0,0.013921249532274142
3240.0,0.013905864820231574
3239.0,0.013881886410717841
3238.0,0.013867808835616568
3237.0,0.013864188299581654
3236.0,0.013859009685580487
3235.0,0.01384609150605564
3234.0,0.013832082172907992
3233.0,0.013828596296990806
3232.0,0.013842806539899069
3231.0,0.013873295568509747
3230.0,0.013907395168287987
3229.0,0.013920245697030858
3228.0,0.013885419014017096
3227.0,0.01379669651070162
3226.0,0.013677918962651296
3225.0,0.013563252103907315
3224.0,0.013466431121108277
3223.0,0.013372494764585022
3222.0,0.013259728093769026
3221.0,0.013127237598021362
3220.0,0.013002377880251947
3219.0,0.012924726122690616
3218.0,0.01292101512951304
3217.0,0.012985884530963308
3216.0,0.013080293115532732
3215.0,0.013154034275269146
3214.0,0.01317760495593532
3213.0,0.013153153681341064
3212.0,0.013096327965918558
3211.0,0.013018693374822587
3210.0,0.01293407786002274
3209.0,0.01286973654226092
3208.0,0.012853457179089759
3207.0,0.01288578807749587
3206.0,0.012933099595773705
3205.0,0.012953328712641918
3204.0,0.012928288022325301
3203.0,0.012871318292861696
3202.0,0.01280879492077601
3201.0,0.012758349287110653
3200.0,0.012721465869412373
3199.0,0.012688468585204428
3198.0,0.012645941236324523
3197.0,0.012584840530418195
3196.0,0.012511401374169541
3195.0,0.012452474850996174
3194.0,0.012440270491307859
3193.0,0.012482228770830803
3192.0,0.012546156855274986
3191.0,0.012582251102412574
3190.0,0.012562812033934272
3189.0,0.012498987197603437
3188.0,0.012423000921597233
3187.0,0.012361315608648627
3186.0,0.012324331569843033
3185.0,0.012310268098983414
3184.0,0.012310757079718352
3183.0,0.012315650541421636
3182.0,0.012316288461239527
3181.0,0.012304598011578126
3180.0,0.012273608846835272
3179.0,0.01222583931652024
3178.0,0.01217756374036567
3177.0,0.012144496167820476
3176.0,0.012123284900202183
3175.0,0.012097709812383716
3174.0,0.012063642999326751
3173.0,0.012035428150614865
3172.0,0.012022684435522209
3171.0,0.01201400888194468
3170.0,0.011994475150613854
3169.0,0.011968398394432882
3168.0,0.011949170118676218
3167.0,0.011931725539781413
3166.0,0.011894487471752008
3165.0,0.011832414301481065
3164.0,0.011772582767987294
3163.0,0.011745740852807196
3162.0,0.011747507284774618
3161.0,0.011738645383785915
3160.0,0.011687360989106393
3159.0,0.01160569107837815
3158.0,0.011535641037645079
3157.0,0.01149849271179364
3156.0,0.011468231786742953
3155.0,0.01140593731130056
3154.0,0.011315372137989266
3153.0,0.01124673513551394
3152.0,0.01123815582557584
3151.0,0.011267591170247278
3150.0,0.011276775554503439
3149.0,0.011234969755044757
3148.0,0.01116277338225925
3147.0,0.011097000340670102
3146.0,0.011053428235862478
3145.0,0.011030724505110254
3144.0,0.0110300387938374
3143.0,0.0110487821956372
3142.0,0.01106005938745313
3141.0,0.011022504107855324
3140.0,0.010922790468454216
3139.0,0.010799460508119958
3138.0,0.010713531334198242
3137.0,0.010695953446601243
3136.0,0.010727454426001646
3135.0,0.010765887278778873
3134.0,0.01078542699370344
3133.0,0.010786176768331617
3132.0,0.010772060500100624
3131.0,0.01073287394906793
3130.0,0.01065739879464386
3129.0,0.010561747429356373
3128.0,0.01049466329696267
3127.0,0.010503307293055632
3126.0,0.010588565535334219
3125.0,0.010697595453282409
3124.0,0.010766294555517465
3123.0,0.010769844202666154
3122.0,0.010729912111825347
3121.0,0.01067919224892067
3120.0,0.010632014573132276
3119.0,0.01059075984460122
3118.0,0.010565188227202127
3117.0,0.010570374609915278
3116.0,0.010607305123084998
3115.0,0.010658518381518274
3114.0,0.010706535106749215
3113.0,0.01074778011242365
3112.0,0.010784951321993912
3111.0,0.010815412633091409
3110.0,0.010835863212858333
3109.0,0.010855127025795646
3108.0,0.010892027973692375
3107.0,0.010954751840206207
3106.0,0.011025090966038148
3105.0,0.011069498020270345
3104.0,0.011071027409703876
3103.0,0.011047035541241897
3102.0,0.011029050586233737
3101.0,0.011028936204146725
3100.0,0.01103433860186422
3099.0,0.011033368139510311
3098.0,0.011029097830598807
3097.0,0.011028358545344338
3096.0,0.011029916249817836
3095.0,0.01103187513873226
3094.0,0.011043079314931615
3093.0,0.01107915280277975
3092.0,0.011153056040912714
3091.0,0.011277273667374476
3090.0,0.011466674096189077
3089.0,0.011724527117060696
3088.0,0.01202516080894337
3087.0,0.012321461981990219
3086.0,0.012574688822489029
3085.0,0.01277259881610876
3084.0,0.012918419736052546
3083.0,0.013009479920046363
3082.0,0.013031511327201584
3081.0,0.01297094223330313
3080.0,0.012829141384684713
3079.0,0.012627071764717225
3078.0,0.012400467391292268
3077.0,0.01218987258246958
3076.0,0.012028672809854044
3075.0,0.011934241333548168
3074.0,0.011905581729299097
3073.0,0.011927622914216437
3072.0,0.011982227548326426
3071.0,0.012060898037884129
3070.0,0.012168759716039656
3069.0,0.012316684559768474
3068.0,0.012512038290791701
3067.0,0.012757628016133794
3066.0,0.013054103416089896
3065.0,0.013394695455910183
3064.0,0.01375411470099979
3063.0,0.014086311414009709
3062.0,0.014339842964261093
3061.0,0.014480991079095108
3060.0,0.014504585989285067
3059.0,0.014424606552121008
3058.0,0.014257511160283124
3057.0,0.014016501253978346
3056.0,0.013716802435237891
3055.0,0.01337860532003237
3054.0,0.01302335365398195
3053.0,0.012671313305835749
3052.0,0.012343224484999762
3051.0,0.012057651068040007
3050.0,0.011822540391356383
3049.0,0.011633782318134861
3048.0,0.011485743244995284
3047.0,0.011379409417794086
3046.0,0.011318451701498065
3045.0,0.011303092522833465
3044.0,0.01133180340773541
3043.0,0.011403290067520028
3042.0,0.011512368803056125
3041.0,0.01164903444202686
3040.0,0.01180717676068406
3039.0,0.011991427106580044
3038.0,0.012211445939174483
3037.0,0.01247645612834322
3036.0,0.012804410027722549
3035.0,0.013229977880560705
3034.0,0.013788324545116425
3033.0,0.01448650917510129
3032.0,0.015294927581519444
3031.0,0.016164707259417956
3030.0,0.01704341898126638
3029.0,0.01787158675003955
3028.0,0.018576760346979047
3027.0,0.019083135712526848
3026.0,0.019328744324297528
3025.0,0.019276243768199246
3024.0,0.018919609039816248
3023.0,0.018291966887189173
3022.0,0.017464045830450196
3021.0,0.016522990042571354
3020.0,0.015548335805107484
3019.0,0.014606432236252749
3018.0,0.013753344143099564
3017.0,0.013025430504898114
3016.0,0.012426092448589037
3015.0,0.011934150938679583
3014.0,0.01153059372663248
3013.0,0.011214207570397596
3012.0,0.010993886114860447
3011.0,0.010871508055898108
3010.0,0.010829583876061403
3009.0,0.01083078196218653
3008.0,0.010836678604768635
3007.0,0.010837797190872243
3006.0,0.010861272043414385
3005.0,0.0109343463380647
3004.0,0.011038027418751246
3003.0,0.011110042909846919
3002.0,0.01109848796053588
3001.0,0.011003579017133185
3000.0,0.010864987370521814
2999.0,0.01071873584500759
2998.0,0.010572153500606555
2997.0,0.01041190191781704
2996.0,0.01022610945791643
2995.0,0.010020726482833257
2994.0,0.009820457350544072
2993.0,0.009653320119602146
2992.0,0.009532342676907314
2991.0,0.009453853925177155
2990.0,0.00941191042442547
2989.0,0.009405626601987686
2988.0,0.009427352678313758
2987.0,0.00945223437685735
2986.0,0.00945192852080613
2985.0,0.009420536231941947
2984.0,0.009380483430331753
2983.0,0.009361047062747367
2982.0,0.009374588320502508
2981.0,0.009412301841319493
2980.0,0.0094558546500984
2979.0,0.009489199029503546
2978.0,0.009503844123761648
2977.0,0.009501529560849006
2976.0,0.009496171790600815
2975.0,0.00951032169584978
2974.0,0.009563058121651204
2973.0,0.009656451547800222
2972.0,0.009773952736202879
2971.0,0.009894290360334724
2970.0,0.010007064401388412
2969.0,0.010113032277394097
2968.0,0.010210765030687
2967.0,0.010289844413497503
2966.0,0.010344080934646846
2965.0,0.01038985837859254
2964.0,0.010461642818812013
2963.0,0.010582836260382358
2962.0,0.010743144166835434
2961.0,0.01090919886962271
2960.0,0.011055160818263366
2959.0,0.011176660226330057
2958.0,0.011276962256198399
2957.0,0.011352779093710456
2956.0,0.01140426763208077
2955.0,0.011453616389565852
2954.0,0.011539220798538457
2953.0,0.011684561149654753
2952.0,0.01187760906230114
2951.0,0.012084525546603064
2950.0,0.01227958987566306
2949.0,0.01245908283701866
2948.0,0.012633289727102814
2947.0,0.012815079356216605
2946.0,0.01301744132377495
2945.0,0.013255439885113917
2944.0,0.013544641294522246
2943.0,0.013896082600503484
2942.0,0.014312134216114068
2941.0,0.014785099222834854
2940.0,0.015298069364741321
2939.0,0.01582928145911038
2938.0,0.01636178294218903
2937.0,0.01689363188636988
2936.0,0.017437321045594457
2935.0,0.0180038359409561
2934.0,0.018587751061833167
2933.0,0.019174691835001204
2932.0,0.01976292700117464
2931.0,0.020364633666553465
2930.0,0.02097678190264796
2929.0,0.021560686940675273
2928.0,0.022065980080209553
2927.0,0.02247364806729671
2926.0,0.02280396602110146
2925.0,0.023084657645024546
2924.0,0.023324145940323143
2923.0,0.02351350987695747
2922.0,0.023633518317152442
2921.0,0.02365335717763547
2920.0,0.02354321101250102
2919.0,0.0233066383108902
2918.0,0.02299355254802819
2917.0,0.02266541667569576
2916.0,0.022348495648460098
2915.0,0.022027575112480883
2914.0,0.021678234649219558
2913.0,0.021291624258987573
2912.0,0.020871907228595096
2911.0,0.020427574660559195
2910.0,0.01997095365937179
2909.0,0.019516780098667003
2908.0,0.01907424718709232
2907.0,0.018643388156164994
2906.0,0.018221074567468635
2905.0,0.01780636507086892
2904.0,0.017399281876805454
2903.0,0.017000833977501736
2902.0,0.016614733730242245
2901.0,0.016245147194207155
2900.0,0.015888839007862934
2899.0,0.015539156646243224
2898.0,0.015196296067178885
2897.0,0.014869241214548582
2896.0,0.014568569468080165
2895.0,0.014298590493321904
2894.0,0.014057348307062536
2893.0,0.01383961706146471
2892.0,0.01364090721882329
2891.0,0.01346146239647603
2890.0,0.01330351651780189
2889.0,0.013160319616692725
2888.0,0.013013462954490735
2887.0,0.012849803331013484
2886.0,0.012677949854794809
2885.0,0.01251799015120347
2884.0,0.012376045004807273
2883.0,0.0122402473660834
2882.0,0.012102368733132446
2881.0,0.011971439065367457
2880.0,0.011861211244640324
2879.0,0.011772951523216028
2878.0,0.01169584625705433
2877.0,0.011617840403505941
2876.0,0.01153237405686247
2875.0,0.011441312365361826
2874.0,0.011356702258976743
2873.0,0.011294601418813758
2872.0,0.01126203843279241
2871.0,0.011252695293430426
2870.0,0.011257643280660493
2869.0,0.011276428346872557
2868.0,0.011315859723176511
2867.0,0.011382404068179256
2866.0,0.011477673351944162
2865.0,0.011596785239002172
2864.0,0.01172968867994007
2863.0,0.011870065096881452
2862.0,0.012025872119860299
2861.0,0.012216586306397183
2860.0,0.012456190662830824
2859.0,0.012739771580482078
2858.0,0.013045568401419483
2857.0,0.013346498100282753
2856.0,0.013622320312021298
2855.0,0.013866618013484652
2854.0,0.014080338009172168
2853.0,0.014253337551690056
2852.0,0.014357957121870615
2851.0,0.014372445918509821
2850.0,0.014309356782039328
2849.0,0.01420643991761215
2848.0,0.014085156443653754
2847.0,0.013929269637331928
2846.0,0.013707461912389172
2845.0,0.013406035838899773
2844.0,0.013036275837293628
2843.0,0.012624804502764918
2842.0,0.01220553197320076
2841.0,0.01180820917693827
2840.0,0.011442092899243342
2839.0,0.011095073319071115
2838.0,0.01075555402531878
2837.0,0.010427750218491008
2836.0,0.010120502654262406
2835.0,0.009834290532558564
2834.0,0.009571801309966092
2833.0,0.009351145461346178
2832.0,0.009190522564389507
2831.0,0.009081278144363204
2830.0,0.008990411958172814
2829.0,0.008891890105699901
2828.0,0.008786606266241347
2827.0,0.008691836379258779
2826.0,0.008620994220759412
2825.0,0.008575331151222415
2824.0,0.008546172895172698
2823.0,0.008520846132773353
2822.0,0.008491553552273516
2821.0,0.008462101765167785
2820.0,0.00844318093502385
2819.0,0.008439445183033772
2818.0,0.00844311510135549
2817.0,0.00844101031012474
2816.0,0.008427357338747972
2815.0,0.008410324363153858
2814.0,0.008405296274895616
2813.0,0.008417593292219215
2812.0,0.00843160196480975
2811.0,0.008423627112697925
2810.0,0.00838867947176638
2809.0,0.00834734574130171
2808.0,0.008321014492312052
2807.0,0.008308158846468638
2806.0,0.008292550250088135
2805.0,0.008267247669599779
2804.0,0.008238575451596663
2803.0,0.00821078223671492
2802.0,0.008180741429178583
2801.0,0.008149247051428386
2800.0,0.00812676174035724
2799.0,0.008123995503194087
2798.0,0.008142667426241161
2797.0,0.008176274565835114
2796.0,0.008212763130441355
2795.0,0.00823547888505144
2794.0,0.008230113711706843
2793.0,0.008195686489445003
2792.0,0.008145966993231713
2791.0,0.008098725920377992
2790.0,0.008065933544958851
2789.0,0.008050867225982618
2788.0,0.008046270986385875
2787.0,0.00803517445278322
2786.0,0.008002311604308329
2785.0,0.007948459618305013
2784.0,0.007889259770382155
2783.0,0.007840368769959522
2782.0,0.007810555453467703
2781.0,0.007807574083859913
2780.0,0.007837144008278625
2779.0,0.007890054867064454
2778.0,0.00794055280202102
2777.0,0.007967517655315432
2776.0,0.007973038923960715
2775.0,0.007972379631703233
2774.0,0.007970010782589573
2773.0,0.007954285354539667
2772.0,0.007914300045238182
2771.0,0.00785416462262186
2770.0,0.00778979498496832
2769.0,0.007737097561821837
2768.0,0.0077039082570099435
2767.0,0.00768825120422365
2766.0,0.007682032315935228
2765.0,0.007678215010934719
2764.0,0.007675636864268358
2763.0,0.007676774024952815
2762.0,0.007682879266491511
2761.0,0.0076935550939072166
2760.0,0.007708566020121335
2759.0,0.007725668170665096
2758.0,0.00773704181581714
2757.0,0.007732453447284061
2756.0,0.007708172694450285
2755.0,0.007671463615870809
2754.0,0.007635943699150091
2753.0,0.0076129996265063594
2752.0,0.007605757390601219
2751.0,0.0076077216108952055
2750.0,0.007607349093887328
2749.0,0.007597653287541152
2748.0,0.0075829796695403556
2747.0,0.007574479065212131
2746.0,0.007577742082227567
2745.0,0.007586643771306642
2744.0,0.007589834431431479
2743.0,0.0075808696535936675
2742.0,0.007561117813521144
2741.0,0.00753652030280816
2740.0,0.0075153226624105375
2739.0,0.0075066067076032215
2738.0,0.007514690202819628
2737.0,0.007532636718714007
2736.0,0.00754541537724622
2735.0,0.007543797321334247
2734.0,0.007534060977551474
2733.0,0.007530526445273567
2732.0,0.007539570762989898
2731.0,0.00755482288207826
2730.0,0.007567442046476218
2729.0,0.007574708169481277
2728.0,0.0075756781929834545
2727.0,0.007565235284648664
2726.0,0.0075407522047778765
2725.0,0.007513031132304051
2724.0,0.007501544998178837
2723.0,0.007514867264129907
2722.0,0.007540601472438339
2721.0,0.0075585273618952505
2720.0,0.007559930204257827
2719.0,0.007549526932236997
2718.0,0.007532105956705117
2717.0,0.007505760114824183
2716.0,0.007471057727847041
2715.0,0.007440621870751958
2714.0,0.007431817698510477
2713.0,0.007447939077090088
2712.0,0.007470581112342091
2711.0,0.007475206148891175
2710.0,0.007454754944797123
2709.0,0.00742549298942158
2708.0,0.007408914458162746
2707.0,0.007411054065614148
2706.0,0.007422265647144153
2705.0,0.007432862667027702
2704.0,0.007441536596525683
2703.0,0.007447885421015141
2702.0,0.007445281958108511
2701.0,0.007428061233250625
2700.0,0.00740243296090526
2699.0,0.007383421621012144
2698.0,0.007380768662297147
2697.0,0.0073923688146007045
2696.0,0.007410673175377131
2695.0,0.007428796846070361
2694.0,0.007438378887365597
2693.0,0.007429175599429386
2692.0,0.007399027948483633
2691.0,0.007363090991655032
2690.0,0.00734578105687011
2689.0,0.007359286549868218
2688.0,0.007391649486999706
2687.0,0.007418240581816905
2686.0,0.0074242041426270024
2685.0,0.007414141198852314
2684.0,0.007401290466503127
2683.0,0.007391707344447208
2682.0,0.007381756748535017
2681.0,0.007368778563640042
2680.0,0.0073585962034610364
2679.0,0.007359592998380795
2678.0,0.007372086101942312
2677.0,0.00738757550689359
2676.0,0.007398042002178945
2675.0,0.007402544892505402
2674.0,0.0074044462377485885
2673.0,0.007406223108886022
2672.0,0.007408881682044321
2671.0,0.007412828118803413
2670.0,0.007415621606068236
2669.0,0.007411026477942799
2668.0,0.007395312982866557
2667.0,0.007375374486449177
2666.0,0.007366934676584547
2665.0,0.007381463491987624
2664.0,0.00741488193725467
2663.0,0.007450226814098989
2662.0,0.007471524669023509
2661.0,0.007475393802577578
2660.0,0.007470514395013488
2659.0,0.007467691957694143
2658.0,0.007471085348344186
2657.0,0.0074774422173611195
2656.0,0.007480385496101973
2655.0,0.007473427779850227
2654.0,0.007451814780940728
2653.0,0.0074170049661494535
2652.0,0.007380294111675746
2651.0,0.007356529262358467
2650.0,0.007349591951733358
2649.0,0.007346481712508958
2648.0,0.0073302999349989795
2647.0,0.007297548681238157
2646.0,0.007257402896263939
2645.0,0.007214239829060182
2644.0,0.0071584781340298925
2643.0,0.007080134321071331
2642.0,0.006988895868299863
2641.0,0.006914801880807776
2640.0,0.006885801885597323
2639.0,0.00690451659820401
2638.0,0.006946913655607602
2637.0,0.006983561308137879
2636.0,0.007002728951316281
2635.0,0.00701321806728541
2634.0,0.007025858182387488
2633.0,0.007035122183206561
2632.0,0.007021897188345802
2631.0,0.006974591868697524
2630.0,0.0069052257720149165
2629.0,0.0068431212963049985
2628.0,0.006811760329576172
2627.0,0.006809885158699043
2626.0,0.006813350207606105
2625.0,0.006795515313725152
2624.0,0.006748127200285373
2623.0,0.0066849621739929095
2622.0,0.006627469533647528
2621.0,0.006587880652121876
2620.0,0.006563225098318507
2619.0,0.006540624635918445
2618.0,0.00650805565122674
2617.0,0.006465094116473042
2616.0,0.00642536052799093
2615.0,0.006404907369024271
2614.0,0.006407709901438055
2613.0,0.006426824940492529
2612.0,0.006456595584466545
2611.0,0.006491354893950391
2610.0,0.0065118998717675815
2609.0,0.006494253875532171
2608.0,0.006443896917689797
2607.0,0.006400524225973843
2606.0,0.006385478170167203
2605.0,0.006360690451825834
2604.0,0.0062760953188033975
2603.0,0.006155932628971409
2602.0,0.006097088491937086
2601.0,0.006163327741444783
2600.0,0.006308126089756869
2599.0,0.006423322690165299
2598.0,0.006442637646058907
2597.0,0.006376593657591053
2596.0,0.006271711705420925
2595.0,0.006172941831263588
2594.0,0.006117155518773344
2593.0,0.006121287402889071
2592.0,0.0061618345926835695
2591.0,0.006189182133245228
2590.0,0.0061783450095946445
2589.0,0.006155509061112131
2588.0,0.00616544950772564
2587.0,0.006219999241486828
2586.0,0.006284054121223673
2585.0,0.006306359306457367
2584.0,0.0062625585377592006
2583.0,0.006176351821134317
2582.0,0.006101594042646752
2581.0,0.006076738243519255
2580.0,0.006093041008874641
2579.0,0.006110024812779349
2578.0,0.006098693767835512
2577.0,0.006062230276108764
2576.0,0.006018925251344383
2575.0,0.005979091495473951
2574.0,0.0059424604265420206
2573.0,0.005907806517094663
2572.0,0.005878525596081114
2571.0,0.00586203245085332
2570.0,0.005864179403619864
2569.0,0.005880025995838104
2568.0,0.005893379306766023
2567.0,0.005894052068061406
2566.0,0.0058934826590672585
2565.0,0.005912260681000866
2564.0,0.005951283729166848
2563.0,0.0059860563219280806
2562.0,0.0059925669897932556
2561.0,0.005970190068159739
2560.0,0.005936781569725147
2559.0,0.005910692397547144
2558.0,0.0059018952514686114
2557.0,0.005911864240116465
2556.0,0.0059343267400749295
2555.0,0.005958417285797941
2554.0,0.005974615728403966
2553.0,0.005977879618612086
2552.0,0.005968510618334428
2551.0,0.005954400250491448
2550.0,0.005947519619388974
2549.0,0.005949640659880469
2548.0,0.005945515548425726
2547.0,0.005921261977554467
2546.0,0.005886344828148934
2545.0,0.005863475834215362
2544.0,0.005857573349775938
2543.0,0.005850586787261819
2542.0,0.0058289176597036635
2541.0,0.005798097879875434
2540.0,0.005764549356374034
2539.0,0.005722357808150143
2538.0,0.0056711495978390885
2537.0,0.005631147568139553
2536.0,0.0056227480565333885
2535.0,0.005640865821915788
2534.0,0.005666832165114503
2533.0,0.005697577602296407
2532.0,0.005741504170259321
2531.0,0.005787388581210105
2530.0,0.005802152043303081
2529.0,0.005770892348615692
2528.0,0.005724409582964607
2527.0,0.005713002036236183
2526.0,0.005759297823706264
2525.0,0.005846230026385532
2524.0,0.005942142583520126
2523.0,0.006020325511116869
2522.0,0.006055332728332768
2521.0,0.006023326961211404
2520.0,0.0059239108883816305
2519.0,0.005795361675551986
2518.0,0.0056923557801643754
2517.0,0.005644954892843886
2516.0,0.005645323703569415
2515.0,0.005671187555708565
2514.0,0.00570780197467042
2513.0,0.0057436878312990425
2512.0,0.0057624772864659736
2511.0,0.005754885191151693
2510.0,0.005732705924275105
2509.0,0.005717108320133722
2508.0,0.005714231223940699
2507.0,0.005713375921462453
2506.0,0.005708593880151364
2505.0,0.0057093228450427955
2504.0,0.005724513271415109
2503.0,0.005743995074270785
2502.0,0.0057431527606598655
2501.0,0.005706705684122246
2500.0,0.005646369127839661
2499.0,0.005593060954679158
2498.0,0.005568727407948317
2497.0,0.005567288690522668
2496.0,0.005570217187965812
2495.0,0.005579345527589075
2494.0,0.00561925928849665
2493.0,0.005699358648022577
2492.0,0.005786780054023234
2491.0,0.0058311760792692305
2490.0,0.00580942812585739
2489.0,0.0057360854254206685
2488.0,0.0056412045241567834
2487.0,0.005552591001016772
2486.0,0.0054885521731237695
2485.0,0.005446479158518664
2484.0,0.0054032916038120335
2483.0,0.0053460410243503865
2482.0,0.0052937718590373795
2481.0,0.005265536828122825
2480.0,0.005237816018854601
2479.0,0.005172135142907259
2478.0,0.005087769487061709
2477.0,0.005063659515299423
2476.0,0.005145951319314484
2475.0,0.005284565148984388
2474.0,0.005388604851070331
2473.0,0.005421749221324171
2472.0,0.005416928114414188
2471.0,0.005417978569121701
2470.0,0.005440913774014024
2469.0,0.005482387238473515
2468.0,0.005529323965397036
2467.0,0.005556056722350207
2466.0,0.005539601285607425
2465.0,0.005488362314117106
2464.0,0.005440816729951399
2463.0,0.005430054501557757
2462.0,0.005459802153257015
2461.0,0.005512300072897866
2460.0,0.0055625972769209435
2459.0,0.005584783215408876
2458.0,0.0055641104020804875
2457.0,0.00551285646254189
2456.0,0.005463737689227737
2455.0,0.005440491545430697
2454.0,0.005440495410353543
2453.0,0.00544511508200492
2452.0,0.00543644665219477
2451.0,0.005404501872376439
2450.0,0.005352300578729102
2449.0,0.0052977516744749315
2448.0,0.005258643617325878
2447.0,0.005232598663819222
2446.0,0.0052036504581282695
2445.0,0.0051710672937242946
2444.0,0.005156630818201293
2443.0,0.005176223744978621
2442.0,0.005217052416245741
2441.0,0.005252778941131144
2440.0,0.005272536673011813
2439.0,0.00528563751203163
2438.0,0.005303976615996659
2437.0,0.005328382780683279
2436.0,0.00534864552899618
2435.0,0.005351811755156511
2434.0,0.0053347121793360375
2433.0,0.005310676392037824
2432.0,0.005296142466279854
2431.0,0.005287535933077349
2430.0,0.005262523549534386
2429.0,0.005211181585839627
2428.0,0.005155567541324342
2427.0,0.005128107065462844
2426.0,0.005138556706206956
2425.0,0.005171638900982112
2424.0,0.005207635816414679
2423.0,0.005230628159612293
2422.0,0.005223769444416445
2421.0,0.005178779469001258
2420.0,0.005116233643256374
2419.0,0.005080399549733543
2418.0,0.005101690358803825
2417.0,0.005167707519202513
2416.0,0.005237198808378777
2415.0,0.00527857219699986
2414.0,0.005290039930344797
2413.0,0.00528692164029623
2412.0,0.005278185052484044
2411.0,0.00525769071511737
2410.0,0.005214450260033083
2409.0,0.005147570621647068
2408.0,0.005070538552755545
2407.0,0.005003454578522013
2406.0,0.004963223741825627
2405.0,0.004957413242173838
2404.0,0.00497898380996975
2403.0,0.00500485297758971
2402.0,0.005008509313678992
2401.0,0.0049834115981562625
2400.0,0.0049524170056737555
2399.0,0.00494747956082985
2398.0,0.004979980048570345
2397.0,0.005033735857619104
2396.0,0.005082816096059337
2395.0,0.005109482655634202
2394.0,0.005109165931655589
2393.0,0.0050899539630739656
2392.0,0.005070223086924252
2391.0,0.00506848782701955
2390.0,0.005090702048194055
2389.0,0.005130256702526171
2388.0,0.005179258523016767
2387.0,0.005232637516395843
2386.0,0.005281430959048095
2385.0,0.005313409946797714
2384.0,0.005326907307871321
2383.0,0.005337000739913287
2382.0,0.0053603245072714025
2381.0,0.005397466739820407
2380.0,0.00543641528879939
2379.0,0.005467532406119668
2378.0,0.005484813373276162
2377.0,0.005478858494571766
2376.0,0.005447118348741489
2375.0,0.005410071903107126
2374.0,0.005394429511923485
2373.0,0.005396850168800696
2372.0,0.005395242223219034
2371.0,0.005408093610892683
2370.0,0.005496295243973774
2369.0,0.0056623469954631385
2368.0,0.005787149769830939
2367.0,0.005747455337702515
2366.0,0.005596025780160551
2365.0,0.005545576383137385
2364.0,0.005731682995551853
2363.0,0.006042794697547711
2362.0,0.006231622814884071
2361.0,0.006159697574912792
2360.0,0.0059025124454941515
2359.0,0.0056421024224411346
2358.0,0.005498187200461158
2357.0,0.0054663389653148
2356.0,0.005482433432074156
2355.0,0.005510907892697677
2354.0,0.005564838542115919
2353.0,0.005660406074243592
2352.0,0.005784326468576948
2351.0,0.005910068112809646
2350.0,0.0060105697614674936
2349.0,0.006051136399780743
2348.0,0.006011660493345394
2347.0,0.005935372840708254
2346.0,0.005919576842508074
2345.0,0.00600004698420868
2344.0,0.006090530904572946
2343.0,0.006112174577358666
2342.0,0.00609252918708632
2341.0,0.006104065743468512
2340.0,0.006182407905544813
2339.0,0.00630653918167765
2338.0,0.0064194102753100625
2337.0,0.006464801445050282
2336.0,0.0064198742784938485
2335.0,0.006304265396243491
2334.0,0.006155536172412189
2333.0,0.006004380809003419
2332.0,0.0058675365281233485
2331.0,0.00576624093184572
2330.0,0.005745503727541111
2329.0,0.005864303608631367
2328.0,0.006142047307605411
2327.0,0.006510615981577786
2326.0,0.006831260172385333
2325.0,0.006983443526269517
2324.0,0.006959864615129004
2323.0,0.006862761278893592
2322.0,0.00678897725495741
2321.0,0.006736763740751705
2320.0,0.006648058176646182
2319.0,0.006505300772371934
2318.0,0.006346561608932676
2317.0,0.006213478669728714
2316.0,0.00612212387237878
2315.0,0.006083300425399004
2314.0,0.006112317522244251
2313.0,0.006205635654612132
2312.0,0.006323350034188849
2311.0,0.006416377079450679
2310.0,0.00646004132243064
2309.0,0.0064506488989303345
2308.0,0.00638252756897502
2307.0,0.006252992748645947
2306.0,0.006090493109728026
2305.0,0.005958905740817962
2304.0,0.005915951310262611
2303.0,0.005965084790324776
2302.0,0.006048705034238289
2301.0,0.0060919052674947806
2300.0,0.006058622721501004
2299.0,0.005972579571200219
2298.0,0.005889708186053833
2297.0,0.005855281601085467
2296.0,0.005879988557877644
2295.0,0.005943893920008218
2294.0,0.006014973414283744
2293.0,0.006068352272192191
2292.0,0.0060961739418830905
2291.0,0.0061001650904895
2290.0,0.006076302701241524
2289.0,0.006014999641229768
2288.0,0.005921261808594161
2287.0,0.005823667464331048
2286.0,0.005750715967949339
2285.0,0.005700687358660266
2284.0,0.005646351669206641
2283.0,0.005569898221906221
2282.0,0.005483812019634301
2281.0,0.005416517015024959
2280.0,0.005383529686283858
2279.0,0.005370862142762477
2278.0,0.0053400117381729485
2277.0,0.005257303906463813
2276.0,0.005133544305902215
2275.0,0.005029926489073103
2274.0,0.005005414890708341
2273.0,0.005057346659825483
2272.0,0.005130780205716812
2271.0,0.005182699795247199
2270.0,0.005209577906820592
2269.0,0.005212791111307048
2268.0,0.005177687071547545
2267.0,0.005107072864729631
2266.0,0.005045051611708861
2265.0,0.005037477312208092
2264.0,0.0050841695964067325
2263.0,0.005154961414099654
2262.0,0.005236298284182646
2261.0,0.005330744253063847
2260.0,0.005418262868360356
2259.0,0.0054506819830582275
2258.0,0.005395176644828711
2257.0,0.005270316597056633
2256.0,0.005132274013035853
2255.0,0.005030065758011625
2254.0,0.004975345966404889
2253.0,0.0049484334813187595
2252.0,0.004929728749601397
2251.0,0.004922341412362328
2250.0,0.0049361534660381234
2249.0,0.0049543317956242065
2248.0,0.004938586824332398
2247.0,0.004878924089665358
2246.0,0.004818231975984179
2245.0,0.004809987672197141
2244.0,0.004863535243603248
2243.0,0.004946038910385618
2242.0,0.005020234204672814
2241.0,0.00505844055997961
2240.0,0.005038916386472397
2239.0,0.004963995167302956
2238.0,0.00487899517530531
2237.0,0.0048399123462504415
2236.0,0.0048531070821789144
2235.0,0.0048733340593317956
2234.0,0.004869625033742114
2233.0,0.0048650374849473
2232.0,0.004893518583454038
2231.0,0.004940029117084087
2230.0,0.004955095639442178
2229.0,0.0049263759655090835
2228.0,0.004907657429735257
2227.0,0.004959346588937253
2226.0,0.005069685904807066
2225.0,0.00515188702770521
2224.0,0.005126396262327259
2223.0,0.004999159910229839
2222.0,0.004852766085370738
2221.0,0.004767068420784876
2220.0,0.0047550259953097855
2219.0,0.004773362998425721
2218.0,0.0047797709558579215
2217.0,0.004764762248160021
2216.0,0.004734000076755571
2215.0,0.00468275356079131
2214.0,0.004608836337921063
2213.0,0.004545951243461706
2212.0,0.004550763487329975
2211.0,0.004631321450566941
2210.0,0.004707927545220915
2209.0,0.004686900041608263
2208.0,0.004573488128067023
2207.0,0.004459602212690063
2206.0,0.004385605342008881
2205.0,0.004280018930666846
2204.0,0.004088944711169818
2203.0,0.003912429415411131
2202.0,0.003921433364025234
2201.0,0.004142092743401502
2200.0,0.00440605154936811
2199.0,0.004542492561160189
2198.0,0.004544195144100871
2197.0,0.004508498046916209
2196.0,0.00448603940726235
2195.0,0.0044589624012697825
2194.0,0.004439177850897571
2193.0,0.004506451159207198
2192.0,0.0047202569707590755
2191.0,0.005019775154816011
2190.0,0.0052352597240242675
2189.0,0.0052159822349984305
2188.0,0.004971646560159449
2187.0,0.004679191807721611
2186.0,0.004525033820466904
2185.0,0.004533847260483607
2184.0,0.00456645160087491
2183.0,0.0044862484791843805
2182.0,0.004291019434223359
2181.0,0.004083145671976676
2180.0,0.003961213782928681
2179.0,0.003956838889882942
2178.0,0.004026274730039926
2177.0,0.004072021853660591
2176.0,0.004023841425563753
2175.0,0.00392947876326417
2174.0,0.003915932695889531
2173.0,0.004033653397298626
2172.0,0.004187770855064509
2171.0,0.004261902075732287
2170.0,0.004263170915350595
2169.0,0.004297284835150812
2168.0,0.004423676756222572
2167.0,0.004586986172182762
2166.0,0.0046939453292066426
2165.0,0.004719963115094356
2164.0,0.0047218539197829475
2163.0,0.004743246439733134
2162.0,0.00471501724219389
2161.0,0.004487703955856984
2160.0,0.004022916847344988
2159.0,0.003509267274787792
2158.0,0.0031765819928466933
2157.0,0.0030501832157130418
2156.0,0.0030059263153152044
2155.0,0.0030023333613846143
2154.0,0.0031228859757512243
2153.0,0.003393356088097445
2152.0,0.0036725952432592225
2151.0,0.003784283749901675
2150.0,0.0036920095315596067
2149.0,0.0035061325465756852
2148.0,0.0033682510870593186
2147.0,0.00336430435485043
2146.0,0.003499133124737279
2145.0,0.0036918589501525765
2144.0,0.0038270090315948692
2143.0,0.0038602759781729496
2142.0,0.0038513131596008615
2141.0,0.003866628493495697
2140.0,0.0038806430552442237
2139.0,0.0038103560367290365
2138.0,0.003624686540194136
2137.0,0.003384112010962964
2136.0,0.0031883542705159382
2135.0,0.0031158894823918146
2134.0,0.003196992218320484
2133.0,0.0033985407458922423
2132.0,0.0036321829961561075
2131.0,0.003805683099756111
2130.0,0.003875797691153241
2129.0,0.003858952805080052
2128.0,0.003809816367032407
2127.0,0.003792960505622874
2126.0,0.0038497939766024523
2125.0,0.003967510430388489
2124.0,0.004087678490697937
2123.0,0.004161556013414237
2122.0,0.004189578313348069
2121.0,0.0042013117874999915
2120.0,0.004215132104215351
2119.0,0.004233066040372603
2118.0,0.004261806915706884
2117.0,0.004317020540863166
2116.0,0.004406338303544534
2115.0,0.004515690022161214
2114.0,0.004609239358871483
2113.0,0.004645182411533238
2112.0,0.004608886166801809
2111.0,0.004535197968931672
2110.0,0.004483755850125653
2109.0,0.004487096671179681
2108.0,0.0045346915844375274
2107.0,0.004603646745418145
2106.0,0.0046727259957967445
2105.0,0.004700058791826679
2104.0,0.0046331838758677845
2103.0,0.004475862473410054
2102.0,0.0043208563873925274
2101.0,0.004275377194812422
2100.0,0.004352012435569463
2099.0,0.0044570131116695175
2098.0,0.00448333902790189
2097.0,0.004399020376355587
2096.0,0.004253347836156934
2095.0,0.00412082376509621
2094.0,0.004045034908988785
2093.0,0.004024882836063519
2092.0,0.004041539519437861
2091.0,0.004086339014369694
2090.0,0.004153014678773222
2089.0,0.004217738558767159
2088.0,0.004257930438537568
2087.0,0.004288218565339362
2086.0,0.004343032391231099
2085.0,0.004419280959458643
2084.0,0.004474124091730401
2083.0,0.0044931825455388
2082.0,0.0045192257550051166
2081.0,0.004584974954799124
2080.0,0.004650948901125922
2079.0,0.004648929225121305
2078.0,0.004566639896103824
2077.0,0.004455644265985502
2076.0,0.004364498573244457
2075.0,0.004297693602146949
2074.0,0.004236535508221158
2073.0,0.004177147312102422
2072.0,0.004149673458930462
2071.0,0.0042002256702353075
2070.0,0.004336752934723449
2069.0,0.004484377940605443
2068.0,0.004531319329252804
2067.0,0.004440596803247321
2066.0,0.004289186717248715
2065.0,0.004178989470093507
2064.0,0.004133478851128758
2063.0,0.004109100893159585
2062.0,0.004070020703555386
2061.0,0.004009870781287718
2060.0,0.003937683977860581
2059.0,0.003884670596667663
2058.0,0.00389676314699497
2057.0,0.003983098933891031
2056.0,0.004100875111280443
2055.0,0.0042285804426509255
2054.0,0.004412353752500657
2053.0,0.004683122595647858
2052.0,0.004958174389123689
2051.0,0.005083614089545215
2050.0,0.00497872141587323
2049.0,0.004716106720305197
2048.0,0.004452477657874509
2047.0,0.004302863552562874
2046.0,0.00429067098824984
2045.0,0.004360443475330438
2044.0,0.00442535321341627
2043.0,0.004440429616811084
2042.0,0.00441947829747169
2041.0,0.0043625158014113045
2040.0,0.004218787520417556
2039.0,0.00397500490358344
2038.0,0.0037269416142363797
2037.0,0.0035884850025749595
2036.0,0.0035496369489565484
2035.0,0.003509980155112915
2034.0,0.0034382261212848398
2033.0,0.003395924217354105
2032.0,0.003408375978744371
2031.0,0.0034129815404414744
2030.0,0.0033454814277108086
2029.0,0.0032127280317912543
2028.0,0.0030855211221135935
2027.0,0.0030589802094410654
2026.0,0.0031940668999403876
2025.0,0.0034362220661286304
2024.0,0.003640960707005504
2023.0,0.0037412056502862355
2022.0,0.0038295235956187466
2021.0,0.003996245698157056
2020.0,0.004148240576984875
2019.0,0.004100761444944791
2018.0,0.003826857719004536
2017.0,0.003517599228735837
2016.0,0.0033645886412571667
2015.0,0.0033808654518637936
2014.0,0.0034766980089089993
2013.0,0.0035833105193452544
2012.0,0.003666104853629398
2011.0,0.0037061277786097375
2010.0,0.0037101714643912893
2009.0,0.0037006572182363196
2008.0,0.0036799982456353227
2007.0,0.0036345735773743717
2006.0,0.003570468118961395
2005.0,0.003506378949689096
2004.0,0.00345031719929275
2003.0,0.003414383243122931
2002.0,0.0034342160692246095
2001.0,0.00352608884608436
2000.0,0.003645954531259779
1999.0,0.003748359560246943
1998.0,0.003848076195230141
1997.0,0.003982574128724798
1996.0,0.004123979243698338
1995.0,0.004185028230787449
1994.0,0.004111939548825464
1993.0,0.0039500801297374655
1992.0,0.003810349143738223
1991.0,0.003774159651826626
1990.0,0.0038467015313056116
1989.0,0.003979079324346984
1988.0,0.004109468178392475
1987.0,0.004201043096085546
1986.0,0.004259933145727943
1985.0,0.004319969137294401
1984.0,0.004416707500098051
1983.0,0.004561782892763174
1982.0,0.004700452250347709
1981.0,0.0046896086120898125
1980.0,0.004393066074744696
1979.0,0.0038649457423308798
1978.0,0.00337894100600538
1977.0,0.003192775072840254
1976.0,0.0032973918828690554
1975.0,0.0034887714387553197
1974.0,0.0036141459719253835
1973.0,0.0036658352546063795
1972.0,0.003700396604888354
1971.0,0.003753399787157361
1970.0,0.0038212308610240707
1969.0,0.0038687750551821528
1968.0,0.0038597257218903674
1967.0,0.0038146829622712573
1966.0,0.0038108320067593224
1965.0,0.003881798145218384
1964.0,0.003968312737218141
1963.0,0.004007664272747771
1962.0,0.004018089084947881
1961.0,0.004049503001836249
1960.0,0.004095222759725828
1959.0,0.004117575846897144
1958.0,0.004127628713818188
1957.0,0.0041656679708633295
1956.0,0.004218945582340292
1955.0,0.004229815184061928
1954.0,0.004186185574470055
1953.0,0.004143645750068258
1952.0,0.004147128500149217
1951.0,0.00417987129196031
1950.0,0.004215423048960226
1949.0,0.00425831307893429
1948.0,0.004321606162899062
1947.0,0.004400658246031349
1946.0,0.004481223825082413
1945.0,0.004551722558573931
1944.0,0.004598255976497427
1943.0,0.004608327636623674
1942.0,0.004589381767968126
1941.0,0.004565179136070645
1940.0,0.004539019927216714
1939.0,0.004478992408889193
1938.0,0.004362866238592781
1937.0,0.004214391747582594
1936.0,0.004081358017820484
1935.0,0.003992107433501698
1934.0,0.003942702801461654
1933.0,0.003915050777740657
1932.0,0.0038955655267004403
1931.0,0.0038804190574377078
1930.0,0.003876199944934677
1929.0,0.003870944880509871
1928.0,0.003838666770421834
1927.0,0.0037790886219006238
1926.0,0.003721642494076499
1925.0,0.003696984977204107
1924.0,0.0036899687350922224
1923.0,0.0036723608132945406
1922.0,0.003650047386463155
1921.0,0.003654423400051722
1920.0,0.003686482854063774
1919.0,0.0037199831767049107
1918.0,0.0037436836829482434
1917.0,0.0037642141848537184
1916.0,0.0037873446522237045
1915.0,0.0038056098413084653
1914.0,0.0037948284213702678
1913.0,0.0037422143835141586
1912.0,0.0036624932268155353
1911.0,0.003594047031576901
1910.0,0.0035740608190143698
1909.0,0.003592298024166366
1908.0,0.003605009184724765
1907.0,0.0035958642954810934
1906.0,0.0035804557155503366
1905.0,0.0035767119071668093
1904.0,0.003573564810600403
1903.0,0.0035733240984989765
1902.0,0.0036043477654798418
1901.0,0.0036669005726106835
1900.0,0.0037158976529846595
1899.0,0.003719638708635847
1898.0,0.0037011642578529853
1897.0,0.003713761693957816
1896.0,0.003768487394711427
1895.0,0.0038265961545946347
1894.0,0.0038515711730836262
1893.0,0.0038470605221634082
1892.0,0.0038471294804213506
1891.0,0.003896999040863586
1890.0,0.004018552135988788
1889.0,0.004153240003430035
1888.0,0.0042152794649332305
1887.0,0.004201476950731769
1886.0,0.00416987254845448
1885.0,0.004165505917416323
1884.0,0.004183503756489364
1883.0,0.00419981484271663
1882.0,0.004215844448518106
1881.0,0.004237440675717741
1880.0,0.00425267848601993
1879.0,0.004249902360644391
1878.0,0.0042373822936216275
1877.0,0.0042391268334239975
1876.0,0.00426304648043252
1875.0,0.0042927663039305855
1874.0,0.004316661579221046
1873.0,0.0043341137269324505
1872.0,0.004338398863936088
1871.0,0.004319945538396538
1870.0,0.004292921287019351
1869.0,0.004289104348902862
1868.0,0.004304305703512918
1867.0,0.004317099371968763
1866.0,0.004316771919656111
1865.0,0.0042821693877068325
1864.0,0.004205676257023611
1863.0,0.00411369933882675
1862.0,0.004038611139709157
1861.0,0.003978897394035104
1860.0,0.0039108132119956745
1859.0,0.0038414231452979014
1858.0,0.0038079946852237626
1857.0,0.003815822679371415
1856.0,0.003819369069945889
1855.0,0.003783599762962244
1854.0,0.0037270722155541385
1853.0,0.0036817139316848895
1852.0,0.0036505806978956922
1851.0,0.003631735237563818
1850.0,0.003618728697869178
1849.0,0.0036123381483485597
1848.0,0.0036085579093971393
1847.0,0.003604700620765763
1846.0,0.0036029505929949636
1845.0,0.0036090473947473197
1844.0,0.0036099737694821367
1843.0,0.0035922376269274525
1842.0,0.0035958492511924322
1841.0,0.0036297082062680857
1840.0,0.0036495861365609013
1839.0,0.0036295501172261685
1838.0,0.0035881750524494327
1837.0,0.0035616537411048144
1836.0,0.0035507095195701378
1835.0,0.0035441022018975485
1834.0,0.003550213011162994
1833.0,0.0035795659302218907
1832.0,0.0036226580927239136
1831.0,0.003664914959295432
1830.0,0.0036930256166373106
1829.0,0.0036998225816050117
1828.0,0.003697802847603843
1827.0,0.003692849414014908
1826.0,0.0036839246850224015
1825.0,0.003695471761496781
1824.0,0.003726433106956451
1823.0,0.0037535428015512875
1822.0,0.0037766445524679733
1821.0,0.003808002997852217
1820.0,0.0038488690631033095
1819.0,0.0038792609320873655
1818.0,0.003896311349527606
1817.0,0.003929638005480707
1816.0,0.003984269114618613
1815.0,0.004038696321164909
1814.0,0.004077607925601567
1813.0,0.0041046257197062015
1812.0,0.0041321660949488115
1811.0,0.004155732793306542
1810.0,0.004186979526230729
1809.0,0.004242709240986544
1808.0,0.004305265829442786
1807.0,0.004353591749264804
1806.0,0.004400409114008706
1805.0,0.004469920046788465
1804.0,0.004556406376346048
1803.0,0.004634268006320514
1802.0,0.004686506992244038
1801.0,0.004701199170340693
1800.0,0.004674501533037329
1799.0,0.0046053091959197354
1798.0,0.004520560905343407
1797.0,0.004449943203567447
1796.0,0.004405123178193187
1795.0,0.00437370128643242
1794.0,0.004330494194493979
1793.0,0.004273227287324576
1792.0,0.00422847211850315
1791.0,0.0041974137592403005
1790.0,0.004180356016263007
1789.0,0.004160072561317077
1788.0,0.004113865605735297
1787.0,0.004054876084403856
1786.0,0.004019099716529139
1785.0,0.004012436233044161
1784.0,0.0040025557148311445
1783.0,0.00398355123725831
1782.0,0.0039759644267504555
1781.0,0.0039827298682558725
1780.0,0.003999459148363441
1779.0,0.003998157716932067
1778.0,0.003976567576620679
1777.0,0.003941019590236416
1776.0,0.003911435392821116
1775.0,0.00390900281842943
1774.0,0.003920811118902003
1773.0,0.0039362556542985715
1772.0,0.003948371486578922
1771.0,0.003945602676895035
1770.0,0.003960457320756622
1769.0,0.003996118993382034
1768.0,0.00401820165327592
1767.0,0.004015289785936433
1766.0,0.004012797319327723
1765.0,0.004031588572640926
1764.0,0.0040582058575032425
1763.0,0.004076108533371503
1762.0,0.0040876918748074245
1761.0,0.004098512720876136
1760.0,0.004132991166347268
1759.0,0.004187205751151949
1758.0,0.004246195538462584
1757.0,0.004289915193354425
1756.0,0.004316704703659067
1755.0,0.0043485370382374475
1754.0,0.004392683565872548
1753.0,0.0044307930890879746
1752.0,0.004462933002126399
1751.0,0.004489429180703185
1750.0,0.004493185125761821
1749.0,0.004499209852010174
1748.0,0.004527161166409922
1747.0,0.004574717819952989
1746.0,0.004623404570823674
1745.0,0.004663588595384481
1744.0,0.0046972015709191356
1743.0,0.004712056268909129
1742.0,0.004714689436934708
1741.0,0.004721887197201551
1740.0,0.004721761692828997
1739.0,0.004689848437941479
1738.0,0.004667117287198307
1737.0,0.004693357645692883
1736.0,0.0047185376106384114
1735.0,0.004719262179722234
1734.0,0.004715897774783248
1733.0,0.004661875127319303
1732.0,0.00462891496388317
1731.0,0.004639517114562466
1730.0,0.0046414719046971725
1729.0,0.004630481966854833
1728.0,0.004627257331021179
1727.0,0.004634530630078254
1726.0,0.004626869750540973
1725.0,0.004604668697109614
1724.0,0.004589317779610681
1723.0,0.004573940999065845
1722.0,0.004572277005212932
1721.0,0.004598310501388682
1720.0,0.004621376965880794
1719.0,0.004599465024028119
1718.0,0.0045774774527833064
1717.0,0.004616255234353706
1716.0,0.004677878946696957
1715.0,0.004729557644247533
1714.0,0.004768202401611703
1713.0,0.0048022190776986495
1712.0,0.004827839853144943
1711.0,0.004840525884580949
1710.0,0.004850509099016993
1709.0,0.0048730709794252945
1708.0,0.004922914399954164
1707.0,0.004997680483617115
1706.0,0.005080742798615916
1705.0,0.005155590621864625
1704.0,0.005224192768337316
1703.0,0.005305910700843874
1702.0,0.005359538298378709
1701.0,0.005414757395756246
1700.0,0.00550468792179346
1699.0,0.005556080434880305
1698.0,0.005625636097539045
1697.0,0.005718170858935804
1696.0,0.005773406552013168
1695.0,0.00575486030615716
1694.0,0.0057656759098699585
1693.0,0.005858462040368183
1692.0,0.005953864015210488
1691.0,0.006016370945304589
1690.0,0.006087377385693302
1689.0,0.006191689859398687
1688.0,0.006313308059553216
1687.0,0.006417552955735716
1686.0,0.006464646948081751
1685.0,0.006560649841163235
1684.0,0.006752104846809657
1683.0,0.006885401179760149
1682.0,0.007036864161006158
1681.0,0.007183877239899139
1680.0,0.007274522929183425
1679.0,0.007351459819164977
1678.0,0.007459097649473305
1677.0,0.007599336142015276
1676.0,0.0077571877457761704
1675.0,0.007892649973742318
1674.0,0.007960042268006593
1673.0,0.008001653902980986
1672.0,0.00806640581069798
1671.0,0.008166090984697312
1670.0,0.008316691919167063
1669.0,0.008443643668304116
1668.0,0.008502356559299006
1667.0,0.00853891839976715
1666.0,0.00857666968139776
1665.0,0.008620620652753926
1664.0,0.00867935692667771
1663.0,0.00875998176717038
1662.0,0.008845830724220642
1661.0,0.008913002619287418
1660.0,0.008969920238465339
1659.0,0.008996750607523736
1658.0,0.008987813202919786
1657.0,0.008966363541030482
1656.0,0.008964408548803546
1655.0,0.008939914395495574
1654.0,0.008998169244999481
1653.0,0.00917743752292702
1652.0,0.009145180131103327
1651.0,0.009114184976144857
1650.0,0.009149065842477223
1649.0,0.009155287098838295
1648.0,0.009151486723022142
1647.0,0.009192574590077553
1646.0,0.00920698788595508
1645.0,0.009184015860520376
1644.0,0.009159179942622093
1643.0,0.009118246564489457
1642.0,0.009056047751348835
1641.0,0.008972270070886365
1640.0,0.008893555259001547
1639.0,0.008843406546055872
1638.0,0.008816519358174417
1637.0,0.00882730491938826
1636.0,0.008895692179442725
1635.0,0.008931232554146056
1634.0,0.008905579242207294
1633.0,0.008883697833535592
1632.0,0.008838233130232404
1631.0,0.0087595169875664
1630.0,0.00867329265902386
1629.0,0.008606099215901384
1628.0,0.008562725670113248
1627.0,0.008534295451810439
1626.0,0.008513383728878558
1625.0,0.00848377639968615
1624.0,0.008440873577838284
1623.0,0.008382368359833234
1622.0,0.008314067945126095
1621.0,0.00826713141016058
1620.0,0.008258298841519655
1619.0,0.008256363932042772
1618.0,0.008240124329181715
1617.0,0.008217049430530574
1616.0,0.00818260972229355
1615.0,0.00817441190642912
1614.0,0.008219826079131598
1613.0,0.008278295105324386
1612.0,0.008335806169890906
1611.0,0.008444330760614648
1610.0,0.00866386907423197
1609.0,0.009025261599874896
1608.0,0.009544983281522644
1607.0,0.010217488134372744
1606.0,0.010999725022938863
1605.0,0.011841569001339926
1604.0,0.012712121522425597
1603.0,0.013508871250328503
1602.0,0.014045783961083686
1601.0,0.014186590041685154
1600.0,0.013923275849692923
1599.0,0.013329664662016585
1598.0,0.012524508703359772
1597.0,0.011661265600778372
1596.0,0.010872974490563951
1595.0,0.010222070495657674
1594.0,0.009705427250352215
1593.0,0.009289777080132528
1592.0,0.008949443154149112
1591.0,0.008681355956940131
1590.0,0.00849929415872312
1589.0,0.00841744304997033
1588.0,0.008446915430479717
1587.0,0.008589812603522673
1586.0,0.0088226544025766
1585.0,0.009075408554615713
1584.0,0.00925880180228333
1583.0,0.009295103219468775
1582.0,0.00912884822090494
1581.0,0.008801984441939506
1580.0,0.00843921642607365
1579.0,0.008130812221890322
1578.0,0.00786545512811136
1577.0,0.007625084459526997
1576.0,0.0074196285343498935
1575.0,0.007274093160694021
1574.0,0.00722280873292643
1573.0,0.00721960014808521
1572.0,0.0071965773760097555
1571.0,0.007152042615983116
1570.0,0.007134809999735448
1569.0,0.00712657754032067
1568.0,0.007103624395354011
1567.0,0.007085804080201765
1566.0,0.007070476189485881
1565.0,0.007054401448230189
1564.0,0.007062076600000505
1563.0,0.007098451595600951
1562.0,0.007147243164041113
1561.0,0.00712703480428587
1560.0,0.007117078511409249
1559.0,0.00731007845815186
1558.0,0.007408782704000735
1557.0,0.007445321736199967
1556.0,0.007506602709696563
1555.0,0.007538456139931756
1554.0,0.007542316336329553
1553.0,0.007540289260464751
1552.0,0.007559731169695735
1551.0,0.007600296045766014
1550.0,0.007658950962387834
1549.0,0.00773982438532775
1548.0,0.007827971039415842
1547.0,0.007908813055252217
1546.0,0.00796549992248742
1545.0,0.008022235106987505
1544.0,0.008088243696136066
1543.0,0.008127734623784605
1542.0,0.008104559910367891
1541.0,0.008110201556189285
1540.0,0.008209771036573037
1539.0,0.008260179841720314
1538.0,0.008275140016233877
1537.0,0.008315805959038408
1536.0,0.008335885670586607
1535.0,0.008307598408725221
1534.0,0.008265135122532801
1533.0,0.008242560906414485
1532.0,0.008234255523717869
1531.0,0.008223571253618316
1530.0,0.008199408143640095
1529.0,0.008175536816368255
1528.0,0.00816694237834577
1527.0,0.008172709689831723
1526.0,0.008191173731017612
1525.0,0.008229472591314275
1524.0,0.008286517854048577
1523.0,0.008340128208904285
1522.0,0.008409879716136532
1521.0,0.008478617030046433
1520.0,0.008498616049162968
1519.0,0.008497926900713444
1518.0,0.008485220265674458
1517.0,0.008490575178006941
1516.0,0.008528307247349006
1515.0,0.00857627833298988
1514.0,0.008623691462680322
1513.0,0.008654133384037383
1512.0,0.00867074988111432
1511.0,0.008659838789764876
1510.0,0.008630683319037165
1509.0,0.008590989776662254
1508.0,0.008668651420938582
1507.0,0.008950731277314291
1506.0,0.009162660596911197
1505.0,0.009268196439492726
1504.0,0.009375831289909849
1503.0,0.009490396486934288
1502.0,0.009651270793920199
1501.0,0.009932463781017366
1500.0,0.010440033898158799
1499.0,0.011340010416596328
1498.0,0.01300242423300606
1497.0,0.015934721140726027
1496.0,0.019866829914648394
1495.0,0.02362226003194383
1494.0,0.026403793723210767
1493.0,0.02796903922495122
1492.0,0.028026497121717193
1491.0,0.026184389942675166
1490.0,0.022762331134590006
1489.0,0.019283665643388372
1488.0,0.01685808015397628
1487.0,0.015318751508905812
1486.0,0.01426487786140369
1485.0,0.013496055570374747
1484.0,0.012897671335016235
1483.0,0.012402712313909492
1482.0,0.011998538614844309
1481.0,0.011720890052079937
1480.0,0.011547324875658863
1479.0,0.011416258178580396
1478.0,0.0113006193184199
1477.0,0.011227854532820944
1476.0,0.01120533787743164
1475.0,0.011204292966738527
1474.0,0.01123527049316157
1473.0,0.011338964901342004
1472.0,0.011445775989780936
1471.0,0.01147323219498271
1470.0,0.011484726102611363
1469.0,0.011530695653153403
1468.0,0.011598317880500295
1467.0,0.011663508529596595
1466.0,0.01174372004984744
1465.0,0.011875518857950343
1464.0,0.012030231224386697
1463.0,0.012130210325676752
1462.0,0.012204650370945992
1461.0,0.012313233608439538
1460.0,0.012546290734801577
1459.0,0.013081854198066333
1458.0,0.014669007989119246
1457.0,0.01799235376892653
1456.0,0.02177968925209894
1455.0,0.024741695298615578
1454.0,0.02704390836928491
1453.0,0.02876858455684902
1452.0,0.029586240182718326
1451.0,0.029301448398680104
1450.0,0.028159710412379007
1449.0,0.026574175809210353
1448.0,0.024891067536762214
1447.0,0.023435723522715446
1446.0,0.022326687126669693
1445.0,0.0214109789550285
1444.0,0.020516627863108945
1443.0,0.019604442922478187
1442.0,0.018750954229788737
1441.0,0.01802359926145911
1440.0,0.017426086605327865
1439.0,0.016906257175056078
1438.0,0.01637616109209586
1437.0,0.015745949926235563
1436.0,0.015041068240042022
1435.0,0.014427391339378332
1434.0,0.013969055709313987
1433.0,0.013594822308476525
1432.0,0.013249015522824157
1431.0,0.012941186086133826
1430.0,0.012695868806496433
1429.0,0.01250659503611961
1428.0,0.012343744806594278
1427.0,0.012201408658879902
1426.0,0.012078494728741297
1425.0,0.011964624642557318
1424.0,0.011872469311657564
1423.0,0.011809675498515283
1422.0,0.011769084674340598
1421.0,0.011723904394864735
1420.0,0.011670813591407024
1419.0,0.011624054035726307
1418.0,0.011564025326077271
1417.0,0.011484958238753621
1416.0,0.011386516094366651
1415.0,0.01126249794505502
1414.0,0.01112183543105942
1413.0,0.010981368392940298
1412.0,0.010853515172299407
1411.0,0.010736418392776215
1410.0,0.010615292621861276
1409.0,0.010480771970920146
1408.0,0.010329131207426852
1407.0,0.010171285938087074
1406.0,0.010025330556278262
1405.0,0.009894912418412418
1404.0,0.009781855934320408
1403.0,0.00968483045647883
1402.0,0.009597962861757988
1401.0,0.009510657447354767
1400.0,0.009426316648032979
1399.0,0.009356522659529938
1398.0,0.009295110482439112
1397.0,0.009231691657706424
1396.0,0.009171953188110381
1395.0,0.009139245473186182
1394.0,0.009128768056619328
1393.0,0.00911500294938446
1392.0,0.009094742415501641
1391.0,0.009074943880100064
1390.0,0.00906304073134462
1389.0,0.009066905847200152
1388.0,0.009099820690770578
1387.0,0.009161381507021891
1386.0,0.009224111832506512
1385.0,0.009265885050609095
1384.0,0.009292618017012534
1383.0,0.009320934235306005
1382.0,0.00936223924509913
1381.0,0.009412655349854483
1380.0,0.009459484411910402
1379.0,0.009498374879590153
1378.0,0.00952842974376388
1377.0,0.009548094186878436
1376.0,0.009558943503373706
1375.0,0.00956879163815682
1374.0,0.009568742092257092
1373.0,0.009539586059048123
1372.0,0.009483921796312333
1371.0,0.009416203361541491
1370.0,0.00934328389103185
1369.0,0.009264015996025811
1368.0,0.00918333687839831
1367.0,0.00910644017419892
1366.0,0.009028294438725624
1365.0,0.008934187158710659
1364.0,0.008820369038722704
1363.0,0.00870514901511091
1362.0,0.008604981035100599
1361.0,0.008512696977602364
1360.0,0.008412787390322985
1359.0,0.008302162872324735
1358.0,0.00818981371284117
1357.0,0.008086443464333277
1356.0,0.008000295919269615
1355.0,0.007934688357212708
1354.0,0.007882201551136088
1353.0,0.00783040696249237
1352.0,0.007773075885896895
1351.0,0.007719126304032068
1350.0,0.007676599828780167
1349.0,0.0076356553101714665
1348.0,0.007587464502078962
1347.0,0.007531882708591137
1346.0,0.007470436010942605
1345.0,0.007397455861021718
1344.0,0.007311202632437437
1343.0,0.0072190953999387
1342.0,0.007128123871108142
1341.0,0.007039099561005187
1340.0,0.006955807826174375
1339.0,0.00688867794680666
1338.0,0.0068470966132398205
1337.0,0.006834477079712591
1336.0,0.006852436964715696
1335.0,0.006901861080208108
1334.0,0.006973461023958925
1333.0,0.00704772392490609
1332.0,0.007111779349241379
1331.0,0.007167656117888686
1330.0,0.007217153622995506
1329.0,0.007249402632214774
1328.0,0.007249951324072324
1327.0,0.0072146450633905485
1326.0,0.007148153073354329
1325.0,0.007059685366287835
1324.0,0.006967807858515963
1323.0,0.006892785078857615
1322.0,0.006841814392856799
1321.0,0.006807641477044641
1320.0,0.006786339496253024
1319.0,0.006785476511371236
1318.0,0.006808942537341654
1317.0,0.00684434545658995
1316.0,0.0068746972225950925
1315.0,0.006893993791294968
1314.0,0.0069053090539999175
1313.0,0.006911090402884632
1312.0,0.006909447406332311
1311.0,0.006896952577683361
1310.0,0.006870251969449046
1309.0,0.006829492481118731
1308.0,0.006780398212509857
1307.0,0.006729084234862702
1306.0,0.006673101033883418
1305.0,0.006605395732282936
1304.0,0.006529622636757618
1303.0,0.006459190803456961
1302.0,0.006402134516784714
1301.0,0.006353588469404739
1300.0,0.00630702325723528
1299.0,0.006262690995849076
1298.0,0.006222593479319716
1297.0,0.006184809391526384
1296.0,0.006147444887179469
1295.0,0.006111401101706949
1294.0,0.0060757187848925545
1293.0,0.006038577782326167
1292.0,0.006004226454603785
1291.0,0.005980562891717663
1290.0,0.005967075189429892
1289.0,0.005953726240551349
1288.0,0.005935230687038589
1287.0,0.005917695404707237
1286.0,0.005907384109984688
1285.0,0.005903016697022825
1284.0,0.005903404757313022
1283.0,0.0059117908382579215
1282.0,0.005926954231871149
1281.0,0.005938155032792091
1280.0,0.005936521461451008
1279.0,0.005924482175141004
1278.0,0.005907224076655055
1277.0,0.005882067530535518
1276.0,0.005843201523846953
1275.0,0.005792750626667266
1274.0,0.005740149510596581
1273.0,0.00569491146040116
1272.0,0.0056639785803870284
1271.0,0.005650894107710769
1270.0,0.005652487429382385
1269.0,0.005661247993474219
1268.0,0.005674763716088894
1267.0,0.005696582557663577
1266.0,0.005725430044506655
1265.0,0.005751370666276538
1264.0,0.005766656166104472
1263.0,0.005774835702551618
1262.0,0.005784998003206169
1261.0,0.00580150242138004
1260.0,0.005824280835609218
1259.0,0.005854536270113302
1258.0,0.005894696122037435
1257.0,0.005945685810143269
1256.0,0.00600623988723817
1255.0,0.006072484330698385
1254.0,0.0061371924786866264
1253.0,0.006194256367712744
1252.0,0.006245415185810744
1251.0,0.0062985982498574965
1250.0,0.006357976534458909
1249.0,0.006420363725098717
1248.0,0.006483378492840962
1247.0,0.006551295034178221
1246.0,0.006628545912381271
1245.0,0.006710302428729827
1244.0,0.006782477176336975
1243.0,0.006832030704266211
1242.0,0.006857677306738757
1241.0,0.00687151571253067
1240.0,0.006890179762137504
1239.0,0.006922990522405106
1238.0,0.006967454751095732
1237.0,0.0070159810861070895
1236.0,0.007064293604653903
1235.0,0.007110861617156468
1234.0,0.007152417284332064
1233.0,0.007186519856564221
1232.0,0.007217085645211214
1231.0,0.007250426497268595
1230.0,0.007285766856405047
1229.0,0.007316749465990941
1228.0,0.007343452525850039
1227.0,0.007374975795689067
1226.0,0.007415355729514777
1225.0,0.007453235302418697
1224.0,0.007473240724231641
1223.0,0.007475126990417021
1222.0,0.007474858669784642
1221.0,0.007487319058056215
1220.0,0.007513556674834476
1219.0,0.007544605098452357
1218.0,0.007572405153513161
1217.0,0.007595500165899254
1216.0,0.007617489389233401
1215.0,0.0076431411528917505
1214.0,0.007675073136384537
1213.0,0.0077125632344127865
1212.0,0.0077533565992322015
1211.0,0.007797005781818677
1210.0,0.007846320444253528
1209.0,0.007904536609374352
1208.0,0.007970774583753643
1207.0,0.008038689283731675
1206.0,0.008101311457800091
1205.0,0.008158347117667391
1204.0,0.008217700385470724
1203.0,0.008288150793383353
1202.0,0.008370549260313524
1201.0,0.008457517165772803
1200.0,0.00854069337369606
1199.0,0.008614843409966145
1198.0,0.00867512148985306
1197.0,0.008715823588519437
1196.0,0.008736065496075461
1195.0,0.008745270131128453
1194.0,0.008757904360202837
1193.0,0.008781829391430946
1192.0,0.008815384033568598
1191.0,0.008854981258376872
1190.0,0.008900176849938936
1189.0,0.008951225243948913
1188.0,0.009009796825506415
1187.0,0.009087164899637892
1186.0,0.009204999766855368
1185.0,0.00937755503515987
1184.0,0.009590709074215746
1183.0,0.009801552931625568
1182.0,0.00995973742601464
1181.0,0.010029820910632006
1180.0,0.00999942916194708
1179.0,0.009879266097900163
1178.0,0.009700750663323906
1177.0,0.009505769578849431
1176.0,0.009331470582357714
1175.0,0.009200850504191439
1174.0,0.009120073330173447
1173.0,0.009080491023622395
1172.0,0.009067319924457607
1171.0,0.009070468969139635
1170.0,0.009087235577985336
1169.0,0.009115014274556191
1168.0,0.009145749109476463
1167.0,0.009171024494318098
1166.0,0.009190336696404268
1165.0,0.009211124311264767
1164.0,0.009243232812614247
1163.0,0.00929754658252897
1162.0,0.009387465211916482
1161.0,0.009525556229384828
1160.0,0.009717165253445065
1159.0,0.009957337469053638
1158.0,0.01023006206187763
1157.0,0.01050569744576339
1156.0,0.010740234903130497
1155.0,0.01088589830550009
1154.0,0.01091142902193579
1153.0,0.01081575089956845
1152.0,0.010627457041197491
1151.0,0.010396550613745772
1150.0,0.010176636483916842
1149.0,0.009998731837014763
1148.0,0.009860755823109382
1147.0,0.00974680646328385
1146.0,0.009651940944800454
1145.0,0.009583035391370186
1144.0,0.009543300707258368
1143.0,0.009526921400770345
1142.0,0.009525831642318927
1141.0,0.009532253002210493
1140.0,0.009536739639300526
1139.0,0.009534435723775894
1138.0,0.009533517918131873
1137.0,0.009547477216210099
1136.0,0.009578004475341422
1135.0,0.00961466290826786
1134.0,0.009652545170900011
1133.0,0.009699846411998149
1132.0,0.009763750730896331
1131.0,0.009836999646487621
1130.0,0.00990419857339109
1129.0,0.009958196117745044
1128.0,0.010008470929984244
1127.0,0.010076935957963978
1126.0,0.010183132572906806
1125.0,0.010325599110021871
1124.0,0.010479517959448133
1123.0,0.010622935826035237
1122.0,0.010766297607351453
1121.0,0.010944183200504883
1120.0,0.011173641819020188
1119.0,0.011431521275247184
1118.0,0.011678464655725923
1117.0,0.011895895236964344
1116.0,0.012093526826382628
1115.0,0.012291132415315634
1114.0,0.012499391803465418
1113.0,0.012708612642904418
1112.0,0.012890674285605076
1111.0,0.013022514461142713
1110.0,0.013112182900436635
1109.0,0.013190912924759938
1108.0,0.013277204809715667
1107.0,0.013363841124842613
1106.0,0.01344186601540583
1105.0,0.013516204104835033
1104.0,0.013591509779351491
1103.0,0.01366334413193394
1102.0,0.013733556248388658
1101.0,0.01381605679053977
1100.0,0.013913981332254813
1099.0,0.014007161999583847
1098.0,0.014075110678765452
1097.0,0.014120150750033728
1096.0,0.014158795555654607
1095.0,0.014202846207847439
1094.0,0.014258340721653162
1093.0,0.014327966327948211
1092.0,0.014403046797269763
1091.0,0.014465634060394597
1090.0,0.014510828659707292
1089.0,0.014557733448270813
1088.0,0.014630010718003225
1087.0,0.014735513811816897
1086.0,0.014869535293772891
1085.0,0.015023504851404749
1084.0,0.015182053105524288
1083.0,0.015325611118070428
1082.0,0.015447453732712262
1081.0,0.015557592620828328
1080.0,0.01566299416868751
1079.0,0.015759156435287275
1078.0,0.01584925117966072
1077.0,0.015954084718316868
1076.0,0.016090496076260546
1075.0,0.016252497527090543
1074.0,0.016423480738783747
1073.0,0.016593594165697185
1072.0,0.01675444346161916
1071.0,0.016889464919517358
1070.0,0.01698111422692555
1069.0,0.01701869140324197
1068.0,0.01699457142463918
1067.0,0.01690721335086703
1066.0,0.01677284889404348
1065.0,0.016618719788856103
1064.0,0.016459904036359437
1063.0,0.016294939659657268
1062.0,0.016123412829025
1061.0,0.015952436539354943
1060.0,0.015785762039374356
1059.0,0.015621672607476947
1058.0,0.015462089829325183
1057.0,0.01531125684306792
1056.0,0.015168546123130906
1055.0,0.015036547534344392
1054.0,0.014931423277655571
1053.0,0.01486692838646084
1052.0,0.014830347652275727
1051.0,0.014796439759378423
1050.0,0.014765775275714932
1049.0,0.01476144058388168
1048.0,0.014786311818514974
1047.0,0.014815842702350306
1046.0,0.014835247716719107
1045.0,0.014854062025023654
1044.0,0.014881814122566842
1043.0,0.014915030042610501
1042.0,0.014953750412090905
1041.0,0.01501111277653679
1040.0,0.015100910244969751
1039.0,0.015234755089722257
1038.0,0.015439200297535646
1037.0,0.01575763179331302
1036.0,0.016223864404584686
1035.0,0.016842365868645254
1034.0,0.01759390610142973
1033.0,0.01843867751181524
1032.0,0.01930239033700511
1031.0,0.02008143586630569
1030.0,0.020683931185202856
1029.0,0.021054136230624614
1028.0,0.021151682682961134
1027.0,0.02094591804701508
1026.0,0.020458420666663042
1025.0,0.01978532916727812
1024.0,0.01905382651581639
1023.0,0.018364420042319873
1022.0,0.017768631038985547
1021.0,0.017273306242160242
1020.0,0.016855412958634387
1019.0,0.01648737223401012
1018.0,0.016161104585307597
1017.0,0.015887586435329386
1016.0,0.01567612828602253
1015.0,0.015522258378102744
1014.0,0.015412201008753817
1013.0,0.015328254628465873
1012.0,0.015252799118366057
1011.0,0.015180958142951725
1010.0,0.015129182727531922
1009.0,0.015117218965521796
1008.0,0.015140695850164324
1007.0,0.015174173031173462
1006.0,0.015199283596861565
1005.0,0.015211068152282074
1004.0,0.015192120064774932
1003.0,0.015100237184291248
1002.0,0.0148962012520229
1001.0,0.014578020829591923
1000.0,0.014184482137236012
999.0,0.013773753387932006
998.0,0.013395917655860134
997.0,0.013071325145894427
996.0,0.012790861007220097
995.0,0.01254042213425876
994.0,0.012320471059522525
993.0,0.01213636555727413
992.0,0.011979838774711194
991.0,0.011834253699884218
990.0,0.011693576627872796
989.0,0.011562678954139373
988.0,0.01144278438266799
987.0,0.011331477549705388
986.0,0.01123407723077512
985.0,0.01115768390344607
984.0,0.011093144970602915
983.0,0.011018801200011577
982.0,0.010924837159014232
981.0,0.010819474154250667
980.0,0.010708178653380968
979.0,0.010581567167458152
978.0,0.010428247019953159
977.0,0.010247052631636102
976.0,0.010044312929574254
975.0,0.00983342731826011
974.0,0.00963995657280325
973.0,0.0094910357183795
972.0,0.009392527934010865
971.0,0.00932718929693306
970.0,0.009279840836290198
969.0,0.009252016514439007
968.0,0.009245013499338693
967.0,0.009242063326275085
966.0,0.009219679104569148
965.0,0.009167858857259613
964.0,0.009086565293645025
963.0,0.008969429013277155
962.0,0.008806118480423264
961.0,0.008601056435359676
960.0,0.008379806799318922
959.0,0.008173500985752525
958.0,0.00799913242044219
957.0,0.007855136157292683
956.0,0.007733637738612813
955.0,0.007633593072985062
954.0,0.00755943686237107
953.0,0.007508446709205795
952.0,0.007466488945114001
951.0,0.007421836940654366
950.0,0.007379613119560879
949.0,0.0073558021400181774
948.0,0.0073593412452568445
947.0,0.007387064166066838
946.0,0.007432498893358466
945.0,0.007487684380519584
944.0,0.007535555579441439
943.0,0.007554158220475811
942.0,0.007535171154346909
941.0,0.007489095669806668
940.0,0.007427484313134471
939.0,0.007351160330975503
938.0,0.007261912273447557
937.0,0.007172876378354079
936.0,0.00709548761169514
935.0,0.007023210174958145
934.0,0.006940106508078851
933.0,0.006843321928394838
932.0,0.006748116789993257
931.0,0.006671828045754833
930.0,0.006619950766933001
929.0,0.006587504392508778
928.0,0.006567846539494958
927.0,0.006558779593075055
926.0,0.006563444505768044
925.0,0.0065854782862179405
924.0,0.006622115490954915
923.0,0.006665598796648771
922.0,0.006714814963717989
921.0,0.006781177630649306
920.0,0.006877421813087108
919.0,0.007004288117829051
918.0,0.007155158162417682
917.0,0.007330727102696449
916.0,0.007539762680181862
915.0,0.00778539736300689
914.0,0.008059201471571974
913.0,0.008349824686164267
912.0,0.008648880608757367
911.0,0.008944767665926166
910.0,0.009216213033177257
909.0,0.009434487813159786
908.0,0.00956998484907921
907.0,0.009600597618096885
906.0,0.009519648004470338
905.0,0.009333333496326668
904.0,0.00904926960203034
903.0,0.008674885477860635
902.0,0.008229072224167697
901.0,0.007747725745056711
900.0,0.007274705688438261
899.0,0.006848797590441094
898.0,0.006492328578085413
897.0,0.00620298003567816
896.0,0.005958079793831868
895.0,0.00573446868985761
894.0,0.00552758762860538
893.0,0.005349544609233866
892.0,0.005209347765997945
891.0,0.0050994681345114205
890.0,0.005003300720938464
889.0,0.004912835276390358
888.0,0.004835837696621308
887.0,0.004786008353560118
886.0,0.004768083782939893
885.0,0.004774137541311965
884.0,0.004794933063055952
883.0,0.004833049899377493
882.0,0.004901442290015268
881.0,0.0050067847395748755
880.0,0.005135630178332823
879.0,0.0052598596797994255
878.0,0.00535653194626946
877.0,0.00542184513749752
876.0,0.005469143713528166
875.0,0.0055179773187728695
874.0,0.005576908936691702
873.0,0.005622715282466351
872.0,0.00560069530333434
871.0,0.005467758254181032
870.0,0.005245118514172508
869.0,0.005012527600031581
868.0,0.004839628003378064
867.0,0.0047319871445841745
866.0,0.004648965477408553
865.0,0.004562622811471649
864.0,0.004485332502797255
863.0,0.004442789437373907
862.0,0.004435583323957383
861.0,0.004435028596371297
860.0,0.004410435800324103
859.0,0.0043532856773812224
858.0,0.004276956000149877
857.0,0.004198222821200179
856.0,0.0041216685566172195
855.0,0.004041891683794738
854.0,0.0039581400987948046
853.0,0.0038836754438685587
852.0,0.0038404422945514235
851.0,0.003845796778891925
850.0,0.003902540544551368
849.0,0.0039976215613530056
848.0,0.004109236804768067
847.0,0.0042186684384900065
846.0,0.004318467454594223
845.0,0.004407712783617051
844.0,0.004480288075705692
843.0,0.004526465916511541
842.0,0.004548322326496429
841.0,0.004560825858529953
840.0,0.004568472493877757
839.0,0.0045505313953458516
838.0,0.004482491625818574
837.0,0.004366689945134089
836.0,0.004229077920160763
835.0,0.00409020839888493
834.0,0.00395318488782556
833.0,0.00381941046636848
832.0,0.0037005073565044193
831.0,0.0036063880831064153
830.0,0.0035304946145481714
829.0,0.003457019402776761
828.0,0.0033795528637565733
827.0,0.003306181118582897
826.0,0.003251385443623792
825.0,0.0032299667039391395
824.0,0.003249840262649126
823.0,0.0032970231476379527
822.0,0.003335330901586946
821.0,0.003336843014042589
820.0,0.0033093629124690774
819.0,0.0032843799260812608
818.0,0.0032824539642616222
817.0,0.0032989195177883486
816.0,0.003320099893924948
815.0,0.003341276386134822
814.0,0.003364223807539953
813.0,0.0033856718443018106
812.0,0.0033979749489300723
811.0,0.003400053176881505
810.0,0.0033995938457996398
809.0,0.0034022449162418953
808.0,0.0034045174143526626
807.0,0.0034017650140783385
806.0,0.00339880647549893
805.0,0.003405944945017861
804.0,0.003426004562604389
803.0,0.003451750598970027
802.0,0.003477032758050713
801.0,0.0035043530965621775
800.0,0.003538286452246989
799.0,0.0035765416241576656
798.0,0.0036127606411291415
797.0,0.0036456466182108304
796.0,0.0036791352596497184
795.0,0.0037141373414275695
794.0,0.0037469323610047605
793.0,0.0037779833935682895
792.0,0.003817757972759621
791.0,0.003879393737544746
790.0,0.0039652797538610885
789.0,0.004064558920627209
788.0,0.004167460887828173
787.0,0.004280620068698896
786.0,0.004421378379307943
785.0,0.004592410908398828
784.0,0.004769046384335233
783.0,0.00492442102033974
782.0,0.005068672185690832
781.0,0.005250341325958547
780.0,0.005512104040786158
779.0,0.005853751883280554
778.0,0.006244092617575147
777.0,0.006658379496561142
776.0,0.007094221732166298
775.0,0.007562621619896697
774.0,0.008080831069232826
773.0,0.008669094874666296
772.0,0.009336654913675005
771.0,0.010069814772547838
770.0,0.010845539792575219
769.0,0.011653602561452165
768.0,0.01249166252838401
767.0,0.013344461198500118
766.0,0.01418725522129349
765.0,0.015008409586018682
764.0,0.015813466097882214
763.0,0.016612705239469523
762.0,0.017418747885777224
761.0,0.018243554223090624
760.0,0.01907418216009412
759.0,0.019854721763098025
758.0,0.020511200455854667
757.0,0.020993059836134382
756.0,0.021283996301242745
755.0,0.02139493799317764
754.0,0.021367700439548807
753.0,0.02126907044877748
752.0,0.021159795906224906
751.0,0.021072973094181838
750.0,0.021018452740898225
749.0,0.020978455289340812
748.0,0.020883011223605575
747.0,0.020611961402256948
746.0,0.02005160066434721
745.0,0.019158879425619797
744.0,0.017976344204163414
743.0,0.016603127280765267
742.0,0.0151552711477029
741.0,0.01373292362926843
740.0,0.012406241838329196
739.0,0.01121874273427043
738.0,0.01018504512952723
737.0,0.009278485681469516
736.0,0.008439707020883877
735.0,0.007620076837223599
734.0,0.006820937203471468
733.0,0.006085238298172041
732.0,0.005455191504453141
731.0,0.004944561065688913
730.0,0.004543352260851789
729.0,0.0042330997654969425
728.0,0.0039939358844150105
727.0,0.0038070640642454898
726.0,0.003659311681911845
725.0,0.0035448765127296233
724.0,0.0034607082248207747
723.0,0.003401511519677578
722.0,0.0033581020003162435
721.0,0.0033174956010940254
720.0,0.0032679865543909815
719.0,0.0032118227281976216
718.0,0.003169125725131193
717.0,0.0031624486875083055
716.0,0.0032040343108241214
715.0,0.003304737350999643
714.0,0.00349109987982886
713.0,0.0038049643379084834
712.0,0.004287941631130467
711.0,0.00498224478994993
710.0,0.005954188773471701
709.0,0.00730322355582067
708.0,0.00913243050526113
707.0,0.01151059193747243
706.0,0.014471515965014954
705.0,0.018040180597049232
704.0,0.02223430047546827
703.0,0.027046694153384385
702.0,0.03246031289532088
701.0,0.03847405005859671
700.0,0.04506250476506473
699.0,0.05207244452632346
698.0,0.05911266729969005
697.0,0.06543467601518907
696.0,0.06986938900563927
695.0,0.07112551364031328
694.0,0.06856816001533679
693.0,0.06279136455208117
692.0,0.05525649987491755
691.0,0.047430057121130006
690.0,0.04026441997279351
689.0,0.034176809762363966
688.0,0.02923663273379743
687.0,0.025339181165536337
686.0,0.022308228403473886
685.0,0.019945346668462705
684.0,0.018059502680586828
683.0,0.016499126196986624
682.0,0.015175048247432762
681.0,0.014044055959960229
680.0,0.013067791650925711
679.0,0.012203966343925968
678.0,0.011440926487234625
677.0,0.01080554108130415
676.0,0.010313669527721996
675.0,0.009918531218882306
674.0,0.00954690277568811
673.0,0.00917574374747071
672.0,0.00883485605334754
671.0,0.008517717735307623
670.0,0.0081583554400873
669.0,0.007660069915930155
668.0,0.007055930825679095
667.0,0.006646025674183383
666.0,0.006551896911640629
665.0,0.006551801835031585
664.0,0.0064605616532795816
663.0,0.006261528738276892
662.0,0.006029413981719085
661.0,0.00582637465451849
660.0,0.005651450014336135
659.0,0.005472972464487722
658.0,0.005270697810010359
657.0,0.0050494677512862365
656.0,0.004835320179008279
655.0,0.004658098850788184
654.0,0.0045294700274837105
653.0,0.004443220991703488
652.0,0.004388940914518502
651.0,0.004350965099868839
650.0,0.0042996971338133926
649.0,0.004208103429099771
648.0,0.004083553354950743
647.0,0.0039647361782710715
646.0,0.0038765771058155863
645.0,0.0038057729841450786
644.0,0.0037306662163767348
643.0,0.0036550857002875144
642.0,0.0035964784435935683
641.0,0.0035546385368956865
640.0,0.0035157782248871703
639.0,0.0034830909463718484
638.0,0.003480153276651578
637.0,0.0035217763196831973
636.0,0.003598149685430454
635.0,0.0036875814022976072
634.0,0.0037689698172978514
633.0,0.0038221740237168733
632.0,0.003837059501837695
631.0,0.00383651313946751
630.0,0.003871388293547799
629.0,0.003967029819891204
628.0,0.004084893073453775
627.0,0.0041570792481478245
626.0,0.0041598593878198024
625.0,0.0041365527130614865
624.0,0.00414685803638091
623.0,0.004217604765978876
622.0,0.004335137603622025
621.0,0.004447108775897235
620.0,0.004466143960543446
619.0,0.0043187678811307095
618.0,0.00402939668971777
617.0,0.0037251870592038203
616.0,0.003523788204589616
615.0,0.0034412191356784777
614.0,0.003418608754638657
613.0,0.0034022560092155894
612.0,0.003378217457273269
611.0,0.0033584483579601355
610.0,0.0033561295831225305
609.0,0.0033620658608497257
608.0,0.0033436323467705732
607.0,0.003283360358139111
606.0,0.0032142521829820452
605.0,0.003188463087384982
604.0,0.0032179953652097144
603.0,0.0032805292956516238
602.0,0.0033674703809102625
601.0,0.0034752764875756615
600.0,0.0035571822826641793
599.0,0.003552947053900985
598.0,0.0034856251270093223
597.0,0.003455566909023761
596.0,0.0035121334712425855
595.0,0.0035927784964325214
594.0,0.003619660235243889
593.0,0.0035997664053168087
592.0,0.00356919282836321
591.0,0.0034931195253160192
590.0,0.0033163609204233495
589.0,0.0030863413909409734
588.0,0.0029408995295983464
587.0,0.0029806228714553094
586.0,0.0031710543299281
585.0,0.003367939992484437
584.0,0.0034322313737510275
583.0,0.0033237160875900056
582.0,0.0031264006580075977
581.0,0.0029852432927751724
580.0,0.0029893188829458843
579.0,0.003111754997313476
578.0,0.003268048390741466
577.0,0.003399640289014551
576.0,0.0034587841050957285
575.0,0.003391504378947984
574.0,0.0032233150024371642
573.0,0.0030820109508702676
572.0,0.0030793067769678845
571.0,0.003218890482053533
570.0,0.003422791492890837
569.0,0.003605586824173279
568.0,0.003680854902023408
567.0,0.003581602811184399
566.0,0.0033756965697283488
565.0,0.0032475835221872137
564.0,0.003292528248662987
563.0,0.003419921494114188
562.0,0.0035144124031517184
561.0,0.0036066082232780756
560.0,0.0037786227679628553
559.0,0.003996034976870448
558.0,0.004149945407904126
557.0,0.004178367331892332
556.0,0.004022614232798091
555.0,0.0036183255329030987
554.0,0.0030907437840897306
553.0,0.002766115333229128
552.0,0.002869161291415883
551.0,0.0033167337075047446
550.0,0.0038423970443763507
