cm-1,A
4000.0,-0.0018181177771649515
3999.0,-0.0018140869717203933
3998.0,-0.0018085199394952244
3997.0,-0.001801698861580739
3996.0,-0.001795422748339678
3995.0,-0.0017916687875587406
3994.0,-0.0017914994563491557
3993.0,-0.0017939417221354867
3992.0,-0.0017959915399777626
3991.0,-0.0017934993178192714
3990.0,-0.0017838485519171064
3989.0,-0.0017691060067978543
3988.0,-0.0017545483038609705
3987.0,-0.0017446332930714141
3986.0,-0.0017390057499791283
3985.0,-0.0017324848531605397
3984.0,-0.0017204065537930386
3983.0,-0.0017031163081078207
3982.0,-0.0016875620231217973
3981.0,-0.0016825059420111194
3980.0,-0.0016916553276063362
3979.0,-0.0017108888758472197
3978.0,-0.0017301693101700079
3977.0,-0.0017403392995707927
3976.0,-0.0017380288246357373
3975.0,-0.0017265333053382737
3974.0,-0.0017120274640036702
3973.0,-0.0016987852712371573
3972.0,-0.0016888751489373905
3971.0,-0.001683756981144686
3970.0,-0.0016850972920107975
3969.0,-0.0016930445534948206
3968.0,-0.0017040424203032542
3967.0,-0.0017120940493239151
3966.0,-0.0017122724402341494
3965.0,-0.0017028159812453258
3964.0,-0.001685469562602664
3963.0,-0.0016660723240405832
3962.0,-0.001652163448740421
3961.0,-0.0016482815629245266
3960.0,-0.0016532122963352925
3959.0,-0.0016608860260257114
3958.0,-0.0016658963327143249
3957.0,-0.0016675525343974368
3956.0,-0.001667269203379739
3955.0,-0.0016663846654117547
3954.0,-0.0016654214944058074
3953.0,-0.0016647626093816894
3952.0,-0.0016656298346372348
3951.0,-0.0016668587485413424
3950.0,-0.0016666425257953088
3949.0,-0.0016640180679844544
3948.0,-0.0016600327425725513
3947.0,-0.0016554839657129206
3946.0,-0.0016434056832095511
3945.0,-0.0016174312700274378
3944.0,-0.0015806094256918938
3943.0,-0.0015456984310819842
3942.0,-0.0015296779864375182
3941.0,-0.0015339517378331878
3940.0,-0.001544640679584779
3939.0,-0.0015512769798939965
3938.0,-0.001555752618790977
3937.0,-0.001567448256216443
3936.0,-0.0015885112416115354
3935.0,-0.0016115559369643034
3934.0,-0.0016241774500631795
3933.0,-0.001618902747937976
3932.0,-0.0015965956997981172
3931.0,-0.0015674938877555007
3930.0,-0.0015450459304873977
3929.0,-0.0015314591806827524
3928.0,-0.001520731865143217
3927.0,-0.001505391749405568
3926.0,-0.0014859450324176023
3925.0,-0.0014715161338148763
3924.0,-0.0014699033962301948
3923.0,-0.00148020853113358
3922.0,-0.0014939377475222109
3921.0,-0.0015090852034169645
3920.0,-0.0015278161343949936
3919.0,-0.001542639163217535
3918.0,-0.001540858268601415
3917.0,-0.0015165023713201449
3916.0,-0.0014782394840279964
3915.0,-0.0014413563664053524
3914.0,-0.0014134931653542004
3913.0,-0.0013989591934736863
3912.0,-0.0014003162341451165
3911.0,-0.0014152021303619749
3910.0,-0.0014387892617322108
3909.0,-0.0014671260685572751
3908.0,-0.0014964314577231067
3907.0,-0.001525681068863579
3906.0,-0.0015560065449064999
3905.0,-0.0015869706952361662
3904.0,-0.0016166197101565895
3903.0,-0.00163212400848299
3902.0,-0.0016106188034113844
3901.0,-0.0015454024271003993
3900.0,-0.0014605561678474432
3899.0,-0.0013994339700753487
3898.0,-0.0013856878328631533
3897.0,-0.001402289945580042
3896.0,-0.0014254587979432732
3895.0,-0.0014439122357871254
3894.0,-0.001451026983520818
3893.0,-0.001443736516962597
3892.0,-0.0014281641029805078
3891.0,-0.0014324241377516311
3890.0,-0.00146821557414089
3889.0,-0.0015051712412614835
3888.0,-0.0015142395541042808
3887.0,-0.0015003422565492987
3886.0,-0.0014836581381407197
3885.0,-0.0014781771484637003
3884.0,-0.0014726613687165346
3883.0,-0.0014346589362779715
3882.0,-0.0013587236986638226
3881.0,-0.0012837348059357183
3880.0,-0.0012607145268842246
3879.0,-0.0013026356078294113
3878.0,-0.0013631305688333291
3877.0,-0.0013940973188378803
3876.0,-0.0013941172094242968
3875.0,-0.0013912006672266025
3874.0,-0.0014098098773984592
3873.0,-0.001447731137783304
3872.0,-0.0014774842829610485
3871.0,-0.0014783441273844365
3870.0,-0.0014673633072510152
3869.0,-0.001478008742101146
3868.0,-0.0015010336447414904
3867.0,-0.0014990388325132045
3866.0,-0.0014674176228115865
3865.0,-0.0014247146313436827
3864.0,-0.0013846570118367547
3863.0,-0.0013544589472215753
3862.0,-0.0013429606032737528
3861.0,-0.0013581016256632395
3860.0,-0.0013926780843163023
3859.0,-0.0014344421974108123
3858.0,-0.001472047351473747
3857.0,-0.001504030898134084
3856.0,-0.0015407776916454403
3855.0,-0.0015839951374896828
3854.0,-0.0016153036013289378
3853.0,-0.001624200576636958
3852.0,-0.0016100385860138137
3851.0,-0.0015464235252585197
3850.0,-0.0014402639507388292
3849.0,-0.0013451602889878317
3848.0,-0.001292863141105304
3847.0,-0.0012760345658952617
3846.0,-0.0012778097639348988
3845.0,-0.001290111388718714
3844.0,-0.0013166065374954706
3843.0,-0.0013626576252261258
3842.0,-0.0014228906453290242
3841.0,-0.0014761846360212853
3840.0,-0.0014983833327206753
3839.0,-0.0014877324864177226
3838.0,-0.0014629644150362302
3837.0,-0.0014383426947688436
3836.0,-0.0014069440079297613
3835.0,-0.0013555264561984641
3834.0,-0.0012931840550070611
3833.0,-0.001240359265051206
3832.0,-0.001210032719402826
3831.0,-0.0012030930448378298
3830.0,-0.0012055052682540712
3829.0,-0.0012000408766389982
3828.0,-0.001183206638037855
3827.0,-0.0011705362604307022
3826.0,-0.0011817550598232796
3825.0,-0.001219634829904856
3824.0,-0.0012670536804321023
3823.0,-0.0013058554939719238
3822.0,-0.0013242459483069448
3821.0,-0.0013232469864523973
3820.0,-0.0013283957208011354
3819.0,-0.0013263578852770338
3818.0,-0.0012836683499679157
3817.0,-0.0012108269858883583
3816.0,-0.0011522456216216575
3815.0,-0.001133405028456604
3814.0,-0.0011277943848640197
3813.0,-0.0011009584215600561
3812.0,-0.0010665186505436621
3811.0,-0.0010543926615641766
3810.0,-0.0010703355242121103
3809.0,-0.0011043589488749415
3808.0,-0.0011462624910132625
3807.0,-0.0011976362538144993
3806.0,-0.001257824479888901
3805.0,-0.0012971876058768955
3804.0,-0.001292090013616861
3803.0,-0.0012498117057194909
3802.0,-0.0011916385881017573
3801.0,-0.001155556885048339
3800.0,-0.0011453522817832461
3799.0,-0.0011101951103101061
3798.0,-0.0010268484068787272
3797.0,-0.000934008950050621
3796.0,-0.0008797445327966725
3795.0,-0.0008711560490639392
3794.0,-0.0008782381515200353
3793.0,-0.000872550664664918
3792.0,-0.0008548679300998837
3791.0,-0.0008379387343401126
3790.0,-0.0008302522100486387
3789.0,-0.000833817516698005
3788.0,-0.0008418935066996416
3787.0,-0.0008425848051218689
3786.0,-0.000830551827427745
3785.0,-0.0008133850015616861
3784.0,-0.0008044445763868038
3783.0,-0.0008067375255055491
3782.0,-0.0008071603698087148
3781.0,-0.0007957024114790593
3780.0,-0.0007735160770038674
3779.0,-0.000755047077703709
3778.0,-0.0007515685939237314
3777.0,-0.0007540919382369522
3776.0,-0.0007509754728321104
3775.0,-0.0007472373685935424
3774.0,-0.0007530585652188637
3773.0,-0.0007684525758557462
3772.0,-0.0007850395847318106
3771.0,-0.0007975028989097985
3770.0,-0.000811941484241
3769.0,-0.000832373763992613
3768.0,-0.0008417436892325769
3767.0,-0.0008230928983791
3766.0,-0.0007850307443212234
3765.0,-0.0007554903502858828
3764.0,-0.0007518856932428139
3763.0,-0.0007642607472305385
3762.0,-0.0007776916492737387
3761.0,-0.0007879891267079113
3760.0,-0.0007903424947096582
3759.0,-0.0007873722606288203
3758.0,-0.0007940403640125404
3757.0,-0.0008277822042198674
3756.0,-0.0008840737935515138
3755.0,-0.0009593721274679756
3754.0,-0.0010647878853137348
3753.0,-0.00120974280166946
3752.0,-0.0013587240162365945
3751.0,-0.0014472159445656425
3750.0,-0.0014656927492318894
3749.0,-0.0014341148005379948
3748.0,-0.0013460297885326134
3747.0,-0.0012048923360082847
3746.0,-0.0010664662421238649
3745.0,-0.0010005810755338684
3744.0,-0.0010114938067476652
3743.0,-0.0009959507264716229
3742.0,-0.0008612336171682737
3741.0,-0.0006394789596453864
3740.0,-0.00042622160013232937
3739.0,-0.0002949958161448168
3738.0,-0.0002396745164001366
3737.0,-0.00017039577129759998
3736.0,4.281474976461586e-05
3735.0,0.000422266988375973
3734.0,0.0008255585289305966
3733.0,0.0010866800949457021
3732.0,0.0011298839753506123
3731.0,0.0010080634162271207
3730.0,0.000835559770871005
3729.0,0.0006592009828456152
3728.0,0.0004614195330727831
3727.0,0.0002710263710490988
3726.0,0.00014192568768461267
3725.0,8.890898341434305e-05
3724.0,8.706119046512728e-05
3723.0,0.00010176002559188267
3722.0,0.00010111407990699828
3721.0,9.613739426732532e-05
3720.0,5.365964635457798e-05
3719.0,-0.00027597631135694645
3718.0,-0.0011220235356591824
3717.0,-0.0023695380023557614
3716.0,-0.003384305892107299
3715.0,-0.003514562062042298
3714.0,-0.0026813798674412406
3713.0,-0.0014347438905479958
3712.0,-0.00047493782762734327
3711.0,5.4268991779523324e-05
3710.0,0.0003384969751636996
3709.0,0.0005994756299356955
3708.0,0.0008298249839704139
3707.0,0.0009946696487023183
3706.0,0.001104556714872536
3705.0,0.0011845782780830643
3704.0,0.0013036517827720807
3703.0,0.0014546258358432574
3702.0,0.0015968033023180694
3701.0,0.001628813860528295
3700.0,0.001574644075141457
3699.0,0.0014731061075859207
3698.0,0.0014034985063660686
3697.0,0.0013380484735582793
3696.0,0.00125823944448784
3695.0,0.0011296863335069312
3694.0,0.0009649362501132641
3693.0,0.0008301376883045257
3692.0,0.0007754752061711436
3691.0,0.0008812862561371316
3690.0,0.0010377528004891822
3689.0,0.0011214756138409616
3688.0,0.0010190141648585619
3687.0,0.0008438989656519471
3686.0,0.0007160424850516518
3685.0,0.0006645749257391353
3684.0,0.0006522963276389215
3683.0,0.0006103788062578527
3682.0,0.0005498904027413165
3681.0,0.00046820757064746575
3680.0,0.0003978350867512703
3679.0,0.0003249286816857668
3678.0,0.0002683419869583078
3677.0,0.0002508983530471584
3676.0,0.0003146216303834957
3675.0,0.00040013203607335983
3674.0,0.00043204259719724434
3673.0,0.0004438807926572667
3672.0,0.0004838674400107068
3671.0,0.0005674298677621978
3670.0,0.0006845529297021519
3669.0,0.0007982570448209703
3668.0,0.0008802587806137916
3667.0,0.0009602629627808832
3666.0,0.0010428761365961331
3665.0,0.001121666293603263
3664.0,0.0011838981438412575
3663.0,0.0012325685300161213
3662.0,0.001265980155776837
3661.0,0.0012861495975194524
3660.0,0.0012974352307856252
3659.0,0.0013122993707311305
3658.0,0.0013371284349667227
3657.0,0.0013659162726094446
3656.0,0.0013837129420164824
3655.0,0.0013888932263599655
3654.0,0.0013999327095960902
3653.0,0.0014149492281218658
3652.0,0.0014034106362751592
3651.0,0.0013594615643388896
3650.0,0.0013506007040498785
3649.0,0.0014432047621548746
3648.0,0.0016029794386394525
3647.0,0.0017554159917785646
3646.0,0.0018705701064510825
3645.0,0.001962930490927973
3644.0,0.0020491273380847785
3643.0,0.002137174625293155
3642.0,0.0022290314562858
3641.0,0.002325291805795093
3640.0,0.0024222931336995777
3639.0,0.00252425210468836
3638.0,0.00263492150497764
3637.0,0.002742130655905079
3636.0,0.002819715326090355
3635.0,0.002872176333783692
3634.0,0.0029407308411713616
3633.0,0.0030406875881174742
3632.0,0.0031610135716265576
3631.0,0.0032834338906751782
3630.0,0.003382133358133609
3629.0,0.003454076244315791
3628.0,0.003527618036443001
3627.0,0.0036329885916874393
3626.0,0.0037867301823467777
3625.0,0.0039644260042776824
3624.0,0.004134801142562638
3623.0,0.004302256106176107
3622.0,0.004484812666630108
3621.0,0.004659643107387266
3620.0,0.004723438046232037
3619.0,0.004596628709659275
3618.0,0.004302550084280824
3617.0,0.0038467430837722067
3616.0,0.0031983635730424105
3615.0,0.0024522399997090228
3614.0,0.00193695402241747
3613.0,0.001974872287651521
3612.0,0.0025760302123399447
3611.0,0.0034269321204097457
3610.0,0.004100317959160819
3609.0,0.00445562542258186
3608.0,0.0046346642575277805
3607.0,0.004810871567378643
3606.0,0.005008978761073923
3605.0,0.0051797603465480084
3604.0,0.005317400870216014
3603.0,0.005392940908046108
3602.0,0.005434511595409974
3601.0,0.00546497974698773
3600.0,0.005517196565276067
3599.0,0.005574463797863007
3598.0,0.005618419529685921
3597.0,0.005621420701514265
3596.0,0.005591636174602246
3595.0,0.005562146519007435
3594.0,0.00555345085355712
3593.0,0.0055850119632910936
3592.0,0.00563897466578882
3591.0,0.005722081330003691
3590.0,0.005800102971552087
3589.0,0.005874157978717443
3588.0,0.0059219810052073465
3587.0,0.005948881909293714
3586.0,0.005952287578688343
3585.0,0.005945041165596877
3584.0,0.005963333000872677
3583.0,0.00600468084377464
3582.0,0.006083926042405037
3581.0,0.006165977765471073
3580.0,0.00624751584676294
3579.0,0.0063226466322797974
3578.0,0.006411560756758773
3577.0,0.006515535702540668
3576.0,0.0066145020276411545
3575.0,0.006695796343048651
3574.0,0.006754963651023717
3573.0,0.006812744409732036
3572.0,0.006869091164523043
3571.0,0.006928932161506476
3570.0,0.006979976056152073
3569.0,0.0070227406161458275
3568.0,0.007064062750152643
3567.0,0.00712650566450709
3566.0,0.007205516078456347
3565.0,0.00729220030333713
3564.0,0.007387241907001802
3563.0,0.007493882265981433
3562.0,0.00760263002501684
3561.0,0.007700512220271955
3560.0,0.007779713047163954
3559.0,0.007845963718095348
3558.0,0.007907515673310068
3557.0,0.007970543971135124
3556.0,0.008034998657258208
3555.0,0.00810415137220013
3554.0,0.008179240642228285
3553.0,0.008256016974741476
3552.0,0.008321690149764336
3551.0,0.00837406234294692
3550.0,0.008427395694974318
3549.0,0.00849756435111905
3548.0,0.008584340146681076
3547.0,0.008677817221235874
3546.0,0.008771090674637032
3545.0,0.008863353984807065
3544.0,0.008954488914728569
3543.0,0.009043876415535692
3542.0,0.009131722556963545
3541.0,0.009218776573746373
3540.0,0.009305818390030774
3539.0,0.009392149716622274
3538.0,0.009475189189119326
3537.0,0.009551935769746002
3536.0,0.00962028862144162
3535.0,0.009682847840885439
3534.0,0.00974702673181684
3533.0,0.009820107685765458
3532.0,0.009900947078659511
3531.0,0.009982630974881656
3530.0,0.010058191123058507
3529.0,0.01012591013691921
3528.0,0.010188809471722004
3527.0,0.010252837729965223
3526.0,0.010323422414476714
3525.0,0.010402032988389986
3524.0,0.010486457941781142
3523.0,0.01057518380045237
3522.0,0.010669570733826435
3521.0,0.01077129896174206
3520.0,0.010877200627010144
3519.0,0.0109790425859062
3518.0,0.01106956404544063
3517.0,0.01114879293235733
3516.0,0.011221630884799954
3515.0,0.011293314024614545
3514.0,0.01136700426543664
3513.0,0.011445727913647038
3512.0,0.01153135962728232
3511.0,0.011621621979769731
3510.0,0.011708725138333065
3509.0,0.011785505423330792
3508.0,0.011854498362836701
3507.0,0.011927709984305798
3506.0,0.01201421109794747
3505.0,0.01210929683461836
3504.0,0.01219843018081575
3503.0,0.012272230093422877
3502.0,0.012334654321523742
3501.0,0.01239738707788097
3500.0,0.012469540374886928
3499.0,0.012553090766298201
3498.0,0.012644812833531683
3497.0,0.012739284401242428
3496.0,0.012829383510399164
3495.0,0.012909974798997713
3494.0,0.012982121811319972
3493.0,0.013053058635011328
3492.0,0.013132196619330953
3491.0,0.013225582825950856
3490.0,0.013331012531517538
3489.0,0.013437163246500643
3488.0,0.01353079968687524
3487.0,0.013607870711073937
3486.0,0.01367731459221194
3485.0,0.013750606203600578
3484.0,0.01382935634026818
3483.0,0.01390653000824062
3482.0,0.013976986070098518
3481.0,0.014043767102808677
3480.0,0.014113863046388985
3479.0,0.014191256403440027
3478.0,0.014274702094891864
3477.0,0.014360219224499543
3476.0,0.014443965337208322
3475.0,0.01452465446912912
3474.0,0.01460430863179413
3473.0,0.014684866970812824
3472.0,0.014764379788398117
3471.0,0.014838437121880169
3470.0,0.014905644394203232
3469.0,0.01497018323339811
3468.0,0.01503767198532386
3467.0,0.015109484815774763
3466.0,0.015183745711464908
3465.0,0.015259927790791147
3464.0,0.015339260061405098
3463.0,0.015420945689141862
3462.0,0.015500104153313456
3461.0,0.015571404161476576
3460.0,0.015634350064942768
3459.0,0.01569433107964516
3458.0,0.015758399588477207
3457.0,0.015829602636390057
3456.0,0.015905162661852417
3455.0,0.01597969683767167
3454.0,0.016048369360093077
3453.0,0.01610923837511264
3452.0,0.016164268474353777
3451.0,0.01621991193325368
3450.0,0.016281459903801705
3449.0,0.016345168652747526
3448.0,0.016400101448011826
3447.0,0.01644175343545977
3446.0,0.016480489283579185
3445.0,0.01653131072821249
3444.0,0.01659718193159389
3443.0,0.01666706314243193
3442.0,0.016730435094880487
3441.0,0.016788650268973086
3440.0,0.016850130086422596
3439.0,0.016918717784560208
3438.0,0.01698962920908556
3437.0,0.017054646514963752
3436.0,0.01710942702193515
3435.0,0.01715659695468759
3434.0,0.017201726094655326
3433.0,0.017248370357011954
3432.0,0.01729668533545482
3431.0,0.017346619075775768
3430.0,0.01739787398383128
3429.0,0.01744700533930785
3428.0,0.01748930505173271
3427.0,0.017525521908792543
3426.0,0.017563297362809253
3425.0,0.017609288818139907
3424.0,0.01766281012941431
3423.0,0.017718339691247652
3422.0,0.01777102463692215
3421.0,0.017817776347715454
3420.0,0.017857040131200427
3419.0,0.017891572230785156
3418.0,0.017928168725235456
3417.0,0.017971413112400948
3416.0,0.018019377314660655
3415.0,0.018067248029784457
3414.0,0.018112576426270295
3413.0,0.01815507160714662
3412.0,0.018194647011416765
3411.0,0.018232545391319185
3410.0,0.01827229974988748
3409.0,0.01831666144493051
3408.0,0.018364662347390676
3407.0,0.018412800754947466
3406.0,0.018457590698146044
3405.0,0.01849607089459957
3404.0,0.018527279927245493
3403.0,0.01855512664936054
3402.0,0.018586595103613428
3401.0,0.018625048405578777
3400.0,0.018666952263420723
3399.0,0.018707355286429396
3398.0,0.01874538235558238
3397.0,0.018782471868425025
3396.0,0.01881787983949986
3395.0,0.018849078912782678
3394.0,0.01887592671669924
3393.0,0.018901971322081414
3392.0,0.018931554417469267
3391.0,0.01896642816393025
3390.0,0.019004361611901506
3389.0,0.019039656493062464
3388.0,0.019066948387195817
3387.0,0.019086501257227006
3386.0,0.019104775980473377
3385.0,0.019128403570054266
3384.0,0.019158771908781146
3383.0,0.019193304912890948
3382.0,0.019228862438510616
3381.0,0.019262229784599474
3380.0,0.019289347876621895
3379.0,0.019308153657962117
3378.0,0.0193220603913221
3377.0,0.019338642354043006
3376.0,0.019363658775784783
3375.0,0.019396139269175793
3374.0,0.019428954537737585
3373.0,0.019453896608512506
3372.0,0.01946775284665353
3371.0,0.01947460800265985
3370.0,0.019482277673378998
3369.0,0.019495610936625687
3368.0,0.01951366334227187
3367.0,0.01953271927592564
3366.0,0.019550483400833686
3365.0,0.019566946904140948
3364.0,0.01958311905211179
3363.0,0.019600000416155443
3362.0,0.019617687516835486
3361.0,0.01963487542529801
3360.0,0.019650213095100174
3359.0,0.01966399961772586
3358.0,0.01967681537509877
3357.0,0.019686924880079778
3356.0,0.01969191734321385
3355.0,0.0196933668105111
3354.0,0.019696716648824233
3353.0,0.019705096867448816
3352.0,0.019716039150374513
3351.0,0.019725556038057417
3350.0,0.019732741079215407
3349.0,0.019738112188782173
3348.0,0.019740472294014502
3347.0,0.019738604047521317
3346.0,0.01973497323725885
3345.0,0.019734699019326347
3344.0,0.019740284363730806
3343.0,0.01974898648915661
3342.0,0.019755156892531187
3341.0,0.0197552060259282
3340.0,0.019750732932076614
3339.0,0.019746556190196315
3338.0,0.019744745040485782
3337.0,0.019741868531203542
3336.0,0.0197347231865331
3335.0,0.019727528567561017
3334.0,0.019728672068332703
3333.0,0.019739496704451295
3332.0,0.01975087710263882
3331.0,0.019752912158525985
3330.0,0.019744478437153504
3329.0,0.019731464597581728
3328.0,0.019719565561305212
3327.0,0.019711454939920797
3326.0,0.0197074530180131
3325.0,0.019705379362761784
3324.0,0.01970177730316138
3323.0,0.0196966380176454
3322.0,0.019694679612297553
3321.0,0.019699081627681785
3320.0,0.019705971287448377
3319.0,0.01970871866143281
3318.0,0.01970621792440469
3317.0,0.019703532475928143
3316.0,0.01970495036328271
3315.0,0.019709633089729593
3314.0,0.019713517838713886
3313.0,0.01971307854561732
3312.0,0.019707560362578716
3311.0,0.019699640814661266
3310.0,0.01969357742343968
3309.0,0.019691075468486238
3308.0,0.019689613826763167
3307.0,0.019686333062034406
3306.0,0.019682209620960216
3305.0,0.019680244454589005
3304.0,0.01968107171142038
3303.0,0.019683014521575545
3302.0,0.01968550795276136
3301.0,0.019689332312984333
3300.0,0.019693260396798234
3299.0,0.019693422559737283
3298.0,0.01968702667951528
3297.0,0.01967584228569445
3296.0,0.019664941356769477
3295.0,0.01965848276868214
3294.0,0.019656425596055564
3293.0,0.019655007849941085
3292.0,0.019650682354535966
3291.0,0.01964335065486381
3290.0,0.019634625533741325
3289.0,0.019623736688383246
3288.0,0.01960809899628965
3287.0,0.019588642035231637
3286.0,0.019571185412270285
3285.0,0.019559964656576806
3284.0,0.01955189428735618
3283.0,0.019539858800039535
3282.0,0.019520307596486656
3281.0,0.019494723882918195
3280.0,0.01946547270486252
3279.0,0.019434074502271668
3278.0,0.01940346882741339
3277.0,0.019377600488143167
3276.0,0.019356399859685222
3275.0,0.019333952002638956
3274.0,0.0193046478830027
3273.0,0.01927033721017207
3272.0,0.01923882758944235
3271.0,0.019215218626346297
3270.0,0.019196383207377418
3269.0,0.019174443929831583
3268.0,0.019143807465190246
3267.0,0.01910358962845575
3266.0,0.019054920669676432
3265.0,0.018999295231590805
3264.0,0.01894030122747164
3263.0,0.018884171691606572
3262.0,0.01883634572063129
3261.0,0.018797424442917335
3260.0,0.018763557280682977
3259.0,0.018729346303600833
3258.0,0.01868997156600151
3257.0,0.01864242135642242
3256.0,0.01858754759153736
3255.0,0.018530952447380664
3254.0,0.018479378430462705
3253.0,0.018435130720269026
3252.0,0.018394668562556175
3251.0,0.018353330323006678
3250.0,0.018310164910627216
3249.0,0.018268111813004483
3248.0,0.018229946425713465
3247.0,0.01819427284532552
3246.0,0.018155572374551805
3245.0,0.018108741924507888
3244.0,0.018053811255015
3243.0,0.017995738697558137
3242.0,0.017939700262810374
3241.0,0.017887777381948647
3240.0,0.017840049441343
3239.0,0.017796251707246098
3238.0,0.017755131229925766
3237.0,0.01771377569027138
3236.0,0.017669861795733835
3235.0,0.017623780169662005
3234.0,0.017577225378063492
3233.0,0.01753103899120855
3232.0,0.017485937726162793
3231.0,0.01744404194312059
3230.0,0.017406237255661365
3229.0,0.017368514124617505
3228.0,0.017324394457699212
3227.0,0.01727213787025562
3226.0,0.01721743212234639
3225.0,0.017167401290462708
3224.0,0.017122904806336325
3223.0,0.017077905828521846
3222.0,0.017025906286790432
3221.0,0.016966534035184326
3220.0,0.016906204942059314
3219.0,0.016852042329450787
3218.0,0.016805365165077427
3217.0,0.016761375159788112
3216.0,0.016715355181073123
3215.0,0.01666768195245815
3214.0,0.01662173200245811
3213.0,0.01657807146204864
3212.0,0.01653342557336335
3211.0,0.016485536874122943
3210.0,0.01643612446499992
3209.0,0.01638745165215549
3208.0,0.01633816085128717
3207.0,0.016284845179236115
3206.0,0.016227135606038407
3205.0,0.016168725675652255
3204.0,0.016112988412178814
3203.0,0.016058917399982213
3202.0,0.016002415023083753
3201.0,0.015940323019511513
3200.0,0.015872812514433492
3199.0,0.015802890763308004
3198.0,0.0157355205122584
3197.0,0.015675963213246633
3196.0,0.015625974226784606
3195.0,0.01557997426902493
3194.0,0.015527212198717721
3193.0,0.01546071056884556
3192.0,0.015384090601113731
3191.0,0.015307960143118159
3190.0,0.015239463169020811
3189.0,0.015177424460819131
3188.0,0.015117096688169821
3187.0,0.015055814855477407
3186.0,0.014992773830290922
3185.0,0.014926529210178065
3184.0,0.014856908178449764
3183.0,0.01478767729988517
3182.0,0.014723818019635494
3181.0,0.014665267936998542
3180.0,0.01460610890726252
3179.0,0.01454128520199906
3178.0,0.014472549720268783
3177.0,0.014406384396935144
3176.0,0.014346850987218919
3175.0,0.014291487110770452
3174.0,0.014233815835024689
3173.0,0.01416914432417435
3172.0,0.01409825178452626
3171.0,0.014026195858634159
3170.0,0.013957478953726525
3169.0,0.013892347632075159
3168.0,0.013827758706838906
3167.0,0.013761591991665299
3166.0,0.013695289663523073
3165.0,0.013631863601298677
3164.0,0.013572032788263707
3163.0,0.013512621854474874
3162.0,0.013449054014937333
3161.0,0.013379326154766237
3160.0,0.013305839501492844
3159.0,0.013233443626526502
3158.0,0.013165296951271053
3157.0,0.01310038486677702
3156.0,0.013035376778882647
3155.0,0.012968987978994132
3154.0,0.012904030024761402
3153.0,0.012844880479250448
3152.0,0.012793101683584275
3151.0,0.012745345727342554
3150.0,0.01269501652131988
3149.0,0.012636273865072553
3148.0,0.012567693758034564
3147.0,0.012493208336248566
3146.0,0.01241940800749345
3145.0,0.012351136812443094
3144.0,0.012289098249641714
3143.0,0.01223105942415863
3142.0,0.012174576462878253
3141.0,0.012118472465996472
3140.0,0.012062173716372622
3139.0,0.012004948101520202
3138.0,0.011946284279008172
3137.0,0.011886807859874166
3136.0,0.011827753646257317
3135.0,0.01176955443611501
3134.0,0.011711824050577547
3133.0,0.011655041738295091
3132.0,0.011601142761483534
3131.0,0.011551877261233674
3130.0,0.011506869401869738
3129.0,0.011463729219770596
3128.0,0.01141994728927603
3127.0,0.01137482476261383
3126.0,0.01132949342857726
3125.0,0.011284663061042276
3124.0,0.011238668283172954
3123.0,0.011188846916267377
3122.0,0.01113542682821046
3121.0,0.011082916396010637
3120.0,0.011036295186388448
3119.0,0.010996023926736024
3118.0,0.010957983224582754
3117.0,0.010918577856381192
3116.0,0.010878287718633804
3115.0,0.010839470954348798
3114.0,0.010802033628021445
3113.0,0.010762994197465105
3112.0,0.010720300158345679
3111.0,0.010676284661872053
3110.0,0.010636645698083503
3109.0,0.010605688468764772
3108.0,0.010581986332718377
3107.0,0.010559410301408435
3106.0,0.010532307576879183
3105.0,0.010499397200135917
3104.0,0.010463414938177342
3103.0,0.010428020331379314
3102.0,0.010395715502516058
3101.0,0.01036732488820328
3100.0,0.010342167002680907
3099.0,0.010317893823764877
3098.0,0.010291511031391292
3097.0,0.01026152790592255
3096.0,0.01022939342517084
3095.0,0.010198352669138528
3094.0,0.01017087850857053
3093.0,0.010147787830617068
3092.0,0.010128730441751364
3091.0,0.01011224495449052
3090.0,0.010095732209606408
3089.0,0.010076913305511033
3088.0,0.010055656838110496
3087.0,0.01003381048857006
3086.0,0.010012514354220582
3085.0,0.009990537549653768
3084.0,0.009965736946572384
3083.0,0.009937188374045334
3082.0,0.009905636308962304
3081.0,0.009872235876007749
3080.0,0.009838084604027438
3079.0,0.009804799179362663
3078.0,0.009774591086941075
3077.0,0.009748789189583927
3076.0,0.009725838855775956
3075.0,0.009701555832734566
3074.0,0.009672475148698382
3073.0,0.009639407147072074
3072.0,0.009606578854935901
3071.0,0.009576996471722174
3070.0,0.009549027584925152
3069.0,0.009518566392206539
3068.0,0.009484109441499577
3067.0,0.009448254316130804
3066.0,0.009414502217335119
3065.0,0.009383455985237264
3064.0,0.009352739126057674
3063.0,0.009319676359818736
3062.0,0.009284050690879411
3061.0,0.009248863026766235
3060.0,0.009218086585204283
3059.0,0.009192051421845874
3058.0,0.00916540184298847
3057.0,0.009131929458149137
3056.0,0.009091310132207753
3055.0,0.009049919782884809
3054.0,0.00901398556510329
3053.0,0.00898421183048457
3052.0,0.008957075599315823
3051.0,0.00892875658750443
3050.0,0.008896944138103607
3049.0,0.00886125311367965
3048.0,0.008824566359770388
3047.0,0.008792356856018346
3046.0,0.008768117212390413
3045.0,0.00874936998156665
3044.0,0.008729574564308796
3043.0,0.008704197460819487
3042.0,0.008674355513943507
3041.0,0.008644882481174702
3040.0,0.008619882886760499
3039.0,0.00859978144715469
3038.0,0.00858189648217357
3037.0,0.008562925042528986
3036.0,0.008540821484839598
3035.0,0.00851519549164393
3034.0,0.008487196331548265
3033.0,0.008459693943187465
3032.0,0.008435818243348539
3031.0,0.00841611415203995
3030.0,0.008397597716047117
3029.0,0.008377690941145158
3028.0,0.008357786679758977
3027.0,0.008341612545660999
3026.0,0.008330831635675906
3025.0,0.00832334649195511
3024.0,0.008315887799019867
3023.0,0.008305966621718845
3022.0,0.008291871724076598
3021.0,0.008273234210818926
3020.0,0.008253011768021125
3019.0,0.00823694398603459
3018.0,0.008229512606915521
3017.0,0.008230372378426542
3016.0,0.008235733999017662
3015.0,0.008242321153313014
3014.0,0.008249799450856653
3013.0,0.008260294134011782
3012.0,0.00827566203406015
3011.0,0.008294276082671147
3010.0,0.008310474550424924
3009.0,0.0083187092954208
3008.0,0.008319071971905699
3007.0,0.00831732432125332
3006.0,0.008319384728909442
3005.0,0.008326738546263939
3004.0,0.00833740133516715
3003.0,0.008349396963929721
3002.0,0.008361513972445148
3001.0,0.00837240437776344
3000.0,0.00838143555114687
2999.0,0.008390535021335334
2998.0,0.008404108382771572
2997.0,0.008426200349262124
2996.0,0.008457891562976548
2995.0,0.008496707448551076
2994.0,0.008538603691736233
2993.0,0.00858167583677927
2992.0,0.008628928799428032
2991.0,0.008686872883970513
2990.0,0.00876072900064278
2989.0,0.008850350241786036
2988.0,0.00895088268148404
2987.0,0.009056740889952826
2986.0,0.009165594279472193
2985.0,0.009279639402942042
2984.0,0.00940385580938325
2983.0,0.009543123374972928
2982.0,0.00970038453624859
2981.0,0.009876970010767603
2980.0,0.010073428872397747
2979.0,0.010289484965527942
2978.0,0.010524308026223119
2977.0,0.010778775292126199
2976.0,0.011057404037798263
2975.0,0.011366541800756256
2974.0,0.011709704373954782
2973.0,0.012086314481313708
2972.0,0.012495174130008823
2971.0,0.01293833372579386
2970.0,0.013419535963838637
2969.0,0.013939333660458195
2968.0,0.014492520423264975
2967.0,0.01507045060654939
2966.0,0.015664158257117585
2965.0,0.01626410543767768
2964.0,0.016858405783477085
2963.0,0.01743374061305244
2962.0,0.01797863154082137
2961.0,0.018485877871753178
2960.0,0.01895171517821835
2959.0,0.019373956383589887
2958.0,0.01975061226799728
2957.0,0.020078762372825878
2956.0,0.02035455526198488
2955.0,0.020576875489509944
2954.0,0.02075427076456405
2953.0,0.020908617907746237
2952.0,0.021072440168345447
2951.0,0.02128204341389214
2950.0,0.021572928025336138
2949.0,0.02197924488383626
2948.0,0.022533093789622313
2947.0,0.023262127665901078
2946.0,0.024186946586207146
2945.0,0.025320693891479486
2944.0,0.026670883190523086
2943.0,0.02823998243681473
2942.0,0.030026099489027024
2941.0,0.03202449479591913
2940.0,0.03422930601413112
2939.0,0.03663549673998854
2938.0,0.03924189731140563
2937.0,0.04205310608159242
2936.0,0.04507896504581581
2935.0,0.04833138058938998
2934.0,0.0518203956407225
2933.0,0.05555243037336479
2932.0,0.05953504618752814
2931.0,0.06378572350661602
2930.0,0.06833583994052597
2929.0,0.07322226410493135
2928.0,0.07847991112451208
2927.0,0.08414755525236574
2926.0,0.09027552029480315
2925.0,0.0969152257407762
2924.0,0.10409815753354063
2923.0,0.11182495982186859
2922.0,0.12006163698739866
2921.0,0.12870508663666588
2920.0,0.137504962200159
2919.0,0.1459730225136904
2918.0,0.15333028960559547
2917.0,0.15857562720458737
2916.0,0.1607516651578833
2915.0,0.15936068156874644
2914.0,0.15463292735398196
2913.0,0.1474431950270999
2912.0,0.13892460114015961
2911.0,0.13009152895325127
2910.0,0.12165781055438135
2909.0,0.11400025880352083
2908.0,0.10724845341570208
2907.0,0.10138847527335736
2906.0,0.09634417248851805
2905.0,0.09200574560645476
2904.0,0.08824969892501786
2903.0,0.08496043019326555
2902.0,0.08204306227167636
2901.0,0.07941888715007389
2900.0,0.07701435800953871
2899.0,0.07476629294371678
2898.0,0.07262735482876652
2897.0,0.07056153708443919
2896.0,0.06853649353908864
2895.0,0.06652425886739277
2894.0,0.06450742384286391
2893.0,0.062478273899994274
2892.0,0.0604339022272416
2891.0,0.058374657647420246
2890.0,0.056304266648902715
2889.0,0.05423006820118746
2888.0,0.05216379453369723
2887.0,0.050122325672588015
2886.0,0.048124409765335774
2885.0,0.046184328949476515
2884.0,0.04431115847533366
2883.0,0.042513657726143975
2882.0,0.04080139468400864
2881.0,0.03918234463709816
2880.0,0.03766380026121216
2879.0,0.036258752278165725
2878.0,0.03498749115360312
2877.0,0.03387079452225183
2876.0,0.032922017352989136
2875.0,0.032143671602437536
2874.0,0.031526679386654086
2873.0,0.031049797833449924
2872.0,0.03068646095842055
2871.0,0.030417681184074095
2870.0,0.030246358919235418
2869.0,0.030202778216794263
2868.0,0.03034012126702088
2867.0,0.030723547959305722
2866.0,0.03141895717278004
2865.0,0.03248491016236821
2864.0,0.03397174664610962
2863.0,0.035925348307772206
2862.0,0.038391672258153535
2861.0,0.041422054242297446
2860.0,0.045078867982166926
2859.0,0.049442034419728394
2858.0,0.05461175742692368
2857.0,0.06070810501103037
2856.0,0.06786504061764868
2855.0,0.0762208170579437
2854.0,0.08587338968072519
2853.0,0.09678239010024335
2852.0,0.10854479574884289
2851.0,0.1201519101731926
2850.0,0.12987433988949065
2849.0,0.13566594167681809
2848.0,0.13604348607515684
2847.0,0.13094427811611306
2846.0,0.12170121174072712
2845.0,0.11028985679104149
2844.0,0.09843592123580619
2843.0,0.08725609917038793
2842.0,0.0772886010879705
2841.0,0.06870003747524979
2840.0,0.06143614452546644
2839.0,0.055349260591398976
2838.0,0.050250266789384074
2837.0,0.045962042145386475
2836.0,0.04232841099186176
2835.0,0.03922615637683329
2834.0,0.0365614930889945
2833.0,0.034261631205011474
2832.0,0.03226390522965484
2831.0,0.03051127776440692
2830.0,0.028956663900967763
2829.0,0.02756580210809176
2828.0,0.02631428609104342
2827.0,0.025182693122781787
2826.0,0.024154481963220755
2825.0,0.023216479015700286
2824.0,0.0223590661407907
2823.0,0.021573607288042692
2822.0,0.020850037998054002
2821.0,0.02017643778156834
2820.0,0.019543082642699036
2819.0,0.0189461883998956
2818.0,0.0183870621707544
2817.0,0.017866234155085443
2816.0,0.017379659497832045
2815.0,0.01692051654719063
2814.0,0.016483180612278818
2813.0,0.016064499589351806
2812.0,0.015663569328122275
2811.0,0.015281807990628393
2810.0,0.014922390708810825
2809.0,0.014586361416163863
2808.0,0.014269371596489236
2807.0,0.013963812235451406
2806.0,0.013664512863757396
2805.0,0.013371425812683396
2804.0,0.013087219663874963
2803.0,0.012813569879964258
2802.0,0.012550378393427099
2801.0,0.012296878382509872
2800.0,0.012052469047031611
2799.0,0.011816873753142566
2798.0,0.011589841920996958
2797.0,0.011370585027058275
2796.0,0.011157529370068281
2795.0,0.010949084633897772
2794.0,0.010744408004724293
2793.0,0.010543140990932252
2792.0,0.010344873748605451
2791.0,0.010149781808885453
2790.0,0.009959387133886487
2789.0,0.00977544208099696
2788.0,0.009597949852569364
2787.0,0.009425314551240448
2786.0,0.009256627432212467
2785.0,0.009092935234576714
2784.0,0.00893575289132397
2783.0,0.008785032178312365
2782.0,0.008639185534219922
2781.0,0.008496609461349044
2780.0,0.008356827668078768
2779.0,0.008220550141352163
2778.0,0.008089172047971719
2777.0,0.007963756244843918
2776.0,0.007844161471508085
2775.0,0.007729185164803082
2774.0,0.007617607529607983
2773.0,0.007508877990657695
2772.0,0.007403005684150529
2771.0,0.007300578911285379
2770.0,0.007203017437888867
2769.0,0.007111885581888471
2768.0,0.007027103520553417
2767.0,0.00694621547614316
2766.0,0.006866103388800324
2765.0,0.006785173017910193
2764.0,0.00670380061456985
2763.0,0.0066234642679756294
2762.0,0.006546137079106548
2761.0,0.006473912021865328
2760.0,0.006407780159516094
2759.0,0.006346527145093538
2758.0,0.0062877161209664535
2757.0,0.0062300903279488866
2756.0,0.00617420409313828
2755.0,0.006120525906459588
2754.0,0.006067925069415244
2753.0,0.006014887881531183
2752.0,0.005961806656759328
2751.0,0.00591117722667421
2750.0,0.005865595211522717
2749.0,0.005825978144531666
2748.0,0.005791394576117365
2747.0,0.005759667464486407
2746.0,0.0057281723147492095
2745.0,0.005695019360891578
2744.0,0.005660286546006291
2743.0,0.005625770702493836
2742.0,0.005592873815623312
2741.0,0.005560913336306829
2740.0,0.005527924638928847
2739.0,0.005492911224017743
2738.0,0.005456657980680876
2737.0,0.005420427886279385
2736.0,0.005384723698197048
2735.0,0.005349571906099089
2734.0,0.005315278717505282
2733.0,0.005282077672858299
2732.0,0.005249015014134985
2731.0,0.00521372758915816
2730.0,0.005173612630172907
2729.0,0.0051275691065607275
2728.0,0.005076896372233995
2727.0,0.005024854323955037
2726.0,0.004975018701260572
2725.0,0.004929409782979696
2724.0,0.004887673474525272
2723.0,0.004847850088131193
2722.0,0.004807835793884092
2721.0,0.004766402924889591
2720.0,0.0047235910237390785
2719.0,0.004680715891813809
2718.0,0.00463973743366182
2717.0,0.004601847934293786
2716.0,0.004566284753666647
2715.0,0.004530749250447623
2714.0,0.004493452547764434
2713.0,0.004454861778566102
2712.0,0.004417270474731262
2711.0,0.0043825543047812604
2710.0,0.004350401018575252
2709.0,0.004318911065298212
2708.0,0.004286735912441558
2707.0,0.0042543282296339455
2706.0,0.0042230432579864596
2705.0,0.004193358115008107
2704.0,0.0041642968928481735
2703.0,0.004134532776786077
2702.0,0.004103992339601595
2701.0,0.0040744353237064535
2700.0,0.004048316034674588
2699.0,0.004026678623339869
2698.0,0.004008228570915956
2697.0,0.003990916120792872
2696.0,0.003974230256908546
2695.0,0.003959186232312568
2694.0,0.003946144638946692
2693.0,0.003934244815525887
2692.0,0.003923517362193937
2691.0,0.003915897205052979
2690.0,0.00391242971311783
2689.0,0.003910636740565155
2688.0,0.003906691420532556
2687.0,0.003899832534640122
2686.0,0.0038925506044514835
2685.0,0.0038865952428170612
2684.0,0.003881015017026107
2683.0,0.003874579171454411
2682.0,0.0038677580190443674
2681.0,0.003861326415455421
2680.0,0.003854871954057819
2679.0,0.003848196539227385
2678.0,0.0038426510791439994
2677.0,0.003839530685033209
2676.0,0.003838160444060287
2675.0,0.003837102770530354
2674.0,0.0038363880510321954
2673.0,0.0038370437880904298
2672.0,0.003838902718955272
2671.0,0.0038402243890602117
2670.0,0.003839199316181265
2669.0,0.003834887796340126
2668.0,0.003827297224724137
2667.0,0.0038177365012018556
2666.0,0.0038086925052034076
2665.0,0.0038022649608545674
2664.0,0.003798704492660296
2663.0,0.0037969090309740664
2662.0,0.003795313620823698
2661.0,0.0037916349159312903
2660.0,0.0037832381106545823
2659.0,0.0037696831076890055
2658.0,0.0037542685518952602
2657.0,0.003741040458470398
2656.0,0.003730380544978106
2655.0,0.003719365707859543
2654.0,0.0037061069419413928
2653.0,0.003691626664106014
2652.0,0.003677169897416726
2651.0,0.003662298801335481
2650.0,0.003646777878631077
2649.0,0.003632226455032567
2648.0,0.0036198637084098586
2647.0,0.0036080591841676796
2646.0,0.003594550817302135
2645.0,0.003580903058644754
2644.0,0.003572244266639002
2643.0,0.0035714030857319553
2642.0,0.0035747546729392515
2641.0,0.003575440845131026
2640.0,0.0035702365455587614
2639.0,0.0035615773628955676
2638.0,0.003552735118999663
2637.0,0.003542918802321813
2636.0,0.003528687433731515
2635.0,0.0035089437675543773
2634.0,0.0034863674920047865
2633.0,0.0034638733444395413
2632.0,0.003441711877006961
2631.0,0.003418585116997208
2630.0,0.003393792643154931
2629.0,0.003367121397984555
2628.0,0.0033379547791516145
2627.0,0.0033059512939864633
2626.0,0.003271870765992878
2625.0,0.003236756378537514
2624.0,0.003200894339309544
2623.0,0.003164400471371796
2622.0,0.003128169533869684
2621.0,0.0030935906274401096
2620.0,0.003061945973019554
2619.0,0.003034178699657127
2618.0,0.003009730107916106
2617.0,0.0029850505852276775
2616.0,0.002955572877027613
2615.0,0.0029209189513599155
2614.0,0.00288668994731172
2613.0,0.002858895955079892
2612.0,0.0028373026583872227
2611.0,0.002816065196401387
2610.0,0.0027902642809451155
2609.0,0.0027601733346366273
2608.0,0.002729839969243926
2607.0,0.002703160914250336
2606.0,0.0026813116398928
2605.0,0.00266225697535541
2604.0,0.0026424922967115253
2603.0,0.0026201869747815654
2602.0,0.002596544694714916
2601.0,0.0025736580713248847
2600.0,0.0025516863430729954
2599.0,0.00252893033382552
2598.0,0.0025042254621472984
2597.0,0.002478610317081193
2596.0,0.002455064207766006
2595.0,0.002436304307288395
2594.0,0.0024214360558885094
2593.0,0.0024048269833742636
2592.0,0.0023804155808066184
2591.0,0.0023482468825769135
2590.0,0.0023148762237616104
2589.0,0.0022865664610605594
2588.0,0.002264128324958141
2587.0,0.0022448646448413848
2586.0,0.0022262759480718907
2585.0,0.0022062941623811412
2584.0,0.0021832851157983493
2583.0,0.002158921885360012
2582.0,0.0021384602388993088
2581.0,0.002124485434863828
2580.0,0.002112127232919154
2579.0,0.002094038653916675
2578.0,0.0020690634898218063
2577.0,0.002043015738596683
2576.0,0.0020216022900789317
2575.0,0.002005446941609784
2574.0,0.001991432578580688
2573.0,0.001975808644261071
2572.0,0.0019562160345006066
2571.0,0.0019334939377614246
2570.0,0.0019117478417796934
2569.0,0.0018947716748648584
2568.0,0.001882388917663192
2567.0,0.0018715632673563997
2566.0,0.0018603020721253472
2565.0,0.0018486439376554104
2564.0,0.0018366750159836682
2563.0,0.001823840983198868
2562.0,0.001809966078817721
2561.0,0.0017952172469004129
2560.0,0.0017794966933437685
2559.0,0.0017633971609624971
2558.0,0.0017491790448136701
2557.0,0.0017391121557661744
2556.0,0.0017329906393130593
2555.0,0.0017282870508464644
2554.0,0.0017222842942810992
2553.0,0.0017133277488021585
2552.0,0.0017009890446750033
2551.0,0.0016860767512144347
2550.0,0.001669897057288852
2549.0,0.0016531055142566349
2548.0,0.001636164702082707
2547.0,0.0016204275256888317
2546.0,0.0016065493031175975
2545.0,0.001592049974046085
2544.0,0.0015736910722735933
2543.0,0.0015529948552074212
2542.0,0.0015359795247391742
2541.0,0.0015258735687926238
2540.0,0.001519282831930595
2539.0,0.0015112731512279326
2538.0,0.0015008182608417875
2537.0,0.0014893166663141194
2536.0,0.0014775867291052917
2535.0,0.0014672950447573588
2534.0,0.0014621031141483385
2533.0,0.0014635710389424676
2532.0,0.0014676862173518463
2531.0,0.0014685344037060739
2530.0,0.0014641262957802094
2529.0,0.0014565992460891086
2528.0,0.00144849266645691
2527.0,0.0014406268653375381
2526.0,0.0014316601142921395
2525.0,0.001418238221457463
2524.0,0.00139822194534313
2523.0,0.001375419504971108
2522.0,0.0013579297056312638
2521.0,0.0013494675578950288
2520.0,0.0013449545409342533
2519.0,0.0013367900444220173
2518.0,0.001322603343440222
2517.0,0.001304861842702466
2516.0,0.0012862951190852068
2515.0,0.0012685551091681634
2514.0,0.001252496613938408
2513.0,0.001237186447088767
2512.0,0.0012212878764477648
2511.0,0.0012070924460854966
2510.0,0.0011993574468980844
2509.0,0.0011977525056680784
2508.0,0.001194584444854068
2507.0,0.0011833626921399771
2506.0,0.0011661954680800175
2505.0,0.0011496093105203805
2504.0,0.0011367045196943476
2503.0,0.0011266449449620966
2502.0,0.0011179178334515558
2501.0,0.0011083079835548812
2500.0,0.0010953369550706082
2499.0,0.0010808972566733156
2498.0,0.0010711554962463611
2497.0,0.0010696223027516353
2496.0,0.001070994455229069
2495.0,0.0010673664018107964
2494.0,0.0010570694565225107
2493.0,0.0010441029756402347
2492.0,0.0010322701147575254
2491.0,0.001023783722687608
2490.0,0.0010201733344614666
2489.0,0.00101998954213271
2488.0,0.0010181526692674345
2487.0,0.0010114262514553806
2486.0,0.0010020211381067288
2485.0,0.0009928690386396897
2484.0,0.0009831251425422385
2483.0,0.0009719164015929234
2482.0,0.0009623464606986337
2481.0,0.0009571859793328899
2480.0,0.0009540483675934187
2479.0,0.0009494117759567371
2478.0,0.0009441247388920224
2477.0,0.0009402306885222689
2476.0,0.0009354742328318137
2475.0,0.0009259017593438903
2474.0,0.0009114553372978921
2473.0,0.0008948210394777031
2472.0,0.0008775694720103552
2471.0,0.0008613957564977983
2470.0,0.0008496328944312737
2469.0,0.0008428288762794961
2468.0,0.0008359748861594279
2467.0,0.0008248081881966878
2466.0,0.000811873758926809
2465.0,0.0008019558333074331
2464.0,0.0007949793780582721
2463.0,0.0007883320429902924
2462.0,0.0007827735496763509
2461.0,0.0007805396189379001
2460.0,0.0007803979882546575
2459.0,0.0007799555763870316
2458.0,0.0007802950639630532
2457.0,0.0007830020633311787
2456.0,0.0007849465499935428
2455.0,0.0007813677077976506
2454.0,0.0007724497394088513
2453.0,0.0007622564201689149
2452.0,0.0007530853377210587
2451.0,0.000745113906131461
2450.0,0.0007391176684455603
2449.0,0.0007348898077021767
2448.0,0.00072931552432491
2447.0,0.0007204685275301066
2446.0,0.0007111946404180403
2445.0,0.0007046243567016713
2444.0,0.0006994408957481798
2443.0,0.0006942099996512269
2442.0,0.0006926232620785625
2441.0,0.0006983230850576795
2440.0,0.0007068978589386953
2439.0,0.0007091374425402038
2438.0,0.0007012901045018751
2437.0,0.0006875706490735165
2436.0,0.0006740455934415915
2435.0,0.0006643712177315814
2434.0,0.0006598797844377515
2433.0,0.0006592384229242619
2432.0,0.00065860279817549
2431.0,0.0006551488112727603
2430.0,0.0006494940604714766
2429.0,0.0006432304825390886
2428.0,0.0006370594552988333
2427.0,0.0006330000251767041
2426.0,0.0006340018599306481
2425.0,0.0006386150164109593
2424.0,0.0006408483018708179
2423.0,0.0006389142952645077
2422.0,0.0006391294314463667
2421.0,0.0006466986606247424
2420.0,0.0006572899772269393
2419.0,0.0006626809944681351
2418.0,0.0006606358080019051
2417.0,0.0006543127982513699
2416.0,0.0006457463254943849
2415.0,0.0006350846787878733
2414.0,0.0006237063639662587
2413.0,0.0006138208386474715
2412.0,0.0006067568113581584
2411.0,0.0006036428269628781
2410.0,0.0006041837127297601
2409.0,0.0006029518137333162
2408.0,0.000592250009425067
2407.0,0.0005718365798427238
2406.0,0.0005506416044163043
2405.0,0.000536005143748762
2404.0,0.0005271550454944353
2403.0,0.0005217825478610538
2402.0,0.0005214284869718394
2401.0,0.00052557213487887
2400.0,0.0005280167046588901
2399.0,0.0005238935771003468
2398.0,0.0005158302464922048
2397.0,0.0005080424304728618
2396.0,0.0004976202511760655
2395.0,0.000484590110605157
2394.0,0.00047257519275535663
2393.0,0.00045718504317381276
2392.0,0.0004273030154680723
2391.0,0.000372025444810605
2390.0,0.00029253554464613203
2389.0,0.00019873388111620646
2388.0,0.000103704896546775
2387.0,2.9191684599924085e-05
2386.0,1.1171788296460367e-05
2385.0,8.45996791557892e-05
2384.0,0.00025916258102565474
2383.0,0.0004940194467286608
2382.0,-0.0091577536502942
2381.0,-0.011558464803016586
2380.0,-0.014129178517742634
2379.0,-0.016868898406892843
2378.0,-0.019801551837182872
2377.0,-0.02295889728807118
2376.0,-0.02637222997286554
2375.0,-0.03005808190680105
2374.0,-0.03399570784306268
2373.0,-0.03812549292175809
2372.0,-0.0280334123712997
2371.0,-0.026805081409386894
2370.0,-0.023844964726088675
2369.0,-0.019548487161855924
2368.0,-0.014744928460361408
2367.0,-0.010226743078883885
2366.0,-0.00599183077833579
2365.0,-0.0021392159940609575
2364.0,0.00045267976214594433
2363.0,0.0019097148921965548
2362.0,0.00242611053967366
2361.0,0.001818431314034088
2360.0,0.0002629365261121342
2359.0,-0.0030079096733565277
2358.0,-0.007222312847793885
2357.0,-0.011348818328446822
2356.0,-0.015089794811676306
2355.0,-0.017169197602467788
2354.0,-0.0562696305512164
2353.0,-0.051080853581505305
2352.0,-0.04571008432908782
2351.0,-0.040919497190801596
2350.0,-0.03764293905255658
2349.0,-0.03648514085754681
2348.0,-0.037661135880337836
2347.0,-0.04097153667281672
2346.0,-0.04555843216173876
2345.0,-0.049966596322847105
2344.0,-0.01615829666704387
2343.0,-0.017483487889360723
2342.0,-0.016273995739020476
2341.0,-0.01364334185057189
2340.0,-0.011088849830702458
2339.0,-0.008831876299455957
2338.0,-0.0068613226469578905
2337.0,-0.005519850497279286
2336.0,-0.00486926153952298
2335.0,-0.0046667998598524055
2334.0,-0.049422677839832355
2333.0,-0.04892956284891182
2332.0,-0.04842495909650274
2331.0,-0.04779135174183546
2330.0,-0.04693109247905853
2329.0,-0.04579719157497041
2328.0,-0.0444399175394599
2327.0,-0.04296404420938324
2326.0,-0.04144589346108274
2325.0,-0.039919158008929485
2324.0,-0.03839153483646471
2323.0,-0.036818549179406294
2322.0,-0.035096557972318115
2321.0,-0.03315803109257347
2320.0,-0.031061954369297238
2319.0,-0.02895320593745
2318.0,-0.026966675703005573
2317.0,-0.025201195522345236
2316.0,-0.023736214778245116
2315.0,-0.02260830917923481
2314.0,-0.021760474553067278
2313.0,-0.021043004020352085
2312.0,-0.020288950518039053
2311.0,-0.019386951803823438
2310.0,0.002076699852367676
2309.0,0.0028066115380201654
2308.0,0.0035501774527016295
2307.0,0.0038078896356594765
2306.0,0.004016297506664206
2305.0,0.003962717791666464
2304.0,0.004002675637337927
2303.0,0.003912575477930334
2302.0,0.003930591553793848
2301.0,0.0037353505707971744
2300.0,0.003607227697467996
2299.0,0.0032914425482367888
2298.0,0.003118650132589184
2297.0,0.0028126350511781953
2296.0,0.0026536434416441217
2295.0,0.0023889264014489366
2294.0,0.0022240478879370423
2293.0,0.0020109287595549015
2292.0,0.0018679280516439379
2291.0,0.0017131932177467018
2290.0,0.0015861491785431354
2289.0,0.001472893612732013
2288.0,0.0013433656540996707
2287.0,0.0011786338669490673
2286.0,0.0009353691303348394
2285.0,0.0007034872604179756
2284.0,0.000549583557825514
2283.0,0.0005844897397996778
2282.0,0.0007239607737724505
2281.0,0.0008829739965136871
2280.0,0.0009474030833313996
2279.0,0.0009506879871330122
2278.0,0.0009163240510244696
2277.0,0.0008772910637331664
2276.0,0.0008479026111478673
2275.0,0.0008044293036246833
2274.0,0.0007775235356914853
2273.0,0.0007519429222408135
2272.0,0.0007429339227333065
2271.0,0.0007267833633224463
2270.0,0.0007110777113670769
2269.0,0.0007035934287234081
2268.0,0.0007011267204318607
2267.0,0.0006851375843526758
2266.0,0.0006696906314899991
2265.0,0.0006512869028725426
2264.0,0.0006523316244680074
2263.0,0.0006482667817336303
2262.0,0.0006329974581607302
2261.0,0.000626192670952075
2260.0,0.0006068354213391359
2259.0,0.0005955018505455554
2258.0,0.0005691083751755538
2257.0,0.0005569369694338102
2256.0,0.0005494903734849723
2255.0,0.0005432550683685028
2254.0,0.0005394519094206157
2253.0,0.0005291310578224612
2252.0,0.000525922617808039
2251.0,0.0005094409977460575
2250.0,0.0005046923388652702
2249.0,0.0005087848666857013
2248.0,0.0005243623648630996
2247.0,0.000521142064365969
2246.0,0.0004999949199051689
2245.0,0.00047167114110085377
2244.0,0.00045121117884184083
2243.0,0.00043771506481571246
2242.0,0.0004329693396136396
2241.0,0.0004402381871937834
2240.0,0.00044818786968482964
2239.0,0.0004414517223599915
2238.0,0.00041847330690596455
2237.0,0.0003980244760879211
2236.0,0.000386757999176333
2235.0,0.0003802408646971084
2234.0,0.0003757794614729804
2233.0,0.00038160916543859293
2232.0,0.00039428257673288706
2231.0,0.00040106699223451357
2230.0,0.0003971097820647301
2229.0,0.0003879899267182599
2228.0,0.00037388008277649816
2227.0,0.0003512738115417683
2226.0,0.0003331429320314746
2225.0,0.0003356353727859197
2224.0,0.0003534825714360905
2223.0,0.0003626813961679935
2222.0,0.00035991308737297594
2221.0,0.0003612281069345824
2220.0,0.00037165474347750516
2219.0,0.0003748898718087643
2218.0,0.00036593171861062966
2217.0,0.0003592681273248241
2216.0,0.0003609796652876407
2215.0,0.00035758414386361176
2214.0,0.0003432314645866229
2213.0,0.0003342888206629654
2212.0,0.00034396553357483395
2211.0,0.0003639671757220068
2210.0,0.0003790953336770431
2209.0,0.00038506777467853595
2208.0,0.00038497860447044593
2207.0,0.0003836825801039297
2206.0,0.0003880190078931244
2205.0,0.00039796957023998606
2204.0,0.00039959464740877814
2203.0,0.00038351206119595447
2202.0,0.00036574077894717914
2201.0,0.00036896110966392237
2200.0,0.0003889417413831032
2199.0,0.0004041167496172801
2198.0,0.0004110176652524153
2197.0,0.00042240551306022955
2196.0,0.00043554256314284217
2195.0,0.0004339832071646652
2194.0,0.0004199015829782283
2193.0,0.0004131557185957501
2192.0,0.00041706245814349075
2191.0,0.0004159252959487316
2190.0,0.0004084046712138805
2189.0,0.0004123594525628335
2188.0,0.00043281979960662514
2187.0,0.00045398814486906206
2186.0,0.00046639878209789754
2185.0,0.00047359130434319126
2184.0,0.00047022697627341955
2183.0,0.0004444515153006661
2182.0,0.0004056069786424262
2181.0,0.0003797923709307183
2180.0,0.0003744229537316101
2179.0,0.00037480869309058354
2178.0,0.00037345525234120454
2177.0,0.00037282466362080144
2176.0,0.0003641296516107707
2175.0,0.00033736111127750934
2174.0,0.00031033462712159315
2173.0,0.00031390617168237565
2172.0,0.0003495956692484959
2171.0,0.0003939544622276552
2170.0,0.00043864035674440584
2169.0,0.0004914463602886494
2168.0,0.0005428025662958631
2167.0,0.0005690137929777405
2166.0,0.0005715942391528955
2165.0,0.0005793834709416166
2164.0,0.0006070408392596044
2163.0,0.0006407834792222257
2162.0,0.0006592107900652035
2161.0,0.0006330397871916081
2160.0,0.0005203063769869765
2159.0,0.0003197380009956072
2158.0,0.00011992536932597811
2157.0,2.2490441521870507e-05
2156.0,2.6526903000970246e-05
2155.0,5.5945442239191184e-05
2154.0,7.064644932682743e-05
2153.0,8.865653367892646e-05
2152.0,0.00012385874100209618
2151.0,0.0001602975736243969
2150.0,0.0001857727616410786
2149.0,0.0002040048309171114
2148.0,0.00021053220868158117
2147.0,0.00019517102467524238
2146.0,0.0001704170223402906
2145.0,0.0001607898143107841
2144.0,0.00016370375277096
2143.0,0.00015545502844059394
2142.0,0.00013434074583032279
2141.0,0.00012252137164828398
2140.0,0.00012528885340227776
2139.0,0.00012229751575975516
2138.0,0.00010140328778138674
2137.0,7.08353012653345e-05
2136.0,3.659167514335842e-05
2135.0,-3.14458592402876e-06
2134.0,-3.873406766507158e-05
2133.0,-5.238361858555477e-05
2132.0,-4.3168007769983554e-05
2131.0,-2.6530363831857957e-05
2130.0,-1.0471092439496774e-05
2129.0,6.538111844327146e-06
2128.0,1.9385842802229283e-05
2127.0,2.0218368050472276e-05
2126.0,1.6090382917161158e-05
2125.0,2.1952859912861833e-05
2124.0,3.788638468974186e-05
2123.0,5.181543894552422e-05
2122.0,6.131513931495816e-05
2121.0,7.331153947038086e-05
2120.0,8.670118213404353e-05
2119.0,9.596355180816699e-05
2118.0,0.00010803354440052423
2117.0,0.00013363018025531158
2116.0,0.0001639039044119433
2115.0,0.00017741131108894794
2114.0,0.00016979162727713288
2113.0,0.0001561399947921354
2112.0,0.00014589709374679578
2111.0,0.00013660552265938727
2110.0,0.00013151649078121767
2109.0,0.00013970663825745868
2108.0,0.0001568494011299393
2107.0,0.0001669615973065371
2106.0,0.00016532914754016767
2105.0,0.00016118780372917732
2104.0,0.00015855761395971676
2103.0,0.00015407434995610525
2102.0,0.0001521352604730618
2101.0,0.0001607143180298756
2100.0,0.00017256331073943194
2099.0,0.00017075202156984978
2098.0,0.0001518323720245509
2097.0,0.0001254452102626006
2096.0,9.551569697850465e-05
2095.0,6.306508410005608e-05
2094.0,4.193175578451618e-05
2093.0,4.5826316485986186e-05
2092.0,6.393666276026323e-05
2091.0,7.353326093196828e-05
2090.0,7.284457329478195e-05
2089.0,7.844143944841912e-05
2088.0,9.41015451734451e-05
2087.0,0.0001075623779204526
2086.0,0.00011327552510214181
2085.0,0.00011819223215279594
2084.0,0.0001245076411028655
2083.0,0.00012316799835338215
2082.0,0.0001173729059326255
2081.0,0.00012600510772134985
2080.0,0.00015470751652210788
2079.0,0.00018269728238467392
2078.0,0.0001880293536091588
2077.0,0.00017008352442557644
2076.0,0.00014239050155395098
2075.0,0.00011863420544622324
2074.0,0.00010964797570539044
2073.0,0.00011789219975082469
2072.0,0.00013177524920223935
2071.0,0.00013814723544738612
2070.0,0.00013825567226976579
2069.0,0.00013841147937937058
2068.0,0.0001344505707437829
2067.0,0.00012484863082215872
2066.0,0.00012463184305742231
2065.0,0.00014594790378979951
2064.0,0.00017366155688035897
2063.0,0.00018174034802350878
2062.0,0.00017433328557369364
2061.0,0.00017421884025838833
2060.0,0.00018102435764815968
2059.0,0.00017620176232073102
2058.0,0.0001639092239111501
2057.0,0.0001669312071856798
2056.0,0.00018466591746446235
2055.0,0.00019516844774957604
2054.0,0.00020202718277623254
2053.0,0.00023622708283973972
2052.0,0.0003020538980450275
2051.0,0.0003600665981345842
2050.0,0.00037420593939545277
2049.0,0.0003475148019191818
2048.0,0.00030412473251289845
2047.0,0.0002640448807038952
2046.0,0.0002446399440645421
2045.0,0.0002533054802536811
2044.0,0.00026674226445116034
2043.0,0.0002517248681013428
2042.0,0.00021340973284827286
2041.0,0.00019072242522763213
2040.0,0.00020065374800642532
2039.0,0.00022357412656045443
2038.0,0.00024325531616079454
2037.0,0.000258555869023747
2036.0,0.00025983442598648114
2035.0,0.00023779167182606136
2034.0,0.00021393446790960368
2033.0,0.00021660515699650383
2032.0,0.00023011291300545356
2031.0,0.00021900421176493812
2030.0,0.00019283479864198156
2029.0,0.00019216628216046656
2028.0,0.00021874460024980677
2027.0,0.0002378363294514138
2026.0,0.00024380804464632102
2025.0,0.00026219637929706806
2024.0,0.00029013929047137614
2023.0,0.00029594093372164163
2022.0,0.00027696969052189136
2021.0,0.0002616813704906151
2020.0,0.0002536863832101966
2019.0,0.00022930586089883222
2018.0,0.0001928493652185938
2017.0,0.00017825059537385527
2016.0,0.0001894144261776569
2015.0,0.00019607744517502555
2014.0,0.0001904451484056322
2013.0,0.0001919664549126915
2012.0,0.00019992821285351133
2011.0,0.0001930618806995413
2010.0,0.00017345103021089436
2009.0,0.0001595180494300308
2008.0,0.00013921859112344206
2007.0,8.645039128054016e-05
2006.0,2.063687855460264e-05
2005.0,-8.838579102568795e-06
2004.0,4.2613180703731865e-06
2003.0,2.233891735548498e-05
2002.0,2.8465127996498904e-05
2001.0,3.69254280347829e-05
2000.0,4.708262179661804e-05
1999.0,3.967269323586404e-05
1998.0,1.9185394167157152e-05
1997.0,1.0512431671304018e-05
1996.0,1.4512591100478405e-05
1995.0,1.133464165410181e-05
1994.0,4.3110244804076166e-06
1993.0,1.6304042108396385e-05
1992.0,4.152418639503464e-05
1991.0,4.91448985987348e-05
1990.0,3.948924319849604e-05
1989.0,4.1246055318791856e-05
1988.0,5.639228017195524e-05
1987.0,6.130396791167352e-05
1986.0,5.9084154724169504e-05
1985.0,7.824290672626337e-05
1984.0,0.00011740719546354567
1983.0,0.00014350049708384996
1982.0,0.00014825394110494342
1981.0,0.00015473845937845148
1980.0,0.0001633129196629724
1979.0,0.00014333808297811853
1978.0,9.083275940703324e-05
1977.0,4.1787217571180634e-05
1976.0,1.285525725401148e-05
1975.0,-1.5088139075836258e-05
1974.0,-4.4654976346575294e-05
1973.0,-5.488152306832401e-05
1972.0,-5.098054209928425e-05
1971.0,-6.352392640197706e-05
1970.0,-9.31304765226077e-05
1969.0,-0.00010615495419162785
1968.0,-9.028250379663496e-05
1967.0,-7.032174147786124e-05
1966.0,-6.286813815315796e-05
1965.0,-6.0809904781898485e-05
1964.0,-6.432926396179872e-05
1963.0,-8.108015883149188e-05
1962.0,-9.880829884421492e-05
1961.0,-9.952138197981191e-05
1960.0,-9.702747059674101e-05
1959.0,-0.00011644557414984742
1958.0,-0.00014412729997828567
1957.0,-0.00014463673597102378
1956.0,-0.00011965365747876083
1955.0,-0.00010379577362741479
1954.0,-0.0001076497956017232
1953.0,-0.00010932736470063188
1952.0,-0.00010114184024894628
1951.0,-9.946100387384625e-05
1950.0,-0.00010628678471175925
1949.0,-0.00010294393226042303
1948.0,-8.806019774458269e-05
1947.0,-8.389508198022584e-05
1946.0,-9.836378510700672e-05
1945.0,-0.0001141181199071418
1944.0,-0.00011996907915661436
1943.0,-0.000123341375061343
1942.0,-0.00012934516442788375
1941.0,-0.00013592326012030424
1940.0,-0.00014749614906338533
1939.0,-0.00016647733372847167
1938.0,-0.00017827107345857107
1937.0,-0.00016783348719394864
1936.0,-0.00014740256313103164
1935.0,-0.00014251468753262268
1934.0,-0.00015558428348202546
1933.0,-0.00016925576078804486
1932.0,-0.00017961465829491405
1931.0,-0.00019472537739345088
1930.0,-0.0002065887822067364
1929.0,-0.00019804655209935918
1928.0,-0.0001745617924650755
1927.0,-0.0001578738679721837
1926.0,-0.00015102133712828068
1925.0,-0.00014173929949548992
1924.0,-0.00013145770612068078
1923.0,-0.00013310792667281155
1922.0,-0.00014193748309351936
1921.0,-0.00014171257271137073
1920.0,-0.00013595799391573522
1919.0,-0.0001407184662909997
1918.0,-0.0001502595989649996
1917.0,-0.00014667549426522096
1916.0,-0.00013850137334923637
1915.0,-0.00014504292551043626
1914.0,-0.00016044851913506772
1913.0,-0.00016311613245974395
1912.0,-0.00015042899788712057
1911.0,-0.00013780806500285434
1910.0,-0.00012659648406968373
1909.0,-0.00010595942985167236
1908.0,-8.434048956529696e-05
1907.0,-8.143252309352573e-05
1906.0,-9.21919090903485e-05
1905.0,-9.509091421502002e-05
1904.0,-8.811245364092626e-05
1903.0,-8.659067115034808e-05
1902.0,-9.022766143992151e-05
1901.0,-8.576880915135438e-05
1900.0,-7.71435444288759e-05
1899.0,-8.060521460575209e-05
1898.0,-9.300163564061816e-05
1897.0,-9.597862096486919e-05
1896.0,-8.844291472134163e-05
1895.0,-8.669382205668541e-05
1894.0,-9.194447289318647e-05
1893.0,-9.117068928336672e-05
1892.0,-8.63875539830548e-05
1891.0,-9.05376061555458e-05
1890.0,-9.801996058879663e-05
1889.0,-9.362155753551938e-05
1888.0,-8.985789089200496e-05
1887.0,-0.00010794291019921459
1886.0,-0.0001387176562043244
1885.0,-0.0001562629406933213
1884.0,-0.0001595236306172255
1883.0,-0.00016944711637647972
1882.0,-0.00018878833999604505
1881.0,-0.0001996680649365239
1880.0,-0.00019932219930453472
1879.0,-0.00020357760398490737
1878.0,-0.00021447181769025485
1877.0,-0.000217443050396989
1876.0,-0.00021259599057414408
1875.0,-0.00021623728712121676
1874.0,-0.00023009952045660565
1873.0,-0.00023920199137173067
1872.0,-0.00024143461836723243
1871.0,-0.0002488274180341926
1870.0,-0.00025382802100043294
1869.0,-0.0002263898714004915
1868.0,-0.00017475796330229491
1867.0,-0.00014748122986066163
1866.0,-0.00015753764636725846
1865.0,-0.00017972554529326946
1864.0,-0.00019987929464501696
1863.0,-0.00022251953077049528
1862.0,-0.0002435271877613836
1861.0,-0.00024753487217365057
1860.0,-0.00023579562836233202
1859.0,-0.00022740445351367394
1858.0,-0.0002277453311753351
1857.0,-0.0002255828315566354
1856.0,-0.0002212786557243946
1855.0,-0.00022692350402955547
1854.0,-0.00024019387406089038
1853.0,-0.0002469463632821193
1852.0,-0.00024699570895090174
1851.0,-0.00025364996708293684
1850.0,-0.0002652013102285272
1849.0,-0.0002668812608002662
1848.0,-0.00025997081870138814
1847.0,-0.00026102696211937324
1846.0,-0.000268532614463974
1845.0,-0.0002563197712717152
1844.0,-0.00021864040442620388
1843.0,-0.0001938039013400835
1842.0,-0.0001999609497680666
1841.0,-0.00021569598524943164
1840.0,-0.0002248558946089563
1839.0,-0.00022990620909978067
1838.0,-0.0002323658378060641
1837.0,-0.00022880136136544716
1836.0,-0.00022587570182654323
1835.0,-0.000235281399837543
1834.0,-0.00025290543665524006
1833.0,-0.0002631769203437465
1832.0,-0.00025947473968017756
1831.0,-0.0002451237292378679
1830.0,-0.00021741545747758608
1829.0,-0.0001825580091509647
1828.0,-0.00016320215227509237
1827.0,-0.00016824809811724693
1826.0,-0.00017737074105284652
1825.0,-0.00016473721781662528
1824.0,-0.00014007560731823447
1823.0,-0.00013634990888375907
1822.0,-0.0001548971042630604
1821.0,-0.0001693057317294661
1820.0,-0.00016958843869279935
1819.0,-0.0001717989710327205
1818.0,-0.0001824165318693666
1817.0,-0.00018531016702791532
1816.0,-0.00017473235424547316
1815.0,-0.0001675962012147197
1814.0,-0.00017052195498965558
1813.0,-0.00016660679881804396
1812.0,-0.00014474449210835215
1811.0,-0.00012049810658742522
1810.0,-0.00010851348342194524
1809.0,-9.936541332368487e-05
1808.0,-8.786488564245195e-05
1807.0,-8.602445023302174e-05
1806.0,-9.424569545040122e-05
1805.0,-9.388993627503276e-05
1804.0,-7.8292510367374e-05
1803.0,-6.390618454135796e-05
1802.0,-6.0262022484644734e-05
1801.0,-5.135134893347179e-05
1800.0,-3.124194280205712e-05
1799.0,-2.139622477617567e-05
1798.0,-2.8623083806283717e-05
1797.0,-3.3854992061207534e-05
1796.0,-2.9690950053784092e-05
1795.0,-3.136620983066772e-05
1794.0,-4.3504218896268715e-05
1793.0,-3.590413285124196e-05
1792.0,1.1543305606973898e-05
1791.0,5.651275344495518e-05
1790.0,6.249781856735703e-05
1789.0,4.7789234564524176e-05
1788.0,3.484993896535533e-05
1787.0,2.5213864026656487e-05
1786.0,1.975322783765235e-05
1785.0,2.841776284286503e-05
1784.0,4.7770043460743615e-05
1783.0,6.0807771149092244e-05
1782.0,6.548663897122881e-05
1781.0,7.83147833134149e-05
1780.0,9.911523782570649e-05
1779.0,0.000105298884092797
1778.0,9.188942987866907e-05
1777.0,8.016883432483603e-05
1776.0,8.270250016122562e-05
1775.0,8.775594634318623e-05
1774.0,8.712044975588769e-05
1773.0,0.00010809278572711592
1772.0,0.000177255857213411
1771.0,0.00025032035135002964
1770.0,0.00028242548423006663
1769.0,0.00029112716000519656
1768.0,0.00030352600500791155
1767.0,0.00031822131867893615
1766.0,0.0003265594495607087
1765.0,0.00033879661838245845
1764.0,0.00036889090215319565
1763.0,0.0004209763967270594
1762.0,0.0004915870048442432
1761.0,0.000569049862343239
1760.0,0.0006378857588628718
1759.0,0.0006973479936149868
1758.0,0.000765245947711816
1757.0,0.0008618283585625497
1756.0,0.0009755704015537172
1755.0,0.0010721271741984183
1754.0,0.001147234343159153
1753.0,0.0012285482203502366
1752.0,0.0013429297430394812
1751.0,0.0014919529246284246
1750.0,0.0016507853246956472
1749.0,0.0017978499020946137
1748.0,0.0019253058970172404
1747.0,0.0020239568419929627
1746.0,0.002096884206345643
1745.0,0.002167222756362753
1744.0,0.002248915215008918
1743.0,0.0023286331947771667
1742.0,0.002388829380133594
1741.0,0.0024339585187185984
1740.0,0.0024712392493035874
1739.0,0.002482580725658451
1738.0,0.002450060515205406
1737.0,0.0023874957418478066
1736.0,0.0023062826848951187
1735.0,0.0022160938374183718
1734.0,0.0021742353217304613
1733.0,0.0021893855911340474
1732.0,0.002194270960817588
1731.0,0.0021756216777440206
1730.0,0.0021578375316005094
1729.0,0.0021543649021810345
1728.0,0.0021590190262980114
1727.0,0.0021632019803165116
1726.0,0.0021706055922461154
1725.0,0.0021913617518498686
1724.0,0.002223964357714741
1723.0,0.0022556989028595454
1722.0,0.0022823848582841796
1721.0,0.0023169159139079095
1720.0,0.002368626016789226
1719.0,0.002434244777492269
1718.0,0.0025243206986358085
1717.0,0.0026594130940518204
1716.0,0.0027961096339569605
1715.0,0.002883789446627664
1714.0,0.002934253960816001
1713.0,0.002975489655130818
1712.0,0.0030115064673286096
1711.0,0.0030357328350701903
1710.0,0.003053696652230745
1709.0,0.003082674533238579
1708.0,0.0031297028556120316
1707.0,0.003186186586976022
1706.0,0.003257728477225716
1705.0,0.0033577750388632073
1704.0,0.003466411120913967
1703.0,0.0035566174325057974
1702.0,0.003634334392997516
1701.0,0.003755166337271228
1700.0,0.003956788697734226
1699.0,0.004128207569861221
1698.0,0.004239726201992633
1697.0,0.004387242801462369
1696.0,0.004606391017385891
1695.0,0.004795480203251817
1694.0,0.004893562192837731
1693.0,0.004969472070540133
1692.0,0.005079315442604724
1691.0,0.005223513716382437
1690.0,0.005387952712700984
1689.0,0.005570489711371349
1688.0,0.005764686082180736
1687.0,0.005952299061911839
1686.0,0.006132520319270191
1685.0,0.006361335107097429
1684.0,0.006680889191534256
1683.0,0.006936937985476756
1682.0,0.007078129775899153
1681.0,0.007207643835810271
1680.0,0.0073659039598654216
1679.0,0.007527159628066554
1678.0,0.0076774712085554905
1677.0,0.0078379360171587
1676.0,0.008025486596015876
1675.0,0.008221829752719383
1674.0,0.008393807822560332
1673.0,0.008550018880221772
1672.0,0.008713043165476808
1671.0,0.00888576702416924
1670.0,0.009074771413050811
1669.0,0.009280975145627424
1668.0,0.009466480389543008
1667.0,0.009610064381361298
1666.0,0.009734263384546233
1665.0,0.009872047094125166
1664.0,0.010032246665571204
1663.0,0.010197048694660803
1662.0,0.010348042528181882
1661.0,0.01048714321852285
1660.0,0.010617691769330483
1659.0,0.010733413070903891
1658.0,0.010841850822923913
1657.0,0.010974554555147646
1656.0,0.01114626595257578
1655.0,0.011313400229234577
1654.0,0.011406074090013657
1653.0,0.011448066006139982
1652.0,0.011443920458440237
1651.0,0.011412995549944592
1650.0,0.011404116732111811
1649.0,0.011427579221308836
1648.0,0.011447104147431336
1647.0,0.011432698968076506
1646.0,0.011404294995594238
1645.0,0.011390591586659863
1644.0,0.011396333440618042
1643.0,0.011404514630255555
1642.0,0.01140671449004849
1641.0,0.011415379309911856
1640.0,0.011442178007542304
1639.0,0.011481973809169118
1638.0,0.011519223656517875
1637.0,0.011536030108077772
1636.0,0.011525026968794507
1635.0,0.011487780749942758
1634.0,0.011439720799334054
1633.0,0.011412675642557579
1632.0,0.011406987556674622
1631.0,0.011398197044961093
1630.0,0.011370349445776903
1629.0,0.011328024596589452
1628.0,0.011279550934690678
1627.0,0.011227756937662509
1626.0,0.011177256446539705
1625.0,0.011126128737780613
1624.0,0.011053689412719126
1623.0,0.010951178841310291
1622.0,0.010851103162019938
1621.0,0.010790086128990205
1620.0,0.010766906755923445
1619.0,0.010744357982525017
1618.0,0.010676944573187139
1617.0,0.010557896059115427
1616.0,0.010423874700107236
1615.0,0.010303672484348535
1614.0,0.010209299686378083
1613.0,0.010135756903911825
1612.0,0.010060955367632022
1611.0,0.009969132312114704
1610.0,0.009873400242746681
1609.0,0.009792262372590023
1608.0,0.009718472329602714
1607.0,0.009638360023525095
1606.0,0.009556630150805219
1605.0,0.009482119375041011
1604.0,0.00940753374292426
1603.0,0.009324233955405532
1602.0,0.009241024144039916
1601.0,0.009167764810011605
1600.0,0.009096071570136482
1599.0,0.00901461577979852
1598.0,0.008928161714928261
1597.0,0.008846151986315626
1596.0,0.008763534088733316
1595.0,0.008671387246772841
1594.0,0.008576707112116142
1593.0,0.008488969842722805
1592.0,0.008400246566724015
1591.0,0.008300044015505575
1590.0,0.008196450970715781
1589.0,0.00810176937637841
1588.0,0.008010890031212725
1587.0,0.007914952558574254
1586.0,0.007820720609076771
1585.0,0.007736306209103143
1584.0,0.007654145934791558
1583.0,0.007564065962229118
1582.0,0.007474377945687085
1581.0,0.007399647799927942
1580.0,0.0073417183232535495
1579.0,0.007291996151036165
1578.0,0.0072368444568458225
1577.0,0.007157630487085219
1576.0,0.007049014162526828
1575.0,0.006932227408952215
1574.0,0.006839314768566239
1573.0,0.006781041403401529
1572.0,0.006734016889140965
1571.0,0.0066660819251385655
1570.0,0.006587198143951789
1569.0,0.006531112757560081
1568.0,0.006489108314733831
1567.0,0.006445015815191255
1566.0,0.006403871666031407
1565.0,0.006375668956687697
1564.0,0.006367888478451702
1563.0,0.006390558658565438
1562.0,0.006451172295190153
1561.0,0.0065161559446701
1560.0,0.0065050508479441455
1559.0,0.006458430293083912
1558.0,0.0064856944052417605
1557.0,0.0064968200762168665
1556.0,0.006489366407480664
1555.0,0.006479756808072541
1554.0,0.006477766327529371
1553.0,0.006490999159780891
1552.0,0.006511380787854463
1551.0,0.006522399545874559
1550.0,0.00652250336132792
1549.0,0.006520087507632987
1548.0,0.006516023085894926
1547.0,0.006504737232996504
1546.0,0.006486873171368385
1545.0,0.006473130533378937
1544.0,0.006465996988856262
1543.0,0.0064483462476780246
1542.0,0.0064132554314866065
1541.0,0.00638595901804442
1540.0,0.006383911844185216
1539.0,0.006345639997908763
1538.0,0.006257197247045265
1537.0,0.006178751129256591
1536.0,0.0061231449322115845
1535.0,0.006061167370762104
1534.0,0.005983668134602279
1533.0,0.00592422620707828
1532.0,0.005877963989377652
1531.0,0.005816773261151673
1530.0,0.005750635658738539
1529.0,0.0057013552901110385
1528.0,0.005664155183087046
1527.0,0.005612995472284903
1526.0,0.005550073992471784
1525.0,0.005510676013579496
1524.0,0.0054997868032421356
1523.0,0.005482847515867719
1522.0,0.005455169216375838
1521.0,0.00545612708748809
1520.0,0.005463668226878936
1519.0,0.005438848655139169
1518.0,0.0053979012921402105
1517.0,0.0053708918678990365
1516.0,0.00534712085246829
1515.0,0.005295064668466584
1514.0,0.005227411475089864
1513.0,0.005175573032175751
1512.0,0.005143684655663314
1511.0,0.005117349361894061
1510.0,0.0050968408331472865
1509.0,0.00509170611176907
1508.0,0.005089227352272662
1507.0,0.005082004707104829
1506.0,0.005066282213914108
1505.0,0.005028086657366008
1504.0,0.004986197449629326
1503.0,0.004942681327871026
1502.0,0.004911535125863383
1501.0,0.004912936760255601
1500.0,0.004940472019553138
1499.0,0.004959346092350518
1498.0,0.004961648073531779
1497.0,0.0049922542803649715
1496.0,0.005057824446732062
1495.0,0.005098062019567585
1494.0,0.005111109835033397
1493.0,0.005148759103899149
1492.0,0.005217622884617258
1491.0,0.005286487456775606
1490.0,0.0053672623628410986
1489.0,0.005494640489113802
1488.0,0.005625731216239858
1487.0,0.00570734587291977
1486.0,0.00577455825572671
1485.0,0.005882644247906686
1484.0,0.006027470581734534
1483.0,0.006191159048017354
1482.0,0.0064139141498835515
1481.0,0.006747507692833426
1480.0,0.007181234913876865
1479.0,0.007754004217503394
1478.0,0.008727478172940806
1477.0,0.010514475147109844
1476.0,0.013347660119681744
1475.0,0.017103572083659292
1474.0,0.02135895135311828
1473.0,0.02505459454909225
1472.0,0.026813401116831493
1471.0,0.02679319661347653
1470.0,0.026351828722687962
1469.0,0.02624415697513303
1468.0,0.026525295522029473
1467.0,0.027179696102758936
1466.0,0.028407886953905635
1465.0,0.030193029420536997
1464.0,0.03168123942217192
1463.0,0.031863110455944886
1462.0,0.03060209518417078
1461.0,0.028388035944911644
1460.0,0.02582169546649136
1459.0,0.02339979675243634
1458.0,0.02140045059585539
1457.0,0.019874854549235012
1456.0,0.018740321974488296
1455.0,0.01784092133118165
1454.0,0.01700902275920965
1453.0,0.016145941876093264
1452.0,0.015286175284901882
1451.0,0.014542328228389686
1450.0,0.013952079870394044
1449.0,0.013461506202677331
1448.0,0.01304506855992294
1447.0,0.01272285764579073
1446.0,0.01247425110811928
1445.0,0.012254024210174082
1444.0,0.012050605056168522
1443.0,0.011873480418051901
1442.0,0.01171117239898832
1441.0,0.011543635679183204
1440.0,0.011381831695362972
1439.0,0.01124575192737722
1438.0,0.011111918051352605
1437.0,0.010931572569790935
1436.0,0.010712951944908141
1435.0,0.01050344771826401
1434.0,0.010304235792752244
1433.0,0.0100891795693508
1432.0,0.009852661258264915
1431.0,0.00961219900276913
1430.0,0.00937273502771649
1429.0,0.00912898058013179
1428.0,0.008905114403093077
1427.0,0.008731211326337932
1426.0,0.008594013697917869
1425.0,0.00845973107141351
1424.0,0.00833336899983838
1423.0,0.008249626356172553
1422.0,0.00820540205572533
1421.0,0.008163686263472882
1420.0,0.008107238609499018
1419.0,0.00805613471892439
1418.0,0.00800581009192474
1417.0,0.007930376078311457
1416.0,0.007845652362813772
1415.0,0.007774493493293793
1414.0,0.0077097595613411524
1413.0,0.007633151392853468
1412.0,0.007547667513461989
1411.0,0.007469020250889229
1410.0,0.007392818475612583
1409.0,0.007305036864720215
1408.0,0.007212977068459633
1407.0,0.007131235396906925
1406.0,0.007048731669690422
1405.0,0.006943674428452097
1404.0,0.0068283663794535855
1403.0,0.0067339861063486686
1402.0,0.006658569279590727
1401.0,0.00657651607530637
1400.0,0.006482440601845524
1399.0,0.006398698084114099
1398.0,0.006330212297373881
1397.0,0.006258162068558979
1396.0,0.0061808990566085366
1395.0,0.006112621660053108
1394.0,0.0060472383521338125
1393.0,0.00596879453217878
1392.0,0.0058921476226679835
1391.0,0.00584077154577557
1390.0,0.005812596516358548
1389.0,0.0057904725761552915
1388.0,0.005775510982471349
1387.0,0.005786986421272196
1386.0,0.0058258716982933344
1385.0,0.005884347954759312
1384.0,0.005979613093387979
1383.0,0.006138288003472869
1382.0,0.006361489659660888
1381.0,0.00662122023633612
1380.0,0.006877067056167481
1379.0,0.007078208643939666
1378.0,0.007172275130325548
1377.0,0.007140185840841622
1376.0,0.0070127076628721165
1375.0,0.006848878031180054
1374.0,0.006704040702307859
1373.0,0.006604944618658886
1372.0,0.00655177848206543
1371.0,0.006531239924340184
1370.0,0.006518153983100806
1369.0,0.006483563215871341
1368.0,0.006415844312127087
1367.0,0.0063232989254598925
1366.0,0.006213738217585787
1365.0,0.006085942415913349
1364.0,0.00593998234088186
1363.0,0.005785101685647494
1362.0,0.005632082842206623
1361.0,0.005486546879546036
1360.0,0.0053573384397724855
1359.0,0.005254903931555356
1358.0,0.00518012713572529
1357.0,0.005126205973714265
1356.0,0.00508987114081186
1355.0,0.00506936398208711
1354.0,0.005053774090095054
1353.0,0.005028176327600378
1352.0,0.0049875047862419026
1351.0,0.004935032063889505
1350.0,0.004872359361763265
1349.0,0.004797756525463092
1348.0,0.0047153913081954485
1347.0,0.004634414163388268
1346.0,0.004558194764062758
1345.0,0.004484630673287905
1344.0,0.004416588038923922
1343.0,0.004360594814526039
1342.0,0.00431519909029117
1341.0,0.0042697918205112225
1340.0,0.004216549808041354
1339.0,0.004154657935835829
1338.0,0.004081854128383126
1337.0,0.003997585361672936
1336.0,0.00391217425583147
1335.0,0.003839505137603774
1334.0,0.0037834185174552976
1333.0,0.003739782934449128
1332.0,0.003708132411235664
1331.0,0.003692090026097831
1330.0,0.0036902837580289885
1329.0,0.0036967317941174723
1328.0,0.0037101265247367248
1327.0,0.003733207122131662
1326.0,0.0037636978997825305
1325.0,0.0037941606721419623
1324.0,0.003822699638131686
1323.0,0.003852903060381453
1322.0,0.0038835931152649316
1321.0,0.003909328521499671
1320.0,0.003930341056487052
1319.0,0.003950933044646565
1318.0,0.0039682681323820424
1317.0,0.00397521608474425
1316.0,0.0039739364677076686
1315.0,0.003974211650144072
1314.0,0.003979120015221901
1313.0,0.003983189538387124
1312.0,0.003983875088085803
1311.0,0.0039842235629007775
1310.0,0.0039842562633785085
1309.0,0.0039803210608654474
1308.0,0.0039733424318972215
1307.0,0.003968070346700285
1306.0,0.0039641505684518494
1305.0,0.003955809586589934
1304.0,0.003942319399658365
1303.0,0.0039288347408441395
1302.0,0.003916662783125676
1301.0,0.0039017055722063336
1300.0,0.003883116323342273
1299.0,0.0038644089437636737
1298.0,0.0038455651031876637
1297.0,0.00382283072696546
1296.0,0.003796741523913771
1295.0,0.0037725444125984667
1294.0,0.003751949395378781
1293.0,0.003732684777129406
1292.0,0.0037162353022006534
1291.0,0.003707573218237667
1290.0,0.003706907789091503
1289.0,0.0037095342150841237
1288.0,0.0037140698026642384
1287.0,0.0037233515531248937
1286.0,0.0037373597591120146
1285.0,0.00375310023282043
1284.0,0.0037711944487664436
1283.0,0.0037950030976049093
1282.0,0.0038240504423547915
1281.0,0.0038553072570055172
1280.0,0.0038895981086238384
1279.0,0.003929592086800692
1278.0,0.003972021726521995
1277.0,0.004009860243046581
1276.0,0.004041668352931116
1275.0,0.004072110568197199
1274.0,0.004103654935131384
1273.0,0.004134576293618754
1272.0,0.00416446321674194
1271.0,0.004194676197937188
1270.0,0.004223672503834669
1269.0,0.004248817223768882
1268.0,0.0042725997982171705
1267.0,0.004300260401429597
1266.0,0.004331702726092431
1265.0,0.004362900025350951
1264.0,0.00439416094272463
1263.0,0.004429141118189053
1262.0,0.004466268939021043
1261.0,0.004498768047430671
1260.0,0.004523331424521536
1259.0,0.004542644704160921
1258.0,0.0045592446550622445
1257.0,0.0045740141628349525
1256.0,0.004590246338369286
1255.0,0.004612252050801697
1254.0,0.004639721165765605
1253.0,0.004669337915818658
1252.0,0.004701281435731763
1251.0,0.00473833536639852
1250.0,0.004779425151742275
1249.0,0.004820356670896118
1248.0,0.004860264788385173
1247.0,0.0049012438403899525
1246.0,0.004942359192957993
1245.0,0.004980838160052236
1244.0,0.005018342838675388
1243.0,0.005059283239480896
1242.0,0.00510330766586748
1241.0,0.005145655111618902
1240.0,0.005184248160751664
1239.0,0.005220584183765861
1238.0,0.005254668184643243
1237.0,0.005285080928246821
1236.0,0.005313378492834121
1235.0,0.005342547446131879
1234.0,0.005371580537777079
1233.0,0.00539707083860193
1232.0,0.005419449633194906
1231.0,0.005441958241129695
1230.0,0.005464193675969883
1229.0,0.005482594644200936
1228.0,0.0054968096136202935
1227.0,0.0055100443109461555
1226.0,0.005523662277443636
1225.0,0.005536540506738743
1224.0,0.0055490620904783475
1223.0,0.005562584446371017
1222.0,0.0055756211975083216
1221.0,0.005585546255277412
1220.0,0.005593275020111865
1219.0,0.0056014267053875275
1218.0,0.005608913671958369
1217.0,0.005612758131305079
1216.0,0.00561426343520456
1215.0,0.005617705614344786
1214.0,0.005623627208919196
1213.0,0.00562913562179985
1212.0,0.005634522054189035
1211.0,0.0056436479374407916
1210.0,0.005657632494447793
1209.0,0.0056734007763249794
1208.0,0.00568850589828592
1207.0,0.005702627857479726
1206.0,0.0057146650131191905
1205.0,0.005722935666298703
1204.0,0.005728030240487544
1203.0,0.005731701851891255
1202.0,0.005733659830771979
1201.0,0.005732971348392758
1200.0,0.005731126877249854
1199.0,0.005729715628022016
1198.0,0.0057264951335734195
1197.0,0.0057183782185395255
1196.0,0.005707196384823778
1195.0,0.005698067994241701
1194.0,0.005693169881781732
1193.0,0.0056911110381761
1192.0,0.005691379196650508
1191.0,0.005695100409802833
1190.0,0.005702326226740777
1189.0,0.005712454247540137
1188.0,0.0057261338150878
1187.0,0.005743139313064892
1186.0,0.005760290500154982
1185.0,0.005775630320038068
1184.0,0.005792889740508835
1183.0,0.0058178340448044145
1182.0,0.005851973952901848
1181.0,0.005893170731016431
1180.0,0.005939704691051574
1179.0,0.005989590018657741
1178.0,0.0060387986782615265
1177.0,0.0060851018014620286
1176.0,0.006131493434605825
1175.0,0.006181615244061932
1174.0,0.00623443984627387
1173.0,0.006287407282763972
1172.0,0.006341545464657771
1171.0,0.006398336098937604
1170.0,0.006454275239319454
1169.0,0.006504046928393072
1168.0,0.006547087521059012
1167.0,0.006586049203361047
1166.0,0.006620811221372806
1165.0,0.006649346808029885
1164.0,0.006673021868360961
1163.0,0.006695697787461619
1162.0,0.006718362870484759
1161.0,0.0067390311937887346
1160.0,0.006757037931993386
1159.0,0.006773542366867554
1158.0,0.006788791313724547
1157.0,0.006802649838493232
1156.0,0.006816878797395235
1155.0,0.006833458912133359
1154.0,0.006851793857058759
1153.0,0.006870568225807033
1152.0,0.006890531227658632
1151.0,0.0069122534539846694
1150.0,0.006933500621873364
1149.0,0.00695259018918599
1148.0,0.0069720619046164025
1147.0,0.006995066091286344
1146.0,0.007020217562319381
1145.0,0.007044094929351064
1144.0,0.007066924907824772
1143.0,0.007091746546524471
1142.0,0.007119643606878558
1141.0,0.007149969506161589
1140.0,0.007183824788832106
1139.0,0.007223008154924432
1138.0,0.007266470900578035
1137.0,0.007311728356776683
1136.0,0.007359073779956095
1135.0,0.007411359103761561
1134.0,0.007470777800878445
1133.0,0.007538325582948065
1132.0,0.007614170371934369
1131.0,0.007695480658039206
1130.0,0.007776290808532633
1129.0,0.007852946335106064
1128.0,0.007927759564363444
1127.0,0.008004411664575982
1126.0,0.008082480291192925
1125.0,0.008159784770011752
1124.0,0.008236851082635466
1123.0,0.008314601067295443
1122.0,0.00838982321422142
1121.0,0.00845753915335668
1120.0,0.00851666925603148
1119.0,0.00856965944552097
1118.0,0.008617641843172071
1117.0,0.008659372798655874
1116.0,0.008694301686294134
1115.0,0.008723811222510919
1114.0,0.00874985155259199
1113.0,0.008774576215155316
1112.0,0.008800742743102751
1111.0,0.008830354570287571
1110.0,0.008863135365265803
1109.0,0.008897601349447231
1108.0,0.008933275431249138
1107.0,0.008970159533771569
1106.0,0.009007947915383702
1105.0,0.009047329391974073
1104.0,0.009090416736527397
1103.0,0.009138280774999645
1102.0,0.009189490235597921
1101.0,0.009242096082156655
1100.0,0.009296876261921333
1099.0,0.009353857572240153
1098.0,0.009411542788189836
1097.0,0.00946824455851354
1096.0,0.00952418640985179
1095.0,0.009580780246380018
1094.0,0.009638741436674383
1093.0,0.009697007356588535
1092.0,0.009751730105716816
1091.0,0.009796294377669568
1090.0,0.009824871491884497
1089.0,0.00983696164128002
1088.0,0.009837206671462845
1087.0,0.009830987121413672
1086.0,0.009821599253542387
1085.0,0.009810449950051026
1084.0,0.009796898764558084
1083.0,0.00977781943281825
1082.0,0.009750265196167777
1081.0,0.009715372213547594
1080.0,0.009677440882291373
1079.0,0.009638701659436155
1078.0,0.009597213283388457
1077.0,0.00955044812377983
1076.0,0.009498487472043276
1075.0,0.009442653851415067
1074.0,0.009383491477166786
1073.0,0.009322060735466894
1072.0,0.0092615614277899
1071.0,0.009205294582671162
1070.0,0.009153394033774284
1069.0,0.009103313059408355
1068.0,0.009053455932390974
1067.0,0.00900505789149565
1066.0,0.008960590978042832
1065.0,0.008921132673713984
1064.0,0.00888488357298328
1063.0,0.008847228954493521
1062.0,0.008802616706488176
1061.0,0.00874792058063273
1060.0,0.008684920152226728
1059.0,0.008619633839129889
1058.0,0.008559061378621686
1057.0,0.008507765918441927
1056.0,0.008466274952339824
1055.0,0.008431679885359972
1054.0,0.008400035940182978
1053.0,0.008369199082911404
1052.0,0.008339495891862026
1051.0,0.008311288410718392
1050.0,0.00828240327559072
1049.0,0.0082486609152092
1048.0,0.008206296066266825
1047.0,0.008153199051425662
1046.0,0.008089018492796468
1045.0,0.008015373354697089
1044.0,0.007935512032635338
1043.0,0.007852538858490847
1042.0,0.007767452889762383
1041.0,0.007679407486020537
1040.0,0.007588171557747015
1039.0,0.0074958165875121385
1038.0,0.007405670993431613
1037.0,0.0073200929536095805
1036.0,0.007239563195833888
1035.0,0.007163208268765998
1034.0,0.007089293584637273
1033.0,0.007015192515205897
1032.0,0.006937614537434172
1031.0,0.006853655347137432
1030.0,0.006762175739817532
1029.0,0.006664014802023891
1028.0,0.006560454505813223
1027.0,0.006451731038506393
1026.0,0.0063379139882801475
1025.0,0.006221261109663661
1024.0,0.006106327313400052
1023.0,0.005996684232856039
1022.0,0.005892272819986772
1021.0,0.00579108842164319
1020.0,0.005692642597103561
1019.0,0.005598166014647734
1018.0,0.005508151241531748
1017.0,0.005421835404484564
1016.0,0.005339085613853401
1015.0,0.005260933160041977
1014.0,0.00518813292249957
1013.0,0.005120749177198269
1012.0,0.0050590045638634
1011.0,0.005002784592401751
1010.0,0.004950240556257265
1009.0,0.0048983442642094996
1008.0,0.004844722700456785
1007.0,0.004787716561312387
1006.0,0.004725354332129308
1005.0,0.004656202146006395
1004.0,0.004580872221179228
1003.0,0.004500956654213719
1002.0,0.004417119856454316
1001.0,0.004330377263104074
1000.0,0.004244508857983026
999.0,0.004164098820519383
998.0,0.004089747725735085
997.0,0.0040178147685853635
996.0,0.003945520191313103
995.0,0.003873926580776384
994.0,0.0038052313202288504
993.0,0.0037396295619960924
992.0,0.003676117960608418
991.0,0.0036144913269179546
990.0,0.0035552059147589124
989.0,0.0034985479665308973
988.0,0.0034447908914476697
987.0,0.0033941298676597982
986.0,0.0033461019957208692
985.0,0.0033000393991157685
984.0,0.003255943189053921
983.0,0.0032138014610264953
982.0,0.0031726778071295763
981.0,0.0031320672452296765
980.0,0.0030933409420327174
979.0,0.0030577307891161472
978.0,0.0030236183166778433
977.0,0.002988368820560504
976.0,0.0029523334271781216
975.0,0.0029182235368855943
974.0,0.0028867382181848745
973.0,0.002855756888929411
972.0,0.0028241565221817236
971.0,0.0027936215172944074
970.0,0.0027659544896130213
969.0,0.0027408149237069255
968.0,0.002716652400115386
967.0,0.0026918524132768205
966.0,0.00266476342883417
965.0,0.0026349525575292444
964.0,0.0026049782911055034
963.0,0.0025788026169727453
962.0,0.0025577486169905753
961.0,0.002539549982974218
960.0,0.0025213562377557567
959.0,0.0025018679665303146
958.0,0.002480968412549827
957.0,0.0024597498990896784
956.0,0.002440906065468996
955.0,0.0024264817217418463
954.0,0.0024147546114839692
953.0,0.00240160094835885
952.0,0.0023853776528007156
951.0,0.002368313771562747
950.0,0.002352976330064438
949.0,0.0023398720706625173
948.0,0.0023289332480922005
947.0,0.002320732091678091
946.0,0.0023152673064995707
945.0,0.0023116005540065833
944.0,0.002309509984497511
943.0,0.0023097744918051666
942.0,0.0023122599738229672
941.0,0.002315313168396135
940.0,0.0023173623058049785
939.0,0.0023176309091171386
938.0,0.0023154333642792313
937.0,0.0023107853859844433
936.0,0.0023057447672825814
935.0,0.002302963058688005
934.0,0.0023024186397526047
933.0,0.0023012230432874732
932.0,0.0022966647683822046
931.0,0.0022876434773182585
930.0,0.002273564630182387
929.0,0.0022546107986538217
928.0,0.0022336267696917668
927.0,0.0022151681896140207
926.0,0.002201441197365806
925.0,0.0021907608625235985
924.0,0.002180578140067606
923.0,0.0021701511782140246
922.0,0.0021597539923918522
921.0,0.0021494378652216544
920.0,0.0021396502390764035
919.0,0.00213148112589949
918.0,0.0021253832943487734
917.0,0.002120840282858384
916.0,0.0021175458025381993
915.0,0.002115319459763461
914.0,0.0021126928251982815
913.0,0.002107596886890861
912.0,0.002100006013698228
911.0,0.0020918826811307783
910.0,0.0020837235564728496
909.0,0.002073099988394724
908.0,0.002057612824946353
907.0,0.0020376554315392056
906.0,0.0020154827862084133
905.0,0.001993195611020898
904.0,0.001972311012305856
903.0,0.0019534536039250263
902.0,0.0019356482891462056
901.0,0.0019177892751177645
900.0,0.0019016451233709098
899.0,0.0018910445220944724
898.0,0.001887257624977468
897.0,0.0018867854028032822
896.0,0.001885569562343288
895.0,0.0018834950002138673
894.0,0.001883273071928553
893.0,0.001886633665534139
892.0,0.0018934506997407758
891.0,0.0019032173942500493
890.0,0.0019153640798121375
889.0,0.0019289535255657929
888.0,0.0019438454292480824
887.0,0.0019616941963889185
886.0,0.0019844879579405776
885.0,0.0020128452723895433
884.0,0.0020473748700145736
883.0,0.002091284434669949
882.0,0.002149686604318516
881.0,0.002225250432601307
880.0,0.00231437684129067
879.0,0.0024073078655565015
878.0,0.0024924628557183312
877.0,0.002562528121474893
876.0,0.00261725887770794
875.0,0.002658968088821656
874.0,0.002683855233391527
873.0,0.002679223862467432
872.0,0.0026327367914315593
871.0,0.0025463171977780415
870.0,0.0024399069517227366
869.0,0.0023402130864340134
868.0,0.002265337152827263
867.0,0.0022184207887859875
866.0,0.0021920352541410035
865.0,0.0021764185700067808
864.0,0.002164683712376857
863.0,0.002153049169554947
862.0,0.0021389434348102554
861.0,0.002120459129115288
860.0,0.00209743666727115
859.0,0.0020717065235081626
858.0,0.0020453943995489623
857.0,0.002019405276391991
856.0,0.001993978254434936
855.0,0.001969902929311953
854.0,0.0019483473324819374
853.0,0.0019302121947932672
852.0,0.0019166237395853128
851.0,0.001909202166141947
850.0,0.0019083442116574812
849.0,0.0019117354487752669
848.0,0.001916239608162655
847.0,0.0019212116587967332
846.0,0.001928398749156227
845.0,0.0019386962907204327
844.0,0.0019509401983329143
843.0,0.0019642102312764625
842.0,0.001979180248673997
841.0,0.0019960680035613866
840.0,0.002013059674076133
839.0,0.002028440281962772
838.0,0.002043253614784221
837.0,0.0020603193907469657
836.0,0.002081226585219219
835.0,0.0021055542971246104
834.0,0.002132347635514384
833.0,0.0021608742552857354
832.0,0.002190279226458442
831.0,0.0022197888317984776
830.0,0.002249091584162359
829.0,0.0022776592812724277
828.0,0.0023043731977385436
827.0,0.0023289358287272204
826.0,0.002352558196349889
825.0,0.0023758807038708153
824.0,0.002398163031152742
823.0,0.0024205783015797313
822.0,0.0024472012910602718
821.0,0.0024793189774119616
820.0,0.00251172552849892
819.0,0.0025384579659308683
818.0,0.0025602849742020093
817.0,0.002583287435991782
816.0,0.0026113740379207296
815.0,0.0026432519743842973
814.0,0.0026756829250435196
813.0,0.002706043484827659
812.0,0.002731919492661946
811.0,0.0027522494565969903
810.0,0.002769891869036923
809.0,0.0027898712675161214
808.0,0.002814021106675387
807.0,0.002839708141993835
806.0,0.0028642113022720444
805.0,0.0028874492590388965
804.0,0.002910096192971134
803.0,0.002932319729428653
802.0,0.0029549941788888307
801.0,0.0029790928098562992
800.0,0.0030028597131576736
799.0,0.003022804162519004
798.0,0.003037885234171084
797.0,0.0030504293545057853
796.0,0.003062755284780409
795.0,0.0030754442946068408
794.0,0.0030886233955473366
793.0,0.0031018235922509003
792.0,0.003112806673651415
791.0,0.0031200711685815405
790.0,0.0031266911362934427
789.0,0.003138282545809775
788.0,0.003156765500170051
787.0,0.0031789359449721404
786.0,0.003201105443266338
785.0,0.003222080747224281
784.0,0.003241900885665571
783.0,0.003261039744203987
782.0,0.003280710857725408
781.0,0.003301075654751271
780.0,0.0033196074802813993
779.0,0.0033342132988731675
778.0,0.0033459787099567023
777.0,0.003355878268210593
776.0,0.0033615137522207666
775.0,0.003361450640797406
774.0,0.003360316392548769
773.0,0.0033643775932802643
772.0,0.0033739931838443335
771.0,0.0033853138439298193
770.0,0.0033968068801402693
769.0,0.003408496498908063
768.0,0.003417612668251249
767.0,0.0034220353187045726
766.0,0.0034259805308633085
765.0,0.003435080106728775
764.0,0.0034481750784131574
763.0,0.003461095953091047
762.0,0.0034751734916474665
761.0,0.0034937222790739726
760.0,0.00351361697945758
759.0,0.0035300330213507668
758.0,0.003546782482878013
757.0,0.0035713881793016412
756.0,0.003601941023365367
755.0,0.003630638567899228
754.0,0.003658688962884113
753.0,0.003693806097072207
752.0,0.003734175937305016
751.0,0.0037696184169449427
750.0,0.0037970750705560025
749.0,0.0038240882619583402
748.0,0.0038560858532105963
747.0,0.0038912057547780786
746.0,0.003931008941958384
745.0,0.0039819136637093385
744.0,0.0040423432913632255
743.0,0.004103418218407004
742.0,0.004164434977480054
741.0,0.004233264400355794
740.0,0.004314150535097174
739.0,0.0044123488181496235
738.0,0.004548611480537134
737.0,0.004753817857138364
736.0,0.005065439749684752
735.0,0.005572740251509832
734.0,0.006452374447297926
733.0,0.007861355615374576
732.0,0.009705321847723797
731.0,0.01152279293822304
730.0,0.012706446768239687
729.0,0.012932696692918253
728.0,0.012422912503702175
727.0,0.011741225525863552
726.0,0.011351268504510594
725.0,0.011439984860741204
724.0,0.012079940645234839
723.0,0.013406532416806258
722.0,0.015505564529282874
721.0,0.01807208095904437
720.0,0.020260048673517998
719.0,0.02112935426999119
718.0,0.020380943599465167
717.0,0.018490799511380985
716.0,0.016186453292265392
715.0,0.013999024840032865
714.0,0.012174435414406118
713.0,0.010759306156554937
712.0,0.009703834718407082
711.0,0.008919571429841821
710.0,0.008320214433568618
709.0,0.007842131798072482
708.0,0.007444978325898952
707.0,0.0071211091622663016
706.0,0.006858326677772688
705.0,0.006631937324105266
704.0,0.006440653533557593
703.0,0.006288133557408843
702.0,0.006163579823444858
701.0,0.006056487818676414
700.0,0.005953630873182847
699.0,0.00586253174284123
698.0,0.005783075565361928
697.0,0.005700666781738848
696.0,0.0056272899893413985
695.0,0.00556602931158907
694.0,0.005508759358351677
693.0,0.005451062511495365
692.0,0.005384341378251224
691.0,0.005322904683951527
690.0,0.005264351935807408
689.0,0.005190579672443352
688.0,0.005109838982402567
687.0,0.005034847661217374
686.0,0.0049725361383337625
685.0,0.004920879533705701
684.0,0.004869089108206656
683.0,0.004818980276834239
682.0,0.0047740076995806124
681.0,0.0047306484967780515
680.0,0.004688105701283338
679.0,0.004647919288197978
678.0,0.00460927893709933
677.0,0.0046010164192102415
676.0,0.004574814320219461
675.0,0.004583671137211727
674.0,0.00464265775583527
673.0,0.004540338921997074
672.0,0.0038071937248157824
671.0,0.0019788048942847277
670.0,-0.0008626090241836458
669.0,-0.0039029389418946707
668.0,-0.006548737331145698
667.0,-0.0071789568581257625
666.0,-0.0038988860674118364
665.0,0.00040984106593881407
664.0,0.0032053885432762547
663.0,0.004263313762864664
662.0,0.004353114440687861
661.0,0.004225886256876045
660.0,0.00416733200665106
659.0,0.0021362951223437418
658.0,0.002016928355920616
657.0,0.0019012645415688026
656.0,0.0018036726406322392
655.0,0.001745552942838357
654.0,0.001718443781959727
653.0,0.00168786150887806
652.0,0.0016306813402299173
651.0,0.00378372850947722
650.0,0.003800483537328661
649.0,0.0037892435295116284
648.0,0.0037235706500499295
647.0,0.003639957362034087
646.0,0.003563220473915869
645.0,0.00349359660985114
644.0,0.00342813173987957
643.0,0.003358943937967768
642.0,0.0032858440562029533
641.0,0.00321269534114169
640.0,0.0031454518589558843
639.0,0.003092403512087529
638.0,0.0030404051456920248
637.0,0.0029689089978228262
636.0,0.0028965270223546826
635.0,0.0028422320654936904
634.0,0.002786603398682047
633.0,0.0027057959074437386
632.0,0.002611806111530993
631.0,0.002536125344219305
630.0,0.0024837818127748275
629.0,0.0024244698446300042
628.0,0.002337547486031902
627.0,0.002238413043966005
626.0,0.0021388114963280134
625.0,0.0020553664482634015
624.0,0.0020009569164555364
623.0,0.001956077789577278
622.0,0.001889850835863579
621.0,0.0018219573725326114
620.0,0.0018098616416471125
619.0,0.0018488354771625344
618.0,0.001842775585244782
617.0,0.0017222082569431259
616.0,0.0015462713568524366
615.0,0.0014207140882591032
614.0,0.0013695859753372081
613.0,0.0013545392968480636
612.0,0.001357993671735453
611.0,0.001381319774534131
610.0,0.001395713162286807
609.0,0.0013653468065321006
608.0,0.0013093938241129132
607.0,0.0012875960465275997
606.0,0.0013053145909987128
605.0,0.0013192856803192288
604.0,0.0013022835956345673
603.0,0.0012612148654816769
602.0,0.001218332985245641
601.0,0.0011933724731266193
600.0,0.0011876270359388987
599.0,0.0011742836475202726
598.0,0.0011224046948008406
597.0,0.0010372569510642242
596.0,0.00095134427744311
595.0,0.0008726529803293401
594.0,0.0007766581898650165
593.0,0.000663617890288389
592.0,0.0005786345263366997
591.0,0.0005415923583046659
590.0,0.0004996910217832193
589.0,0.00040157503495963625
588.0,0.000277438328045063
587.0,0.000194649150338024
586.0,0.00016211562687510651
585.0,0.0001289448479782837
584.0,6.772192431858583e-05
583.0,-2.3095721033844496e-06
582.0,-7.195506377581477e-05
581.0,-0.0001644338693138469
580.0,-0.0002854870077267334
579.0,-0.00039405268001596865
578.0,-0.00045064363932885345
577.0,-0.00047094171322950226
576.0,-0.0005183284083012316
575.0,-0.0006494423074008774
574.0,-0.0008460122147629775
573.0,-0.0010108028542695413
572.0,-0.0010603443205272744
571.0,-0.0010235794839847535
570.0,-0.0010193381758795165
569.0,-0.0011010086825026322
568.0,-0.0011880873809445762
567.0,-0.0011944981610912953
566.0,-0.0011526114933102256
565.0,-0.0011442599387892077
564.0,-0.0011776663523387241
563.0,-0.0012129587778957184
562.0,-0.0012554165471597217
561.0,-0.001342086961733999
560.0,-0.0014558506277062002
559.0,-0.0015306553951158338
558.0,-0.001544136017377109
557.0,-0.0015483201031134272
556.0,-0.0015989066615116126
555.0,-0.0016950111043578919
554.0,-0.0017881674782201113
553.0,-0.0018286501442497478
552.0,-0.001806160237265494
551.0,-0.0017656828624506033
550.0,-0.0017753232884867073
