cm-1,A
4000.0,0.003814042238721102
3999.0,0.0038166786796295024
3998.0,0.003850997650186561
3997.0,0.003911998706150411
3996.0,0.003976867774192254
3995.0,0.004022601900319023
3994.0,0.004041912329992693
3993.0,0.004044045616442836
3992.0,0.004040738070783069
3991.0,0.00403332652921288
3990.0,0.0040180920935398
3989.0,0.0040004765542047405
3988.0,0.003998994021985896
3987.0,0.004028460150023649
3986.0,0.0040817311713794
3985.0,0.004133819938318385
3984.0,0.004162171345384984
3983.0,0.004163036492531419
3982.0,0.004152484380269071
3981.0,0.004150874162347577
3980.0,0.004166216907804148
3979.0,0.004187641606152367
3978.0,0.004191040142461317
3977.0,0.00415791165107271
3976.0,0.004095815944421689
3975.0,0.004040438964381256
3974.0,0.00403092878653896
3973.0,0.004078004656831042
3972.0,0.004157732403852896
3971.0,0.0042284174883287905
3970.0,0.004256993868311276
3969.0,0.004236987588593052
3968.0,0.004185959524912339
3967.0,0.004131657391649795
3966.0,0.004095194097748112
3965.0,0.0040880473757624845
3964.0,0.004113412004048621
3963.0,0.004160710423579694
3962.0,0.0042044945467528735
3961.0,0.004221755123406732
3960.0,0.004212597892423784
3959.0,0.004195750421285014
3958.0,0.00417728093569021
3957.0,0.004146258091267048
3956.0,0.004098213993957557
3955.0,0.004047569268688973
3954.0,0.00401111765566233
3953.0,0.003990641167576449
3952.0,0.003978277984909724
3951.0,0.003973452625214612
3950.0,0.003986528399390893
3949.0,0.004011772398140037
3948.0,0.004013953017642893
3947.0,0.0039704867893942414
3946.0,0.0039202438567853565
3945.0,0.0039278060030028435
3944.0,0.004018924473661284
3943.0,0.004155689037572033
3942.0,0.004255548224144704
3941.0,0.004287340956322652
3940.0,0.0043065505661694075
3939.0,0.004354849870350732
3938.0,0.004403803490977541
3937.0,0.004413016623100802
3936.0,0.004382764091032059
3935.0,0.004334945135305334
3934.0,0.0042784439640048185
3933.0,0.004226599866143949
3932.0,0.004218903788172027
3931.0,0.004273926785203061
3930.0,0.004354854854316885
3929.0,0.004396326983979402
3928.0,0.004353818265243814
3927.0,0.004249681219723472
3926.0,0.004149522310267514
3925.0,0.004099386918200054
3924.0,0.004077180734881154
3923.0,0.004048352234380652
3922.0,0.004042055354187921
3921.0,0.0040775135803331145
3920.0,0.00414096725776433
3919.0,0.004246532748650127
3918.0,0.004391869054338882
3917.0,0.004512935009514692
3916.0,0.004555702260881173
3915.0,0.004563572576181955
3914.0,0.004622752849661509
3913.0,0.004734001447005328
3912.0,0.004817132495995118
3911.0,0.004823803265820676
3910.0,0.004761745122770311
3909.0,0.0046624874966519035
3908.0,0.0045309123423458685
3907.0,0.004358265844577873
3906.0,0.004147019630459889
3905.0,0.003928967100673397
3904.0,0.003743682035025918
3903.0,0.0036289431529045683
3902.0,0.0036602313535079242
3901.0,0.00388033104763426
3900.0,0.004173128817221466
3899.0,0.0043527372933141965
3898.0,0.004381877166120205
3897.0,0.004382128363773198
3896.0,0.0044256216396486876
3895.0,0.004452204258777317
3894.0,0.004415856281205211
3893.0,0.004374393280569107
3892.0,0.004369078975865004
3891.0,0.004295542374858132
3890.0,0.004082060228869991
3889.0,0.003938379515743455
3888.0,0.004024479376997675
3887.0,0.004219349568170357
3886.0,0.0043558572262049015
3885.0,0.004326811120154291
3884.0,0.0041564032182636775
3883.0,0.0040954937385440544
3882.0,0.004253150693566554
3881.0,0.004470293153058009
3880.0,0.00454994226032086
3879.0,0.004426376412982942
3878.0,0.004303071556052772
3877.0,0.004365404461100212
3876.0,0.00449535493832739
3875.0,0.004509139185469163
3874.0,0.004344940460006866
3873.0,0.0040821487628785146
3872.0,0.003947152572340863
3871.0,0.00408491059941919
3870.0,0.004322904116594596
3869.0,0.004335898118284935
3868.0,0.004162499954115698
3867.0,0.004149422816182587
3866.0,0.004281810749537407
3865.0,0.004332936982775957
3864.0,0.004329798044608382
3863.0,0.004385655437856793
3862.0,0.004507879264734668
3861.0,0.004627913929342852
3860.0,0.004636144817902355
3859.0,0.00449339792948584
3858.0,0.004225224932907976
3857.0,0.0038938836156331546
3856.0,0.0036065887902313448
3855.0,0.0035926745421384684
3854.0,0.004108799145914532
3853.0,0.004655062509707359
3852.0,0.004446802073064254
3851.0,0.004108116676877055
3850.0,0.0043015263119230845
3849.0,0.004656541316682902
3848.0,0.0048105683609447735
3847.0,0.004800757793121033
3846.0,0.004752356907927345
3845.0,0.004703209972775782
3844.0,0.004609331361450695
3843.0,0.004378523362489936
3842.0,0.003990692867898542
3841.0,0.003597637965133061
3840.0,0.0034018609116741663
3839.0,0.0034875713406780934
3838.0,0.0037036918026323185
3837.0,0.003837843518180093
3836.0,0.0038896775148919687
3835.0,0.004013390965842415
3834.0,0.0042650505650574325
3833.0,0.004576351550822979
3832.0,0.004833020227237715
3831.0,0.0049375834293954295
3830.0,0.0048987888129733495
3829.0,0.004826622690195563
3828.0,0.0048023517722474585
3827.0,0.004797129821917712
3826.0,0.004707887393760175
3825.0,0.004503847268646218
3824.0,0.004286695020000047
3823.0,0.0041430194071140885
3822.0,0.004126842891263376
3821.0,0.0042221449846057465
3820.0,0.00415983269552977
3819.0,0.00406013819668115
3818.0,0.004309141310910418
3817.0,0.004745323096740941
3816.0,0.004987778059084505
3815.0,0.004898537534595697
3814.0,0.00474882946294887
3813.0,0.004886961202887466
3812.0,0.005179636844604412
3811.0,0.005299167703745458
3810.0,0.0052327603798279256
3809.0,0.005180265911182659
3808.0,0.005248213233788639
3807.0,0.005281774281276583
3806.0,0.005037538560209649
3805.0,0.00464447749562622
3804.0,0.004450230698164704
3803.0,0.004503990350188232
3802.0,0.004683152208174923
3801.0,0.004727721983567501
3800.0,0.004453890948298334
3799.0,0.00426464699901819
3798.0,0.004422462293669407
3797.0,0.0046587999915480155
3796.0,0.004756296474362027
3795.0,0.00476055933077473
3794.0,0.004837545985982633
3793.0,0.005034369846087345
3792.0,0.005229366979525923
3791.0,0.0053321430355228305
3790.0,0.005372545077619658
3789.0,0.005384472417064457
3788.0,0.005347834375890086
3787.0,0.005248780766686514
3786.0,0.005129366811109672
3785.0,0.005039263148057107
3784.0,0.004972699712473933
3783.0,0.004910402010738673
3782.0,0.004879566011086052
3781.0,0.004906634464580834
3780.0,0.004992390937025783
3779.0,0.005086072672091109
3778.0,0.0051085540140712715
3777.0,0.005114978298756692
3776.0,0.005201580467483513
3775.0,0.005318932786011078
3774.0,0.0053671953924359205
3773.0,0.005333097036975421
3772.0,0.00525957355187971
3771.0,0.005170427605609304
3770.0,0.005051665293491554
3769.0,0.004896543668088204
3768.0,0.0047818991971147595
3767.0,0.00480264085554972
3766.0,0.004901290023735254
3765.0,0.0049342544475312
3764.0,0.004858981493781094
3763.0,0.004784055496768675
3762.0,0.004791469047918148
3761.0,0.004822536117480215
3760.0,0.0048348168477730605
3759.0,0.004842993388987679
3758.0,0.004808516722930124
3757.0,0.00469214212146744
3756.0,0.00451713532300976
3755.0,0.004307033769635683
3754.0,0.0040313606984146
3753.0,0.003691955963467818
3752.0,0.003486223569623744
3751.0,0.0035941955429478808
3750.0,0.0037428009485787894
3749.0,0.003677893728783549
3748.0,0.0036367262064293648
3747.0,0.003874573369687261
3746.0,0.00432481020644929
3745.0,0.004761243664407319
3744.0,0.004818011084708111
3743.0,0.004391043831406243
3742.0,0.004122402213637038
3741.0,0.004305460103464928
3740.0,0.004461352673063565
3739.0,0.004323373269553555
3738.0,0.0040499565074298485
3737.0,0.003883058725470503
3736.0,0.003939088780429598
3735.0,0.0040933847044333956
3734.0,0.004163766409905914
3733.0,0.004218655950672794
3732.0,0.004340527017665298
3731.0,0.004441138380197522
3730.0,0.004494379804282196
3729.0,0.004544772884497962
3728.0,0.0045688101441880655
3727.0,0.00451985363085757
3726.0,0.004397867762179536
3725.0,0.0042400636081186115
3724.0,0.004123886250787393
3723.0,0.004097992476353493
3722.0,0.00416524415742053
3721.0,0.004322810441742167
3720.0,0.004560383544025026
3719.0,0.0048293884832772485
3718.0,0.005018735238791901
3717.0,0.00503429647174037
3716.0,0.0048903492863404865
3715.0,0.0046758913456522565
3714.0,0.00446287214651128
3713.0,0.004335823012286176
3712.0,0.00441101446401518
3711.0,0.004602110671791974
3710.0,0.0046968565150108735
3709.0,0.004765947334047281
3708.0,0.0049563749211382156
3707.0,0.0052178592647781335
3706.0,0.00544054416542874
3705.0,0.005600225744808854
3704.0,0.005734256906276179
3703.0,0.00588711086850415
3702.0,0.006086398745612105
3701.0,0.006301793797239236
3700.0,0.006494927531638195
3699.0,0.00668550032295631
3698.0,0.006849215710809504
3697.0,0.006896113686260388
3696.0,0.006806537132588693
3695.0,0.006654994509428795
3694.0,0.006500224840636259
3693.0,0.006333813927123641
3692.0,0.006181103861660703
3691.0,0.006162299112973765
3690.0,0.006281651982391506
3689.0,0.00626439368883867
3688.0,0.005938003358920578
3687.0,0.005594211986299212
3686.0,0.005567627916765147
3685.0,0.0057984413285608275
3684.0,0.006016295554395538
3683.0,0.006088261317536146
3682.0,0.006065497473208812
3681.0,0.006014247403368882
3680.0,0.005892677019061777
3679.0,0.005642757780227778
3678.0,0.005354404345966032
3677.0,0.0052136843488136235
3676.0,0.005337399720842018
3675.0,0.005407069211817796
3674.0,0.005144779174139986
3673.0,0.005029153940397111
3672.0,0.005258101460847852
3671.0,0.0054779860559891706
3670.0,0.005583225819455043
3669.0,0.005574988285567701
3668.0,0.005556761367985743
3667.0,0.005776192006697824
3666.0,0.006131196085566169
3665.0,0.0063590335019348965
3664.0,0.0064198609665342375
3663.0,0.006426426078154201
3662.0,0.006455572367987522
3661.0,0.006489122207618813
3660.0,0.006488772332071551
3659.0,0.006463756915764205
3658.0,0.006449228883492034
3657.0,0.00644217005519427
3656.0,0.006369719309489303
3655.0,0.006179972776723511
3654.0,0.005989245746872483
3653.0,0.0058422435702944215
3652.0,0.005557811004508228
3651.0,0.005108531837169427
3650.0,0.004889221477417813
3649.0,0.0050945493066751595
3648.0,0.005337154289870728
3647.0,0.005476142177570207
3646.0,0.00570272861059053
3645.0,0.006047553759504739
3644.0,0.006403321297318937
3643.0,0.006661320753058756
3642.0,0.006765416900257322
3641.0,0.006730335091466229
3640.0,0.006635351983501219
3639.0,0.006570322479015501
3638.0,0.006556922435389205
3637.0,0.006575077562819644
3636.0,0.006624785725404054
3635.0,0.006685915175643771
3634.0,0.006680517415736477
3633.0,0.0065404653998233225
3632.0,0.006310755090147337
3631.0,0.006097998999430278
3630.0,0.0060663204256143095
3629.0,0.0063500902045112665
3628.0,0.006611258113805068
3627.0,0.006661917511059176
3626.0,0.0068751001788650064
3625.0,0.0072209528757848016
3624.0,0.00739393363116839
3623.0,0.007373885233739974
3622.0,0.007318594604848462
3621.0,0.0073425317248516295
3620.0,0.007431036838712192
3619.0,0.007447223246865774
3618.0,0.007268726023969396
3617.0,0.007022942277972299
3616.0,0.006922680244401616
3615.0,0.006985503849634905
3614.0,0.007093577433346708
3613.0,0.007124203141659393
3612.0,0.007051109447606967
3611.0,0.006979494105729239
3610.0,0.007003973972109986
3609.0,0.0070980334684453365
3608.0,0.007184052836116438
3607.0,0.007222876022561959
3606.0,0.007266468450392907
3605.0,0.007376270512783134
3604.0,0.007507939131806212
3603.0,0.007586737660059623
3602.0,0.0075927107100034336
3601.0,0.007526349388348801
3600.0,0.007392778460479397
3599.0,0.007253077386309705
3598.0,0.007197106777847221
3597.0,0.007243633600005461
3596.0,0.007341781235910562
3595.0,0.007428914917307208
3594.0,0.007469657899842205
3593.0,0.007466558384622237
3592.0,0.007456546685376106
3591.0,0.0074602063431226506
3590.0,0.0074852855888179
3589.0,0.007585995200760422
3588.0,0.007817636783694758
3587.0,0.008033274544095125
3586.0,0.00805809131093827
3585.0,0.008017272899680357
3584.0,0.008056619591684433
3583.0,0.008130339743670821
3582.0,0.008185918543986237
3581.0,0.008237843319760444
3580.0,0.008295829857109888
3579.0,0.008343293325900857
3578.0,0.00838813655819828
3577.0,0.00846330063773891
3576.0,0.008578516571269845
3575.0,0.008693717680589918
3574.0,0.008757459294419704
3573.0,0.008749072122864418
3572.0,0.008671199904185346
3571.0,0.008524736174587383
3570.0,0.008327711337467205
3569.0,0.008170304055695207
3568.0,0.008209365907810698
3567.0,0.008421886234086714
3566.0,0.008510499103478411
3565.0,0.008396009632080268
3564.0,0.008323010497552682
3563.0,0.008428736765299117
3562.0,0.008664488159562198
3561.0,0.00893451470515259
3560.0,0.009152710412960566
3559.0,0.009275792337933056
3558.0,0.00931759784451046
3557.0,0.009311109681624337
3556.0,0.009278428176937383
3555.0,0.009248834957122734
3554.0,0.009260958751268046
3553.0,0.009320365440893093
3552.0,0.00937024265833636
3551.0,0.009363130341833628
3550.0,0.009325176781328822
3549.0,0.00929994880399864
3548.0,0.009298229150625115
3547.0,0.009335668280279368
3546.0,0.00943540192661794
3545.0,0.009571842761314205
3544.0,0.009689371770274213
3543.0,0.009775264309450016
3542.0,0.009862282364130908
3541.0,0.0099788089400706
3540.0,0.01011466856738414
3539.0,0.01023688048605473
3538.0,0.010330808758848809
3537.0,0.010411471663127569
3536.0,0.0104823383084321
3535.0,0.010511737158663057
3534.0,0.01047057600214234
3533.0,0.010366438582879318
3532.0,0.010235441297258922
3531.0,0.010119169133009724
3530.0,0.010054805366337379
3529.0,0.010066261766507729
3528.0,0.010156020026330623
3527.0,0.010299571244430743
3526.0,0.010452136212503203
3525.0,0.010567007513786931
3524.0,0.010623816860247486
3523.0,0.010645207340498383
3522.0,0.010680023257728962
3521.0,0.01076457010487196
3520.0,0.010892448813901813
3519.0,0.01102329967194652
3518.0,0.011121216232652133
3517.0,0.011181233445483996
3516.0,0.011221080414479973
3515.0,0.011254462920390267
3514.0,0.01128204013812742
3513.0,0.011305261068660394
3512.0,0.011337608098388536
3511.0,0.011393308809364594
3510.0,0.011467241067069988
3509.0,0.011525303625911802
3508.0,0.011532974900917242
3507.0,0.011498349109168485
3506.0,0.01147018683902849
3505.0,0.01150039242720845
3504.0,0.011606890128831277
3503.0,0.011745035753203629
3502.0,0.011848459798157098
3501.0,0.011908570259015292
3500.0,0.011955938778915917
3499.0,0.01199166591077467
3498.0,0.011996174815105315
3497.0,0.011978710330084203
3496.0,0.01198153872554263
3495.0,0.012033518802868313
3494.0,0.012120864172838423
3493.0,0.012208391740239924
3492.0,0.012265499686404467
3491.0,0.01227251512903282
3490.0,0.012236892593592914
3489.0,0.012212865377545273
3488.0,0.0122662261175828
3487.0,0.012392704089235426
3486.0,0.012499532332988363
3485.0,0.012498163783177505
3484.0,0.012401597721442989
3483.0,0.012310175366777271
3482.0,0.012303742007296663
3481.0,0.012370981794110995
3480.0,0.012457554656021483
3479.0,0.012541481466373617
3478.0,0.012629267122481105
3477.0,0.012714812551270493
3476.0,0.012782768129109678
3475.0,0.012836225326193985
3474.0,0.012888847838698727
3473.0,0.012932373912255293
3472.0,0.01293525961092842
3471.0,0.012883873933807643
3470.0,0.01281898966197825
3469.0,0.012815440254570324
3468.0,0.01291003825684479
3467.0,0.013055481923744443
3466.0,0.013162631533642909
3465.0,0.013190148854656965
3464.0,0.013178194102444096
3463.0,0.01319026882455944
3462.0,0.013238697315239495
3461.0,0.013286839369798124
3460.0,0.01331378353516744
3459.0,0.013343203857401838
3458.0,0.013402058245197798
3457.0,0.013481167557129685
3456.0,0.013554691056959434
3455.0,0.013621550906296222
3454.0,0.013700358901724878
3453.0,0.013783406352632421
3452.0,0.013824933910608742
3451.0,0.013791773747287468
3450.0,0.013714631144420304
3449.0,0.013670065448099587
3448.0,0.01370995788573355
3447.0,0.01380346043483359
3446.0,0.013869143813908566
3445.0,0.013874911828366737
3444.0,0.01386629563290907
3443.0,0.013899869555490978
3442.0,0.013979610659453585
3441.0,0.014056883298114182
3440.0,0.01409382703755676
3439.0,0.014109457252313322
3438.0,0.014144291868058781
3437.0,0.014200963206301383
3436.0,0.014242082198315749
3435.0,0.014246883503662922
3434.0,0.014247543876443555
3433.0,0.01429270387690278
3432.0,0.014391221657510948
3431.0,0.014504851925343842
3430.0,0.014588705673863119
3429.0,0.014628898219223613
3428.0,0.014647970577211993
3427.0,0.014678563293211835
3426.0,0.014728621671794465
3425.0,0.014771088774049417
3424.0,0.014774178260987474
3423.0,0.014742623344101122
3422.0,0.01471825399923454
3421.0,0.014737760431714486
3420.0,0.014803068185921007
3419.0,0.014895343932289081
3418.0,0.01499309973215111
3417.0,0.015067351898740467
3416.0,0.01508815218466127
3415.0,0.015057503550937924
3414.0,0.015023249622367358
3413.0,0.015040381843562569
3412.0,0.015122384000511607
3411.0,0.015240449098803694
3410.0,0.015357741483327997
3409.0,0.015448074517506426
3408.0,0.015491908250489062
3407.0,0.015481821817561883
3406.0,0.015439601956776974
3405.0,0.01541120507828904
3404.0,0.015428645436946577
3403.0,0.015478288790253533
3402.0,0.015517102261846508
3401.0,0.015521154431268662
3400.0,0.015505517241882049
3399.0,0.015493042911733989
3398.0,0.015481186953177968
3397.0,0.015452775090753702
3396.0,0.01540985789158051
3395.0,0.015375338964981507
3394.0,0.01536191656604654
3393.0,0.01536213142278903
3392.0,0.015376761792950992
3391.0,0.015430429949859957
3390.0,0.015537126583642126
3389.0,0.01565906355586314
3388.0,0.015721592998826552
3387.0,0.015677362320364152
3386.0,0.015554455477302352
3385.0,0.015441954770887865
3384.0,0.015424291683676487
3383.0,0.015515461183664182
3382.0,0.015646352039909984
3381.0,0.01572269329040994
3380.0,0.015710607644262572
3379.0,0.01566763261342648
3378.0,0.015679045604244806
3377.0,0.015766498132842297
3376.0,0.015874910972639954
3375.0,0.015941169203897224
3374.0,0.01595137694375665
3373.0,0.01592715098704742
3372.0,0.01588339746828392
3371.0,0.015823980646097063
3370.0,0.015769136186256177
3369.0,0.01575737888178529
3368.0,0.01580558551703228
3367.0,0.015880475419637354
3366.0,0.015926486131970348
3365.0,0.015921264738949215
3364.0,0.015893813374142564
3363.0,0.015890134621041545
3362.0,0.01593260319174945
3361.0,0.016014686102021218
3360.0,0.016119622580940466
3359.0,0.01622646551031111
3358.0,0.016301959383389533
3357.0,0.01631151769338261
3356.0,0.016253999780787134
3355.0,0.016172407265837716
3354.0,0.016111825264724353
3353.0,0.016074604431845146
3352.0,0.01603524347874806
3351.0,0.015993052775554604
3350.0,0.015984083517526816
3349.0,0.016032436224766078
3348.0,0.016110752664313256
3347.0,0.01616646541259653
3346.0,0.016175927940510305
3345.0,0.01616083401115882
3344.0,0.016161133766443153
3343.0,0.016202461352038112
3342.0,0.016278932036432762
3341.0,0.01635061223693019
3340.0,0.016363818223094264
3339.0,0.01629464159112311
3338.0,0.016179623263621
3337.0,0.016090917000641476
3336.0,0.01607237110840265
3335.0,0.016107879406404693
3334.0,0.01615517901083429
3333.0,0.016193864035259003
3332.0,0.016230620331922595
3331.0,0.016271344789091407
3330.0,0.016303942043481276
3329.0,0.016308330385225202
3328.0,0.016275546476816276
3327.0,0.01621682866648476
3326.0,0.016157848438365204
3325.0,0.01612246432525352
3324.0,0.016116979117388335
3323.0,0.0161299676036032
3322.0,0.01614980589244465
3321.0,0.016177992265102737
3320.0,0.01621941321756905
3319.0,0.016265078128464235
3318.0,0.01629758716035018
3317.0,0.016313861170523733
3316.0,0.0163279870841628
3315.0,0.01634593955166093
3314.0,0.01635267479623388
3313.0,0.016336250536100577
3312.0,0.016311460643631464
3311.0,0.016298353585323215
3310.0,0.016282365262483015
3309.0,0.01622260130647638
3308.0,0.0161100586691988
3307.0,0.015996721991992556
3306.0,0.015948756908900127
3305.0,0.015981962212155167
3304.0,0.016056187424109993
3303.0,0.016122405583622657
3302.0,0.01615936041232178
3301.0,0.016169409487997888
3300.0,0.016160014989279756
3299.0,0.016141534157287196
3298.0,0.016134010068614126
3297.0,0.01616081562482538
3296.0,0.016229319969935277
3295.0,0.01631748526465913
3294.0,0.016381298333753225
3293.0,0.016381465407718076
3292.0,0.016312575126175018
3291.0,0.01621014822083085
3290.0,0.01612583616687377
3289.0,0.016090834395077427
3288.0,0.016099462309121553
3287.0,0.01612355944895639
3286.0,0.016139073660047087
3285.0,0.0161390742402638
3284.0,0.016125753218170686
3283.0,0.01609615656900494
3282.0,0.016043177281803683
3281.0,0.015972575340072508
3280.0,0.01590836058666006
3279.0,0.015870449336136905
3278.0,0.015850670528167275
3277.0,0.01582226415258586
3276.0,0.015772825977892223
3275.0,0.015716896887682325
3274.0,0.015675194698945346
3273.0,0.015655761586858337
3272.0,0.015660309854702147
3271.0,0.01569235098936483
3270.0,0.01574631737324905
3269.0,0.01579873815694163
3268.0,0.015825038503182336
3267.0,0.01582313002325847
3266.0,0.015811341837559004
3265.0,0.01580380499184448
3264.0,0.015793612211038848
3263.0,0.015758066906432982
3262.0,0.01568028338787969
3261.0,0.015573170441041412
3260.0,0.015480039486078897
3259.0,0.01543665154061636
3258.0,0.015429948678720665
3257.0,0.015412714557649958
3256.0,0.015366735479878598
3255.0,0.015331471820889994
3254.0,0.015351096353563094
3253.0,0.01541074815732553
3252.0,0.015453536051549824
3251.0,0.015449177837831774
3250.0,0.015415394311296862
3249.0,0.015375715234552372
3248.0,0.015327262377820679
3247.0,0.015259547467489268
3246.0,0.015183417392114654
3245.0,0.015124622111985907
3244.0,0.015098190655806035
3243.0,0.015100644139369901
3242.0,0.01512015134079358
3241.0,0.015144099130010125
3240.0,0.015159117407227946
3239.0,0.01514776891583506
3238.0,0.015087588614983272
3237.0,0.01496485981389847
3236.0,0.014803011255479604
3235.0,0.014670298525797706
3234.0,0.014632728965635125
3233.0,0.014689476642972595
3232.0,0.014769895311108963
3231.0,0.014801612567125966
3230.0,0.014769021222681446
3229.0,0.014702584443473828
3228.0,0.014635549163129057
3227.0,0.01458740929028901
3226.0,0.01456848129573176
3225.0,0.014572291923811924
3224.0,0.014568753073594332
3223.0,0.01452784367509699
3222.0,0.014454117156915958
3221.0,0.014384725314477171
3220.0,0.014349439677474617
3219.0,0.014341821906000696
3218.0,0.014334199269313501
3217.0,0.014311962567699739
3216.0,0.014286262932753563
3215.0,0.014277886631833544
3214.0,0.014291009273086148
3213.0,0.014303708451765169
3212.0,0.014291923862995156
3211.0,0.01426425436686135
3210.0,0.014259996866681134
3209.0,0.01430044549772258
3208.0,0.014350764241937031
3207.0,0.0143489935686449
3206.0,0.014271814179852373
3205.0,0.014157561324091076
3204.0,0.014066662232960377
3203.0,0.014032986188933696
3202.0,0.014052596922624293
3201.0,0.014098853942522634
3200.0,0.014135782424308442
3199.0,0.014131194836641
3198.0,0.014076813477447131
3197.0,0.013996996301543857
3196.0,0.01392838793254889
3195.0,0.013891314104378036
3194.0,0.013882939120054744
3193.0,0.01388881183303248
3192.0,0.013891853238853509
3191.0,0.013876402680701658
3190.0,0.013836913831594546
3189.0,0.01378527208278061
3188.0,0.013742087339919929
3187.0,0.013715212672602312
3186.0,0.013689403063527818
3185.0,0.013640870712176546
3184.0,0.013563154012049359
3183.0,0.013478893501593436
3182.0,0.013423406331091195
3181.0,0.013411702353361622
3180.0,0.013419634265591854
3179.0,0.013402576384513767
3178.0,0.013337812463120088
3177.0,0.013246269672795682
3176.0,0.013168602398975573
3175.0,0.013125379508253106
3174.0,0.013107043829761612
3173.0,0.013096157761544304
3172.0,0.013087539971915179
3171.0,0.013085219275790858
3170.0,0.01308891854634901
3169.0,0.013089908620736255
3168.0,0.013077289055910598
3167.0,0.013044049797006543
3166.0,0.012990481754711857
3165.0,0.012926762644723543
3164.0,0.012869178045670181
3163.0,0.01282572490647678
3162.0,0.012782744684857496
3161.0,0.012711849885687854
3160.0,0.012596925948749005
3159.0,0.012453896668758513
3158.0,0.012319397103247254
3157.0,0.012221089163828382
3156.0,0.012163967934528647
3155.0,0.01214383577325023
3154.0,0.012162137092861954
3153.0,0.012219639016389672
3152.0,0.012301676104124828
3151.0,0.012378735504670346
3150.0,0.0124221491316625
3149.0,0.012417195560427117
3148.0,0.01236637408489277
3147.0,0.012286462546763771
3146.0,0.012198688684182547
3145.0,0.012114227278315019
3144.0,0.012031619405417377
3143.0,0.011955468944756475
3142.0,0.011910796634340392
3141.0,0.011923720106789826
3140.0,0.011985220421684942
3139.0,0.012046229450241922
3138.0,0.01205890870955234
3137.0,0.012018939637342414
3136.0,0.011961483877257414
3135.0,0.01192281610589092
3134.0,0.01191235660384898
3133.0,0.011912143411118216
3132.0,0.011891696112609826
3131.0,0.011829135143082264
3130.0,0.011732428991063328
3129.0,0.011642988224276592
3128.0,0.011605095571276362
3127.0,0.011618884665885443
3126.0,0.01162967597669609
3125.0,0.011574480083689505
3124.0,0.011439462448177163
3123.0,0.01127147615814927
3122.0,0.011136633744280757
3121.0,0.011072255066180557
3120.0,0.011074301672650388
3119.0,0.011113234577729555
3118.0,0.011151659533735776
3117.0,0.011158531279130681
3116.0,0.011123381952475262
3115.0,0.011060500853245886
3114.0,0.010993799310792361
3113.0,0.010936037012046542
3112.0,0.010887348554953966
3111.0,0.010852528062139061
3110.0,0.01084744945533634
3109.0,0.01087930766526202
3108.0,0.010925494305536049
3107.0,0.010944479354670232
3106.0,0.010912490546145953
3105.0,0.010844792387622565
3104.0,0.010780347340189442
3103.0,0.010748141801660142
3102.0,0.010745970430313298
3101.0,0.010745828136073908
3100.0,0.010718477917902005
3099.0,0.010657041503210053
3098.0,0.01058297496558803
3097.0,0.010535301052592665
3096.0,0.010547120031789668
3095.0,0.010614938424830541
3094.0,0.01068842938611946
3093.0,0.01070554513433527
3092.0,0.010649394479737017
3091.0,0.010568188758871163
3090.0,0.010527943084471691
3089.0,0.010546158016867029
3088.0,0.010580864034399746
3087.0,0.01058214381119251
3086.0,0.010541561557929999
3085.0,0.010484964206313757
3084.0,0.01043400004746426
3083.0,0.01039001959243948
3082.0,0.010347313864282653
3081.0,0.01030710523988013
3080.0,0.010274775022431034
3079.0,0.010251263016587889
3078.0,0.010233583448011094
3077.0,0.010222197880866023
3076.0,0.010222213799155047
3075.0,0.010234541106832995
3074.0,0.010246195570807106
3073.0,0.01023390017716466
3072.0,0.010183855629849185
3071.0,0.0101082870545026
3070.0,0.010038899223999432
3069.0,0.010002777458584784
3068.0,0.010005937866682439
3067.0,0.010034897987701597
3066.0,0.0100652112186689
3065.0,0.010072228088207236
3064.0,0.010047108421173423
3063.0,0.01000756896011764
3062.0,0.00998277953850613
3061.0,0.009982529869997366
3060.0,0.009988623553803484
3059.0,0.009979682603409519
3058.0,0.009957751331294184
3057.0,0.009941743406671926
3056.0,0.009937863104719604
3055.0,0.009926959769232942
3054.0,0.009883523101068534
3053.0,0.009803547488007656
3052.0,0.009712444043091448
3051.0,0.009646098433603487
3050.0,0.00962204486662908
3049.0,0.00962619916868489
3048.0,0.009628746842671192
3047.0,0.009611541464211256
3046.0,0.00957576989106355
3045.0,0.009528744761913599
3044.0,0.009473746313050806
3043.0,0.009413811813210254
3042.0,0.009357942413748387
3041.0,0.009318053120038595
3040.0,0.00930114954842916
3039.0,0.009304160817569575
3038.0,0.009311162339585916
3037.0,0.009298116706828816
3036.0,0.009250456992205
3035.0,0.009179819297285504
3034.0,0.009116693976717688
3033.0,0.009082333931031437
3032.0,0.009075685104095964
3031.0,0.009088970106010208
3030.0,0.009122726107432243
3029.0,0.009174577961216838
3028.0,0.009224060554190608
3027.0,0.009246941714299408
3026.0,0.00924301544907341
3025.0,0.009234331145075042
3024.0,0.00923286263080146
3023.0,0.009224840175619874
3022.0,0.00919096856556663
3021.0,0.00912862498955659
3020.0,0.009047665743572826
3019.0,0.008958407075647464
3018.0,0.008876658173225688
3017.0,0.008829484815592125
3016.0,0.008833940769287806
3015.0,0.008868940930675235
3014.0,0.00888645083920704
3013.0,0.008860053246149089
3012.0,0.008813584246921656
3011.0,0.00879103933893791
3010.0,0.008808487937313531
3009.0,0.008846345729479767
3008.0,0.008880989977372513
3007.0,0.008908909086724011
3006.0,0.008940813208071389
3005.0,0.008987309600939833
3004.0,0.009049807447182841
3003.0,0.009113384027745036
3002.0,0.009147333704421137
3001.0,0.009129248842656501
3000.0,0.009078485548874818
2999.0,0.0090495103211381
2998.0,0.009080337123549961
2997.0,0.009155969008143226
2996.0,0.009233611018818741
2995.0,0.009292833812395856
2994.0,0.009344713668290932
2993.0,0.009404873205355647
2992.0,0.009479272681101642
2991.0,0.009575162797031541
2990.0,0.009702866670845653
2989.0,0.009861090908333061
2988.0,0.010037593245487234
2987.0,0.010230053042921971
2986.0,0.010452979196218728
2985.0,0.01071794813277657
2984.0,0.011021522028211923
2983.0,0.01136144607020929
2982.0,0.011754499818550547
2981.0,0.012226313537267086
2980.0,0.012786814858068953
2979.0,0.013423561711080983
2978.0,0.014121084820041763
2977.0,0.014888258144164581
2976.0,0.01576939534882522
2975.0,0.01682738770238853
2974.0,0.018108447705054757
2973.0,0.0196230939289641
2972.0,0.02136454229457024
2971.0,0.0233363567641654
2970.0,0.025549051152840226
2969.0,0.02799817432818015
2968.0,0.030666800631307604
2967.0,0.033542626268600745
2966.0,0.036603539441541454
2965.0,0.0397734760713914
2964.0,0.04290351957286624
2963.0,0.04580366023218753
2962.0,0.048288569568567585
2961.0,0.05021687312981723
2960.0,0.0515286135732333
2959.0,0.05227203486342537
2958.0,0.052606742785311106
2957.0,0.05277975080088847
2956.0,0.05307398487216158
2955.0,0.053728900159454696
2954.0,0.054829234637454496
2953.0,0.05622541124827036
2952.0,0.05756329430501835
2951.0,0.05842357631034375
2950.0,0.058478885711898326
2949.0,0.05756092073786998
2948.0,0.055661810602889016
2947.0,0.052918305273914466
2946.0,0.049600241146362675
2945.0,0.046073605215343844
2944.0,0.042708847612040704
2943.0,0.03978609160664172
2942.0,0.037454881524913615
2941.0,0.03575624206982536
2940.0,0.034669025854040074
2939.0,0.034151022441836085
2938.0,0.034161028080459434
2937.0,0.0346574222322502
2936.0,0.035592599184827614
2935.0,0.03692179382274352
2934.0,0.0386149955317702
2933.0,0.04065286114649912
2932.0,0.043009530205077515
2931.0,0.045646631104585084
2930.0,0.048517308771070695
2929.0,0.051561695838036
2928.0,0.0547002948839006
2927.0,0.057845921080003075
2926.0,0.06093746626209333
2925.0,0.06397026489530701
2924.0,0.0669829843306716
2923.0,0.06999651807084531
2922.0,0.07296115991508517
2921.0,0.07573861457519618
2920.0,0.07811556776786267
2919.0,0.07983062189948986
2918.0,0.0806250209585852
2917.0,0.08033176365726402
2916.0,0.07895301476422477
2915.0,0.07667526350971979
2914.0,0.07381819364616905
2913.0,0.07076957317871889
2912.0,0.06788900817810388
2911.0,0.06539260605568777
2910.0,0.06331049985472813
2909.0,0.06154332948604309
2908.0,0.05996664687692134
2907.0,0.058483465466954175
2906.0,0.057019020035185324
2905.0,0.05550887794508138
2904.0,0.0539100765677578
2903.0,0.05222343764806379
2902.0,0.050489267790168234
2901.0,0.04875976546210517
2900.0,0.047065859861402194
2899.0,0.04541679946158983
2898.0,0.04382662741869204
2897.0,0.04233299351687411
2896.0,0.040984399094163515
2895.0,0.039808732547979564
2894.0,0.03880933051156412
2893.0,0.03798472155004175
2892.0,0.03733315212075926
2891.0,0.03683438787668926
2890.0,0.036446368839067274
2889.0,0.03613533864682765
2888.0,0.035898829476158994
2887.0,0.03574886586583358
2886.0,0.03568510011966851
2885.0,0.03569855560135575
2884.0,0.035796068531257975
2883.0,0.035997885059836934
2882.0,0.03630207592897664
2881.0,0.03665936147645329
2880.0,0.036984995861351344
2879.0,0.03719224572206394
2878.0,0.03722589555663116
2877.0,0.037086579146873806
2876.0,0.03683724936918041
2875.0,0.036576847394479736
2874.0,0.03639730305275093
2873.0,0.0363646474604841
2872.0,0.03652253122452895
2871.0,0.036883386015995875
2870.0,0.0373978817350006
2869.0,0.037937946452567484
2868.0,0.038321980833483996
2867.0,0.03836754399205189
2866.0,0.03793465171563327
2865.0,0.03695968774666038
2864.0,0.03549132849894488
2863.0,0.033704158655865395
2862.0,0.03185370765492198
2861.0,0.03019713066717232
2860.0,0.028917151284146986
2859.0,0.02809144506716194
2858.0,0.02770820859862037
2857.0,0.02770859391180072
2856.0,0.028030722999280083
2855.0,0.02863947718816781
2854.0,0.029514027937900304
2853.0,0.030591925957440633
2852.0,0.03172695442324042
2851.0,0.03270849035170198
2850.0,0.03335739264752762
2849.0,0.03363002925361346
2848.0,0.03364858815959879
2847.0,0.03363927059836471
2846.0,0.033823021151181576
2845.0,0.03434286999993035
2844.0,0.035238453466954874
2843.0,0.03644375645917517
2842.0,0.03779770835895954
2841.0,0.039085786869521535
2840.0,0.04009129776860198
2839.0,0.04062336542938342
2838.0,0.040523526723220585
2837.0,0.0396896180419484
2836.0,0.03813484145550608
2835.0,0.03601462118060181
2834.0,0.033569452859046486
2833.0,0.031039267236944043
2832.0,0.028608030474564602
2831.0,0.026405034230620402
2830.0,0.024511525849627357
2829.0,0.022947205631502682
2828.0,0.021671952133291775
2827.0,0.020623795993257792
2826.0,0.019758586178417477
2825.0,0.019046925201533733
2824.0,0.018448758871824098
2823.0,0.017917346522297983
2822.0,0.017431560766561244
2821.0,0.01700363042016889
2820.0,0.01664821096195673
2819.0,0.016350417429986316
2818.0,0.01607432641515316
2817.0,0.01579763655988366
2816.0,0.015528464731433246
2815.0,0.015292190441166868
2814.0,0.015106428703198758
2813.0,0.014963776467561606
2812.0,0.014835457695058583
2811.0,0.01469135160173195
2810.0,0.014518244863732994
2809.0,0.014324647913540135
2808.0,0.014131176363439177
2807.0,0.013956480724443263
2806.0,0.013807428231916666
2805.0,0.013675350886310285
2804.0,0.013543070856040857
2803.0,0.013400084210567306
2802.0,0.013250501912474864
2801.0,0.01310550274166387
2800.0,0.01297208251485934
2799.0,0.012852690672653938
2798.0,0.012749679239822754
2797.0,0.012659902814250808
2796.0,0.012568044590558719
2795.0,0.012457223235198846
2794.0,0.012329017630784455
2793.0,0.012204645104051235
2792.0,0.012101552687924394
2791.0,0.012015100012464947
2790.0,0.01192611650980632
2789.0,0.011820288261860148
2788.0,0.011697309409435969
2787.0,0.011568517295321745
2786.0,0.01145091411367261
2785.0,0.0113578472547996
2784.0,0.01128872571996776
2783.0,0.011228564109069545
2782.0,0.011162646106999801
2781.0,0.011090540923920374
2780.0,0.011021660193260176
2779.0,0.010960062753775306
2778.0,0.010899968708488549
2777.0,0.010835347047024671
2776.0,0.010767533323953462
2775.0,0.010701367205101977
2774.0,0.010638134547216434
2773.0,0.01057700428439714
2772.0,0.010522604549572614
2771.0,0.01048501178898831
2770.0,0.01046731733131849
2769.0,0.010455299055509851
2768.0,0.010426922569627302
2767.0,0.010377205607307588
2766.0,0.010328586380065945
2765.0,0.0103089647633004
2764.0,0.010319392957934107
2763.0,0.01033106864924011
2762.0,0.0103161425096609
2761.0,0.01027291491542964
2760.0,0.010219797464518201
2759.0,0.010173518815477999
2758.0,0.010139822361360937
2757.0,0.010119340410424277
2756.0,0.01010917256877277
2755.0,0.010097763200490792
2754.0,0.010071137623358359
2753.0,0.01003130731152897
2752.0,0.010000868984132319
2751.0,0.00999920518976174
2750.0,0.010017737117588951
2749.0,0.010026840938535059
2748.0,0.010007959488219274
2747.0,0.00997247906760184
2746.0,0.009945709239361222
2745.0,0.009939232097581522
2744.0,0.009944181625893406
2743.0,0.009947972393462023
2742.0,0.009950063798034129
2741.0,0.009959261459179171
2740.0,0.009981676314599315
2739.0,0.010015519802349725
2738.0,0.010054940692964339
2737.0,0.010094376338483816
2736.0,0.010127424830703334
2735.0,0.010145642686901536
2734.0,0.010144160660650922
2733.0,0.010130310028970413
2732.0,0.010122862227941192
2731.0,0.010138098113654763
2730.0,0.01017635530150016
2729.0,0.010225058024525524
2728.0,0.010273973834760822
2727.0,0.010322545737057189
2726.0,0.010373583095619386
2725.0,0.010426073566212736
2724.0,0.01047486909396977
2723.0,0.010511292191711019
2722.0,0.01052228716206668
2721.0,0.010496842528162818
2720.0,0.010438868622462892
2719.0,0.010367719267457902
2718.0,0.010299819948010916
2717.0,0.01023451357863805
2716.0,0.010163531509142282
2715.0,0.010088193607702885
2714.0,0.0100183625056905
2713.0,0.009957123876638973
2712.0,0.009896713661168139
2711.0,0.009830301519060874
2710.0,0.009760882943821842
2709.0,0.009697311351159742
2708.0,0.00964735007789578
2707.0,0.009615241252871326
2706.0,0.009600480250090884
2705.0,0.009597376772470169
2704.0,0.009598709126695273
2703.0,0.009598647658019708
2702.0,0.009589316456285362
2701.0,0.009560215192430124
2700.0,0.009509204325348283
2699.0,0.009450725330533519
2698.0,0.009403558566730497
2697.0,0.009371746833538353
2696.0,0.00934790299404878
2695.0,0.009332208735245796
2694.0,0.009333388150502962
2693.0,0.009348912985244179
2692.0,0.009358644908061148
2691.0,0.009346453067067844
2690.0,0.009318174372956062
2689.0,0.009291538694671057
2688.0,0.009276015188796978
2687.0,0.009267801647494803
2686.0,0.00925786380710162
2685.0,0.009238962531384938
2684.0,0.009211843300178794
2683.0,0.009189385943754697
2682.0,0.009186753375392459
2681.0,0.009202055535258085
2680.0,0.009214899110857674
2679.0,0.009210948547417977
2678.0,0.009199934663543019
2677.0,0.009201122079440498
2676.0,0.009218728505534743
2675.0,0.009240981366413086
2674.0,0.009256689942450434
2673.0,0.009261617917551854
2672.0,0.009252726302535708
2671.0,0.009229410322259267
2670.0,0.009200790463249965
2669.0,0.009182721760746564
2668.0,0.00918438150173441
2667.0,0.009202583352567469
2666.0,0.009227543235680308
2665.0,0.009248804306820332
2664.0,0.009258246334382885
2663.0,0.009254663962789438
2662.0,0.009245109233204736
2661.0,0.00923453431175623
2660.0,0.009215572006793148
2659.0,0.009177602857374853
2658.0,0.00912726818953442
2657.0,0.009089996112462181
2656.0,0.009083160340493808
2655.0,0.00909305564518636
2654.0,0.009086348420143747
2653.0,0.009045432341583327
2652.0,0.008986885705545096
2651.0,0.00894182982394266
2650.0,0.008921291917039418
2649.0,0.008905801887989367
2648.0,0.008869739294341131
2647.0,0.008809685168393987
2646.0,0.00874323111254309
2645.0,0.008683258716113562
2644.0,0.00862176629411004
2643.0,0.008542251122713939
2642.0,0.008443900649976735
2641.0,0.0083504980195021
2640.0,0.008295543395319183
2639.0,0.008294235299168251
2638.0,0.00832589757118756
2637.0,0.008347140627772255
2636.0,0.00832971250526813
2635.0,0.008284787489308222
2634.0,0.008242523328201096
2633.0,0.008213191919364333
2632.0,0.008180784768025234
2631.0,0.0081323659849894
2630.0,0.008077192621511724
2629.0,0.008033071565328105
2628.0,0.008009140543799032
2627.0,0.008007476111106582
2626.0,0.0080254832936872
2625.0,0.008047260997942694
2624.0,0.008048433843495052
2623.0,0.008021817527335827
2622.0,0.007987533447703268
2621.0,0.007967106014155753
2620.0,0.007958665814279522
2619.0,0.007949956684906955
2618.0,0.007942881653538778
2617.0,0.007948465433752465
2616.0,0.007965276403011182
2615.0,0.007978237072140668
2614.0,0.007974471923355332
2613.0,0.007948868640077275
2612.0,0.007900631300271639
2611.0,0.007836833586800897
2610.0,0.007774775443762634
2609.0,0.007729150692051805
2608.0,0.007700789620397946
2607.0,0.007685204967292492
2606.0,0.007681703042709152
2605.0,0.007683717501848814
2604.0,0.007673109400203845
2603.0,0.007639601637388032
2602.0,0.007596537699252805
2601.0,0.007561393484397702
2600.0,0.007530140021241787
2599.0,0.007487921454936973
2598.0,0.0074356579308440494
2597.0,0.007386944406032386
2596.0,0.007346591068654531
2595.0,0.007312196724807506
2594.0,0.007289878757498805
2593.0,0.007286040195353638
2592.0,0.007290322623874877
2591.0,0.007291104832094596
2590.0,0.007302434063757114
2589.0,0.007346677891427098
2588.0,0.00740901981601697
2587.0,0.007440073742279094
2586.0,0.007413580749408122
2585.0,0.00735840389716479
2584.0,0.007323312303306854
2583.0,0.007328275894759919
2582.0,0.007358303731589057
2581.0,0.007385904648418994
2580.0,0.0073874393138635055
2579.0,0.0073551958332930874
2578.0,0.007309005671947703
2577.0,0.007283616489353006
2576.0,0.00729174449651797
2575.0,0.007309422947688769
2574.0,0.007306465496320726
2573.0,0.007277929714072054
2572.0,0.007232469693410907
2571.0,0.007165341236637417
2570.0,0.007067546007588913
2569.0,0.006958852888989377
2568.0,0.0068874538720186
2567.0,0.0068860179360075244
2566.0,0.0069388432853464115
2565.0,0.00700081490200243
2564.0,0.007039747477124733
2563.0,0.007051041489154317
2562.0,0.007040942868307755
2561.0,0.0070160105561147875
2560.0,0.006992364712546809
2559.0,0.006993789989576367
2558.0,0.007022891948304324
2557.0,0.00704436228692073
2556.0,0.007019282739046994
2555.0,0.006954608875051789
2554.0,0.006895642730419191
2553.0,0.006865914209594377
2552.0,0.006839381773489663
2551.0,0.006784976211116787
2550.0,0.006718172523015778
2549.0,0.006686704162502676
2548.0,0.0067133344195639995
2547.0,0.00677170197836253
2546.0,0.00681552168783171
2545.0,0.006817871454460531
2544.0,0.00678600047435997
2543.0,0.006749598146743491
2542.0,0.006732575017467487
2541.0,0.006729506212803929
2540.0,0.00671445545970472
2539.0,0.0066773279420337985
2538.0,0.006640312645709707
2537.0,0.006629574993587918
2536.0,0.0066420874929965495
2535.0,0.00665312604847652
2534.0,0.006646672770039889
2533.0,0.006624286256722791
2532.0,0.006592992216286167
2531.0,0.00656026433778289
2530.0,0.006534912647169735
2529.0,0.006518346903615845
2528.0,0.006500075466552298
2527.0,0.0064750392376242746
2526.0,0.006459074009527117
2525.0,0.006472821747897772
2524.0,0.006514889200358602
2523.0,0.006562977522937101
2522.0,0.006595164457681218
2521.0,0.006599166753102565
2520.0,0.006572173321952772
2519.0,0.006528987368742405
2518.0,0.006501381336237818
2517.0,0.006507643348748062
2516.0,0.006525298667970978
2515.0,0.006513624489064361
2514.0,0.006463406187550626
2513.0,0.0064079534244690095
2512.0,0.0063840397244167065
2511.0,0.0063967688750341395
2510.0,0.006425111133422083
2509.0,0.0064480377472908735
2508.0,0.006459659163402961
2507.0,0.006465983154980497
2506.0,0.006470605662054527
2505.0,0.006463538630480154
2504.0,0.006429633851936503
2503.0,0.006370828755294296
2502.0,0.006310769969170977
2501.0,0.006271664478249965
2500.0,0.006256674074905683
2499.0,0.006260314422446945
2498.0,0.006279860767205041
2497.0,0.006305000541904348
2496.0,0.006314420468158248
2495.0,0.0063013571250730635
2494.0,0.00628903957749455
2493.0,0.006300948518825187
2492.0,0.006327270100888618
2491.0,0.006341295138840587
2490.0,0.006337066496120904
2489.0,0.006328002379104605
2488.0,0.006319740334705545
2487.0,0.006310933902039038
2486.0,0.006312516857864693
2485.0,0.006336098202657103
2484.0,0.0063652386553033555
2483.0,0.006366662189353034
2482.0,0.006331778834002259
2481.0,0.006282763121407779
2480.0,0.006237251006219537
2479.0,0.006193706589604708
2478.0,0.006154193968439167
2477.0,0.006131734787944013
2476.0,0.0061249746913456275
2475.0,0.006111541661051416
2474.0,0.006079686710525897
2473.0,0.006045087205736651
2472.0,0.006023943345669156
2471.0,0.006011694839785057
2470.0,0.006005898477772737
2469.0,0.006030131767729236
2468.0,0.006107733296244403
2467.0,0.006215411884195752
2466.0,0.006284868869642404
2465.0,0.006259711859775208
2464.0,0.006148040930266896
2463.0,0.006018834038720341
2462.0,0.005948730456316272
2461.0,0.005967179333717392
2460.0,0.006043745915572094
2459.0,0.006122571749752056
2458.0,0.0061665992267421876
2457.0,0.006173015236661212
2456.0,0.006159721752157379
2455.0,0.006146760146545927
2454.0,0.006144954837508937
2453.0,0.006150705968853435
2452.0,0.006151536467272338
2451.0,0.006143440964130642
2450.0,0.0061399906442966
2449.0,0.0061561963083450666
2448.0,0.006185192234870733
2447.0,0.006199333687185681
2446.0,0.006176073890213551
2445.0,0.006121424461845145
2444.0,0.006071020801368896
2443.0,0.0060655694816407
2442.0,0.006112418366042996
2441.0,0.006167924853588793
2440.0,0.0061747341650425095
2439.0,0.006126696055846572
2438.0,0.00608044538855296
2437.0,0.006089308329281338
2436.0,0.00614159591726697
2435.0,0.006181303557285054
2434.0,0.006173869248801974
2433.0,0.006129853087105615
2432.0,0.0060779194398271515
2431.0,0.00604155769708505
2430.0,0.006034821328898325
2429.0,0.006052486351418204
2428.0,0.006065240204395538
2427.0,0.006047835199396465
2426.0,0.006009647561804106
2425.0,0.005975639977557794
2424.0,0.005944182061486061
2423.0,0.005894743157076629
2422.0,0.00583684036823378
2421.0,0.005814748041478195
2420.0,0.005850089197273736
2419.0,0.005908077509586236
2418.0,0.005939014240915266
2417.0,0.005933753361393527
2416.0,0.005920533842647083
2415.0,0.005920201182098726
2414.0,0.005923631553552345
2413.0,0.0059094234802018345
2412.0,0.005870748762859448
2411.0,0.005824600632339146
2410.0,0.005800156501157117
2409.0,0.0058166487777200895
2408.0,0.005869592774218828
2407.0,0.005938565993016847
2406.0,0.006003739453149693
2405.0,0.006050397629804814
2404.0,0.006067143285116215
2403.0,0.006053782105142282
2402.0,0.006027673238293817
2401.0,0.006008194292312469
2400.0,0.005995266594828597
2399.0,0.005976273755232691
2398.0,0.005952858737301154
2397.0,0.005944231640641558
2396.0,0.005961010193710214
2395.0,0.005990889235014379
2394.0,0.006014629808607626
2393.0,0.006022815077886298
2392.0,0.006012215869394252
2391.0,0.00597912386970567
2390.0,0.005925054803396559
2389.0,0.005861222944687872
2388.0,0.0057996605785437015
2387.0,0.005744017136964294
2386.0,0.005692689155831624
2385.0,0.005645818943578165
2384.0,0.005606637392666306
2383.0,0.005580598381878137
2382.0,0.005573910683449829
2381.0,0.005585656172620824
2380.0,0.005599454032383787
2379.0,0.005593209334665279
2378.0,0.005562307838192263
2377.0,0.00552446491289314
2376.0,0.005498922560887695
2375.0,0.005490850995391622
2374.0,0.005499053176347916
2373.0,0.005513650434741225
2372.0,0.005497085530769866
2371.0,0.005407046857640671
2370.0,0.005273335074292162
2369.0,0.0052123020627932596
2368.0,0.005300019732310226
2367.0,0.005440532069666497
2366.0,0.005431437677122953
2365.0,0.005186974740564288
2364.0,0.004873032047350708
2363.0,0.004774088713696443
2362.0,0.005010319420340782
2361.0,0.005409125841428974
2360.0,0.005666917121574774
2359.0,0.005666898198102189
2358.0,0.005562176425547756
2357.0,0.005501674520636541
2356.0,0.005459468386409113
2355.0,0.005386266860857766
2354.0,0.005365427357588684
2353.0,0.005472678156229358
2352.0,0.005604602020573092
2351.0,0.005621175094430405
2350.0,0.005528424837529131
2349.0,0.005431828027830943
2348.0,0.005396063893332241
2347.0,0.005403394817866427
2346.0,0.0054486917874559644
2345.0,0.0055607047299842055
2344.0,0.005703877169687559
2343.0,0.005755538423804292
2342.0,0.005698980390628654
2341.0,0.005652541734421143
2340.0,0.005671747891702183
2339.0,0.005699439449712518
2338.0,0.005683317997191096
2337.0,0.005660527370739456
2336.0,0.0056770825126005175
2335.0,0.005736763809265907
2334.0,0.0058166377211464945
2333.0,0.005905348835694702
2332.0,0.005955526909386364
2331.0,0.005919825695344597
2330.0,0.005803541161731714
2329.0,0.005719383960046436
2328.0,0.005786160877879964
2327.0,0.006007750178962039
2326.0,0.006265676503888075
2325.0,0.00640115659997491
2324.0,0.0063472879200966005
2323.0,0.006178022016223906
2322.0,0.0060271433933060175
2321.0,0.0059545243262346245
2320.0,0.005909362376009648
2319.0,0.0058419908478368416
2318.0,0.00576646056110471
2317.0,0.0057396420671926825
2316.0,0.0057731066460764485
2315.0,0.005835665459636353
2314.0,0.005876695884484027
2313.0,0.005875851718596884
2312.0,0.00583679511963184
2311.0,0.005787117084107441
2310.0,0.005748725896336182
2309.0,0.005732048915326673
2308.0,0.005731161615229824
2307.0,0.005739401800835882
2306.0,0.00574120795082118
2305.0,0.005716042331288167
2304.0,0.0056557421302117486
2303.0,0.00559528231903552
2302.0,0.005582384342312282
2301.0,0.005624236006235517
2300.0,0.005671299311621419
2299.0,0.005685496129577014
2298.0,0.005687442730543869
2297.0,0.005722889855003233
2296.0,0.0057924149853836
2295.0,0.005846644255815101
2294.0,0.0058431335416853115
2293.0,0.00578808471910604
2292.0,0.005729048570653771
2291.0,0.005715520105677885
2290.0,0.005763279242964803
2289.0,0.005840026373372146
2288.0,0.005895075190104593
2287.0,0.005909492461142399
2286.0,0.005903759594987473
2285.0,0.005892431060540521
2284.0,0.0058616208136591085
2283.0,0.005807134002751163
2282.0,0.005762710028986182
2281.0,0.005756478253441475
2280.0,0.005764765684599165
2279.0,0.005749751326626583
2278.0,0.0057264396202413494
2277.0,0.005744005559942158
2276.0,0.005806988090903928
2275.0,0.0058624936792878515
2274.0,0.0058658389690870545
2273.0,0.005817711412170513
2272.0,0.0057420823216840855
2271.0,0.005666434023719944
2270.0,0.005621609373011036
2269.0,0.005615328795599998
2268.0,0.005605056843758212
2267.0,0.005539405292371887
2266.0,0.005429879226322264
2265.0,0.00534397341813865
2264.0,0.005328328669964152
2263.0,0.005374300324430867
2262.0,0.005453083639007205
2261.0,0.00553186125839966
2260.0,0.005559329294631415
2259.0,0.00549102090947963
2258.0,0.0053430130964345
2257.0,0.005187157761202599
2256.0,0.0050811113181179835
2255.0,0.005038076803777559
2254.0,0.005054253674170716
2253.0,0.005119306264115819
2252.0,0.0051937092185482875
2251.0,0.005230102032543735
2250.0,0.0052241040681613865
2249.0,0.005210381269765024
2248.0,0.005209766502270153
2247.0,0.00522300654330343
2246.0,0.005264933972505868
2245.0,0.005346783996836213
2244.0,0.0054281773971413885
2243.0,0.005450969340575903
2242.0,0.0054243508224533984
2241.0,0.005415891232232429
2240.0,0.005451446019712471
2239.0,0.005491897743329555
2238.0,0.005516466028528726
2237.0,0.005552001337566678
2236.0,0.005596038655078144
2235.0,0.005587915136620611
2234.0,0.005495046928833567
2233.0,0.005367836503467466
2232.0,0.005268525069046161
2231.0,0.005204721784377105
2230.0,0.005166283123173519
2229.0,0.005164877671053725
2228.0,0.005191243686145402
2227.0,0.005195663949038016
2226.0,0.005160454113270096
2225.0,0.005137472615303935
2224.0,0.005163456726560977
2223.0,0.005192546190481362
2222.0,0.005171040645786444
2221.0,0.005128367873971578
2220.0,0.0051257041774410645
2219.0,0.005153996175768697
2218.0,0.005154739048906639
2217.0,0.005119715561347794
2216.0,0.005099775353267561
2215.0,0.005117715210003646
2214.0,0.0051316192453281645
2213.0,0.005091269185698817
2212.0,0.004996739170350356
2211.0,0.004896660068446881
2210.0,0.004847872578080616
2209.0,0.004869496887327814
2208.0,0.004926010771094334
2207.0,0.004972198848538546
2206.0,0.005018793194390705
2205.0,0.005118962957939803
2204.0,0.00527673351911393
2203.0,0.005413171177532819
2202.0,0.005445821272717393
2201.0,0.005364573714324561
2200.0,0.005215720053641432
2199.0,0.005057682188300579
2198.0,0.004962179735779637
2197.0,0.0049991143599851465
2196.0,0.005156892792374767
2195.0,0.005325464397336076
2194.0,0.005413040824425403
2193.0,0.005441658731948708
2192.0,0.005479322978356492
2191.0,0.005514496922120973
2190.0,0.005479598993103168
2189.0,0.00537770138968425
2188.0,0.0052990791306491624
2187.0,0.005300479731624969
2186.0,0.005336832593824403
2185.0,0.005329458097120638
2184.0,0.005248651437243384
2183.0,0.00511144731821775
2182.0,0.004955493114393184
2181.0,0.004841435619492134
2180.0,0.0048239863421759704
2179.0,0.004888810984393687
2178.0,0.004955199546605831
2177.0,0.004975662377158965
2176.0,0.005004612732137739
2175.0,0.005119241504227159
2174.0,0.005291524811978529
2173.0,0.005398484393516354
2172.0,0.0053714178705404035
2171.0,0.005282151472590559
2170.0,0.005257115847321051
2169.0,0.005345341143147787
2168.0,0.005498875730688145
2167.0,0.00565411866413758
2166.0,0.0057771582818684835
2165.0,0.005837834354680122
2164.0,0.005797348282518592
2163.0,0.005627961399706196
2162.0,0.005301104114093114
2161.0,0.004788376470053107
2160.0,0.004156388964403662
2159.0,0.0036308585147851466
2158.0,0.0034323802665781
2157.0,0.003533346716921252
2156.0,0.003704025317661625
2155.0,0.003787850131807927
2154.0,0.003825087555684485
2153.0,0.003905110923256111
2152.0,0.004017933527831528
2151.0,0.004101912096346857
2150.0,0.0041523047586184084
2149.0,0.004194880385652169
2148.0,0.004206804316183488
2147.0,0.004154442856511174
2146.0,0.004078361077344062
2145.0,0.004055017871129307
2144.0,0.004086788723063637
2143.0,0.0041054930844688095
2142.0,0.004085170460514486
2141.0,0.00408132937556164
2140.0,0.0041435855726449375
2139.0,0.004232763729241558
2138.0,0.004249576021146535
2137.0,0.004135480005180116
2136.0,0.003949533119033552
2135.0,0.003839935293827758
2134.0,0.003911514223357704
2133.0,0.004109731865831049
2132.0,0.004271411194333863
2131.0,0.00429659562209912
2130.0,0.004241424929334815
2129.0,0.0042268524724088895
2128.0,0.004305915161241005
2127.0,0.004444566706924198
2126.0,0.00459079208375322
2125.0,0.004704509704650188
2124.0,0.0047519485397752885
2123.0,0.0047277860351053235
2122.0,0.004675860253957555
2121.0,0.004646714276408773
2120.0,0.0046453051046151635
2119.0,0.004656016521360799
2118.0,0.0046964780083753556
2117.0,0.004790435832448913
2116.0,0.004899571881885054
2115.0,0.00494602104272173
2114.0,0.004913571339799434
2113.0,0.004873273200003591
2112.0,0.004894421029945248
2111.0,0.004973354100544972
2110.0,0.0050652440518681955
2109.0,0.005134871984391609
2108.0,0.005155933610529337
2107.0,0.005103303766230724
2106.0,0.004982667685985012
2105.0,0.0048469607585148395
2104.0,0.004755171872964763
2103.0,0.004727211544095697
2102.0,0.00474923230366974
2101.0,0.00480130864331617
2100.0,0.00486172498835451
2099.0,0.004904234489452995
2098.0,0.0049072787180165795
2097.0,0.0048642053745257645
2096.0,0.0047869075129048965
2095.0,0.004708888480787963
2094.0,0.004674758661649869
2093.0,0.004703952306985208
2092.0,0.004769247858100249
2091.0,0.004830073453738194
2090.0,0.004874472860704524
2089.0,0.004908030722512174
2088.0,0.004917257939430899
2087.0,0.004882007330824329
2086.0,0.004816152276459238
2085.0,0.0047576478449357865
2084.0,0.004718184963503427
2083.0,0.004681695864552885
2082.0,0.004656335839344758
2081.0,0.004683995744905034
2080.0,0.004780143241447231
2079.0,0.004896710118357469
2078.0,0.004961813329311066
2077.0,0.0049360413076674475
2076.0,0.004828922626450761
2075.0,0.004691355304310997
2074.0,0.004595148332150391
2073.0,0.004587515378183846
2072.0,0.004645890395487099
2071.0,0.004699458631799993
2070.0,0.004703406663361081
2069.0,0.004665391191290985
2068.0,0.00460961631804695
2067.0,0.004552355866071943
2066.0,0.004516734422826445
2065.0,0.004527953608574865
2064.0,0.004574831488368043
2063.0,0.004614253119865158
2062.0,0.004624685943481965
2061.0,0.004618965772394831
2060.0,0.004604520205063288
2059.0,0.004569526321490986
2058.0,0.004517492437753777
2057.0,0.004482953147181024
2056.0,0.004497981184731285
2055.0,0.004565464881326867
2054.0,0.004665583061673475
2053.0,0.004759601685294646
2052.0,0.004791180706716885
2051.0,0.004724627053936987
2050.0,0.004598332721249751
2049.0,0.004510089512369936
2048.0,0.004520500777083816
2047.0,0.004602856631517681
2046.0,0.004694973252828676
2045.0,0.004740308155602236
2044.0,0.004687250554878443
2043.0,0.004521539446961742
2042.0,0.004322671133620238
2041.0,0.004231468460070584
2040.0,0.004311343407750177
2039.0,0.004480674962687411
2038.0,0.004609226241679997
2037.0,0.004632941760088654
2036.0,0.004573345448578218
2035.0,0.004486976735900892
2034.0,0.004408731667734577
2033.0,0.004322854712423842
2032.0,0.004190071454609379
2031.0,0.00402044894805621
2030.0,0.0038873377592633625
2029.0,0.003837634908635707
2028.0,0.0038298464296066138
2027.0,0.003823378364887303
2026.0,0.0038790469583397822
2025.0,0.004070588206773672
2024.0,0.00432585078283424
2023.0,0.004471662705441323
2022.0,0.004432246572415682
2021.0,0.004288939933832502
2020.0,0.004148524582841317
2019.0,0.004033379210749324
2018.0,0.00392438881477616
2017.0,0.0038379570962851868
2016.0,0.0038232053057869857
2015.0,0.003921798094091023
2014.0,0.004131881805873092
2013.0,0.004361722510426683
2012.0,0.004452103794812519
2011.0,0.004326621374633082
2010.0,0.0040972500165810215
2009.0,0.00395112461388304
2008.0,0.003941890976237038
2007.0,0.00397713440161411
2006.0,0.003995748705330127
2005.0,0.004027496806126646
2004.0,0.0040848266311509646
2003.0,0.004116192464782347
2002.0,0.0040866551074059485
2001.0,0.004021368900668133
2000.0,0.003954543564769625
1999.0,0.003899055115154833
1998.0,0.003880615741058132
1997.0,0.003942012684191801
1996.0,0.004078752345153882
1995.0,0.004224236741199029
1994.0,0.004316794352295694
1993.0,0.004346345178009412
1992.0,0.004337744041214479
1991.0,0.0043273573903111935
1990.0,0.004358746310273881
1989.0,0.0044507550427986655
1988.0,0.004558099708200228
1987.0,0.004606495451361768
1986.0,0.004579701533399372
1985.0,0.00453441544679071
1984.0,0.004524254988730991
1983.0,0.004552456183219358
1982.0,0.004602993254556089
1981.0,0.004661439709374824
1980.0,0.004688137050161294
1979.0,0.004624613965058385
1978.0,0.004458177361218135
1977.0,0.004252788352401684
1976.0,0.004079952896896074
1975.0,0.003958529326695772
1974.0,0.003881618518678758
1973.0,0.0038514065557620257
1972.0,0.003867108993247944
1971.0,0.003915089932045271
1970.0,0.0039787730977972995
1969.0,0.004031776601130791
1968.0,0.004030654705951517
1967.0,0.003954447255610651
1966.0,0.003845881559934075
1965.0,0.0037684720505535923
1964.0,0.003740292714511535
1963.0,0.003753831684053909
1962.0,0.0038263783342173297
1961.0,0.0039753698110795155
1960.0,0.004159250339226708
1959.0,0.004294249577569809
1958.0,0.004325794934227911
1957.0,0.0042558276711292245
1956.0,0.004118697123953545
1955.0,0.003959924263165108
1954.0,0.003824178653601931
1953.0,0.00373346132372315
1952.0,0.0036833615087677957
1951.0,0.0036760182057573266
1950.0,0.003732967219805225
1949.0,0.0038438066912094546
1948.0,0.003942487774663799
1947.0,0.003978261216413824
1946.0,0.003985460175160011
1945.0,0.004040091866945882
1944.0,0.004161964061576368
1943.0,0.004291849475387728
1942.0,0.004355295174284726
1941.0,0.004329614781130355
1940.0,0.004238568192582257
1939.0,0.00411218722966687
1938.0,0.0039857266927740085
1937.0,0.00389878260206234
1936.0,0.0038679057802243097
1935.0,0.0038811671366358515
1934.0,0.003920222121202303
1933.0,0.0039693183168281986
1932.0,0.0040120286484140325
1931.0,0.004039876085511604
1930.0,0.004056228060617086
1929.0,0.004053365159878422
1928.0,0.004022689391073087
1927.0,0.003991673531343362
1926.0,0.004011272083845127
1925.0,0.004094830397926112
1924.0,0.0041888082428750695
1923.0,0.004242669635420351
1922.0,0.0042678861943263695
1921.0,0.004289231656255052
1920.0,0.004278301383494862
1919.0,0.0042028099910693395
1918.0,0.00411574678037471
1917.0,0.004109583948615331
1916.0,0.004184052093991551
1915.0,0.004265283423583515
1914.0,0.004303035576905132
1913.0,0.00429441956331171
1912.0,0.0042466734024929785
1911.0,0.004165508719746095
1910.0,0.0040786061937774344
1909.0,0.004022804477993547
1908.0,0.004007367208739539
1907.0,0.004023715874026054
1906.0,0.004077815626184425
1905.0,0.0041710252367922
1904.0,0.004256010038494928
1903.0,0.004279773660479178
1902.0,0.0042480518708814825
1901.0,0.00420774810267131
1900.0,0.004179838578259274
1899.0,0.004150253851105547
1898.0,0.00411976552397251
1897.0,0.004119040993956882
1896.0,0.004157287343883323
1895.0,0.004200731086622609
1894.0,0.004215582100164498
1893.0,0.004202777809368018
1892.0,0.004175200788879695
1891.0,0.004139389029243435
1890.0,0.004112594597682319
1889.0,0.0041146031820892956
1888.0,0.004138065168416907
1887.0,0.004161586527669949
1886.0,0.004173182411759944
1885.0,0.004170889504628954
1884.0,0.004152240100735719
1883.0,0.004115986115492447
1882.0,0.004070304931519517
1881.0,0.004025479849425498
1880.0,0.003992885904552762
1879.0,0.0039916848331450665
1878.0,0.004037611136343991
1877.0,0.0041167456416653005
1876.0,0.004183145241477738
1875.0,0.0042064434898136105
1874.0,0.004205638331230534
1873.0,0.004208778423987366
1872.0,0.004203049350092243
1871.0,0.004158370203247752
1870.0,0.004095945227913706
1869.0,0.004090284036092342
1868.0,0.004149387433723873
1867.0,0.004198074821762034
1866.0,0.0042052028199113835
1865.0,0.004191738454695144
1864.0,0.00417411634011312
1863.0,0.004151223049997766
1862.0,0.004119330594931255
1861.0,0.004081048912635518
1860.0,0.004044870937033204
1859.0,0.004028520640078964
1858.0,0.004049383363904966
1857.0,0.00409665925543083
1856.0,0.004130261050974973
1855.0,0.004127787841857421
1854.0,0.0041111596967569365
1853.0,0.004106486534365073
1852.0,0.00410541034429379
1851.0,0.0040872797097081725
1850.0,0.004048401865807136
1849.0,0.004012031881668155
1848.0,0.003999197762534482
1847.0,0.004014897714288456
1846.0,0.004053877104527531
1845.0,0.004098726099620884
1844.0,0.004102827814092723
1843.0,0.004043145720157885
1842.0,0.003985649234993483
1841.0,0.003978747566689401
1840.0,0.003993478446494922
1839.0,0.003987873812090509
1838.0,0.003966264244348889
1837.0,0.003968145367506816
1836.0,0.004000701873150618
1835.0,0.004033056746657594
1834.0,0.0040442401558714956
1833.0,0.004037676725603123
1832.0,0.004019484398826394
1831.0,0.00399866992250921
1830.0,0.0040033919511331785
1829.0,0.0040479989670526096
1828.0,0.004104401665746351
1827.0,0.004133019899157127
1826.0,0.004108370871528391
1825.0,0.004046297124505967
1824.0,0.003981873766637469
1823.0,0.003939325690102599
1822.0,0.003933859602941929
1821.0,0.003968162912486877
1820.0,0.004024308097743071
1819.0,0.0040695685094004315
1818.0,0.004091550820201054
1817.0,0.0041015821961225395
1816.0,0.004096323152050043
1815.0,0.004067692722611671
1814.0,0.004032487783623775
1813.0,0.0040265987157320875
1812.0,0.004064858957418452
1811.0,0.004114438580813198
1810.0,0.00414627188534413
1809.0,0.004167876865154582
1808.0,0.004188581654952762
1807.0,0.00420249882694375
1806.0,0.004208423533784416
1805.0,0.004214476453710404
1804.0,0.004221875782865521
1803.0,0.004228457965259692
1802.0,0.00424150746720376
1801.0,0.0042668203195713565
1800.0,0.004288723835432778
1799.0,0.004285555759528762
1798.0,0.004273255628707309
1797.0,0.0042783244695220705
1796.0,0.004304352439967282
1795.0,0.004337147298602636
1794.0,0.00436752019328274
1793.0,0.004397809312351278
1792.0,0.004412179794991966
1791.0,0.004383774127695919
1790.0,0.004350375981662367
1789.0,0.004351816338014244
1788.0,0.004369365345374035
1787.0,0.0043666567171694115
1786.0,0.004336384788066978
1785.0,0.00429950237939732
1784.0,0.004269193288932679
1783.0,0.004243911247323869
1782.0,0.004221724196153997
1781.0,0.004212313765322515
1780.0,0.0042290827776598474
1779.0,0.004253861429909342
1778.0,0.0042717959793977765
1777.0,0.004281390733437517
1776.0,0.004288567413760604
1775.0,0.004290458041814424
1774.0,0.0042711621768495925
1773.0,0.004245501234499781
1772.0,0.0042459685041698544
1771.0,0.004254867198396292
1770.0,0.004265498467680123
1769.0,0.004287611294682443
1768.0,0.004309637848881298
1767.0,0.0043214040931231126
1766.0,0.004335113095379083
1765.0,0.0043703273011673725
1764.0,0.004420565946333332
1763.0,0.004462243960544906
1762.0,0.004482441028414437
1761.0,0.004486112239435815
1760.0,0.0044962392795449705
1759.0,0.004519572288907464
1758.0,0.004550276716946028
1757.0,0.00458204978044036
1756.0,0.004608333474029544
1755.0,0.0046196586287021646
1754.0,0.004615025271378864
1753.0,0.004596559271121992
1752.0,0.00458861585380886
1751.0,0.004627193138809768
1750.0,0.004709912118936718
1749.0,0.004806362006140421
1748.0,0.004880151526940645
1747.0,0.004915636373617172
1746.0,0.004926100491056462
1745.0,0.004942123215547491
1744.0,0.004977037978954259
1743.0,0.005008808474123131
1742.0,0.005023578889351356
1741.0,0.005038023207780445
1740.0,0.005063714876273412
1739.0,0.005083880311812771
1738.0,0.005102572098230164
1737.0,0.005144183982803577
1736.0,0.0051878208770563174
1735.0,0.005213364282597355
1734.0,0.005233604842691833
1733.0,0.005218799919396009
1732.0,0.00521182900692459
1731.0,0.005246803995496062
1730.0,0.005287574980704358
1729.0,0.00530837516285439
1728.0,0.005308022689361992
1727.0,0.005296024054342172
1726.0,0.005277916393433677
1725.0,0.005268627138582076
1724.0,0.0052790222662238385
1723.0,0.005294423404042391
1722.0,0.005313587610975496
1721.0,0.005347113998534993
1720.0,0.005385536445947148
1719.0,0.005411386441441463
1718.0,0.005459066911456749
1717.0,0.005542498035542
1716.0,0.005588171915627319
1715.0,0.005588090797502592
1714.0,0.005589266248644298
1713.0,0.005613619145429917
1712.0,0.005646000536548329
1711.0,0.0056653174785673555
1710.0,0.0056719838630800885
1709.0,0.005679844478520567
1708.0,0.005696673727694657
1707.0,0.0057195620645277175
1706.0,0.005763343306170095
1705.0,0.005842518882081812
1704.0,0.0059267072331319025
1703.0,0.005988005020570729
1702.0,0.005996906855699894
1701.0,0.006006818681903378
1700.0,0.006111522895132537
1699.0,0.006241585136620775
1698.0,0.0063824688752114975
1697.0,0.006566809416159775
1696.0,0.006754347045560578
1695.0,0.006846045492181735
1694.0,0.006880119657698911
1693.0,0.00695352683161962
1692.0,0.007049432195853851
1691.0,0.007129223673175551
1690.0,0.007195858087584508
1689.0,0.0072670307007709515
1688.0,0.007338250893667915
1687.0,0.007383401054917594
1686.0,0.007376777029807423
1685.0,0.007436163979413431
1684.0,0.007688999800679958
1683.0,0.007910414933882018
1682.0,0.008040626349948113
1681.0,0.008168671556255093
1680.0,0.008296681453935204
1679.0,0.008410182413304983
1678.0,0.008507928029225715
1677.0,0.00860637068288642
1676.0,0.008727659619745844
1675.0,0.008853295470240066
1674.0,0.008929788095669591
1673.0,0.00898053381791288
1672.0,0.009051692571172243
1671.0,0.009155524871306091
1670.0,0.009309258325335678
1669.0,0.009468172468943527
1668.0,0.009574386922894624
1667.0,0.009644499636367711
1666.0,0.009710770055180189
1665.0,0.009793676426833979
1664.0,0.009908518037658565
1663.0,0.010047495699146656
1662.0,0.010159554491815695
1661.0,0.010220976458600605
1660.0,0.010272564472378716
1659.0,0.010322500604530521
1658.0,0.010362782372765184
1657.0,0.010401092487366446
1656.0,0.01046131398173959
1655.0,0.010514882746336877
1654.0,0.01061068736647041
1653.0,0.010752035852759832
1652.0,0.01068177850522028
1651.0,0.010586835055123752
1650.0,0.01057504724644139
1649.0,0.010568050845406636
1648.0,0.010583419875547333
1647.0,0.010669703003480989
1646.0,0.010732925971258434
1645.0,0.010716757966658979
1644.0,0.010693824917087025
1643.0,0.010686558649510557
1642.0,0.01067726432971668
1641.0,0.010649444170924326
1640.0,0.010604758774928386
1639.0,0.010551755583018168
1638.0,0.01049167573491671
1637.0,0.010447650769502704
1636.0,0.010461208340421342
1635.0,0.010463454778763651
1634.0,0.010403634924982232
1633.0,0.010352640953557271
1632.0,0.010313999908498251
1631.0,0.010264241613070704
1630.0,0.01020130366422108
1629.0,0.01013553222731799
1628.0,0.010074186658385494
1627.0,0.010014224911249456
1626.0,0.009953019553491612
1625.0,0.009886180377588975
1624.0,0.009814663661511132
1623.0,0.009740008724721015
1622.0,0.009659868726999123
1621.0,0.009589054826145953
1620.0,0.009538763632174983
1619.0,0.009482407398074997
1618.0,0.009393813699439958
1617.0,0.00928156971874002
1616.0,0.009167085014520734
1615.0,0.00908099816167423
1614.0,0.009040061381927714
1613.0,0.009012627736422968
1612.0,0.00896710843565689
1611.0,0.008907833506686023
1610.0,0.008851574203860664
1609.0,0.008802915724206847
1608.0,0.008758912316201085
1607.0,0.00872001042009833
1606.0,0.008683666297587963
1605.0,0.008643249636463771
1604.0,0.008605881390402435
1603.0,0.008580900909740693
1602.0,0.008566863919212976
1601.0,0.008552472987563951
1600.0,0.00852906831733721
1599.0,0.008496139321050032
1598.0,0.008455696459794462
1597.0,0.0084103356733239
1596.0,0.008363204713689988
1595.0,0.008319718808372121
1594.0,0.008284791933986142
1593.0,0.008256417407139307
1592.0,0.008231146912300738
1591.0,0.008213579831324496
1590.0,0.008213293395739582
1589.0,0.008230668316888127
1588.0,0.008256736042742501
1587.0,0.008285149860276144
1586.0,0.008316321757208612
1585.0,0.00834645228138105
1584.0,0.008374767669858627
1583.0,0.008409000886701148
1582.0,0.008446325660974318
1581.0,0.008479454724956882
1580.0,0.008506438017440067
1579.0,0.008526607266422884
1578.0,0.008529917539399646
1577.0,0.008535638905334427
1576.0,0.008556698312304944
1575.0,0.008557577154471956
1574.0,0.008554624884072028
1573.0,0.008571691543553845
1572.0,0.008583549319646085
1571.0,0.008569364389219042
1570.0,0.008543633598710486
1569.0,0.008513512319854142
1568.0,0.008485969177348805
1567.0,0.00847618940960295
1566.0,0.008475550786721771
1565.0,0.00846994586714351
1564.0,0.008470049180171472
1563.0,0.008477925229186266
1562.0,0.008480070306384212
1561.0,0.00841121497058286
1560.0,0.008296446848952626
1559.0,0.008399279303079108
1558.0,0.00856433245147213
1557.0,0.008606261639689512
1556.0,0.008658692709237616
1555.0,0.008721888552226092
1554.0,0.008759842039796325
1553.0,0.008774375784782573
1552.0,0.008777526979924136
1551.0,0.008784806113166406
1550.0,0.008805117121998713
1549.0,0.0088406206320104
1548.0,0.008870574715373655
1547.0,0.008888391341191905
1546.0,0.008900705998788325
1545.0,0.008942331893556532
1544.0,0.009016064358357218
1543.0,0.009064918051122722
1542.0,0.009052201680801545
1541.0,0.009062176611178939
1540.0,0.009126999583639646
1539.0,0.009095152298440464
1538.0,0.009012465100137852
1537.0,0.008985640255682943
1536.0,0.008967911766000486
1535.0,0.008896806797853691
1534.0,0.00877357664256019
1533.0,0.008660333346997118
1532.0,0.008584466496195006
1531.0,0.008525881924694417
1530.0,0.008471967587079
1529.0,0.00842991470566482
1528.0,0.008405545141197176
1527.0,0.008383392340345958
1526.0,0.008352425459053457
1525.0,0.008325921494771417
1524.0,0.008306898872025589
1523.0,0.008264639492190504
1522.0,0.008220007307714747
1521.0,0.008226951337947524
1520.0,0.00825494082750588
1519.0,0.00826985985554526
1518.0,0.00827423149489422
1517.0,0.008288998598273901
1516.0,0.00829802662155506
1515.0,0.008270871427202326
1514.0,0.008233210558119895
1513.0,0.008213328898907654
1512.0,0.008213186023432937
1511.0,0.008208556293867913
1510.0,0.008187048038278768
1509.0,0.008142750380001743
1508.0,0.008091538992422518
1507.0,0.008073901635463676
1506.0,0.00805797260717541
1505.0,0.008053252053282828
1504.0,0.008082955545657947
1503.0,0.008096081471425924
1502.0,0.008075062436436877
1501.0,0.008053376782385269
1500.0,0.008062205175355774
1499.0,0.008101161415057784
1498.0,0.008177500441524814
1497.0,0.008331233871293605
1496.0,0.008499215853268195
1495.0,0.008571361271254773
1494.0,0.008578846864618888
1493.0,0.008595937341414686
1492.0,0.008625485079941346
1491.0,0.008634428064301727
1490.0,0.008642088970856814
1489.0,0.008702282984824554
1488.0,0.008786323242776508
1487.0,0.008841170510885404
1486.0,0.008893076756109845
1485.0,0.008976001322470862
1484.0,0.009081641911755638
1483.0,0.00919645382805393
1482.0,0.009348203754265828
1481.0,0.009572847446665712
1480.0,0.00983212646984185
1479.0,0.010078799570750302
1478.0,0.010360084886982783
1477.0,0.010777348647479744
1476.0,0.011336317685576448
1475.0,0.011961044526873335
1474.0,0.012738660826092927
1473.0,0.013898251756748674
1472.0,0.015234016196668476
1471.0,0.016304858735745685
1470.0,0.017187232357329968
1469.0,0.018117575697546393
1468.0,0.019152930383369515
1467.0,0.02031954168778179
1466.0,0.02175533393468919
1465.0,0.023507880568411143
1464.0,0.025141783383248507
1463.0,0.02620580952975586
1462.0,0.026795864097759862
1461.0,0.02716033689078577
1460.0,0.02741082552567731
1459.0,0.027591020234479017
1458.0,0.027902410845363292
1457.0,0.028471466202985435
1456.0,0.028884702106296907
1455.0,0.028976733642143343
1454.0,0.02896350924290874
1453.0,0.028875825824605687
1452.0,0.028631379864856605
1451.0,0.028189192328352708
1450.0,0.02753272336122058
1449.0,0.02654354075569659
1448.0,0.025122247996537863
1447.0,0.023487743201516975
1446.0,0.021975520457861875
1445.0,0.020665510758735316
1444.0,0.019498768155549615
1443.0,0.018480371445908278
1442.0,0.017669414141190127
1441.0,0.017080346626484305
1440.0,0.016685867671078315
1439.0,0.016462931606519158
1438.0,0.016392778731751833
1437.0,0.016383646539769245
1436.0,0.016227733197942993
1435.0,0.015837928222523716
1434.0,0.015302071954568106
1433.0,0.014670466293667892
1432.0,0.0139766804757271
1431.0,0.013316789210635295
1430.0,0.0127776011146139
1429.0,0.012370568895923174
1428.0,0.012074173908857134
1427.0,0.011874919493827444
1426.0,0.011726316875070386
1425.0,0.01156818482769401
1424.0,0.011410277749823096
1423.0,0.011305170189495013
1422.0,0.011250826864795603
1421.0,0.011187417479958146
1420.0,0.011095486191360337
1419.0,0.011022399466682965
1418.0,0.010966361557641472
1417.0,0.010881883004806638
1416.0,0.010781401666288723
1415.0,0.010695772048228466
1414.0,0.010616374804088953
1413.0,0.010514563401786036
1412.0,0.010388370104554486
1411.0,0.010263126691022098
1410.0,0.010140858658537668
1409.0,0.010002089356385394
1408.0,0.009849651459800596
1407.0,0.009710954805964721
1406.0,0.009585807542239852
1405.0,0.009441368044136955
1404.0,0.009289940084665329
1403.0,0.009180720520316757
1402.0,0.009111892376812956
1401.0,0.009033646815373273
1400.0,0.008934639230962504
1399.0,0.008858515336134179
1398.0,0.008811405002356412
1397.0,0.008744201371263622
1396.0,0.008649483088958262
1395.0,0.008578467509425916
1394.0,0.008537019525465378
1393.0,0.008486626127029927
1392.0,0.0084422012082724
1391.0,0.008444519681277247
1390.0,0.008497122802674803
1389.0,0.008592302668896608
1388.0,0.008792996487364828
1387.0,0.009200929123116576
1386.0,0.009816384640163487
1385.0,0.010619482335497258
1384.0,0.011739640180573866
1383.0,0.013366931598467443
1382.0,0.015598511532962218
1381.0,0.018491426761603005
1380.0,0.022165842764210984
1379.0,0.026538262496432288
1378.0,0.030945967740257742
1377.0,0.03433781283013154
1376.0,0.03573354258776699
1375.0,0.03442239939890055
1374.0,0.03066976426509372
1373.0,0.026109239334290137
1372.0,0.022173088137682335
1371.0,0.019077194398085424
1370.0,0.016569323936339878
1369.0,0.014559875784693144
1368.0,0.013104014336124046
1367.0,0.01217426027638825
1366.0,0.011631082211732438
1365.0,0.011352554052780909
1364.0,0.011286498587257112
1363.0,0.011422673782241146
1362.0,0.011714647411050338
1361.0,0.012046084153224454
1360.0,0.012291446245072842
1359.0,0.01236202323749444
1358.0,0.012211889579186166
1357.0,0.011844382990840518
1356.0,0.011306630967057748
1355.0,0.010677194522296124
1354.0,0.0100536279145995
1353.0,0.009515535954705936
1352.0,0.009083100168257663
1351.0,0.008733638992724647
1350.0,0.008443280876297019
1349.0,0.008198045614296339
1348.0,0.00798626386021761
1347.0,0.007796441436177063
1346.0,0.0076271723464791455
1345.0,0.007481775659838229
1344.0,0.007357055749173086
1343.0,0.007244620548541842
1342.0,0.00714114981478301
1341.0,0.007050533114496715
1340.0,0.006978453429670659
1339.0,0.006926638370522842
1338.0,0.006893926570010686
1337.0,0.006877641460231567
1336.0,0.006870974740149343
1335.0,0.006868066351297287
1334.0,0.006871355872619923
1333.0,0.006888450985958115
1332.0,0.00692160756184226
1331.0,0.006961135874801461
1330.0,0.006988523419030635
1329.0,0.006986999661410184
1328.0,0.006950515498020986
1327.0,0.006884512784818823
1326.0,0.006799450191034355
1325.0,0.00670591785406611
1324.0,0.006615785740738293
1323.0,0.006539073998678355
1322.0,0.006477527108253092
1321.0,0.0064245532339082005
1320.0,0.006375585993598166
1319.0,0.006333430232139295
1318.0,0.006298582388036577
1317.0,0.006261654180225664
1316.0,0.006215092093969587
1315.0,0.006167228072581642
1314.0,0.006136632509072294
1313.0,0.006132919609629182
1312.0,0.006148972102190759
1311.0,0.006176478776210817
1310.0,0.006223595750089305
1309.0,0.006315023144192325
1308.0,0.006474616768471293
1307.0,0.006699011107933819
1306.0,0.006939602191364419
1305.0,0.007117105864003699
1304.0,0.007167132433873111
1303.0,0.007083835523560135
1302.0,0.006925154372268106
1301.0,0.006769213922618762
1300.0,0.006662995444685276
1299.0,0.00660755461023343
1298.0,0.00657992824119419
1297.0,0.006558989566931366
1296.0,0.006533917626310365
1295.0,0.006498824176805251
1294.0,0.006448131199349197
1293.0,0.006379707903305024
1292.0,0.006299184833048377
1291.0,0.00621760127719346
1290.0,0.006143733826168486
1289.0,0.00608024925316825
1288.0,0.006026701544461418
1287.0,0.005982381812878168
1286.0,0.005946155822232864
1285.0,0.00591865893925787
1284.0,0.005905236876770264
1283.0,0.005910321636440356
1282.0,0.005926565466876513
1281.0,0.005935705018657527
1280.0,0.005925324994377316
1279.0,0.0059008321560366445
1278.0,0.005877070329193111
1277.0,0.0058629326898419366
1276.0,0.005858766144516035
1275.0,0.005864212366550939
1274.0,0.005880562721390473
1273.0,0.00590642370096792
1272.0,0.0059365815471099015
1271.0,0.005966790596939438
1270.0,0.005997856025599058
1269.0,0.006034311494522665
1268.0,0.006079746819452605
1267.0,0.0061323674598086405
1266.0,0.006185073542801442
1265.0,0.006232982248996591
1264.0,0.006281618308283187
1263.0,0.006344942020716343
1262.0,0.006433990691016126
1261.0,0.006549597089086248
1260.0,0.006687258043835628
1259.0,0.006843747916891385
1258.0,0.007012318046077375
1257.0,0.007171419309355298
1256.0,0.007283671377342418
1255.0,0.0073138199098574126
1254.0,0.007253288515308123
1253.0,0.00712702598156042
1252.0,0.0069766735429028885
1251.0,0.006839132052577943
1250.0,0.00673460471651921
1249.0,0.006665392411816256
1248.0,0.006623309919913138
1247.0,0.006599144259746965
1246.0,0.006586696265639199
1245.0,0.006580935782110761
1244.0,0.006576270006635179
1243.0,0.0065699743967471535
1242.0,0.006566524425151678
1241.0,0.006574559656932707
1240.0,0.006597126643158912
1239.0,0.006626103023196989
1238.0,0.0066486025541002206
1237.0,0.006658880460742922
1236.0,0.006661670779466288
1235.0,0.006664517209128253
1234.0,0.006670375410470561
1233.0,0.006678429191743178
1232.0,0.006688454164477286
1231.0,0.006701218326471373
1230.0,0.006716617987455133
1229.0,0.006734697574749185
1228.0,0.006757364131186881
1227.0,0.00678585694433281
1226.0,0.006817051746940944
1225.0,0.006846291156724861
1224.0,0.0068749685654887534
1223.0,0.006911190572104231
1222.0,0.006958960106636028
1221.0,0.0070078813091157925
1220.0,0.007037932392902128
1219.0,0.0070369853084440975
1218.0,0.007012342901771938
1217.0,0.006981992706013235
1216.0,0.006955746584340087
1215.0,0.006929384644173231
1214.0,0.006896826010523077
1213.0,0.0068624758190269815
1212.0,0.006837455009143633
1211.0,0.006825834586691662
1210.0,0.0068198233373622606
1209.0,0.006809598381922967
1208.0,0.006794455426641314
1207.0,0.006782641187931647
1206.0,0.006782509657917702
1205.0,0.006795415437754103
1204.0,0.006815399902822213
1203.0,0.006833105762556352
1202.0,0.00684097766170404
1201.0,0.006837609078789782
1200.0,0.006827941979100327
1199.0,0.006818892600973684
1198.0,0.006815176272197791
1197.0,0.00681958230187015
1196.0,0.0068347582541896795
1195.0,0.0068610125574923055
1194.0,0.0068922281635958975
1193.0,0.00691812441803223
1192.0,0.006933432510921609
1191.0,0.006943364832046587
1190.0,0.006957585028580222
1189.0,0.0069797391740365426
1188.0,0.007005907321255575
1187.0,0.007032817072394282
1186.0,0.007063673859593698
1185.0,0.007104121697714063
1184.0,0.00715557724849481
1183.0,0.007215301917343927
1182.0,0.007280824847786119
1181.0,0.007351624231913139
1180.0,0.0074291293403754444
1179.0,0.00752021871767292
1178.0,0.007640662086749602
1177.0,0.007810811440482573
1176.0,0.00804749846285531
1175.0,0.008363521156874804
1174.0,0.008774091685306745
1173.0,0.009295679001951773
1172.0,0.009928724086199575
1171.0,0.010637049426146053
1170.0,0.011343965226790934
1169.0,0.011947700989524879
1168.0,0.012346506352421249
1167.0,0.012474747189889116
1166.0,0.012340307148736442
1165.0,0.012022692382678038
1164.0,0.011623284056167029
1163.0,0.011220450916886178
1162.0,0.010862026685354404
1161.0,0.010571207632719154
1160.0,0.010347633609093014
1159.0,0.010175216313588408
1158.0,0.010040682236524035
1157.0,0.009942040769458706
1156.0,0.00987682061813317
1155.0,0.00983162662236064
1154.0,0.0097895951896795
1153.0,0.009740336689921521
1152.0,0.009675808181865626
1151.0,0.009584766894160688
1150.0,0.00946166825847623
1149.0,0.009317224156393094
1148.0,0.00917299967706421
1147.0,0.009047296868964426
1146.0,0.008946417186861186
1145.0,0.008863183056613613
1144.0,0.008782195295625213
1143.0,0.008693714307745716
1142.0,0.008605826088038272
1141.0,0.008536448180686626
1140.0,0.008490857651641977
1139.0,0.008455155292068419
1138.0,0.008415526215776174
1137.0,0.008375194891253492
1136.0,0.00834668647153078
1135.0,0.00833635538814217
1134.0,0.00834427202408597
1133.0,0.008370921575309508
1132.0,0.008413418110357247
1131.0,0.008459903547881174
1130.0,0.008498073180737928
1129.0,0.008527561279040027
1128.0,0.008557979671750772
1127.0,0.008599843461231944
1126.0,0.008663274699519287
1125.0,0.008757027735545694
1124.0,0.008877709109299975
1123.0,0.009005092264455047
1122.0,0.00912022954776512
1121.0,0.009225453614887903
1120.0,0.009336483294025446
1119.0,0.009460248347978003
1118.0,0.009591924482934994
1117.0,0.009727841316545992
1116.0,0.00986696973862614
1115.0,0.010002335280539058
1114.0,0.010124994790285545
1113.0,0.01023632867759838
1112.0,0.01034557305358425
1111.0,0.010456830207923368
1110.0,0.010567675171311217
1109.0,0.010677751238437899
1108.0,0.010789204163969732
1107.0,0.010902027203329969
1106.0,0.011016469525061348
1105.0,0.01113263313095044
1104.0,0.011239740458201678
1103.0,0.011315809597214737
1102.0,0.011349495496878949
1101.0,0.011353284534465902
1100.0,0.011343823336348948
1099.0,0.011320215313760654
1098.0,0.0112745718317652
1097.0,0.011213215451983245
1096.0,0.01115240352106305
1095.0,0.011100979146172118
1094.0,0.011061401754346192
1093.0,0.011039472556286333
1092.0,0.011036949106601785
1091.0,0.011039375183077202
1090.0,0.011027157324992681
1089.0,0.01099759289600459
1088.0,0.010964864182457575
1087.0,0.010942327700223747
1086.0,0.010935321580056567
1085.0,0.010945064692183643
1084.0,0.010965449697346648
1083.0,0.010979025135639309
1082.0,0.010970685806035475
1081.0,0.01094477512312771
1080.0,0.010917400458154784
1079.0,0.010894740219715841
1078.0,0.01086995778316586
1077.0,0.010838125598772447
1076.0,0.010802407481932003
1075.0,0.010767581174752336
1074.0,0.010737858701811001
1073.0,0.010718091871992633
1072.0,0.010706190039134667
1071.0,0.010687025824402924
1070.0,0.010646820140886313
1069.0,0.010593558868672793
1068.0,0.010550999630465433
1067.0,0.010530774133006172
1066.0,0.010520783548110894
1065.0,0.010504565583222837
1064.0,0.010482778809459989
1063.0,0.010469457365465654
1062.0,0.010471809118485317
1061.0,0.010479561061332235
1060.0,0.010475249796593164
1059.0,0.010453789536211606
1058.0,0.010430176356860481
1057.0,0.010425602021975908
1056.0,0.01044754561398002
1055.0,0.0104878724111859
1054.0,0.01053876748233432
1053.0,0.010602330600692569
1052.0,0.010681266559733752
1051.0,0.010768832537852225
1050.0,0.010856041389347076
1049.0,0.010941745939787263
1048.0,0.011027473345162969
1047.0,0.011110594684027695
1046.0,0.01118941201982907
1045.0,0.011264702732565038
1044.0,0.011329016340018082
1043.0,0.011364251249283325
1042.0,0.01135969267494652
1041.0,0.011327703058481624
1040.0,0.011295415754164168
1039.0,0.011285999041713317
1038.0,0.011309467703018402
1037.0,0.011361736603907668
1036.0,0.011426501830148237
1035.0,0.011485250454076171
1034.0,0.011532291463936122
1033.0,0.011574310977659943
1032.0,0.011612166485750667
1031.0,0.011633256283614833
1030.0,0.011627543261841518
1029.0,0.011600389766244881
1028.0,0.011562275341486865
1027.0,0.011515926047346582
1026.0,0.01146003820474673
1025.0,0.011395101980528424
1024.0,0.011318623567127222
1023.0,0.01122531919875031
1022.0,0.011119743788202312
1021.0,0.011018835083142418
1020.0,0.010934581035377462
1019.0,0.0108634515575989
1018.0,0.010799977254873843
1017.0,0.010750238368792983
1016.0,0.010721909195837124
1015.0,0.01071016997339566
1014.0,0.010705094131588754
1013.0,0.010706628225229524
1012.0,0.010721787782772796
1011.0,0.0107535934572712
1010.0,0.010803608805911857
1009.0,0.010878546237157094
1008.0,0.010981739493543956
1007.0,0.011102421293975909
1006.0,0.011227389242764037
1005.0,0.011364434204030539
1004.0,0.011547375956167566
1003.0,0.011822490586870755
1002.0,0.012233893034611401
1001.0,0.012799640682840079
1000.0,0.013464604893519153
999.0,0.014066842442677245
998.0,0.014385073327714167
997.0,0.014261476904152796
996.0,0.013698771241725397
995.0,0.012853743259721268
994.0,0.011941385104333289
993.0,0.011122385994457744
992.0,0.010453612986453193
991.0,0.009920265115261779
990.0,0.00949391430254589
989.0,0.009159114457335056
988.0,0.008904949305678716
987.0,0.008714515229440454
986.0,0.008571526024305377
985.0,0.008470991130759671
984.0,0.008417461867348791
983.0,0.008417021475651805
982.0,0.008477574311842675
981.0,0.008614278936081268
980.0,0.008846915576888478
979.0,0.009191633230696437
978.0,0.009660536113581468
977.0,0.010262572918509814
976.0,0.010981180548480223
975.0,0.011732194071289162
974.0,0.012349227189036197
973.0,0.012632990538613833
972.0,0.012444690717147593
971.0,0.011790239832431174
970.0,0.010834247751425077
969.0,0.009813756650586841
968.0,0.008915504079215453
967.0,0.008215124386118967
966.0,0.007698729060130404
965.0,0.007317769648565349
964.0,0.007027220510090347
963.0,0.006795946846227292
962.0,0.006606512055240548
961.0,0.006452554217220701
960.0,0.00632892706924649
959.0,0.00622153282515002
958.0,0.006112662880370096
957.0,0.005996878143713602
956.0,0.005883355606088535
955.0,0.005780374845536536
954.0,0.005685777290403089
953.0,0.005596566450415433
952.0,0.005519676751261681
951.0,0.005465891679149121
950.0,0.005437806004957943
949.0,0.005429775636381651
948.0,0.005434725338595439
947.0,0.005444899577319096
946.0,0.005452084949577833
945.0,0.005455595192854792
944.0,0.005466155996626821
943.0,0.005493329593422554
942.0,0.005530341471602455
941.0,0.005557677138407642
940.0,0.005559845315332461
939.0,0.005533126253584962
938.0,0.005479878178754726
937.0,0.005403959437255077
936.0,0.00531449450614021
935.0,0.0052283974661257145
934.0,0.005162395006682798
933.0,0.005120686343219317
932.0,0.005092267701001156
931.0,0.0050622625297211616
930.0,0.005026711436880807
929.0,0.004994979520288703
928.0,0.004976760848107088
927.0,0.004970481161941421
926.0,0.004968315942655066
925.0,0.004968706121051293
924.0,0.004976771665746561
923.0,0.004994710288155451
922.0,0.005020403425165273
921.0,0.005053198130072848
920.0,0.005089263612961777
919.0,0.005112332399394664
918.0,0.005106092710748976
917.0,0.005081117095472537
916.0,0.005073121403337218
915.0,0.00510373162746916
914.0,0.005154304757609269
913.0,0.005190067760548929
912.0,0.005199222095727342
911.0,0.0051941915454105855
910.0,0.005184974032938147
909.0,0.005170655245953648
908.0,0.005154551074915156
907.0,0.005149784835799381
906.0,0.005167447506212736
905.0,0.0052130234215682645
904.0,0.005296741182064225
903.0,0.0054322186673201964
902.0,0.005614590873037686
901.0,0.0058044140651980144
900.0,0.005938663164814697
899.0,0.005961080224722661
898.0,0.005851613152659429
897.0,0.005636158839793044
896.0,0.005370058312469893
895.0,0.0051092153650476296
894.0,0.004889336820747374
893.0,0.0047221315727078075
892.0,0.004601285346217896
891.0,0.0045082041919069825
890.0,0.004420817346485586
889.0,0.0043289624104503495
888.0,0.004242230589377929
887.0,0.004178527892276496
886.0,0.0041479464915703855
885.0,0.004151998663357994
884.0,0.0041905952598248674
883.0,0.004258344633664501
882.0,0.004338663741514678
881.0,0.00441445491380785
880.0,0.004483273244111828
879.0,0.004552802214361832
878.0,0.004625360719034371
877.0,0.004696740936300978
876.0,0.004764840595741313
875.0,0.004826276697299785
874.0,0.0048671763164515455
873.0,0.004868658365968652
872.0,0.004820259025067473
871.0,0.004723831767907238
870.0,0.0045934118806483905
869.0,0.004458346284178324
868.0,0.004354093357069569
867.0,0.004294434849807173
866.0,0.004258425608386232
865.0,0.0042197121918865765
864.0,0.004182393755681043
863.0,0.004169746207156049
862.0,0.004182706474464142
861.0,0.004192626631040677
860.0,0.004177049956273581
859.0,0.00414142363352533
858.0,0.004100608698890285
857.0,0.00405900942018302
856.0,0.004018629951372444
855.0,0.003990451427178301
854.0,0.003984174730803558
853.0,0.003995448833217872
852.0,0.004013617668494369
851.0,0.00403699674239087
850.0,0.004075538645048199
849.0,0.004144256954506421
848.0,0.0042578961564822505
847.0,0.004432827420875363
846.0,0.004704841645331913
845.0,0.005146796876796405
844.0,0.005828112117918638
843.0,0.0066969652802048776
842.0,0.007499129275795959
841.0,0.007886284164473735
840.0,0.007671888513556883
839.0,0.006986557139125188
838.0,0.006164908761165461
837.0,0.005488558153451816
836.0,0.005046666746216054
835.0,0.00478794692160191
834.0,0.004629015615869598
833.0,0.004509382987416533
832.0,0.00439998187517653
831.0,0.004301188956293921
830.0,0.004227733165786373
829.0,0.004179477948925374
828.0,0.004133430084310484
827.0,0.004072390587416422
826.0,0.0040099890178626856
825.0,0.003975598315890667
824.0,0.003982124254122719
823.0,0.004016745907672148
822.0,0.004055020536018802
821.0,0.0040784334105747775
820.0,0.0040864272374868775
819.0,0.0040966251351206556
818.0,0.0041280508002289155
817.0,0.00418391693853528
816.0,0.004258196010756959
815.0,0.004356877868776986
814.0,0.004499350452702345
813.0,0.004692554659979015
812.0,0.004912206079215622
811.0,0.0051166631773549185
810.0,0.005273527222781186
809.0,0.0053650323016360465
808.0,0.005375788665582452
807.0,0.00529549994515656
806.0,0.0051403758550388895
805.0,0.004958136906351165
804.0,0.004800432880969399
803.0,0.00469051863163529
802.0,0.004616617532947834
801.0,0.004551738871429243
800.0,0.004478238559480105
799.0,0.004398092667840284
798.0,0.004326578548148162
797.0,0.004277786730808637
796.0,0.004254195321371126
795.0,0.004246681664110007
794.0,0.004241780476498648
793.0,0.00422928288832791
792.0,0.004204536467129698
791.0,0.0041670809773729015
790.0,0.004121864753274303
789.0,0.004081465455737433
788.0,0.0040598718610745585
787.0,0.004057369987237265
786.0,0.004053803159402536
785.0,0.004025602342100498
784.0,0.003971351125924435
783.0,0.003913921227924856
782.0,0.0038760558825153228
781.0,0.0038603879740322002
780.0,0.003855034882589858
779.0,0.003849306673365625
778.0,0.003837883746712974
777.0,0.003818297871669047
776.0,0.0037940143216855056
775.0,0.003777123777894636
774.0,0.0037807254901104405
773.0,0.003808784829488228
772.0,0.003855231531329678
771.0,0.003907105957134335
770.0,0.0039458149008692765
769.0,0.003956444975354061
768.0,0.00394609643779205
767.0,0.003945631835823573
766.0,0.003979191229700602
765.0,0.004034054531676726
764.0,0.004073928337406741
763.0,0.004082246936181862
762.0,0.004079969377545298
761.0,0.004097695912498779
760.0,0.004142463610652007
759.0,0.00419828705331282
758.0,0.0042493633217561
757.0,0.004293117959722347
756.0,0.004333759233608995
755.0,0.0043708469013487156
754.0,0.004395881655134441
753.0,0.0044002793388769204
752.0,0.004388721103826597
751.0,0.004381528883408541
750.0,0.004395750508271984
749.0,0.004423463354654284
748.0,0.004437860457679593
747.0,0.004422854149471419
746.0,0.004387721747110931
745.0,0.004350027999078199
744.0,0.00431616982465281
743.0,0.0042863704186146875
742.0,0.004266797451223437
741.0,0.004264219692930819
740.0,0.00427501101605786
739.0,0.004289472284986132
738.0,0.0043030589835795895
737.0,0.004317366378630249
736.0,0.004339195212450186
735.0,0.004389187005972406
734.0,0.004499280164005229
733.0,0.004679729199660788
732.0,0.004886269692563474
731.0,0.005036470878913629
730.0,0.005071443992176421
729.0,0.005002318807577576
728.0,0.004898191229728133
727.0,0.004834149387454621
726.0,0.004844908414649805
725.0,0.004912902970338475
724.0,0.004996147243210358
723.0,0.005072915506561616
722.0,0.0051566248782289464
721.0,0.005260352759222167
720.0,0.005353078194972841
719.0,0.005376465986790445
718.0,0.005311808590673076
717.0,0.005199745746235239
716.0,0.0050913131663205035
715.0,0.005005878807745942
714.0,0.004936742087628341
713.0,0.004878114950637884
712.0,0.004834136155470301
711.0,0.004809775388560219
710.0,0.004809041499078993
709.0,0.004840920264214668
708.0,0.004915461659082043
707.0,0.00503183455324522
706.0,0.0051777773391125555
705.0,0.005345038507434572
704.0,0.00553819613092427
703.0,0.005760900261554557
702.0,0.005997405786135199
701.0,0.006212950947054428
700.0,0.006372123157143606
699.0,0.006455971822232729
698.0,0.006461018619037999
697.0,0.006385310103652833
696.0,0.006224236444302082
695.0,0.005987048068336779
694.0,0.005712057870608843
693.0,0.005450905331727348
692.0,0.005234318851179769
691.0,0.005060062502947618
690.0,0.004914673000533524
689.0,0.00480303482641959
688.0,0.004751748853084776
687.0,0.0047775305131216765
686.0,0.00485326734687066
685.0,0.004912119257346567
684.0,0.004895726308121512
683.0,0.0048049098731374135
682.0,0.004696922637264441
681.0,0.004627599910070988
680.0,0.004603856513986611
679.0,0.004598376910536953
678.0,0.004596021471611516
677.0,0.004603919709167552
676.0,0.004624950940253134
675.0,0.004646800895702591
674.0,0.004653313245735717
673.0,0.004641667515765321
672.0,0.004622645683806567
671.0,0.004627765623018027
670.0,0.004681589054550054
669.0,0.004796176382672418
668.0,0.0048932731197739755
667.0,0.004827462244102856
666.0,0.00464825800058254
665.0,0.004502071048916883
664.0,0.004442704751897592
663.0,0.0044484911194225965
662.0,0.004455940666491182
661.0,0.004422140782844878
660.0,0.0043591485586680565
659.0,0.0043115549441213345
658.0,0.004306118757461101
657.0,0.004323298768738277
656.0,0.004324623107526144
655.0,0.004302054654250509
654.0,0.004286706868730509
653.0,0.004305448605099607
652.0,0.004341931930958519
651.0,0.004351054052729478
650.0,0.004309234598238193
649.0,0.00423694476623213
648.0,0.004169155278597569
647.0,0.004123616327373439
646.0,0.004103240238506201
645.0,0.004108406947034213
644.0,0.004133185042196666
643.0,0.004160859454491437
642.0,0.004177782612125074
641.0,0.00418720591326298
640.0,0.004199171484362243
639.0,0.004212884126558887
638.0,0.004216399367787372
637.0,0.004196414474278464
636.0,0.0041438298363056705
635.0,0.004064092803654379
634.0,0.003989849550054455
633.0,0.003962974421398787
632.0,0.003993529344620594
631.0,0.004046558720656082
630.0,0.004076310919538942
629.0,0.004067113091201671
628.0,0.004033467471666505
627.0,0.003996300620716278
626.0,0.0039755658109224745
625.0,0.0039918214490517814
624.0,0.004049060925592709
623.0,0.004114772020903403
622.0,0.004137288439026412
621.0,0.00408938648826975
620.0,0.003987798898083664
619.0,0.0038799860804835376
618.0,0.0038193753698329324
617.0,0.0038377634546958132
616.0,0.003924789761264951
615.0,0.004031950482644899
614.0,0.00410425183579393
613.0,0.0041120281948517756
612.0,0.0040602508135587105
611.0,0.003985954276842088
610.0,0.003942781683103857
609.0,0.003963064819654525
608.0,0.004025636252413191
607.0,0.004069186837123687
606.0,0.004051675762280273
605.0,0.00398917149853412
604.0,0.0039241102665790745
603.0,0.003877806080687116
602.0,0.003850700560141346
601.0,0.0038474726399397863
600.0,0.0038752514363887495
599.0,0.003922410511269076
598.0,0.00396357900917805
597.0,0.003987289728430674
596.0,0.003998758239567674
595.0,0.003997148619690804
594.0,0.003971368577670269
593.0,0.003924598994108453
592.0,0.0038904512170760373
591.0,0.003908808410559704
590.0,0.003981638074321924
589.0,0.004070399897230418
588.0,0.004137717003431917
587.0,0.004172383881599811
586.0,0.004173349122477199
585.0,0.00412034543519153
584.0,0.003986058937673294
583.0,0.003795208470201242
582.0,0.0036456382093096257
581.0,0.0036276334540079292
580.0,0.0037295607339996976
579.0,0.0038584376308067395
578.0,0.003941886937278146
577.0,0.003966549934765328
576.0,0.003924596889137371
575.0,0.0038069550613866656
574.0,0.0036699919012905986
573.0,0.00361846496660349
572.0,0.003697175461223304
571.0,0.0038394798354877612
570.0,0.0039445805171860835
569.0,0.003996999137320444
568.0,0.004055610207510375
567.0,0.00414633065624175
566.0,0.004233366341465622
565.0,0.004277980231503791
564.0,0.00426326487165586
563.0,0.004169596197955493
562.0,0.003991998668608294
561.0,0.0037847385043824414
560.0,0.0036431021637752933
559.0,0.0036302894295669307
558.0,0.0037166902104494737
557.0,0.0038064107208963856
556.0,0.0038321827580810805
555.0,0.003813956310820212
554.0,0.0038127539425630314
553.0,0.0038396209178675512
552.0,0.0038555463971666776
551.0,0.0038567146286247033
550.0,0.003924152065227882
