cm-1,A
4000.0,0.0011061562237672518
3999.0,0.0011050061237588872
3998.0,0.0011069528750020214
3997.0,0.0011094260676826613
3996.0,0.0011118828565918472
3995.0,0.0011152161762614187
3994.0,0.0011198452598163528
3993.0,0.0011251208367160765
3992.0,0.0011301982469499533
3991.0,0.0011348369246066935
3990.0,0.0011387022027976837
3989.0,0.0011403632689593636
3988.0,0.0011381548560014504
3987.0,0.001132020449163725
3986.0,0.0011242949477129754
3985.0,0.0011185339425120195
3984.0,0.0011170478903798921
3983.0,0.0011200732324231273
3982.0,0.0011265679826587874
3981.0,0.0011348031185859733
3980.0,0.0011424947718320596
3979.0,0.0011473594984874181
3978.0,0.0011485630643132557
3977.0,0.0011474463092618144
3976.0,0.0011462845343090471
3975.0,0.0011456620935349202
3974.0,0.0011438795220106682
3973.0,0.0011393154555010211
3972.0,0.0011327226711287078
3971.0,0.0011266725976040851
3970.0,0.0011226189625003114
3969.0,0.001119617130441996
3968.0,0.0011163305912727474
3967.0,0.0011133823360798606
3966.0,0.0011128714359019188
3965.0,0.0011154422321578076
3964.0,0.0011185612681285182
3963.0,0.0011189143591784074
3962.0,0.0011162634002442958
3961.0,0.001113847842239838
3960.0,0.0011145012778545939
3959.0,0.0011166399252865128
3958.0,0.0011152081159857287
3957.0,0.0011075619570229222
3956.0,0.001097086246690769
3955.0,0.0010906388903557922
3954.0,0.0010924288686104994
3953.0,0.0011005319362551486
3952.0,0.0011097696989156138
3951.0,0.0011167770474885454
3950.0,0.0011221051768331406
3949.0,0.0011276320498478528
3948.0,0.0011330116491516076
3947.0,0.0011367039536375463
3946.0,0.0011395418702466768
3945.0,0.0011440434398615178
3944.0,0.001150202808788451
3943.0,0.0011539821944588527
3942.0,0.0011511666703379868
3941.0,0.0011428073823057405
3940.0,0.0011343708129109807
3939.0,0.0011291786481872883
3938.0,0.0011262770966345339
3937.0,0.0011240665099399743
3936.0,0.001123223942861534
3935.0,0.0011260974686220391
3934.0,0.0011339195738920486
3933.0,0.0011455577422340448
3932.0,0.0011578543289933944
3931.0,0.0011670308218418358
3930.0,0.001170519920605068
3929.0,0.0011680440687880929
3928.0,0.0011615261238584916
3927.0,0.0011548479792427252
3926.0,0.0011523956729245608
3925.0,0.0011559303518778904
3924.0,0.0011633951756546243
3923.0,0.001170905938389073
3922.0,0.0011753190679751097
3921.0,0.001174958574544917
3920.0,0.001171397629838069
3919.0,0.0011697867982584367
3918.0,0.0011724509664422437
3917.0,0.0011749584974252575
3916.0,0.001172399127809164
3915.0,0.0011663639953632737
3914.0,0.0011624718742250769
3913.0,0.0011634173636595035
3912.0,0.001167667408930048
3911.0,0.001173338463206281
3910.0,0.0011791379412672007
3909.0,0.0011835557685239391
3908.0,0.0011846739691684389
3907.0,0.001182689218915903
3906.0,0.0011808446301766811
3905.0,0.0011831168057644293
3904.0,0.0011886635446153866
3903.0,0.001192832876097642
3902.0,0.0011948353432102263
3901.0,0.001197004768620912
3900.0,0.0011981972687836627
3899.0,0.001194238172167109
3898.0,0.0011847721900591947
3897.0,0.0011748060412529373
3896.0,0.0011687116907282175
3895.0,0.0011673557961643568
3894.0,0.001171885121823678
3893.0,0.0011828933886663799
3892.0,0.0011930543374442772
3891.0,0.0011900692303811336
3890.0,0.0011732240185291904
3889.0,0.0011580623926395364
3888.0,0.0011568980146702402
3887.0,0.001167989479925656
3886.0,0.0011801161613665834
3885.0,0.0011807742258935494
3884.0,0.0011700865008987598
3883.0,0.0011616470111646326
3882.0,0.001163143183551007
3881.0,0.001171099637547034
3880.0,0.0011771600357562305
3879.0,0.0011756345676096755
3878.0,0.001171665156680806
3877.0,0.0011722638521172186
3876.0,0.0011760072702965375
3875.0,0.0011788388693227056
3874.0,0.0011786889999396075
3873.0,0.0011778945181137616
3872.0,0.0011823921827378487
3871.0,0.0011913780813179605
3870.0,0.0011930524522371583
3869.0,0.0011785888433041873
3868.0,0.0011588545406308799
3867.0,0.0011507103255305562
3866.0,0.0011521991648291599
3865.0,0.001151365116911435
3864.0,0.001143296742758019
3863.0,0.0011306392512023659
3862.0,0.0011188651971727813
3861.0,0.001111402985525374
3860.0,0.0011092778570561679
3859.0,0.0011127807143585322
3858.0,0.0011173775907885727
3857.0,0.0011155022653864598
3856.0,0.0011037871390436947
3855.0,0.0010939783881068325
3854.0,0.0011050756466857658
3853.0,0.0011243444904852139
3852.0,0.0011275273862389654
3851.0,0.0011296931810059513
3850.0,0.0011419499304154146
3849.0,0.0011508244801877883
3848.0,0.0011501870539082368
3847.0,0.001146545514989025
3846.0,0.001145705877028742
3845.0,0.0011474339666643378
3844.0,0.0011485431506467391
3843.0,0.0011461466254076794
3842.0,0.0011410420728035385
3841.0,0.00113833605497347
3840.0,0.0011415625527703235
3839.0,0.0011484574034215525
3838.0,0.0011517513718217669
3837.0,0.0011475231543222565
3836.0,0.0011398790530851295
3835.0,0.0011358760814274295
3834.0,0.0011373667090715414
3833.0,0.0011412406309039124
3832.0,0.0011438029287284658
3831.0,0.0011438926738844904
3830.0,0.0011439447924235183
3829.0,0.001146755101884472
3828.0,0.0011510438788737854
3827.0,0.0011527793231556776
3826.0,0.0011498897808656407
3825.0,0.001145695768721222
3824.0,0.0011463921829607511
3823.0,0.0011557796039473101
3822.0,0.0011732646640389716
3821.0,0.00118884346219431
3820.0,0.0011902711763701135
3819.0,0.0011867981958424596
3818.0,0.0011902896995473963
3817.0,0.0011946647950345562
3816.0,0.0011909545949034934
3815.0,0.001177985336667527
3814.0,0.0011660473679537407
3813.0,0.0011638185082589706
3812.0,0.001163205719111657
3811.0,0.0011539620834247546
3810.0,0.0011403637652520155
3809.0,0.0011331802444358875
3808.0,0.0011362994496529931
3807.0,0.001141429005297026
3806.0,0.0011386970005152785
3805.0,0.0011327414243411005
3804.0,0.0011325729069433061
3803.0,0.0011366177226141685
3802.0,0.0011408852597724279
3801.0,0.0011405386396921287
3800.0,0.001136172908412014
3799.0,0.001140791504068543
3798.0,0.001155479111674202
3797.0,0.0011656358511487695
3796.0,0.0011624846921385792
3795.0,0.0011497645615940392
3794.0,0.001137244112257628
3793.0,0.0011299526588683588
3792.0,0.001126127918748162
3791.0,0.001123897893129474
3790.0,0.001123806993254363
3789.0,0.0011254014717796221
3788.0,0.0011272747217199223
3787.0,0.0011304463650818179
3786.0,0.0011374422184639737
3785.0,0.0011462320011500272
3784.0,0.0011494971975247051
3783.0,0.0011425277586221434
3782.0,0.0011291663973108977
3781.0,0.0011178657050908932
3780.0,0.0011145525419837287
3779.0,0.0011171852816199966
3778.0,0.0011195643315075172
3777.0,0.0011209918784443151
3776.0,0.0011237588426322004
3775.0,0.001127154987981664
3774.0,0.0011297216450409154
3773.0,0.0011318984420007898
3772.0,0.0011333272129267196
3771.0,0.0011302967338448606
3770.0,0.001119074229070074
3769.0,0.0011026102957752424
3768.0,0.0010903480572137768
3767.0,0.0010884182340730117
3766.0,0.001093382253200922
3765.0,0.0010986363075327424
3764.0,0.0011029396089310478
3763.0,0.0011105170788033793
3762.0,0.0011221309519201476
3761.0,0.0011311853455831418
3760.0,0.0011316705686233506
3759.0,0.0011247002856056292
3758.0,0.001116393589858254
3757.0,0.0011118744087210493
3756.0,0.0011118806912068001
3755.0,0.0011148626144752878
3754.0,0.0011188096077330676
3753.0,0.0011250049129572105
3752.0,0.001140978906939697
3751.0,0.0011689693117225624
3750.0,0.0011935741086695484
3749.0,0.0011989992071472265
3748.0,0.00118786569786339
3747.0,0.0011720291720002736
3746.0,0.0011615540162610897
3745.0,0.0011633655872897697
3744.0,0.001163455192663775
3743.0,0.0011491136980197095
3742.0,0.0011428810058627934
3741.0,0.0011550517689370133
3740.0,0.0011681899451630195
3739.0,0.0011768965654187532
3738.0,0.001191024732810297
3737.0,0.0012153974560936802
3736.0,0.0012383021094063721
3735.0,0.0012438404160835916
3734.0,0.0012342293894825008
3733.0,0.001223936196336334
3732.0,0.0012176170855212258
3731.0,0.0012125330127265785
3730.0,0.0012107527720238188
3729.0,0.0012149677331807817
3728.0,0.0012210396353236961
3727.0,0.0012227025333429093
3726.0,0.0012190458633291414
3725.0,0.001214832523750002
3724.0,0.0012137160134322554
3723.0,0.0012117707431497336
3722.0,0.0012036262633437155
3721.0,0.0011909231998924433
3720.0,0.0011807567163010435
3719.0,0.001177682980729425
3718.0,0.0011797852693480118
3717.0,0.00118346279340164
3716.0,0.001188891758692768
3715.0,0.0012006686082470966
3714.0,0.0012245407164940092
3713.0,0.0012647283103871822
3712.0,0.001317368307101496
3711.0,0.0013650877472705255
3710.0,0.0013940034827918985
3709.0,0.0014077448719014853
3708.0,0.0014165610416742086
3707.0,0.0014269643804758012
3706.0,0.0014418319087174127
3705.0,0.0014631982536343286
3704.0,0.001493009853572876
3703.0,0.0015327022192740038
3702.0,0.0015779953112396534
3701.0,0.0016172045890017433
3700.0,0.0016414121859782914
3699.0,0.0016523778037675725
3698.0,0.001654936025956739
3697.0,0.0016512152526488052
3696.0,0.0016424816793452184
3695.0,0.0016309702833429626
3694.0,0.001616859994617617
3693.0,0.001595649490878342
3692.0,0.0015634584657614036
3691.0,0.0015250223292129312
3690.0,0.001493800379892672
3689.0,0.0014776984446671308
3688.0,0.0014703719292115652
3687.0,0.001464536277947797
3686.0,0.0014607598065359741
3685.0,0.0014568970211881814
3684.0,0.0014469030096153422
3683.0,0.0014307722989758544
3682.0,0.0014153314164148199
3681.0,0.0014075894269071246
3680.0,0.0014077325366071048
3679.0,0.0014121255136577814
3678.0,0.0014201289967342916
3677.0,0.0014341073710562157
3676.0,0.0014508858744388575
3675.0,0.001455599307994364
3674.0,0.0014482765144506827
3673.0,0.0014516771263112923
3672.0,0.0014706457355917473
3671.0,0.0014902444744316697
3670.0,0.0014988273620415021
3669.0,0.0014929855431299573
3668.0,0.0014852310988957757
3667.0,0.0014900666393961415
3666.0,0.0015041099534312454
3665.0,0.0015167669721147187
3664.0,0.0015239511901259722
3663.0,0.0015280752787224941
3662.0,0.0015327191099029935
3661.0,0.001538762913877707
3660.0,0.0015454821942481735
3659.0,0.0015536720548631044
3658.0,0.0015655734612357451
3657.0,0.00158066422016971
3656.0,0.0015933320599752065
3655.0,0.001600700178018675
3654.0,0.0016091325095148002
3653.0,0.0016222296302377476
3652.0,0.0016361165554039533
3651.0,0.0016511409936027363
3650.0,0.0016692076684979074
3649.0,0.0016809895336172844
3648.0,0.0016796860721986447
3647.0,0.0016745778301836007
3646.0,0.0016760527341474867
3645.0,0.0016850976935297184
3644.0,0.0016959520385103552
3643.0,0.0017020786391192901
3642.0,0.0017013382163395194
3641.0,0.0016973203471830705
3640.0,0.0016958568820058437
3639.0,0.0017000058724910153
3638.0,0.0017080791794489114
3637.0,0.0017173233221137014
3636.0,0.0017273787643222911
3635.0,0.001738560872043759
3634.0,0.0017490853750630757
3633.0,0.001756233188244406
3632.0,0.0017603972215225671
3631.0,0.0017660294819458319
3630.0,0.0017816529232583204
3629.0,0.0018072831027991522
3628.0,0.001825812877155796
3627.0,0.0018367539265799278
3626.0,0.0018561194958047456
3625.0,0.001881287514965801
3624.0,0.0019002791116640157
3623.0,0.001909829513729669
3622.0,0.0019133816516224708
3621.0,0.001914850653335526
3620.0,0.0019165273276467074
3619.0,0.0019191407646460467
3618.0,0.0019235659997106987
3617.0,0.0019330515012462328
3616.0,0.0019484819448852084
3615.0,0.0019662822966355037
3614.0,0.001984848569292176
3613.0,0.002007531123967671
3612.0,0.00203849592765784
3611.0,0.0020782208997323524
3610.0,0.0021218838742061248
3609.0,0.0021613433034595956
3608.0,0.002191053048659379
3607.0,0.0022118023556925216
3606.0,0.0022271145770364196
3605.0,0.002236454359437214
3604.0,0.0022353221120078206
3603.0,0.002222031986656595
3602.0,0.0022002025820144822
3601.0,0.0021752489207305507
3600.0,0.0021505076410291537
3599.0,0.0021272959973098605
3598.0,0.0021047983819882637
3597.0,0.0020795319383403506
3596.0,0.0020480637232162414
3595.0,0.0020113904251831387
3594.0,0.0019764802154829853
3593.0,0.0019514239456457187
3592.0,0.0019395650367783233
3591.0,0.001936889610739899
3590.0,0.0019356943031612864
3589.0,0.0019295061208385164
3588.0,0.0019170169778149524
3587.0,0.0019019131784497423
3586.0,0.0018907633638130393
3585.0,0.0018885273020336703
3584.0,0.0018945192053631552
3583.0,0.0019050316030261886
3582.0,0.0019170140628974887
3581.0,0.0019272229152611912
3580.0,0.0019310757425503623
3579.0,0.0019261317140246911
3578.0,0.0019150774782254226
3577.0,0.0019033958264906706
3576.0,0.0018953733036660928
3575.0,0.0018924395599902361
3574.0,0.0018939392869639928
3573.0,0.0018977859188578365
3572.0,0.0019017144611950397
3571.0,0.0019050964935261655
3570.0,0.0019107807148008092
3569.0,0.0019244525064283603
3568.0,0.0019493022924620832
3567.0,0.0019779515498222424
3566.0,0.0019979247737039003
3565.0,0.0020065318755224998
3564.0,0.0020089207891303977
3563.0,0.002007897905227426
3562.0,0.002003526566490606
3561.0,0.001996664381832059
3560.0,0.001990219790409986
3559.0,0.001988025446163868
3558.0,0.001992720380806098
3557.0,0.0020038093437504804
3556.0,0.0020182523241758163
3555.0,0.0020327720369370202
3554.0,0.0020444866449993134
3553.0,0.002050069978066673
3552.0,0.0020474602708503036
3551.0,0.002039819246858651
3550.0,0.0020350098962086173
3549.0,0.002039769844578849
3548.0,0.0020548247861971896
3547.0,0.002074283241021459
3546.0,0.0020890809984464953
3545.0,0.002093712029287943
3544.0,0.002090903406931385
3543.0,0.00208834252502043
3542.0,0.0020916628855761365
3541.0,0.0021014635378862685
3540.0,0.002115434335831767
3539.0,0.002131381028841616
3538.0,0.0021474289953483856
3537.0,0.002160818094383306
3536.0,0.002169294043087384
3535.0,0.0021742457056683653
3534.0,0.0021798190827977044
3533.0,0.0021883495452133086
3532.0,0.002198599431929868
3531.0,0.002208641712500042
3530.0,0.0022188636178805724
3529.0,0.002230779565156086
3528.0,0.0022443289242420395
3527.0,0.0022576514079542653
3526.0,0.002268910486983889
3525.0,0.0022772761234644387
3524.0,0.0022832839274527935
3523.0,0.0022887384730963267
3522.0,0.0022950767473103612
3521.0,0.00230165694997917
3520.0,0.0023066538426049243
3519.0,0.002309577241118103
3518.0,0.0023118148921454883
3517.0,0.002314909414425562
3516.0,0.002319845024762589
3515.0,0.002327678507097731
3514.0,0.0023387644085621265
3513.0,0.0023511098107572696
3512.0,0.0023617933068471753
3511.0,0.0023710165509335
3510.0,0.002382379676417889
3509.0,0.00239729567761474
3508.0,0.0024119797447254418
3507.0,0.002422067565550347
3506.0,0.002427528371444383
3505.0,0.002431484603225497
3504.0,0.002436238403403521
3503.0,0.0024416810876755368
3502.0,0.0024466872859604536
3501.0,0.002450592734631077
3500.0,0.002453558708258502
3499.0,0.0024570810959370823
3498.0,0.002463792847673463
3497.0,0.0024748119776140027
3496.0,0.0024876404299043866
3495.0,0.002498165564394049
3494.0,0.002504364902726026
3493.0,0.0025073359286703865
3492.0,0.002509728890268761
3491.0,0.002514175000308295
3490.0,0.0025222165503717606
3489.0,0.002533259779852534
3488.0,0.0025450387216484046
3487.0,0.002556089955602832
3486.0,0.002567051114215473
3485.0,0.002578949980907224
3484.0,0.00259135204808366
3483.0,0.0026025840130972696
3482.0,0.002610720502638471
3481.0,0.0026145281511797394
3480.0,0.0026152647278791363
3479.0,0.0026174458493018436
3478.0,0.00262541916367018
3477.0,0.002638524510686493
3476.0,0.002651521253123278
3475.0,0.0026605826501563514
3474.0,0.0026668926855718863
3473.0,0.002673338111741811
3472.0,0.0026805883722087944
3471.0,0.002688456442195293
3470.0,0.002698359456179104
3469.0,0.0027114513916891092
3468.0,0.0027257449347278806
3467.0,0.0027377173407687246
3466.0,0.00274586045679588
3465.0,0.0027506876771461793
3464.0,0.0027529691786496993
3463.0,0.0027544510076208516
3462.0,0.0027585635079414384
3461.0,0.002767477695513625
3460.0,0.0027793229666134255
3459.0,0.0027908316316227737
3458.0,0.0028018648188221033
3457.0,0.0028149255771584697
3456.0,0.0028308674225797394
3455.0,0.0028473263170368194
3454.0,0.00286084540908389
3453.0,0.002868807495987874
3452.0,0.0028705557680562604
3451.0,0.0028685370840142825
3450.0,0.002867108576310404
3449.0,0.002868199224004178
3448.0,0.0028695230183328627
3447.0,0.0028695107261561973
3446.0,0.0028719514542538205
3445.0,0.0028813374982206786
3444.0,0.002895249920595173
3443.0,0.0029060715952900513
3442.0,0.002910010831634809
3441.0,0.0029107493640482766
3440.0,0.0029134289130105344
3439.0,0.0029186982733588867
3438.0,0.002924289033590548
3437.0,0.002929148884259436
3436.0,0.002933742083766808
3435.0,0.002938250737981614
3434.0,0.002942415604659315
3433.0,0.002946217556715031
3432.0,0.002949509557146744
3431.0,0.002951587176085323
3430.0,0.0029519642028330633
3429.0,0.0029510863569537794
3428.0,0.0029500000263783964
3427.0,0.0029496765301018964
3426.0,0.0029507080850817435
3425.0,0.0029530930753780636
3424.0,0.0029561513977419355
3423.0,0.0029588066233286166
3422.0,0.002959736762091463
3421.0,0.002957540030797231
3420.0,0.002952035287545717
3419.0,0.0029458622515597067
3418.0,0.002943382516139098
3417.0,0.002946999914933769
3416.0,0.0029554095839474668
3415.0,0.00296604596685442
3414.0,0.002977856991335243
3413.0,0.002990269499652541
3412.0,0.0030009038901055406
3411.0,0.0030068460146642946
3410.0,0.003008069182806706
3409.0,0.0030076245900005107
3408.0,0.003008001100446962
3407.0,0.0030087957071227023
3406.0,0.00300864141570659
3405.0,0.0030083341215003806
3404.0,0.0030110238868389684
3403.0,0.003019226606926444
3402.0,0.003031743841694054
3401.0,0.003043792320205632
3400.0,0.00305066186926175
3399.0,0.003051484719454751
3398.0,0.003049468175527822
3397.0,0.003048827549031084
3396.0,0.003051896968891398
3395.0,0.003058549811680666
3394.0,0.003066945748356007
3393.0,0.003074403155232057
3392.0,0.0030789576910299106
3391.0,0.0030810175568796137
3390.0,0.003082702297382326
3389.0,0.0030851979273268833
3388.0,0.003087761724983799
3387.0,0.0030896556488964446
3386.0,0.0030918089986811522
3385.0,0.00309568697919535
3384.0,0.0031012235674233923
3383.0,0.0031066936485498403
3382.0,0.003110201895014828
3381.0,0.003111090753157685
3380.0,0.0031108056148574283
3379.0,0.0031124402100474726
3378.0,0.0031181078089804106
3377.0,0.003126372235713065
3376.0,0.0031335624996201303
3375.0,0.0031378801781214785
3374.0,0.0031406558240148564
3373.0,0.003143259221465933
3372.0,0.003144901171598962
3371.0,0.003144610021633211
3370.0,0.0031435863254349727
3369.0,0.003143761703112271
3368.0,0.0031448106667605015
3367.0,0.0031442395596110078
3366.0,0.0031402241989717146
3365.0,0.00313353394391411
3364.0,0.0031273094962170856
3363.0,0.0031255523827481303
3362.0,0.0031304116974735724
3361.0,0.0031394560630222026
3360.0,0.00314641448939442
3359.0,0.0031462934935454845
3358.0,0.0031399820737489023
3357.0,0.0031333362637570392
3356.0,0.0031319155263555745
3355.0,0.003136521572832675
3354.0,0.003143017307748533
3353.0,0.003146111170368386
3352.0,0.003143932545625721
3351.0,0.003139114026713779
3350.0,0.003134959733424974
3349.0,0.003131430031411248
3348.0,0.003126516918161404
3347.0,0.0031207520872392897
3346.0,0.003117394060008262
3345.0,0.003117798577856337
3344.0,0.003119618427504826
3343.0,0.0031206252701737663
3342.0,0.003121488201466639
3341.0,0.003123253904582521
3340.0,0.0031246148336090815
3339.0,0.0031238314393945412
3338.0,0.003121656893136284
3337.0,0.0031201512676162554
3336.0,0.003119782520383815
3335.0,0.0031195348536288154
3334.0,0.0031185865538885024
3333.0,0.003116014018883762
3332.0,0.003110311708891312
3331.0,0.0031014926722950815
3330.0,0.0030927156435334568
3329.0,0.0030877212848716626
3328.0,0.003087079139148613
3327.0,0.003088430599695789
3326.0,0.003089738223615833
3325.0,0.0030906716609287723
3324.0,0.0030914012180553617
3323.0,0.0030919255232916103
3322.0,0.00309264796158138
3321.0,0.0030943123789768257
3320.0,0.003097135807037383
3319.0,0.003100588096185573
3318.0,0.003103857274369408
3317.0,0.0031061399175853653
3316.0,0.0031068561618601068
3315.0,0.0031056927122560885
3314.0,0.0031019377536657504
3313.0,0.0030943814293576443
3312.0,0.0030835002098959525
3311.0,0.0030735474296058
3310.0,0.003070107286672369
3309.0,0.0030745955358489436
3308.0,0.003082912596548394
3307.0,0.0030902371045879416
3306.0,0.0030949935747791495
3305.0,0.0030973556090415884
3304.0,0.003096859493496357
3303.0,0.00309357182750117
3302.0,0.003089460193828274
3301.0,0.003086255268892936
3300.0,0.0030832756644649188
3299.0,0.0030793286977053433
3298.0,0.0030755518242729634
3297.0,0.003074401967044833
3296.0,0.0030765255308051586
3295.0,0.0030799935724908
3294.0,0.0030819433696341082
3293.0,0.003080375369507526
3292.0,0.0030759525043051834
3291.0,0.0030728853057611274
3290.0,0.003075833445179115
3289.0,0.0030841246217883983
3288.0,0.003090642590613293
3287.0,0.003088382698060911
3286.0,0.003077192629140725
3285.0,0.003062875945415341
3284.0,0.003051277705643364
3283.0,0.003044758281648733
3282.0,0.0030426070725044748
3281.0,0.0030424482131116036
3280.0,0.003041920412689467
3279.0,0.003040947979641072
3278.0,0.0030420107902974208
3277.0,0.0030468441791019485
3276.0,0.0030535527284484294
3275.0,0.0030582273690374666
3274.0,0.003058571410880598
3273.0,0.0030548609360068193
3272.0,0.003048575613492706
3271.0,0.003041437739718068
3270.0,0.0030347261525635657
3269.0,0.0030283905576991782
3268.0,0.003021973460107825
3267.0,0.003017069704909092
3266.0,0.003016753469974021
3265.0,0.003021039060406486
3264.0,0.0030248926137542258
3263.0,0.003022750895471273
3262.0,0.003013748030414453
3261.0,0.0030011876881133135
3260.0,0.002988907107258419
3259.0,0.002980080421982904
3258.0,0.0029772752301290145
3257.0,0.0029802975491179332
3256.0,0.0029846091242143507
3255.0,0.0029846725949470134
3254.0,0.002978905285490434
3253.0,0.002969727177363023
3252.0,0.002959658850578635
3251.0,0.0029496196375142884
3250.0,0.002940423152531499
3249.0,0.0029334531723029028
3248.0,0.002929457311708539
3247.0,0.0029279162522345033
3246.0,0.0029275851730052576
3245.0,0.002926883768911313
3244.0,0.0029243973978423108
3243.0,0.0029197881666027086
3242.0,0.0029134539019867386
3241.0,0.002905051791388072
3240.0,0.002894165010316891
3239.0,0.0028831964475964826
3238.0,0.0028770861786171784
3237.0,0.0028779675702245173
3236.0,0.002881802572802199
3235.0,0.0028827738677212568
3234.0,0.002879774877021628
3233.0,0.002876195455504978
3232.0,0.0028744889873393237
3231.0,0.002873619763799005
3230.0,0.002871289924966442
3229.0,0.002866233939393624
3228.0,0.002858552960267295
3227.0,0.0028499144645965716
3226.0,0.002843265110558992
3225.0,0.0028404287100044136
3224.0,0.002839976264956947
3223.0,0.002838773430813268
3222.0,0.002835252123769366
3221.0,0.0028299654315426994
3220.0,0.0028237041861835788
3219.0,0.0028167415682316494
3218.0,0.002809480939696976
3217.0,0.002802195755979336
3216.0,0.002794346028239674
3215.0,0.002785497597581647
3214.0,0.0027766194355494348
3213.0,0.002769330799546155
3212.0,0.0027644113763597156
3211.0,0.002762083115684376
3210.0,0.002762652636605902
3209.0,0.0027652875924418126
3208.0,0.002767057452495376
3207.0,0.002765083539062966
3206.0,0.0027594388295545734
3205.0,0.00275263672747084
3204.0,0.0027466086200422417
3203.0,0.002741247171574653
3202.0,0.00273542345294398
3201.0,0.0027283560458853003
3200.0,0.0027203807236458764
3199.0,0.0027130683075075753
3198.0,0.002707767830558834
3197.0,0.002703530085755631
3196.0,0.0026979912094115275
3195.0,0.0026910790070827865
3194.0,0.002685758320246756
3193.0,0.002683756456509815
3192.0,0.002682680578238364
3191.0,0.0026794659338461977
3190.0,0.0026749696814787867
3189.0,0.0026723074157612853
3188.0,0.0026715563462882956
3187.0,0.0026692228941273353
3186.0,0.0026630719249150624
3185.0,0.002654846572884313
3184.0,0.0026474170278246575
3183.0,0.0026410458186555403
3182.0,0.0026334377962009435
3181.0,0.002622661427488394
3180.0,0.002609761561780287
3179.0,0.0025988621674051856
3178.0,0.0025938614706098595
3177.0,0.0025941296349018175
3176.0,0.002594404900868875
3175.0,0.002590001939955358
3174.0,0.002581169050719277
3173.0,0.002571320280318822
3172.0,0.002562390766581094
3171.0,0.00255387125421981
3170.0,0.002545559230790856
3169.0,0.0025386691661828087
3168.0,0.0025337931989421396
3167.0,0.002529613616520978
3166.0,0.0025244285625043196
3165.0,0.002517932590103017
3164.0,0.0025110230772390552
3163.0,0.0025046276468929938
3162.0,0.00249923215132174
3161.0,0.002495211205902203
3160.0,0.002493127635387251
3159.0,0.002493315544488535
3158.0,0.0024947852443841173
3157.0,0.002494851693449142
3156.0,0.0024908982081887784
3155.0,0.0024828217509094363
3154.0,0.002473117152667967
3153.0,0.0024647102240093876
3152.0,0.002459460202752212
3151.0,0.0024580071662355556
3150.0,0.0024591472926082437
3149.0,0.002459312796546087
3148.0,0.00245500553541766
3147.0,0.002446712344076194
3146.0,0.0024386418305010478
3145.0,0.002433803654024369
3144.0,0.002431046220241318
3143.0,0.0024275570544156047
3142.0,0.0024221763893348108
3141.0,0.0024152582341041297
3140.0,0.002407383199561197
3139.0,0.0023997489227852086
3138.0,0.00239408186515819
3137.0,0.00239049401846348
3136.0,0.0023870578685424495
3135.0,0.002382923164746624
3134.0,0.002380046515580375
3133.0,0.0023801113165543624
3132.0,0.0023812530355281983
3131.0,0.002380029857534015
3130.0,0.0023757326589843837
3129.0,0.0023709045407925107
3128.0,0.0023684842979454896
3127.0,0.0023696822745047762
3126.0,0.0023734759232613835
3125.0,0.0023771209765229007
3124.0,0.0023784558772891825
3123.0,0.0023788115141327422
3122.0,0.002381888181766196
3121.0,0.002388332358788325
3120.0,0.002393782451132471
3119.0,0.0023942908047338814
3118.0,0.0023915141439160717
3117.0,0.002390115791343448
3116.0,0.0023916342063880713
3115.0,0.002393755777092548
3114.0,0.0023948035691958767
3113.0,0.002395925319329743
3112.0,0.0023992253817556484
3111.0,0.0024063702795561496
3110.0,0.0024184671272700865
3109.0,0.0024347467861031463
3108.0,0.0024512680502513364
3107.0,0.002463199373978221
3106.0,0.0024691308982208774
3105.0,0.0024720183248272297
3104.0,0.002476297162728018
3103.0,0.0024851648170612136
3102.0,0.0024997363035071814
3101.0,0.002519060687401881
3100.0,0.0025411061462977226
3099.0,0.002564986716481358
3098.0,0.002591501960782892
3097.0,0.002620328080923506
3096.0,0.0026478678069209527
3095.0,0.002669725676161975
3094.0,0.00268506361932738
3093.0,0.002696851215759938
3092.0,0.002708387514298855
3091.0,0.0027213089287808005
3090.0,0.0027359769332598147
3089.0,0.0027516619790795825
3088.0,0.002766433166181553
3087.0,0.0027788414979910054
3086.0,0.0027902024474828974
3085.0,0.002803546327315387
3084.0,0.002819901198485855
3083.0,0.002836709030355579
3082.0,0.00285037120833818
3081.0,0.002859735887276847
3080.0,0.0028665760030466393
3079.0,0.00287313853593184
3078.0,0.0028796996190114136
3077.0,0.0028846106652234216
3076.0,0.002886816604397786
3075.0,0.0028881398710349226
3074.0,0.002892408675889112
3073.0,0.0029021665347945423
3072.0,0.002916732270686094
3071.0,0.002933296903501443
3070.0,0.0029491124067665122
3069.0,0.0029626231094746344
3068.0,0.002973740908754451
3067.0,0.0029835417277021643
3066.0,0.002992859819885652
3065.0,0.003001102322623907
3064.0,0.0030076321543238945
3063.0,0.003014163913619877
3062.0,0.0030238393683062617
3061.0,0.003037706438676219
3060.0,0.0030536814952044876
3059.0,0.0030694119492119133
3058.0,0.0030843607357547006
3057.0,0.003098402275095201
3056.0,0.003110778860181856
3055.0,0.0031219020626284556
3054.0,0.003134551984233772
3053.0,0.003151430863914358
3052.0,0.00317264830183186
3051.0,0.003196728616379244
3050.0,0.0032225678946046195
3049.0,0.0032487833055401157
3048.0,0.003272211509853658
3047.0,0.0032895824852587525
3046.0,0.0033008877263632063
3045.0,0.0033101499921703356
3044.0,0.0033227167762904415
3043.0,0.0033417290455466887
3042.0,0.0033666021020752404
3041.0,0.003394228610752061
3040.0,0.0034220272427685867
3039.0,0.0034499537081350866
3038.0,0.003478883723540595
3037.0,0.0035077424432336315
3036.0,0.003533800296080028
3035.0,0.003556098807252269
3034.0,0.003577132142409235
3033.0,0.0036004127555246167
3032.0,0.0036275431039565
3031.0,0.003657603676134231
3030.0,0.003687681077706881
3029.0,0.003713930398735031
3028.0,0.0037341505327542395
3027.0,0.003750415903161286
3026.0,0.0037677079821965363
3025.0,0.0037889410424695163
3024.0,0.0038130305675068716
3023.0,0.003838161742328183
3022.0,0.0038645209809986215
3021.0,0.0038923534049321515
3020.0,0.003919746880992436
3019.0,0.00394478441732626
3018.0,0.003968501093906233
3017.0,0.003993665749443075
3016.0,0.004021361278949064
3015.0,0.004050627474906579
3014.0,0.004080743114790648
3013.0,0.004112268354507045
3012.0,0.004145972727996461
3011.0,0.004181901063123758
3010.0,0.004219474951915027
3009.0,0.004257970020744637
3008.0,0.00429723646234669
3007.0,0.004338118394274554
3006.0,0.004381665241246146
3005.0,0.004427995439968562
3004.0,0.004476813162971136
3003.0,0.004528784188860993
3002.0,0.004585048477804935
3001.0,0.004645518285143111
3000.0,0.0047092892176946455
2999.0,0.0047764760484319945
2998.0,0.004847594850103122
2997.0,0.004921231313934242
2996.0,0.004995280229429463
2995.0,0.005071400241773563
2994.0,0.005155571516052702
2993.0,0.005252184526146832
2992.0,0.00535934833125406
2991.0,0.005471922769672772
2990.0,0.005587686567415477
2989.0,0.0057089826439270805
2988.0,0.005839516488812542
2987.0,0.005981987618000214
2986.0,0.006138512813553991
2985.0,0.006311374755250039
2984.0,0.006502608035823857
2983.0,0.006713358372439766
2982.0,0.006944415672849811
2981.0,0.007197653903529035
2980.0,0.007477039148127194
2979.0,0.007787128973621712
2978.0,0.008129664333835513
2977.0,0.0085029642334893
2976.0,0.008906365316475493
2975.0,0.0093446638238929
2974.0,0.00982633858903907
2973.0,0.010358143427251183
2972.0,0.010942981447993912
2971.0,0.01158185105770502
2970.0,0.012274217244400044
2969.0,0.013015422344141004
2968.0,0.013796292398269797
2967.0,0.014606496285514704
2966.0,0.015436713342401882
2965.0,0.016276928629850928
2964.0,0.01711469111703521
2963.0,0.017935686110772453
2962.0,0.01872504832003131
2961.0,0.019469750135793308
2960.0,0.020161761073716075
2959.0,0.020798510604179133
2958.0,0.021379195670648183
2957.0,0.021901678897151052
2956.0,0.022364555797132105
2955.0,0.022771282190531015
2954.0,0.02313263516145209
2953.0,0.023469000321587972
2952.0,0.023814647377226834
2951.0,0.024218593018982687
2950.0,0.02473844108168867
2949.0,0.025433147892580603
2948.0,0.0263577940307665
2947.0,0.02755947446039626
2946.0,0.02907121580408672
2945.0,0.030909486512732003
2944.0,0.033081015172235
2943.0,0.03558912065938327
2942.0,0.03843373704061486
2941.0,0.04161110491621795
2940.0,0.04512013745913489
2939.0,0.04896864227959144
2938.0,0.05316943752089349
2937.0,0.057734829773919846
2936.0,0.06268111822948864
2935.0,0.0680340092626875
2934.0,0.07382106893771256
2933.0,0.08006484050251962
2932.0,0.08679434358986397
2931.0,0.09406049413659713
2930.0,0.10193408940045466
2929.0,0.11049552312412088
2928.0,0.1198390291705931
2927.0,0.13008235003755464
2926.0,0.14135729942373618
2925.0,0.15379562398384372
2924.0,0.1675220868373118
2923.0,0.18262483009633143
2922.0,0.19909159802334986
2921.0,0.21673558835752899
2920.0,0.23511243238146673
2919.0,0.2533601640603433
2918.0,0.2700064641668641
2917.0,0.2830080324765135
2916.0,0.2902502355175518
2915.0,0.2903494344962507
2914.0,0.28325200624920266
2913.0,0.2703020292337455
2912.0,0.2536895550018871
2911.0,0.23566048665573752
2910.0,0.21795856967422814
2909.0,0.2016326603107823
2908.0,0.1871686950946902
2907.0,0.17466896650119298
2906.0,0.16400125759544387
2905.0,0.15491852169938888
2904.0,0.1471473522855482
2903.0,0.14043474945214784
2902.0,0.13455313469541708
2901.0,0.12931085869498338
2900.0,0.12455978343803717
2899.0,0.12018457002513566
2898.0,0.11607986702723196
2897.0,0.11214928791114735
2896.0,0.10832189219064783
2895.0,0.10455317451995738
2894.0,0.10081181527875312
2893.0,0.09707368788204113
2892.0,0.09332981135094019
2891.0,0.08958782637844137
2890.0,0.08586088217881972
2889.0,0.08216490466179283
2888.0,0.0785234070238022
2887.0,0.07496494766958926
2886.0,0.0715143997631804
2885.0,0.0681903144594012
2884.0,0.06500935392467469
2883.0,0.06198548357718767
2882.0,0.0591247840265918
2881.0,0.056429807714693025
2880.0,0.05391126751082541
2879.0,0.051593044327312806
2878.0,0.04950607085834919
2877.0,0.04768123465635095
2876.0,0.04614326569341886
2875.0,0.044900681624271396
2874.0,0.04393602504604133
2873.0,0.04320944552827238
2872.0,0.042680231505005634
2871.0,0.04232758066656206
2870.0,0.04216093001610019
2869.0,0.042223416714086734
2868.0,0.04259062991631795
2867.0,0.04335953555396794
2866.0,0.04462942385522553
2865.0,0.04648948309680662
2864.0,0.04902403202757091
2863.0,0.0523229158060834
2862.0,0.05648471775011364
2861.0,0.06162041244429162
2860.0,0.0678687331130133
2859.0,0.0754107957867591
2858.0,0.08447865965865405
2857.0,0.09535918162247968
2856.0,0.1084172025652431
2855.0,0.12408975006953987
2854.0,0.14281119655689206
2853.0,0.16478256045614376
2852.0,0.18947037888416526
2851.0,0.21483973568350026
2850.0,0.23673616346653428
2849.0,0.2496146009502057
2848.0,0.24930412273865477
2847.0,0.23589571787985122
2846.0,0.21352716285727974
2845.0,0.18755455734693838
2844.0,0.1620631436434301
2843.0,0.13922352377189637
2842.0,0.11976505108060946
2841.0,0.10363528591563832
2840.0,0.09045020194392958
2839.0,0.07972843024405239
2838.0,0.07098516192121011
2837.0,0.06379989881335804
2836.0,0.057838681804333984
2835.0,0.05284786649531027
2834.0,0.048637730254547595
2833.0,0.045058799829679606
2832.0,0.04199236786258986
2831.0,0.039339433907636785
2830.0,0.03702037189730961
2829.0,0.03497306050622856
2828.0,0.03315010875045445
2827.0,0.03151507964147403
2826.0,0.03004004227869175
2825.0,0.028703777020306222
2824.0,0.027488895308844945
2823.0,0.026379150104059404
2822.0,0.025359896066013667
2821.0,0.02441874205596292
2820.0,0.02354526148797623
2819.0,0.02273025295557051
2818.0,0.021966600663656063
2817.0,0.021250299536142606
2816.0,0.020579436775002295
2815.0,0.019951996272014588
2814.0,0.01936475783433673
2813.0,0.01881372119649449
2812.0,0.01829480493669729
2811.0,0.017804070574591185
2810.0,0.017337749408045517
2809.0,0.016892373106888663
2808.0,0.016465381861826275
2807.0,0.016055592575173853
2806.0,0.01566261024946669
2805.0,0.015285321338743732
2804.0,0.01492158524908643
2803.0,0.014569973565457368
2802.0,0.01423102639462085
2801.0,0.013905628763405845
2800.0,0.01359248078080364
2799.0,0.013288376433625139
2798.0,0.012991052832725567
2797.0,0.012700903767547742
2796.0,0.01241945802096247
2795.0,0.012146991797302022
2794.0,0.011882223585616511
2793.0,0.011623863087810188
2792.0,0.011371637861936694
2791.0,0.01112574768250606
2790.0,0.010885890195921266
2789.0,0.010651449506084586
2788.0,0.010422515901225456
2787.0,0.010199966125173767
2786.0,0.009984182834060377
2785.0,0.009774494459738138
2784.0,0.009570697307825017
2783.0,0.009374514259088381
2782.0,0.009188470734434854
2781.0,0.009013390783690053
2780.0,0.008847810745056833
2779.0,0.008689394778354988
2778.0,0.008535923074559037
2777.0,0.008385739624116102
2776.0,0.008238998150223218
2775.0,0.008098241126556969
2774.0,0.007966128974096971
2773.0,0.007842582395294678
2772.0,0.007725432904366756
2771.0,0.007613358712068129
2770.0,0.007506244534470902
2769.0,0.007403208460999294
2768.0,0.007302957359907004
2767.0,0.0072061503176924415
2766.0,0.007114614119027444
2765.0,0.007027670472706707
2764.0,0.006942065439059263
2763.0,0.006856455550091778
2762.0,0.006773482717073051
2761.0,0.00669612501748931
2760.0,0.006624322145095897
2759.0,0.006556580131729055
2758.0,0.006492419351928373
2757.0,0.0064314299518689645
2756.0,0.006371844213621083
2755.0,0.0063121808300506494
2754.0,0.006253209762614064
2753.0,0.006196993438072678
2752.0,0.006145353903767042
2751.0,0.006100137497093198
2750.0,0.006063080258421394
2749.0,0.006033804516699095
2748.0,0.006009231164417101
2747.0,0.0059862683321292316
2746.0,0.0059641507564049245
2745.0,0.005943348662143849
2744.0,0.00592369393885204
2743.0,0.005904537156592673
2742.0,0.005885197695399795
2741.0,0.005864498198155045
2740.0,0.005841270955852782
2739.0,0.005815925147631302
2738.0,0.005789845823143056
2737.0,0.005762798077493832
2736.0,0.005733060344059804
2735.0,0.005700566043902232
2734.0,0.005667411632846976
2733.0,0.005634470339832225
2732.0,0.0055999542391408684
2731.0,0.005562422394032461
2730.0,0.00552270501472041
2729.0,0.005481534965738886
2728.0,0.005437803488960245
2727.0,0.0053907084204205145
2726.0,0.0053414124624681205
2725.0,0.005291180999710727
2724.0,0.005240220303297705
2723.0,0.005189738126104933
2722.0,0.005142498338753797
2721.0,0.005099525315903289
2720.0,0.005058505637416186
2719.0,0.005017349290258962
2718.0,0.004977126481857515
2717.0,0.004939651846182152
2716.0,0.004904544685365113
2715.0,0.004870582373223897
2714.0,0.004837592276780957
2713.0,0.0048049483845842645
2712.0,0.004770739103762576
2711.0,0.004734869681314233
2710.0,0.004700670076890621
2709.0,0.004670511055886655
2708.0,0.004641710839415818
2707.0,0.004609800986901746
2706.0,0.004574248116765379
2705.0,0.00453835583513699
2704.0,0.004504925395636106
2703.0,0.004474964584128572
2702.0,0.004449509846728134
2701.0,0.0044295269420290915
2700.0,0.004414311187665143
2699.0,0.004402183874203982
2698.0,0.0043925219264941
2697.0,0.004385455533338242
2696.0,0.004380345717926119
2695.0,0.004376219807338077
2694.0,0.004373007778367131
2693.0,0.004371033742102408
2692.0,0.004370436236259538
2691.0,0.004372255873076397
2690.0,0.004378238127220511
2689.0,0.004387798908270506
2688.0,0.004396891706587018
2687.0,0.004402243602546575
2686.0,0.004405410249292707
2685.0,0.004410466099832727
2684.0,0.004418805333792776
2683.0,0.004428386408082934
2682.0,0.004437209934299501
2681.0,0.004445263277919732
2680.0,0.004453550707645175
2679.0,0.004463095022051699
2678.0,0.00447444584325007
2677.0,0.0044867181826589615
2676.0,0.004497703861916349
2675.0,0.0045061445251664695
2674.0,0.0045131169719331826
2673.0,0.004520093529935579
2672.0,0.004526826563519179
2671.0,0.004532504989020039
2670.0,0.004537732199483329
2669.0,0.004543776536201713
2668.0,0.004550696040773685
2667.0,0.004557651423100922
2666.0,0.00456426736679723
2665.0,0.004570602594823961
2664.0,0.004576749348969984
2663.0,0.004583359111806393
2662.0,0.0045912700067039436
2661.0,0.004599459480109974
2660.0,0.004604727448735949
2659.0,0.004604597247464325
2658.0,0.004599480240224497
2657.0,0.004591201534469163
2656.0,0.004581143924021221
2655.0,0.004570999850626803
2654.0,0.00456314431313841
2653.0,0.004558270197785845
2652.0,0.004554019963685491
2651.0,0.004547872668750006
2650.0,0.00454017769480114
2649.0,0.004532897234209576
2648.0,0.004526832268236476
2647.0,0.004521872036272916
2646.0,0.0045186893946407595
2645.0,0.004518373899688513
2644.0,0.00452137803078922
2643.0,0.00452796765559526
2642.0,0.004538262757702446
2641.0,0.0045506851402245824
2640.0,0.004562184342957798
2639.0,0.0045713840237484
2638.0,0.0045793968004094405
2637.0,0.004585946335773246
2636.0,0.004586969755772316
2635.0,0.004578152096800908
2634.0,0.0045589824499692065
2633.0,0.004531430181434377
2632.0,0.0044969904134848455
2631.0,0.004457274645344684
2630.0,0.0044152298453822925
2629.0,0.004372909999012795
2628.0,0.004329408563314939
2627.0,0.004283412370891772
2626.0,0.00423622296526611
2625.0,0.004189992319273569
2624.0,0.004144889476052649
2623.0,0.004100701856382367
2622.0,0.004059464593962802
2621.0,0.004023410705763379
2620.0,0.003991325306079969
2619.0,0.003959641542056374
2618.0,0.003926215037786988
2617.0,0.003890896301647786
2616.0,0.0038538122185960083
2615.0,0.0038155005868293216
2614.0,0.003777736839548446
2613.0,0.003742028397747163
2612.0,0.0037082027838083098
2611.0,0.003675955981763025
2610.0,0.0036461360761005854
2609.0,0.0036188771738933324
2608.0,0.0035924436993199447
2607.0,0.0035657164279438765
2606.0,0.0035395962938463517
2605.0,0.003514190810703679
2604.0,0.0034872593852206847
2603.0,0.0034576933719804243
2602.0,0.003427910111307081
2601.0,0.0034003083853264707
2600.0,0.003374059863794898
2599.0,0.0033478675534642684
2598.0,0.0033228465450158076
2597.0,0.003299654302725898
2596.0,0.003275891652054356
2595.0,0.003249957958360806
2594.0,0.0032245176036446777
2593.0,0.0032021323010782434
2592.0,0.003180059768049858
2591.0,0.003153857325836294
2590.0,0.0031243326780760706
2589.0,0.003096518704694903
2588.0,0.003072980316255497
2587.0,0.0030521594741605455
2586.0,0.0030321599301787396
2585.0,0.0030123084966836343
2584.0,0.002991550593285094
2583.0,0.0029686911788312027
2582.0,0.0029439080224512144
2581.0,0.002917778831397392
2580.0,0.0028901768279504894
2579.0,0.0028623996352950013
2578.0,0.002838242008750135
2577.0,0.0028196255651518408
2576.0,0.0028027771395852563
2575.0,0.002782249019296158
2574.0,0.0027577455820676625
2573.0,0.002734050124047063
2572.0,0.0027151449377652978
2571.0,0.002700943395050311
2570.0,0.002688776383837428
2569.0,0.0026755631739778787
2568.0,0.002659429123073273
2567.0,0.002641454753016969
2566.0,0.002625053568289031
2565.0,0.0026121335148687813
2564.0,0.0026010353246821724
2563.0,0.0025890205519135305
2562.0,0.0025747162597914352
2561.0,0.002557551526475946
2560.0,0.0025379212337408984
2559.0,0.002518999725840066
2558.0,0.002504891068907957
2557.0,0.002495403448022587
2556.0,0.0024861355588319035
2555.0,0.0024750959424924696
2554.0,0.0024648977787303916
2553.0,0.002456564402582015
2552.0,0.002446582760063179
2551.0,0.002433239055226443
2550.0,0.0024206255459554684
2549.0,0.0024121291877026454
2548.0,0.0024041322107959053
2547.0,0.002390482250886669
2546.0,0.002369538025587839
2545.0,0.002342919586595896
2544.0,0.0023117757300531844
2543.0,0.0022791728824661135
2542.0,0.002252141170390059
2541.0,0.002235491830639469
2540.0,0.0022259982337081863
2539.0,0.0022176472076012865
2538.0,0.002209890203843796
2537.0,0.0022057746207330446
2536.0,0.0022048120902506737
2535.0,0.0022032635827196204
2534.0,0.0021998506295347834
2533.0,0.0021962919645514213
2532.0,0.0021934351858548433
2531.0,0.0021909548481512937
2530.0,0.002189111002475312
2529.0,0.0021867555627023364
2528.0,0.002179619841152875
2527.0,0.0021648711592670575
2526.0,0.002145696415353495
2525.0,0.0021273252420461576
2524.0,0.0021104305495657015
2523.0,0.002092658000799807
2522.0,0.0020744824062747984
2521.0,0.002058545884574624
2520.0,0.0020445992597079156
2519.0,0.002030306456576804
2518.0,0.002016832379356674
2517.0,0.002008893314141148
2516.0,0.002008166490521922
2515.0,0.002009650201660044
2514.0,0.0020054263777237913
2513.0,0.0019906024514225054
2512.0,0.0019664162697823236
2511.0,0.0019397067163767945
2510.0,0.001919053373205565
2509.0,0.001909544908057809
2508.0,0.0019103307144591282
2507.0,0.0019161407826982298
2506.0,0.0019197397591672223
2505.0,0.0019148667451093873
2504.0,0.0019014106064323098
2503.0,0.0018876366555102418
2502.0,0.001882134014323039
2501.0,0.0018826214658084818
2500.0,0.001878178278137188
2499.0,0.0018640864882720075
2498.0,0.0018482102480905944
2497.0,0.001839963744225711
2496.0,0.001839366488535781
2495.0,0.0018412298100860909
2494.0,0.0018437996563142362
2493.0,0.0018470713074976858
2492.0,0.0018472183398917847
2491.0,0.001839835453688475
2490.0,0.0018266602497093907
2489.0,0.0018135520982103092
2488.0,0.0018033123360002307
2487.0,0.0017947800235232538
2486.0,0.0017870842316313443
2485.0,0.001780584418767191
2484.0,0.001775209978165423
2483.0,0.0017713384712463444
2482.0,0.0017705482870649832
2481.0,0.0017727229325939162
2480.0,0.0017748629027056007
2479.0,0.0017754228263602255
2478.0,0.0017766280076964222
2477.0,0.0017794187373360547
2476.0,0.0017797311312062309
2475.0,0.0017736866078294027
2474.0,0.001763182847659544
2473.0,0.0017522360738768095
2472.0,0.001740921530460791
2471.0,0.0017273895354287432
2470.0,0.0017130419533719406
2469.0,0.0017007751341826531
2468.0,0.001689961654575114
2467.0,0.0016778070213420552
2466.0,0.0016645487301635178
2465.0,0.00165344069434529
2464.0,0.001646492572859704
2463.0,0.0016433141213763373
2462.0,0.0016429754214611985
2461.0,0.0016441122638413256
2460.0,0.0016443138587305872
2459.0,0.0016419507087176493
2458.0,0.0016378984577915608
2457.0,0.0016342911005872455
2456.0,0.0016331096596719171
2455.0,0.0016363103161472687
2454.0,0.0016442085521490794
2453.0,0.0016528227733154464
2452.0,0.0016565505900677695
2451.0,0.0016547892817329658
2450.0,0.0016518968495833866
2449.0,0.0016494626878405146
2448.0,0.0016438211581029866
2447.0,0.0016334079937463447
2446.0,0.0016229397651218633
2445.0,0.001616783677927243
2444.0,0.0016131226320530135
2443.0,0.0016086047782768263
2442.0,0.0016043461547158356
2441.0,0.0016030539447351752
2440.0,0.0016037655940415929
2439.0,0.0016033638385624326
2438.0,0.001600419368997775
2437.0,0.0015948632547560255
2436.0,0.0015875279092847044
2435.0,0.0015822878116849128
2434.0,0.0015838070820059732
2433.0,0.0015900434708053714
2432.0,0.0015920533400383317
2431.0,0.0015851715265734808
2430.0,0.0015755986533732085
2429.0,0.001571786453310351
2428.0,0.0015741111330164087
2427.0,0.0015778099964461373
2426.0,0.0015816719050400362
2425.0,0.0015883227478758577
2424.0,0.0015989303484874105
2423.0,0.0016122183565194263
2422.0,0.0016259427830352465
2421.0,0.0016356325231429553
2420.0,0.0016356169412637834
2419.0,0.0016258020724256956
2418.0,0.0016144017094616185
2417.0,0.0016097649335968488
2416.0,0.0016117177860084618
2415.0,0.0016138547508213444
2414.0,0.0016114431982400617
2413.0,0.001604348835853006
2412.0,0.0015956066956117712
2411.0,0.0015898098258745087
2410.0,0.0015891254781164512
2409.0,0.001588169180097688
2408.0,0.0015772962816533865
2407.0,0.001554472912950475
2406.0,0.001529561334969525
2405.0,0.001513472066055787
2404.0,0.0015075755283429691
2403.0,0.0015067526637512847
2402.0,0.0015070684248509447
2401.0,0.0015060817229170446
2400.0,0.001501047707737124
2399.0,0.0014925677262983186
2398.0,0.0014863148914546704
2397.0,0.0014860010941638675
2396.0,0.0014878082573573355
2395.0,0.0014864616363037871
2394.0,0.0014831992594674418
2393.0,0.0014825549497529977
2392.0,0.0014846040767542436
2391.0,0.0014856449695309485
2390.0,0.0014843524482659016
2389.0,0.0014828612193538578
2388.0,0.0014835658126820222
2387.0,0.001488576118557838
2386.0,0.0015001786823046351
2385.0,0.001517999916542261
2384.0,0.0015372213793471577
2383.0,0.0015522732238596587
2382.0,0.001559854242584332
2381.0,0.0015560394604993168
2380.0,0.0015351340541724212
2379.0,0.0014973278400280574
2378.0,0.0014544578427742201
2377.0,0.0014206105088557545
2376.0,0.0013988638684578436
2375.0,0.0013850720415061815
2374.0,0.001379178682553701
2373.0,0.0013831843930497572
2372.0,0.0013909749026115989
2371.0,0.0013954578356508692
2370.0,0.0014047924485434521
2369.0,0.001434254881679712
2368.0,0.0014804978050484917
2367.0,0.0015234985730184969
2366.0,0.0015544622851613496
2365.0,0.0015811329256132912
2364.0,0.0016035897107964073
2363.0,0.0016138368336641304
2362.0,0.0016149374563562014
2361.0,0.0016131523304810163
2360.0,0.0016111668915396058
2359.0,0.0016139042637719312
2358.0,0.0016247766661752175
2357.0,0.0016387061794901976
2356.0,0.0016386897515814017
2355.0,0.0016268883417583286
2354.0,0.0016196041174962577
2353.0,0.001621531732181844
2352.0,0.0016284994861242201
2351.0,0.001638614752661928
2350.0,0.0016635765605977513
2349.0,0.001710158676910155
2348.0,0.0017727801604874105
2347.0,0.001840417102495595
2346.0,0.0018918529247896115
2345.0,0.0019163615813775669
2344.0,0.0019081239938724334
2343.0,0.0018823747383661348
2342.0,0.001857786252831093
2341.0,0.0018406471630178938
2340.0,0.0018372170786754714
2339.0,0.001846605575234776
2338.0,0.0018683179417457586
2337.0,0.00188985131612381
2336.0,0.0019002156828315671
2335.0,0.0018942738098720662
2334.0,0.0018845532744962749
2333.0,0.0018770700640560415
2332.0,0.001876651738286488
2331.0,0.0018752981524438306
2330.0,0.0018808905198618745
2329.0,0.0018974970210056145
2328.0,0.0019313792898011028
2327.0,0.001990031576719404
2326.0,0.002069473298060487
2325.0,0.0021518591236028787
2324.0,0.0022008757437258267
2323.0,0.0021982560637936427
2322.0,0.0021568589894802475
2321.0,0.0021010614932098484
2320.0,0.0020507957748598657
2319.0,0.002011170261590717
2318.0,0.001990920266888914
2317.0,0.0019834021202334933
2316.0,0.0019795371617017045
2315.0,0.001969836772930244
2314.0,0.0019636092838512926
2313.0,0.0019650944048031525
2312.0,0.0019704929201671724
2311.0,0.001969458010886796
2310.0,0.0019644061902326228
2309.0,0.001959216860220943
2308.0,0.001953474962068912
2307.0,0.0019441570543770256
2306.0,0.001936841955239276
2305.0,0.0019362822362215771
2304.0,0.0019405716798305246
2303.0,0.0019427324128147658
2302.0,0.001943143175850595
2301.0,0.0019420160234782584
2300.0,0.0019370095724566996
2299.0,0.0019249577276162764
2298.0,0.0019122275542236846
2297.0,0.00190618603093258
2296.0,0.0019076043737480393
2295.0,0.0019124003316594298
2294.0,0.001919258238836687
2293.0,0.0019276280105377736
2292.0,0.0019329594266189235
2291.0,0.0019340312858497893
2290.0,0.0019374196452545322
2289.0,0.0019493161412671351
2288.0,0.0019635992313304673
2287.0,0.0019692960540248403
2286.0,0.0019639255169845303
2285.0,0.00195332968931333
2284.0,0.001940313973490781
2283.0,0.001923963066896824
2282.0,0.0019067380852540025
2281.0,0.0018938100260460686
2280.0,0.0018860959841474267
2279.0,0.0018807879699372803
2278.0,0.0018769457531450386
2277.0,0.0018732982591145508
2276.0,0.001865655049472417
2275.0,0.0018522560841558147
2274.0,0.0018386006682828146
2273.0,0.0018285370452045756
2272.0,0.0018172513740632849
2271.0,0.0018011336106706285
2270.0,0.0017876738989774025
2269.0,0.0017851769262339566
2268.0,0.0017881612604771081
2267.0,0.0017846942564019677
2266.0,0.001772855953316982
2265.0,0.0017587454190214516
2264.0,0.0017430571443233867
2263.0,0.0017225650345350347
2262.0,0.0017009500877736808
2261.0,0.001687071875091138
2260.0,0.001683221545821957
2259.0,0.0016850660585672017
2258.0,0.0016893437715053646
2257.0,0.0016924789963942539
2256.0,0.0016872232131879103
2255.0,0.0016705966078113677
2254.0,0.0016522510541347399
2253.0,0.0016435248934237525
2252.0,0.0016433932868589174
2251.0,0.001643316590951661
2250.0,0.0016413709380181385
2249.0,0.0016412045250312863
2248.0,0.0016431305431921603
2247.0,0.001646431486968821
2246.0,0.0016550354703290474
2245.0,0.001670430741578658
2244.0,0.0016840865850720997
2243.0,0.0016867776636676698
2242.0,0.0016797230782270283
2241.0,0.001667727875923448
2240.0,0.0016496675627948475
2239.0,0.0016269198929670752
2238.0,0.0016123858955424547
2237.0,0.0016168939181382326
2236.0,0.0016319936107356396
2235.0,0.001639430658013515
2234.0,0.0016333183920883433
2233.0,0.001621325235992224
2232.0,0.0016099491371205014
2231.0,0.001601114829204446
2230.0,0.00159775430687791
2229.0,0.0016002635437065104
2228.0,0.0016018311553209323
2227.0,0.0015981544912874116
2226.0,0.0015957172773939244
2225.0,0.001600448845570719
2224.0,0.0016061910966519435
2223.0,0.0016060183552078962
2222.0,0.0016061914519223382
2221.0,0.0016156733816760434
2220.0,0.0016293275269153773
2219.0,0.0016351856522790673
2218.0,0.0016313647038192348
2217.0,0.0016229801709910742
2216.0,0.0016102400912762138
2215.0,0.0015928642388646488
2214.0,0.0015789905495343529
2213.0,0.0015760821915653085
2212.0,0.0015797799962501719
2211.0,0.0015839240059867473
2210.0,0.001593469662636517
2209.0,0.001613934358031147
2208.0,0.0016362067859701848
2207.0,0.0016456665046589753
2206.0,0.0016400392836065565
2205.0,0.001626935457542634
2204.0,0.0016122947961083878
2203.0,0.0016025576113832501
2202.0,0.001607347189102367
2201.0,0.001626700901063217
2200.0,0.0016446083660161313
2199.0,0.0016489570156128799
2198.0,0.0016486996540276396
2197.0,0.0016589885736290413
2196.0,0.0016794344591816292
2195.0,0.001699406809685943
2194.0,0.001713894673931688
2193.0,0.001721655642873283
2192.0,0.0017193010461426204
2191.0,0.0017103844731405449
2190.0,0.0017092136538398677
2189.0,0.001723129450909955
2188.0,0.001742689244990379
2187.0,0.0017596894610774697
2186.0,0.0017786462857682516
2185.0,0.0017977981054532032
2184.0,0.0017974338950610758
2183.0,0.0017652301465083523
2182.0,0.0017181592355297371
2181.0,0.0016819725551587756
2180.0,0.0016625686574931052
2179.0,0.0016523758631083615
2178.0,0.0016471796590122635
2177.0,0.0016405269863233474
2176.0,0.0016211706007374044
2175.0,0.0015938623711869563
2174.0,0.0015842884270744176
2173.0,0.0016072206332369604
2172.0,0.001649541895214463
2171.0,0.0016991515033573405
2170.0,0.001763996075566628
2169.0,0.0018427421890544094
2168.0,0.0019039147148266758
2167.0,0.0019219234098962596
2166.0,0.00191621142092524
2165.0,0.0019289908925594211
2164.0,0.001975562254458827
2163.0,0.002035775942971719
2162.0,0.002070996576792467
2161.0,0.0020261082343686547
2160.0,0.0018508792753747214
2159.0,0.001566843904934384
2158.0,0.0012886569755428405
2157.0,0.0011263315911955588
2156.0,0.001089584192434117
2155.0,0.0011218836464213827
2154.0,0.0011804931185006016
2153.0,0.001246477467675217
2152.0,0.0013008150386611434
2151.0,0.0013312655132479583
2150.0,0.0013455849624317284
2149.0,0.0013534825807814798
2148.0,0.0013500111987541543
2147.0,0.0013344611547529942
2146.0,0.0013248991442408114
2145.0,0.001333130703176457
2144.0,0.0013439127724211315
2143.0,0.0013387145804528945
2142.0,0.0013211532510798145
2141.0,0.0013018964939543528
2140.0,0.0012790546965588756
2139.0,0.0012521673463837932
2138.0,0.001234014027508345
2137.0,0.0012273332253208312
2136.0,0.0012090536702021367
2135.0,0.0011611189071459036
2134.0,0.001100865528209652
2133.0,0.0010593373074054677
2132.0,0.0010457418913364103
2131.0,0.0010521732677341346
2130.0,0.0010757676409451228
2129.0,0.001113854882678422
2128.0,0.001152133819015772
2127.0,0.001178181304263646
2126.0,0.001197331275813368
2125.0,0.001219752234520026
2124.0,0.0012427031380089454
2123.0,0.0012599740902558888
2122.0,0.0012765389765592666
2121.0,0.001297793507052282
2120.0,0.0013158759961765852
2119.0,0.0013235758311181838
2118.0,0.001331073995085016
2117.0,0.0013517254244865514
2116.0,0.001380560820837747
2115.0,0.0014033816987243759
2114.0,0.0014181507281419688
2113.0,0.0014301890933506166
2112.0,0.001435726969054426
2111.0,0.0014287704645755957
2110.0,0.0014170046486584004
2109.0,0.0014120677489675745
2108.0,0.001409823103571978
2107.0,0.0013982556874590337
2106.0,0.0013795537112620485
2105.0,0.0013666969437726667
2104.0,0.0013631989316596758
2103.0,0.0013629549097402068
2102.0,0.0013652943714972012
2101.0,0.001373104384844716
2100.0,0.001380465375025597
2099.0,0.001377677509380369
2098.0,0.0013646279107732793
2097.0,0.001346574803123729
2096.0,0.001323643937621199
2095.0,0.001298388798340457
2094.0,0.0012849976106046272
2093.0,0.0012941530523971029
2092.0,0.0013161932741796376
2091.0,0.0013341485092660487
2090.0,0.001346187391176476
2089.0,0.0013613030789162096
2088.0,0.0013807445768595377
2087.0,0.001398500515425485
2086.0,0.0014132901351852842
2085.0,0.0014262751353507246
2084.0,0.0014339186271757345
2083.0,0.0014357021431754475
2082.0,0.0014406638236084453
2081.0,0.0014538124047053112
2080.0,0.0014655151557653335
2079.0,0.00146801446729333
2078.0,0.0014706618095526088
2077.0,0.0014831721545728314
2076.0,0.0014958482068468673
2075.0,0.0014945520046449167
2074.0,0.0014839590613269266
2073.0,0.0014774199349207769
2072.0,0.0014750787581772156
2071.0,0.0014714023349802555
2070.0,0.0014726382123898417
2069.0,0.0014853699371019096
2068.0,0.001498240375121218
2067.0,0.001497313548460219
2066.0,0.001489553837942701
2065.0,0.0014897324627341038
2064.0,0.00149404887227256
2063.0,0.0014904020904932948
2062.0,0.0014835634333646606
2061.0,0.0014848350379545554
2060.0,0.0014884412940463234
2059.0,0.001482987803560868
2058.0,0.001476357237663301
2057.0,0.0014827579418937884
2056.0,0.001495209658960636
2055.0,0.0015003058580539558
2054.0,0.001513589642674893
2053.0,0.0015663459629712106
2052.0,0.001656848174580632
2051.0,0.0017427662784381358
2050.0,0.0017844984442993235
2049.0,0.0017781232978700521
2048.0,0.0017463326183746197
2047.0,0.0017136827213109055
2046.0,0.0016942096335603762
2045.0,0.0016879528105290724
2044.0,0.0016855848913472757
2043.0,0.0016858061414011048
2042.0,0.0017006773015971494
2041.0,0.0017322060026004984
2040.0,0.0017592860995262537
2039.0,0.0017666560255667112
2038.0,0.0017668448610474367
2037.0,0.0017725653410296716
2036.0,0.001769749151730518
2035.0,0.0017440253318490955
2034.0,0.0017136398541932418
2033.0,0.0017040955670017263
2032.0,0.0017081363717266725
2031.0,0.001705630447646247
2030.0,0.0017028325487860273
2029.0,0.0017163163289595773
2028.0,0.0017364258295374075
2027.0,0.0017426849414610226
2026.0,0.0017396274596197436
2025.0,0.001743161359650329
2024.0,0.0017483071133250166
2023.0,0.0017434182944216056
2022.0,0.0017393290134107087
2021.0,0.0017518253052050416
2020.0,0.0017707704890818977
2019.0,0.0017772749943827221
2018.0,0.0017748626037504235
2017.0,0.0017730446838746692
2016.0,0.0017579626905224281
2015.0,0.001714976705634286
2014.0,0.0016629031590053745
2013.0,0.0016332318760299692
2012.0,0.0016293621170093045
2011.0,0.0016323943880490197
2010.0,0.001631408260210876
2009.0,0.0016206186624212857
2008.0,0.0015862917057577813
2007.0,0.001527478050906477
2006.0,0.001470917710902586
2005.0,0.0014356525033613475
2004.0,0.0014040557115233302
2003.0,0.0013573084064020765
2002.0,0.001315343625539949
2001.0,0.0013105518228812081
2000.0,0.001340942217781027
1999.0,0.0013812410422639433
1998.0,0.0014224868425189
1997.0,0.0014673281883051134
1996.0,0.0015038606540094977
1995.0,0.0015181764550829062
1994.0,0.0015202803731731523
1993.0,0.0015286208297247941
1992.0,0.0015375824469871225
1991.0,0.0015305082583889455
1990.0,0.0015153456289753956
1989.0,0.0015135933754425604
1988.0,0.001527601479924886
1987.0,0.001546439243332452
1986.0,0.001569280921727907
1985.0,0.0015968800832613576
1984.0,0.0016166052611524418
1983.0,0.001624780612662667
1982.0,0.001645929048123222
1981.0,0.0016960491579280676
1980.0,0.001740969779926669
1979.0,0.001728525231591089
1978.0,0.0016554034953428732
1977.0,0.0015670476084990194
1976.0,0.0014972701790395577
1975.0,0.0014495020088783866
1974.0,0.0014267415733626005
1973.0,0.0014307247155576634
1972.0,0.0014398290235101046
1971.0,0.0014287706331345407
1970.0,0.0014020735780641547
1969.0,0.0013792198056059976
1968.0,0.0013618541645457239
1967.0,0.0013453253159398148
1966.0,0.0013444477414964692
1965.0,0.0013692876378568
1964.0,0.0013938544610194831
1963.0,0.0013841570768203149
1962.0,0.0013417953456879481
1961.0,0.001294492929991809
1960.0,0.0012571547669893324
1959.0,0.0012307341412868505
1958.0,0.0012240603462900298
1957.0,0.001242551732365918
1956.0,0.0012677031177636797
1955.0,0.0012782463224479481
1954.0,0.0012808851811508583
1953.0,0.0012939848437899823
1952.0,0.0013130649548539724
1951.0,0.0013191018494762379
1950.0,0.0013098685157292122
1949.0,0.0012981026211813856
1948.0,0.0012883072589931603
1947.0,0.0012789980338753955
1946.0,0.001278570884632188
1945.0,0.0012950271801152199
1944.0,0.0013169552013057996
1943.0,0.0013258590435545482
1942.0,0.0013218783367458177
1941.0,0.001315550333280447
1940.0,0.0013043369252481805
1939.0,0.0012827202280309706
1938.0,0.0012612193329927636
1937.0,0.0012542678682500247
1936.0,0.0012582682820927523
1935.0,0.0012608030994978867
1934.0,0.0012622862811949884
1933.0,0.0012687624009279587
1932.0,0.001274014428649314
1931.0,0.0012696701293886065
1930.0,0.0012631760823688843
1929.0,0.0012661671430555493
1928.0,0.0012738460944820647
1927.0,0.0012744617106176263
1926.0,0.001270414315074137
1925.0,0.0012722188223824704
1924.0,0.0012799521908987159
1923.0,0.001287022183222513
1922.0,0.001295309416882145
1921.0,0.0013082035669871352
1920.0,0.001317306316732676
1919.0,0.001313607743378933
1918.0,0.0013047420041551116
1917.0,0.0013041032187654984
1916.0,0.0013084285425921949
1915.0,0.0013086232753058429
1914.0,0.0013094542485871093
1913.0,0.001320227106220029
1912.0,0.0013359600681680055
1911.0,0.0013442906512181948
1910.0,0.0013457034495007732
1909.0,0.0013503889726670453
1908.0,0.001359579837818424
1907.0,0.0013671836043364402
1906.0,0.0013738349120561513
1905.0,0.0013829998010293566
1904.0,0.0013905262095909024
1903.0,0.0013924672630565343
1902.0,0.0013956864560763346
1901.0,0.0014069151464169139
1900.0,0.0014185181572901329
1899.0,0.0014196470866945522
1898.0,0.00141374600859144
1897.0,0.0014111184409875
1896.0,0.0014113662752109368
1895.0,0.001407292814491657
1894.0,0.0014006477622348387
1893.0,0.0013970479123600935
1892.0,0.0013916503801024306
1891.0,0.001375454299706466
1890.0,0.0013510599786501465
1889.0,0.0013290517513819132
1888.0,0.0013103452236355652
1887.0,0.0012894849398089147
1886.0,0.0012693681676524044
1885.0,0.0012567479764464113
1884.0,0.0012491603119688876
1883.0,0.0012399348386550617
1882.0,0.0012308926084345796
1881.0,0.0012265464271571398
1880.0,0.001221783924581077
1879.0,0.0012099688532709427
1878.0,0.0011969983511823548
1877.0,0.0011928760979457006
1876.0,0.0011943955347462245
1875.0,0.001191109171400917
1874.0,0.0011826212203988548
1873.0,0.0011760157308379822
1872.0,0.0011716524443145207
1871.0,0.0011651649246746003
1870.0,0.0011593856222217485
1869.0,0.0011603743209678452
1868.0,0.00116234236748019
1867.0,0.0011567398691528306
1866.0,0.0011482644412934282
1865.0,0.0011439262337367845
1864.0,0.0011403503928705968
1863.0,0.0011325095550118866
1862.0,0.0011255520623716954
1861.0,0.0011270884405624553
1860.0,0.0011334730382661785
1859.0,0.0011366831894000667
1858.0,0.0011384136687988791
1857.0,0.0011433173629164782
1856.0,0.0011457324182339707
1855.0,0.0011375023575985943
1854.0,0.0011230932136219642
1853.0,0.001113520559057778
1852.0,0.0011102841197073263
1851.0,0.0011077438658207274
1850.0,0.0011061728932167641
1849.0,0.0011087989229512042
1848.0,0.001110991653316149
1847.0,0.0011067036687077874
1846.0,0.0011015358648551411
1845.0,0.0011053578762933438
1844.0,0.0011129268706173976
1843.0,0.0011125102909721762
1842.0,0.0011087424726430822
1841.0,0.0011099379513256067
1840.0,0.001111992786978051
1839.0,0.0011072823640139217
1838.0,0.001098907293144837
1837.0,0.0010964496918527352
1836.0,0.0010998607733975472
1835.0,0.0011018483526293503
1834.0,0.0011024477562418748
1833.0,0.0011069830904064562
1832.0,0.0011142732496754028
1831.0,0.0011181436690415793
1830.0,0.0011190731190283715
1829.0,0.0011230147523713801
1828.0,0.0011283416987146692
1827.0,0.001129373706512216
1826.0,0.0011282003539264719
1825.0,0.0011308976188284929
1824.0,0.0011357096456356935
1823.0,0.001137945987249577
1822.0,0.001140244660469189
1821.0,0.0011446824148870457
1820.0,0.0011430177035022726
1819.0,0.0011264777860750567
1818.0,0.001101796731555904
1817.0,0.0010856530568765072
1816.0,0.001084499556320846
1815.0,0.0010918375291159206
1814.0,0.0011019797660534486
1813.0,0.0011131063816159914
1812.0,0.0011205630009492316
1811.0,0.0011203819608103223
1810.0,0.0011178885803711247
1809.0,0.0011201196494757082
1808.0,0.0011240527817038383
1807.0,0.0011236039014056725
1806.0,0.0011211743590246602
1805.0,0.0011226435861444533
1804.0,0.001126823167334131
1803.0,0.001129113837764946
1802.0,0.0011316543367293343
1801.0,0.0011387984150279102
1800.0,0.0011448817001605382
1799.0,0.0011420579663429622
1798.0,0.0011351174922934063
1797.0,0.0011338198600499246
1796.0,0.001138122296213135
1795.0,0.0011413632023691848
1794.0,0.0011428223386939975
1793.0,0.0011467403170363486
1792.0,0.0011500455816443387
1791.0,0.001147007625690658
1790.0,0.0011423265926670035
1789.0,0.0011414574810791457
1788.0,0.001141709227898806
1787.0,0.0011396476748692312
1786.0,0.001138299962452909
1785.0,0.0011413878004962895
1784.0,0.0011443719345924205
1783.0,0.0011420539678813806
1782.0,0.0011397465524961617
1781.0,0.0011452271590952738
1780.0,0.0011534234028150413
1779.0,0.0011532838983511122
1778.0,0.0011458529255109066
1777.0,0.0011401488432520135
1776.0,0.0011385465510627712
1775.0,0.001136803323734373
1774.0,0.0011354231246674608
1773.0,0.001140246839705835
1772.0,0.0011485685433056743
1771.0,0.0011529693501100722
1770.0,0.0011581651440654506
1769.0,0.0011699316005486606
1768.0,0.0011820000346626015
1767.0,0.0011851124446971887
1766.0,0.0011814764787908218
1765.0,0.0011796021639020888
1764.0,0.001181769348909114
1763.0,0.0011853611037057033
1762.0,0.0011915661062948885
1761.0,0.0012041469879833513
1760.0,0.0012203797320671029
1759.0,0.0012361834592421403
1758.0,0.001255971304801191
1757.0,0.0012854799186062039
1756.0,0.0013175242444494828
1755.0,0.0013414377374292323
1754.0,0.0013613105390553003
1753.0,0.0013898762840348913
1752.0,0.0014319755250748844
1751.0,0.0014790413031235113
1750.0,0.001523900604465861
1749.0,0.0015679639023554691
1748.0,0.0016063547208657488
1747.0,0.0016315445929109594
1746.0,0.0016491894306567125
1745.0,0.0016699161089705713
1744.0,0.0016924311150185406
1743.0,0.0017083204471422804
1742.0,0.0017201215606077295
1741.0,0.001739839522213672
1740.0,0.0017688614165766137
1739.0,0.0017944810598491548
1738.0,0.0018114941415506556
1737.0,0.0018281140773843605
1736.0,0.0018540007766304353
1735.0,0.001897643504764645
1734.0,0.001956393285080008
1733.0,0.0020107110963582665
1732.0,0.0020520848475388495
1731.0,0.002089484468134237
1730.0,0.0021370562034328565
1729.0,0.00219943419278244
1728.0,0.0022641885632929946
1727.0,0.0023182913806751096
1726.0,0.002359140180574207
1725.0,0.0023815632947725832
1724.0,0.002366342528165369
1723.0,0.002299445413075089
1722.0,0.002195964976468232
1721.0,0.00208262901482024
1720.0,0.001968577384011523
1719.0,0.0018473058060017897
1718.0,0.0017270363602163157
1717.0,0.0016383897934028537
1716.0,0.0015840024243222233
1715.0,0.0015400964960979068
1714.0,0.0015036630902257612
1713.0,0.0014829077668756776
1712.0,0.001472074735378439
1711.0,0.00145982508357146
1710.0,0.001446624486183677
1709.0,0.0014402811862600823
1708.0,0.001440114057144662
1707.0,0.0014397638366277505
1706.0,0.001443006681958164
1705.0,0.0014568769542320555
1704.0,0.0014724117288605698
1703.0,0.0014771406565804142
1702.0,0.0014755203018817723
1701.0,0.0014851519609548126
1700.0,0.001504389438421022
1699.0,0.0015138837343108555
1698.0,0.0015198588501147607
1697.0,0.0015352271538564461
1696.0,0.001553887025066481
1695.0,0.0015627893618367773
1694.0,0.0015689413652035834
1693.0,0.0015823161698257857
1692.0,0.0015987859207858969
1691.0,0.0016123929503880587
1690.0,0.001624904920573046
1689.0,0.0016412818106252723
1688.0,0.0016573005604015258
1687.0,0.0016663374074919913
1686.0,0.0016760219869268497
1685.0,0.0017050851218737002
1684.0,0.0017417816343016062
1683.0,0.0017551613984066042
1682.0,0.0017604645852435886
1681.0,0.001775690227165617
1680.0,0.00179426486384072
1679.0,0.0018050295913150454
1678.0,0.001809067328451118
1677.0,0.0018186730687002367
1676.0,0.0018394377488015294
1675.0,0.001862908469981414
1674.0,0.0018831634275166026
1673.0,0.0019040934460668292
1672.0,0.001923856795758762
1671.0,0.0019370475639590842
1670.0,0.0019479901267576683
1669.0,0.001964658481648565
1668.0,0.0019812998495398393
1667.0,0.0019900802934664044
1666.0,0.0019966574925681505
1665.0,0.0020110841807111394
1664.0,0.002033553464642263
1663.0,0.0020530136134380484
1662.0,0.002064717704619656
1661.0,0.00207643101400173
1660.0,0.0020897271061787914
1659.0,0.002099617533220297
1658.0,0.0021081598295163433
1657.0,0.002119532680278456
1656.0,0.0021303638692056967
1655.0,0.002132574312667018
1654.0,0.0021346289643715613
1653.0,0.00215418509198694
1652.0,0.0021747887666548485
1651.0,0.002183716690598319
1650.0,0.0021851951569433897
1649.0,0.0021893571232112037
1648.0,0.002201643440554613
1647.0,0.0022074455601245233
1646.0,0.0022000662503223805
1645.0,0.002195439269459566
1644.0,0.002196123072053195
1643.0,0.002194170535018333
1642.0,0.002192548727555208
1641.0,0.002197330406710725
1640.0,0.002203101030471293
1639.0,0.0022003383924201893
1638.0,0.002192638501745749
1637.0,0.0021941009408543966
1636.0,0.0022018887505415997
1635.0,0.002197955976548595
1634.0,0.002191774898933907
1633.0,0.0021966515603990535
1632.0,0.002202642811011026
1631.0,0.00219959117280758
1630.0,0.002190865051465751
1629.0,0.0021846266322381788
1628.0,0.0021777765868402636
1627.0,0.0021635018137431605
1626.0,0.002149786136288106
1625.0,0.0021482877577062715
1624.0,0.002152031223291867
1623.0,0.00214290717090719
1622.0,0.0021238456293948484
1621.0,0.00211125632295378
1620.0,0.002103225167723265
1619.0,0.00208793585237988
1618.0,0.002065506708363045
1617.0,0.00204681803212706
1616.0,0.002032322015589634
1615.0,0.0020165821161930563
1614.0,0.0020065069974327205
1613.0,0.0020080846766199136
1612.0,0.002013739854401512
1611.0,0.002011500518901022
1610.0,0.00200274520633829
1609.0,0.0019974684187595492
1608.0,0.0019924244958533714
1607.0,0.001977821761559543
1606.0,0.001959707130676651
1605.0,0.0019511165122930003
1604.0,0.0019495136272846933
1603.0,0.0019440168220180385
1602.0,0.001936989058810248
1601.0,0.0019373409409022863
1600.0,0.0019400592464657975
1599.0,0.001934758453889861
1598.0,0.001925666964468102
1597.0,0.0019229511665633115
1596.0,0.0019222687574501414
1595.0,0.0019134906569651642
1594.0,0.001902865258176402
1593.0,0.0019029423085168745
1592.0,0.0019083502627671289
1591.0,0.0019052811334994933
1590.0,0.0018958092697536149
1589.0,0.0018908544426209518
1588.0,0.00188708898145675
1587.0,0.0018740899169906596
1586.0,0.0018567522993216074
1585.0,0.0018476686311055743
1584.0,0.0018442612108438854
1583.0,0.0018352684580505982
1582.0,0.0018234119993927888
1581.0,0.0018187166652832026
1580.0,0.001817018189075208
1579.0,0.0018072471445322238
1578.0,0.0017926985464805933
1577.0,0.0017854373357742285
1576.0,0.0017753902697371093
1575.0,0.0017486136560918423
1574.0,0.00172453949947236
1573.0,0.001719741529971865
1572.0,0.0017258941040581017
1571.0,0.0017271304248731058
1570.0,0.0017197088894876549
1569.0,0.0017130735264440215
1568.0,0.0017059011925730488
1567.0,0.0016908844670844303
1566.0,0.0016755298831837052
1565.0,0.0016715943993194148
1564.0,0.0016718263883914253
1563.0,0.001661717649339053
1562.0,0.0016483685486620055
1561.0,0.0016546420811630997
1560.0,0.001691279071201217
1559.0,0.0017095143237119744
1558.0,0.0016878798373384035
1557.0,0.0016859102942454788
1556.0,0.001695070533523889
1555.0,0.0016860719877695722
1554.0,0.0016730810952311926
1553.0,0.0016748994684120469
1552.0,0.0016831311942478706
1551.0,0.0016806132139045075
1550.0,0.001677747305676361
1549.0,0.001691446806019361
1548.0,0.0017107256620437017
1547.0,0.0017173384068639153
1546.0,0.0017192772161869578
1545.0,0.001736064915484754
1544.0,0.0017558430305988182
1543.0,0.0017476942849641392
1542.0,0.0017240716329633941
1541.0,0.001734759061050961
1540.0,0.0017627965491005659
1539.0,0.001752413382378212
1538.0,0.0017357873658554038
1537.0,0.001743725426083924
1536.0,0.0017553115578387824
1535.0,0.001750097494012506
1534.0,0.0017359328876266381
1533.0,0.0017360395690885014
1532.0,0.0017399914513738862
1531.0,0.0017294785148890617
1530.0,0.001720027881973708
1529.0,0.0017346516111778794
1528.0,0.001764134576837542
1527.0,0.0017778518348600281
1526.0,0.0017792764850547299
1525.0,0.001796584734553444
1524.0,0.0018219648201362093
1523.0,0.0018245769849262587
1522.0,0.0018138200502691066
1521.0,0.001824949420618562
1520.0,0.0018394364805266994
1519.0,0.0018253241210412362
1518.0,0.0018090106370115076
1517.0,0.001829758919805567
1516.0,0.0018631641360952987
1515.0,0.0018648389218896934
1514.0,0.0018530229584919728
1513.0,0.0018652133301354699
1512.0,0.001891178720187399
1511.0,0.0018958138136001546
1510.0,0.0018843753360968873
1509.0,0.0019025742355525603
1508.0,0.0019583758737183933
1507.0,0.0019863361095046224
1506.0,0.0019885142076696643
1505.0,0.002024927620132539
1504.0,0.002062902145258746
1503.0,0.0020666840223641076
1502.0,0.0020657411486931752
1501.0,0.0021019876041344808
1500.0,0.0021637409153745235
1499.0,0.002196057350455317
1498.0,0.002206763502515516
1497.0,0.002265783086058255
1496.0,0.002353099825276321
1495.0,0.00238887764346236
1494.0,0.002402451181063657
1493.0,0.0024651799221159314
1492.0,0.0025635030556488605
1491.0,0.002630387996983448
1490.0,0.0026831306528429483
1489.0,0.002803306749216399
1488.0,0.0029537462987744827
1487.0,0.0030617646317337966
1486.0,0.0031737558622626735
1485.0,0.003354652288083306
1484.0,0.003582021691260494
1483.0,0.003826456167037101
1482.0,0.0041575817149706795
1481.0,0.004657164867079078
1480.0,0.005300148769674373
1479.0,0.006135859868217579
1478.0,0.0075667259246175915
1477.0,0.010217235745815487
1476.0,0.014469187515094245
1475.0,0.02024717878985072
1474.0,0.027211147765178002
1473.0,0.0337719500881681
1472.0,0.03708180722346108
1471.0,0.03692131258056796
1470.0,0.03570386968476128
1469.0,0.03484028294333467
1468.0,0.0345023076466397
1467.0,0.03468148845434486
1466.0,0.03556721121959596
1465.0,0.03698112368235208
1464.0,0.03777273406878579
1463.0,0.036922303960537105
1462.0,0.0345459236352009
1461.0,0.03130365276224307
1460.0,0.02783012561984678
1459.0,0.024631743837308057
1458.0,0.02194401733714294
1457.0,0.01975984483822695
1456.0,0.018097262319175213
1455.0,0.016870913783558854
1454.0,0.01578977617697977
1453.0,0.014649824498280428
1452.0,0.013495155184791096
1451.0,0.012500182525114764
1450.0,0.011718978849914068
1449.0,0.011057789276154936
1448.0,0.010475995856836747
1447.0,0.010024066280794806
1446.0,0.009691563618309843
1445.0,0.009401769210651787
1444.0,0.009125274809996234
1443.0,0.008875791532648095
1442.0,0.008638882178358048
1441.0,0.008384424654636421
1440.0,0.008125017870675703
1439.0,0.007887627493488914
1438.0,0.007637112087967031
1437.0,0.0072971704762463995
1436.0,0.006902990746253376
1435.0,0.006566268104875277
1434.0,0.006277105665651365
1433.0,0.0059590099417175845
1432.0,0.005596282457320186
1431.0,0.00522364313117832
1430.0,0.004856293761693294
1429.0,0.004490580865892689
1428.0,0.004164035311414722
1427.0,0.0039133850388904864
1426.0,0.0037092627571373386
1425.0,0.0035009879804844754
1424.0,0.0033018339692593743
1423.0,0.003161516333601907
1422.0,0.003069007393931421
1421.0,0.002972675880276766
1420.0,0.0028658426844229844
1419.0,0.0027872079556017244
1418.0,0.002733853478574986
1417.0,0.0026682680611057304
1416.0,0.0026010519131276126
1415.0,0.0025578232284199066
1414.0,0.0025244598758254475
1413.0,0.002475797279906904
1412.0,0.0024230809687042923
1411.0,0.002393533068684829
1410.0,0.0023767247983216507
1409.0,0.002345228901102935
1408.0,0.002307160935529111
1407.0,0.002288387588438661
1406.0,0.0022812365327292946
1405.0,0.0022574816755403047
1404.0,0.002224668074470147
1403.0,0.0022085549878718726
1402.0,0.0021986951143997116
1401.0,0.0021710854045127186
1400.0,0.002137966247563172
1399.0,0.0021306168250855733
1398.0,0.0021409172725359825
1397.0,0.0021383588632455015
1396.0,0.002130268280939573
1395.0,0.0021413834038390557
1394.0,0.0021589815853227676
1393.0,0.002158930964058187
1392.0,0.0021550118409164407
1391.0,0.002171372245573357
1390.0,0.0022055159995460582
1389.0,0.0022463245643926377
1388.0,0.0023093587226235023
1387.0,0.002417995896432521
1386.0,0.002559760977312884
1385.0,0.0027215943972615547
1384.0,0.002936306028620171
1383.0,0.0032441734449443404
1382.0,0.0036377842731190107
1381.0,0.004069537527321409
1380.0,0.004486129716825071
1379.0,0.004821439961024114
1378.0,0.0049991398077000836
1377.0,0.004992364025630584
1376.0,0.004852573703895124
1375.0,0.004668825075939381
1374.0,0.0045176965419875
1373.0,0.004436965100459676
1372.0,0.0044266289361005965
1371.0,0.004461966642834006
1370.0,0.004502768891360031
1369.0,0.004511944223719445
1368.0,0.004479570019692043
1367.0,0.004416634355302457
1366.0,0.004327493958994324
1365.0,0.00420879987324498
1364.0,0.0040685675723920855
1363.0,0.003927484835025906
1362.0,0.0037998275156681948
1361.0,0.0036897976134364165
1360.0,0.003605360997990661
1359.0,0.0035528075440877725
1358.0,0.003524261358585927
1357.0,0.0035083120733608755
1356.0,0.0035062790035827085
1355.0,0.0035224583725216754
1354.0,0.003544319659677038
1353.0,0.003552069167578117
1352.0,0.0035409257790582583
1351.0,0.003515187183163666
1350.0,0.0034706865744125294
1349.0,0.0034029903316383754
1348.0,0.003324354321229024
1347.0,0.0032520285417399638
1346.0,0.0031867223273752323
1345.0,0.0031203473197677274
1344.0,0.0030562522993740873
1343.0,0.0030033739811392256
1342.0,0.002957027284372373
1341.0,0.002902134739549453
1340.0,0.002833469223076571
1339.0,0.0027579644014816564
1338.0,0.0026778248418019308
1337.0,0.0025918329770893583
1336.0,0.002509101894879807
1335.0,0.0024408600840083914
1334.0,0.002385074292351449
1333.0,0.0023341233110242936
1332.0,0.002291562862738968
1331.0,0.0022664264446334236
1330.0,0.002255805932748178
1329.0,0.0022494442417407903
1328.0,0.0022474741947171614
1327.0,0.002257451616421397
1326.0,0.002277985004522859
1325.0,0.002300891373674721
1324.0,0.002325653989631558
1323.0,0.0023571330700568184
1322.0,0.0023931702535834824
1321.0,0.0024285995931171912
1320.0,0.002467311572555688
1319.0,0.002515875595339808
1318.0,0.002568752421804238
1317.0,0.0026155821809310965
1316.0,0.002658465559234432
1315.0,0.0027066654232348426
1314.0,0.0027600238636881005
1313.0,0.0028111235127919686
1312.0,0.002859021774212899
1311.0,0.002907065243197429
1310.0,0.0029512712471772384
1309.0,0.0029844095226137482
1308.0,0.003007861501067771
1307.0,0.0030279450276544857
1306.0,0.003044292370980161
1305.0,0.003053157764173773
1304.0,0.0030579162077678983
1303.0,0.003064427051318364
1302.0,0.0030699403852511623
1301.0,0.0030680565500953816
1300.0,0.0030608030340670833
1299.0,0.003054547322184216
1298.0,0.0030476387914504127
1297.0,0.0030331148201508747
1296.0,0.0030101866655834323
1295.0,0.0029824890486395473
1294.0,0.002949099895798184
1293.0,0.0029082217118297253
1292.0,0.0028657232953033076
1291.0,0.0028290145526431317
1290.0,0.0027959511318533794
1289.0,0.002760512724158778
1288.0,0.0027258478373792627
1287.0,0.0027003118130216933
1286.0,0.002684036592468927
1285.0,0.0026709010603151386
1284.0,0.0026597737231550816
1283.0,0.0026524335551124665
1282.0,0.0026445197665954747
1281.0,0.002629950492721833
1280.0,0.002611185811122816
1279.0,0.0025945543011149856
1278.0,0.00257888500859126
1277.0,0.002559325441856786
1276.0,0.002538410431646603
1275.0,0.0025221924623758676
1274.0,0.0025088144679155312
1273.0,0.0024917822673950216
1272.0,0.002471547468421337
1271.0,0.0024533008940881137
1270.0,0.0024365596691215217
1269.0,0.002418144511297462
1268.0,0.002402066022224875
1267.0,0.0023948328561878645
1266.0,0.0023939566031847713
1265.0,0.0023919977574283855
1264.0,0.0023885908986203386
1263.0,0.002387357789737993
1262.0,0.0023846854350788975
1261.0,0.002373419611933266
1260.0,0.0023549971813117887
1259.0,0.0023366684467666012
1258.0,0.0023195984430518803
1257.0,0.002300885522059309
1256.0,0.0022836840772855055
1255.0,0.0022736856245625754
1254.0,0.002268509117667663
1253.0,0.002261620148864413
1252.0,0.0022540991448946335
1251.0,0.002251724800657434
1250.0,0.0022533735485507217
1249.0,0.0022534804961749635
1248.0,0.00225319138792015
1247.0,0.0022578968541968653
1246.0,0.002266161305945889
1245.0,0.0022718981943927
1244.0,0.0022752549646594864
1243.0,0.002280896988675222
1242.0,0.0022881550295280597
1241.0,0.0022935293979387487
1240.0,0.0023002398249997234
1239.0,0.002314537678118517
1238.0,0.002334663979315816
1237.0,0.0023536553656367458
1236.0,0.0023708784546076925
1235.0,0.002390774820916746
1234.0,0.002412769693412195
1233.0,0.0024325177888466225
1232.0,0.0024505060774692444
1231.0,0.0024692988270894603
1230.0,0.0024849624026735675
1229.0,0.002491546845590967
1228.0,0.0024917542295880553
1227.0,0.0024934556294446126
1226.0,0.0024981460778015223
1225.0,0.002502320317470308
1224.0,0.002507226543641185
1223.0,0.0025166527789319596
1222.0,0.00252735894868503
1221.0,0.0025324278024967174
1220.0,0.0025326014180189153
1219.0,0.002534596868949427
1218.0,0.002539989526678874
1217.0,0.0025454106315359252
1216.0,0.002551734818670939
1215.0,0.0025629486369093185
1214.0,0.00257741303116347
1213.0,0.0025897097678031855
1212.0,0.0025996430829691103
1211.0,0.0026106926118249687
1210.0,0.0026220209548694392
1209.0,0.0026311339807020585
1208.0,0.0026414213700897606
1207.0,0.002657414303700344
1206.0,0.0026755023050531617
1205.0,0.0026891808409030076
1204.0,0.002700579597036138
1203.0,0.002716823932388348
1202.0,0.002737891362955721
1201.0,0.002758198769040208
1200.0,0.0027774129381764375
1199.0,0.002799318306773004
1198.0,0.0028221706843502116
1197.0,0.0028403827880571237
1196.0,0.00285438096885534
1195.0,0.0028695688188311854
1194.0,0.002887064042587868
1193.0,0.0029039439518238072
1192.0,0.002920547177253579
1191.0,0.0029389792034666402
1190.0,0.002956777333052038
1189.0,0.002970723530438162
1188.0,0.002984442766827436
1187.0,0.003003615529164026
1186.0,0.00302611317879508
1185.0,0.0030453861747238783
1184.0,0.003060973946644984
1183.0,0.00307715392904411
1182.0,0.0030942229765959536
1181.0,0.0031098796774451376
1180.0,0.003126367133826354
1179.0,0.0031468301323795554
1178.0,0.0031668056836989997
1177.0,0.003178673990061454
1176.0,0.003182750564796073
1175.0,0.0031858338116198134
1174.0,0.003191157870117486
1173.0,0.0031976542789829633
1172.0,0.0032061260042476006
1171.0,0.0032172978481498703
1170.0,0.00322613361425499
1169.0,0.0032269892149771155
1168.0,0.0032228163514698076
1167.0,0.0032216045713185826
1166.0,0.00322585211302723
1165.0,0.0032329140489237946
1164.0,0.0032425530519167825
1163.0,0.0032555864185706547
1162.0,0.0032681930805804277
1161.0,0.0032764887031014973
1160.0,0.003284016643559362
1159.0,0.0032962564602154686
1158.0,0.0033108109845615776
1157.0,0.003321833044356108
1156.0,0.003330903470700982
1155.0,0.0033439998677898632
1154.0,0.0033602972543992434
1153.0,0.0033736495644802445
1152.0,0.003383281097811736
1151.0,0.0033937590935884795
1150.0,0.003406022267149814
1149.0,0.0034171150495950742
1148.0,0.0034271917358835303
1147.0,0.0034386781666314293
1146.0,0.003450482318682168
1145.0,0.003460795351285987
1144.0,0.0034731108421325635
1143.0,0.0034913898649213205
1142.0,0.0035117320735628533
1141.0,0.003527267178578961
1140.0,0.00353917692257627
1139.0,0.0035546399201078493
1138.0,0.003575884294557103
1137.0,0.0035991600659939457
1136.0,0.0036221429266358397
1135.0,0.0036442511971405364
1134.0,0.003662030945786321
1133.0,0.0036722880427765402
1132.0,0.003677700885477331
1131.0,0.0036821166038415822
1130.0,0.0036829500880887346
1129.0,0.003675615930401319
1128.0,0.0036627306463564617
1127.0,0.003651269576130335
1126.0,0.0036433436126404413
1125.0,0.0036375164220329922
1124.0,0.003636001002799097
1123.0,0.0036419029006654127
1122.0,0.003652146663694387
1121.0,0.0036618935158166215
1120.0,0.0036731786374328964
1119.0,0.0036904565017132295
1118.0,0.003710546690006578
1117.0,0.003725990138155816
1116.0,0.0037359106824134537
1115.0,0.003744908497743271
1114.0,0.00375396514494967
1113.0,0.00376157532171524
1112.0,0.0037712453338196723
1111.0,0.0037878358619509423
1110.0,0.003807963483546313
1109.0,0.003823635789433363
1108.0,0.0038342508969361356
1107.0,0.0038461594184951266
1106.0,0.0038617465928704013
1105.0,0.0038775453429629857
1104.0,0.003891771787768575
1103.0,0.0039052196750912387
1102.0,0.003915769106610902
1101.0,0.003920037523856286
1100.0,0.003919773766679884
1099.0,0.003919706688297489
1098.0,0.0039203624844862716
1097.0,0.003919617348566092
1096.0,0.0039191720613756574
1095.0,0.003922264835094697
1094.0,0.003927112168969984
1093.0,0.003929665082256507
1092.0,0.003930372494357288
1091.0,0.003931275534904695
1090.0,0.003929525059884909
1089.0,0.003921291131494975
1088.0,0.00390922213312616
1087.0,0.0038982959172278557
1086.0,0.0038869178360436997
1085.0,0.003870047292570366
1084.0,0.0038484326169532764
1083.0,0.003826524417131859
1082.0,0.0038038675145266507
1081.0,0.003776889202395059
1080.0,0.0037466373914783377
1079.0,0.0037160964549729494
1078.0,0.0036821911835845057
1077.0,0.003639508452843208
1076.0,0.0035904263471702937
1075.0,0.003542950333063492
1074.0,0.0034997273116575468
1073.0,0.0034574782793779946
1072.0,0.0034157873764686323
1071.0,0.0033777387237607743
1070.0,0.0033431754387423735
1069.0,0.0033100097022086654
1068.0,0.003280915169860628
1067.0,0.0032601524021378314
1066.0,0.003245148078723712
1065.0,0.003229703325728974
1064.0,0.003213921381908111
1063.0,0.0032022584525159474
1062.0,0.0031930844272394857
1061.0,0.0031791063499820977
1060.0,0.0031576347843548878
1059.0,0.003132012275050288
1058.0,0.003103527806081848
1057.0,0.0030705923675539253
1056.0,0.003035987410077496
1055.0,0.0030066317090827544
1054.0,0.0029850070376205295
1053.0,0.002967582367626477
1052.0,0.0029522999337332867
1051.0,0.0029403527759076804
1050.0,0.0029300338269772352
1049.0,0.002917110630595678
1048.0,0.0029016034708177207
1047.0,0.0028861011630188114
1046.0,0.0028687390647933577
1045.0,0.0028456874065112708
1044.0,0.002818671858264843
1043.0,0.002793134250005692
1042.0,0.0027706979136847662
1041.0,0.002749772016890808
1040.0,0.002731631026260095
1039.0,0.0027186485849604383
1038.0,0.0027077132051317155
1037.0,0.002692711363350717
1036.0,0.002673098487852493
1035.0,0.002653556445869897
1034.0,0.0026357890271229496
1033.0,0.002616991483052091
1032.0,0.002595710490724933
1031.0,0.00257273514750865
1030.0,0.0025468835893936877
1029.0,0.002516384082695138
1028.0,0.002483868842920052
1027.0,0.002453752053251097
1026.0,0.002425193885232856
1025.0,0.002393695140477205
1024.0,0.002358930723942342
1023.0,0.002325006120184095
1022.0,0.0022937344090345657
1021.0,0.002263772457402305
1020.0,0.002235874647285146
1019.0,0.002212698832121899
1018.0,0.0021935756367763765
1017.0,0.0021754609793402328
1016.0,0.002158680597686087
1015.0,0.0021459782260667528
1014.0,0.0021366033385309614
1013.0,0.002127139170351082
1012.0,0.0021173759624794866
1011.0,0.0021095721251882167
1010.0,0.002102697037276607
1009.0,0.0020930594824068783
1008.0,0.002079924392003285
1007.0,0.002065087229469366
1006.0,0.0020477828940245243
1005.0,0.0020256230050399613
1004.0,0.001999763248707947
1003.0,0.0019736154077472728
1002.0,0.001947391068292185
1001.0,0.001919356774189424
1000.0,0.0018911792673760308
999.0,0.0018661521231786112
998.0,0.0018431831599004336
997.0,0.0018184383891759412
996.0,0.0017920666066203958
995.0,0.0017675591820398946
994.0,0.001745423435662891
993.0,0.0017234740731821554
992.0,0.0017026246211883308
991.0,0.0016862484154743303
990.0,0.0016743010627480244
989.0,0.001663867720404067
988.0,0.0016546092568546905
987.0,0.0016478904517641644
986.0,0.0016419566641107382
985.0,0.0016342701280935015
984.0,0.0016273187226571878
983.0,0.0016255143406645465
982.0,0.0016271230598550405
981.0,0.0016255747206198538
980.0,0.0016179221950837696
979.0,0.0016058207359966386
978.0,0.001589749556354255
977.0,0.0015696857923374694
976.0,0.001550666597735399
975.0,0.0015399087373767035
974.0,0.0015379277788724942
973.0,0.001538982602154701
972.0,0.0015400703465704596
971.0,0.001542835179857095
970.0,0.0015471849678512699
969.0,0.00155044245331677
968.0,0.0015531729110184686
967.0,0.00155883905654815
966.0,0.0015669710057258982
965.0,0.0015733525264599606
964.0,0.0015777081886995373
963.0,0.0015845409555268052
962.0,0.0015953227804041663
961.0,0.0016061362910537221
960.0,0.0016141644549594481
959.0,0.0016208493510335498
958.0,0.0016278748242916233
957.0,0.0016354110812597743
956.0,0.0016447000860602438
955.0,0.001656844343249041
954.0,0.0016687365295841342
953.0,0.0016759051596900928
952.0,0.001679812119852262
951.0,0.0016866715370509754
950.0,0.00169861984722085
949.0,0.0017116471727991645
948.0,0.0017225633760095584
947.0,0.0017323142701520578
946.0,0.0017421514177087293
945.0,0.0017522607253990011
944.0,0.0017646007951909828
943.0,0.0017814285659757362
942.0,0.0018002949303724028
941.0,0.001815696478819625
940.0,0.0018261526697440124
939.0,0.001834806116592687
938.0,0.0018432390294347957
937.0,0.001850246229185894
936.0,0.0018567498056204263
935.0,0.001865803341463519
934.0,0.0018767545600647762
933.0,0.0018848867758293588
932.0,0.0018879321830578624
931.0,0.0018881366733703281
930.0,0.0018873824071139601
929.0,0.0018853309188065818
928.0,0.001883017794845203
927.0,0.0018830518316359326
926.0,0.0018851004756248748
925.0,0.0018859142679960002
924.0,0.0018847377641667243
923.0,0.0018840756111130688
922.0,0.0018844864338241336
921.0,0.0018835027710650347
920.0,0.0018806015065077931
919.0,0.0018785129745674772
918.0,0.001878557141259131
917.0,0.0018790317933313387
916.0,0.0018790151154476778
915.0,0.0018794259105121623
914.0,0.0018795645575249856
913.0,0.0018769996272554167
912.0,0.0018717068982303745
911.0,0.001865893713757563
910.0,0.0018588049317349183
909.0,0.0018462228964226872
908.0,0.0018264160899464593
907.0,0.0018026084552975016
906.0,0.00177863153866507
905.0,0.0017560756899235549
904.0,0.0017363825829554305
903.0,0.0017213637884909794
902.0,0.0017104061405514876
901.0,0.001700834225348346
900.0,0.001691823556359834
899.0,0.0016846385293740357
898.0,0.0016790899384747135
897.0,0.0016736966927387259
896.0,0.0016691828709107497
895.0,0.0016675712072303952
894.0,0.0016679640347872808
893.0,0.0016674760204052422
892.0,0.0016659052928719702
891.0,0.001664821303877493
890.0,0.0016623637828815862
889.0,0.0016540028305619026
888.0,0.0016387029034363816
887.0,0.0016194756579424523
886.0,0.0015974476237917222
885.0,0.0015703165014414025
884.0,0.001537448639790812
883.0,0.0015018343277033404
882.0,0.0014661555409133744
881.0,0.0014315279386989369
880.0,0.0014008614593912694
879.0,0.0013782276489777245
878.0,0.001363421507572613
877.0,0.0013518344485496693
876.0,0.0013407184091327156
875.0,0.001330941040935514
874.0,0.0013222104713804122
873.0,0.001311635405789397
872.0,0.0012974207674639642
871.0,0.0012796643452701456
870.0,0.0012583114918672633
869.0,0.001234952298567311
868.0,0.001215019676106406
867.0,0.001202464027865138
866.0,0.0011932590061091756
865.0,0.0011801469528892555
864.0,0.0011632346551279564
863.0,0.0011499675448988014
862.0,0.00114490207883211
861.0,0.0011454033082910064
860.0,0.0011473157592350703
859.0,0.0011486837315698062
858.0,0.0011475944549963284
857.0,0.001142484035358074
856.0,0.0011355777465212218
855.0,0.00113089935315577
854.0,0.00112834739697758
853.0,0.0011246621111540883
852.0,0.0011199688095559967
851.0,0.0011175832373452623
850.0,0.0011172637547951973
849.0,0.0011147294948080477
848.0,0.0011085912449285628
847.0,0.0011022236611861714
846.0,0.0010982525528718814
845.0,0.0010966007294308554
844.0,0.0010980444865715583
843.0,0.0011036291804382954
842.0,0.0011101166332107028
841.0,0.0011121998587495015
840.0,0.0011101024943611048
839.0,0.0011092858999604623
838.0,0.0011119918088951593
837.0,0.0011149161843253712
836.0,0.0011160275644148347
835.0,0.001117509860865143
834.0,0.0011204904219444432
833.0,0.0011227246451856485
832.0,0.0011234984312599736
831.0,0.0011257122574734038
830.0,0.001131186570622873
829.0,0.0011385179856608534
828.0,0.0011468345556813024
827.0,0.0011562871636215581
826.0,0.0011638841725839604
825.0,0.0011658123408228847
824.0,0.0011651237137920293
823.0,0.0011689395114321864
822.0,0.0011771973514602813
821.0,0.0011832848976899074
820.0,0.0011856895379531518
819.0,0.0011896392507034052
818.0,0.0011973650255020533
817.0,0.0012052952637697752
816.0,0.0012118310563171168
815.0,0.0012204164457790057
814.0,0.0012324643000770218
813.0,0.0012435031197939605
812.0,0.0012496489393031124
811.0,0.0012532205595937194
810.0,0.0012591123154903645
809.0,0.0012693292022123847
808.0,0.001283064012886907
807.0,0.001298358590317788
806.0,0.0013119831550477733
805.0,0.001321398078800847
804.0,0.0013282695140531273
803.0,0.0013367308041361834
802.0,0.001347404718068645
801.0,0.0013567177778257083
800.0,0.0013625294038373315
799.0,0.0013664046905404272
798.0,0.0013700798354615755
797.0,0.0013741229018129396
796.0,0.0013804259492835953
795.0,0.0013910228130609994
794.0,0.0014034558481206248
793.0,0.001412244498059792
792.0,0.001416118168140536
791.0,0.001419159812013369
790.0,0.0014239739817239045
789.0,0.0014289454592843088
788.0,0.0014337497802580554
787.0,0.0014421128028013893
786.0,0.001456321895271161
785.0,0.0014733384088132112
784.0,0.001489102717680887
783.0,0.0015030061590327508
782.0,0.0015157780608173906
781.0,0.0015267773852776097
780.0,0.0015361946251447299
779.0,0.0015466986174614559
778.0,0.0015598709625420052
777.0,0.001573308912738546
776.0,0.0015837091387786897
775.0,0.0015909263139061325
774.0,0.001597222139461649
773.0,0.0016045514630360273
772.0,0.001614132767216377
771.0,0.0016263294039902839
770.0,0.0016391802056565858
769.0,0.0016493391236301626
768.0,0.0016563550306537107
767.0,0.001663878788160567
766.0,0.0016746786138300137
765.0,0.001686574619640866
764.0,0.001695480208455506
763.0,0.0017006319220462624
762.0,0.0017046498147028698
761.0,0.0017101407310795341
760.0,0.0017187785635011622
759.0,0.0017323425685416957
758.0,0.0017514040073165857
757.0,0.0017732638138049093
756.0,0.0017942432056900033
755.0,0.0018145691998759134
754.0,0.0018385388834154747
753.0,0.001869056570822833
752.0,0.0019044625938586337
751.0,0.0019419562794220449
750.0,0.001981410510722023
749.0,0.0020235570446923827
748.0,0.002066878302959802
747.0,0.0021099555054124313
746.0,0.002155763016884593
745.0,0.002209707128884011
744.0,0.0022739051272438505
743.0,0.002347432304144301
742.0,0.0024317485447850526
741.0,0.0025314911015676934
740.0,0.002651348898590892
739.0,0.0027988462495160023
738.0,0.0029902812738420116
737.0,0.0032517257373659123
736.0,0.0036306582924376645
735.0,0.00423400886410987
734.0,0.005242250294572673
733.0,0.006806462405341253
732.0,0.008836260495141789
731.0,0.010868346761836198
730.0,0.012250743738251298
729.0,0.012609905938913707
728.0,0.012160944185107832
727.0,0.011505135811795977
726.0,0.011172927567676856
725.0,0.011400438634230667
724.0,0.012244276422589826
723.0,0.013764813562461125
722.0,0.016001537610234883
721.0,0.018731803782919613
720.0,0.021301871137333898
719.0,0.022893832593226505
718.0,0.02305804113693256
717.0,0.021862060166025384
716.0,0.0196404512640608
715.0,0.016833729572751963
714.0,0.013944588373770756
713.0,0.011405579832509387
712.0,0.009425530268429974
711.0,0.007977075315612984
710.0,0.006913733197008111
709.0,0.006098241387563954
708.0,0.00545329051478755
707.0,0.004937753433716461
706.0,0.00451613874549498
705.0,0.004160080395619421
704.0,0.0038579797810582303
703.0,0.0036052576671667218
702.0,0.003391012243533442
701.0,0.0032036751672219516
700.0,0.0030412856716959145
699.0,0.002904537562775692
698.0,0.0027858870348230484
697.0,0.002675992413978649
696.0,0.0025749392474779115
695.0,0.0024864475202851025
694.0,0.002406159972459581
693.0,0.0023272577738045123
692.0,0.002253350255356257
691.0,0.002193219235823872
690.0,0.0021457048792111228
689.0,0.0021014593916668487
688.0,0.0020576944102346324
687.0,0.0020187902898358675
686.0,0.0019838018738438526
685.0,0.001947504830169739
684.0,0.001911368232759691
683.0,0.0018798563398965858
682.0,0.0018497161701544517
681.0,0.0018153034538178157
680.0,0.0017811586082280063
679.0,0.0017563805607660578
678.0,0.0017392960913641155
677.0,0.0017211030015396504
676.0,0.0017002479414199288
675.0,0.00168233251325635
674.0,0.0016685210661840008
673.0,0.0016526250752530738
672.0,0.0016297292512568306
671.0,0.0015932993034174277
670.0,0.0015352563980695515
669.0,0.001449234750527495
668.0,0.0013661357555285734
667.0,0.0013614460326307949
666.0,0.0014232169456721469
665.0,0.0014771083393454807
664.0,0.0015025068290056742
663.0,0.0015113799529194866
662.0,0.0015110522374421698
661.0,0.0014991815039631896
660.0,0.0014790370940934126
659.0,0.0014618895362234585
658.0,0.001450297810290882
657.0,0.0014381913083350967
656.0,0.0014259193202238439
655.0,0.0014205175465740294
654.0,0.0014190268194266464
653.0,0.0014095374513681234
652.0,0.0013915544030877658
651.0,0.0013782943153755028
650.0,0.0013762672184902986
649.0,0.0013779899529004578
648.0,0.001377127598429154
647.0,0.0013743451425101637
646.0,0.0013675696112961844
645.0,0.0013533187243323678
644.0,0.001338299504824886
643.0,0.0013330548029045677
642.0,0.0013327061821333801
641.0,0.001322093494776577
640.0,0.001300873784767873
639.0,0.0012835720091633933
638.0,0.00127366748524009
637.0,0.001260335593662631
636.0,0.0012439781442453468
635.0,0.0012392798634629255
634.0,0.001247159507229119
633.0,0.0012502719143776746
632.0,0.0012427226313869693
631.0,0.0012381450342148622
630.0,0.0012435269762357808
629.0,0.0012491255060585401
628.0,0.001249090525834406
627.0,0.0012478327695481513
626.0,0.0012406075377854903
625.0,0.001213453355693249
624.0,0.001171886474251147
623.0,0.0011434727769849549
622.0,0.001139151690598722
621.0,0.0011398429224719448
620.0,0.0011324802318351246
619.0,0.0011257780513129418
618.0,0.0011196416141774793
617.0,0.0010972099634991067
616.0,0.0010633245870403203
615.0,0.0010512422207533305
614.0,0.0010757571054021316
613.0,0.0011165062775009792
612.0,0.0011530990056547183
611.0,0.0011803671411591487
610.0,0.001190544454863804
609.0,0.0011763720614606584
608.0,0.0011541250298880345
607.0,0.0011524332799942793
606.0,0.0011728046779989558
605.0,0.0011923607049701378
604.0,0.0012069588183373497
603.0,0.0012335196211206063
602.0,0.0012710269921778186
601.0,0.0012961867087115234
600.0,0.001298332502874122
599.0,0.001288280758899975
598.0,0.0012732051827939487
597.0,0.0012514304291179343
596.0,0.0012327316736369777
595.0,0.0012338986780556992
594.0,0.0012497874716430558
593.0,0.001258705223084576
592.0,0.0012601688721014153
591.0,0.0012721886321300012
590.0,0.0012882547892147304
589.0,0.0012804560263759137
588.0,0.0012477991615248377
587.0,0.001219706721659198
586.0,0.0012080262647559228
585.0,0.0011934193722957518
584.0,0.001171269092986181
583.0,0.0011678189314609892
582.0,0.0011906997950748722
581.0,0.0012103789744300905
580.0,0.001213645581182866
579.0,0.0012258268682705203
578.0,0.0012603682947658196
577.0,0.0012948714564559795
576.0,0.001312809332423209
575.0,0.0013211315164072313
574.0,0.0013154329899013426
573.0,0.0012777781989474174
572.0,0.0012220299088178226
571.0,0.0011960295886714373
570.0,0.0012173716389760902
569.0,0.0012491209235638017
568.0,0.0012603088249192066
567.0,0.0012565215802008414
566.0,0.0012445635866035797
565.0,0.0012196804083581952
564.0,0.0011941604210174259
563.0,0.0011908867418440965
562.0,0.0011985099521365167
561.0,0.001183551591775384
560.0,0.0011527468694363364
559.0,0.001147493622970289
558.0,0.0011705328950442973
557.0,0.0011751993873678822
556.0,0.001138529451540373
555.0,0.0010906839490634243
554.0,0.0010625840810866817
553.0,0.0010533771749658026
552.0,0.0010645733598100406
551.0,0.001101575991083967
550.0,0.0011288755591014664
