cm-1,A
4000.0,0.00666493610728891
3999.0,0.006670849829330307
3998.0,0.006667291592690989
3997.0,0.006663836484054596
3996.0,0.006663258394332627
3995.0,0.006659263925668118
3994.0,0.006646922479313697
3993.0,0.006631997434026075
3992.0,0.006626362742179941
3991.0,0.006633223263855211
3990.0,0.006642450187671211
3989.0,0.0066426041046549
3988.0,0.006633839735790535
3987.0,0.006627122726855399
3986.0,0.006630764149063568
3985.0,0.006642362805568045
3984.0,0.006654226775725043
3983.0,0.006661985045278448
3982.0,0.006666898317384949
3981.0,0.006669868533921424
3980.0,0.006667778348122981
3979.0,0.006658083307095947
3978.0,0.006643862494412224
3977.0,0.006632607829022166
3976.0,0.0066296562579040335
3975.0,0.006633623413864007
3974.0,0.006638516100859525
3973.0,0.006640005094601078
3972.0,0.006638573612691225
3971.0,0.0066375688339885205
3970.0,0.006639535845215576
3969.0,0.006643714339731238
3968.0,0.006647222233220797
3967.0,0.006647923448693939
3966.0,0.006646290445492261
3965.0,0.006644804598931675
3964.0,0.006645197920151897
3963.0,0.006646320421635055
3962.0,0.006644212890652561
3961.0,0.006636620237477883
3960.0,0.00662720169387634
3959.0,0.006622618853667403
3958.0,0.006627092023034263
3957.0,0.006637868105312489
3956.0,0.0066478852357998676
3955.0,0.0066537452794756405
3954.0,0.006658272098001596
3953.0,0.006665894074472074
3952.0,0.006676221930791424
3951.0,0.006681590937655271
3950.0,0.006673100935119264
3949.0,0.006647953338855146
3948.0,0.006612117222846444
3947.0,0.006577091267495192
3946.0,0.006552712461141068
3945.0,0.0065499530247033234
3944.0,0.0065763590935309655
3943.0,0.006620597225696224
3942.0,0.006656449472890391
3941.0,0.006663472847950154
3940.0,0.0066409560191387626
3939.0,0.006603219294483742
3938.0,0.006568005442340034
3937.0,0.00654554806152651
3936.0,0.006536147050842391
3935.0,0.006537869210396245
3934.0,0.006550948509229343
3933.0,0.006575595055140466
3932.0,0.006602891403907372
3931.0,0.006619419699832574
3930.0,0.0066189504245262615
3929.0,0.006603202335666547
3928.0,0.0065814468222702765
3927.0,0.006567876651406566
3926.0,0.0065745703799649545
3925.0,0.006596636583493003
3924.0,0.006614760012849358
3923.0,0.006617603259807653
3922.0,0.0066072186333342945
3921.0,0.006591800588082138
3920.0,0.006579826420149121
3919.0,0.006576896417493966
3918.0,0.006584618356264096
3917.0,0.006597108893176275
3916.0,0.006604337385058779
3915.0,0.006600098437515035
3914.0,0.0065854687381536915
3913.0,0.006566983342970696
3912.0,0.006551470381166476
3911.0,0.006541263652562082
3910.0,0.006535919037893346
3909.0,0.006533678193763259
3908.0,0.006535123950795268
3907.0,0.006545382866417309
3906.0,0.006570599137759419
3905.0,0.006602647225399844
3904.0,0.006617514582743142
3903.0,0.006607465396497216
3902.0,0.006594743950873445
3901.0,0.0066014932885504855
3900.0,0.006619907083697705
3899.0,0.006626638464885279
3898.0,0.006614908661524598
3897.0,0.006595667648709164
3896.0,0.006580676457094615
3895.0,0.006571525534113791
3894.0,0.006566649309094577
3893.0,0.006569220620620314
3892.0,0.006579376815865944
3891.0,0.006590232256677636
3890.0,0.006595034314907406
3889.0,0.006584189713839051
3888.0,0.006556199695130317
3887.0,0.006529939797667483
3886.0,0.0065210266337957425
3885.0,0.006517791523432129
3884.0,0.006505491286733969
3883.0,0.006486812537562515
3882.0,0.006479702354673939
3881.0,0.006495484869168299
3880.0,0.006519424667384243
3879.0,0.006529588559239985
3878.0,0.006513404386796903
3877.0,0.006471364037138902
3876.0,0.006425396656372654
3875.0,0.006404514041857455
3874.0,0.006411920199075088
3873.0,0.00642655983547093
3872.0,0.006438515426299634
3871.0,0.006458063769547021
3870.0,0.0064865635862385255
3869.0,0.006509415775925942
3868.0,0.006516811966777379
3867.0,0.006510287626027399
3866.0,0.006504300125569293
3865.0,0.006507349716028033
3864.0,0.0065099371509559165
3863.0,0.0065057222046033675
3862.0,0.006500712685232803
3861.0,0.006497564058280282
3860.0,0.006496652890572219
3859.0,0.00650227386646819
3858.0,0.0065159003172634315
3857.0,0.006524758975881829
3856.0,0.006511253565552948
3855.0,0.006496300322368028
3854.0,0.006517069131048817
3853.0,0.0065283309557347576
3852.0,0.006506971705437672
3851.0,0.006484483648592391
3850.0,0.006472661662242718
3849.0,0.006470541483011248
3848.0,0.006472886142939341
3847.0,0.006473730905503404
3846.0,0.006471224398291369
3845.0,0.006468550951741624
3844.0,0.0064708048446430935
3843.0,0.006477243825994636
3842.0,0.0064813107285382615
3841.0,0.006477359439167646
3840.0,0.0064648402291347835
3839.0,0.0064450088538351704
3838.0,0.006426361456184444
3837.0,0.006421537883542098
3836.0,0.006431208747131753
3835.0,0.006441518847139692
3834.0,0.006439716877362067
3833.0,0.006424368470579588
3832.0,0.006404279472439861
3831.0,0.006390301908066213
3830.0,0.006386481214258444
3829.0,0.006390068138446716
3828.0,0.006400091329515744
3827.0,0.006417571528443994
3826.0,0.0064379549533842995
3825.0,0.006449563882495117
3824.0,0.006440775748475377
3823.0,0.006422373776343
3822.0,0.006424770100689395
3821.0,0.0064353017073567045
3820.0,0.0064272459894174115
3819.0,0.006406443189882507
3818.0,0.006386828516833227
3817.0,0.0063841648397027296
3816.0,0.0063977809965926145
3815.0,0.006410062604306129
3814.0,0.006413029945858655
3813.0,0.006412899781620667
3812.0,0.006418113726759273
3811.0,0.006428404056758392
3810.0,0.006434423116082665
3809.0,0.006433954816784601
3808.0,0.006434642132995619
3807.0,0.00643377585325798
3806.0,0.006422129204561716
3805.0,0.006400374548697225
3804.0,0.00638222684275131
3803.0,0.006392443470891663
3802.0,0.006424478702792554
3801.0,0.0064304269656725475
3800.0,0.006402805907481165
3799.0,0.006372370728981409
3798.0,0.006359784821897748
3797.0,0.006368464756409498
3796.0,0.006383702509874829
3795.0,0.006388917087971607
3794.0,0.006382310337117225
3793.0,0.006373419316182759
3792.0,0.006371278048587291
3791.0,0.0063773466025587
3790.0,0.006385871412604182
3789.0,0.0063890087979787
3788.0,0.006381216425435277
3787.0,0.006362858265003409
3786.0,0.006340493992720489
3785.0,0.006321843233176365
3784.0,0.0063083001129202254
3783.0,0.006293597304180757
3782.0,0.006272815940967562
3781.0,0.006255804724441379
3780.0,0.006258983055734806
3779.0,0.00628221864008374
3778.0,0.0063103951118439455
3777.0,0.006330100690810335
3776.0,0.006338982725656701
3775.0,0.006342238029401945
3774.0,0.0063432743022120855
3773.0,0.006341131136816369
3772.0,0.006336741646818637
3771.0,0.0063315210128492136
3770.0,0.006322440137783581
3769.0,0.006309737992873466
3768.0,0.006300357724753039
3767.0,0.006299219135369456
3766.0,0.006303263018608324
3765.0,0.006305867954559476
3764.0,0.006305010647101217
3763.0,0.006302287800523617
3762.0,0.0063030523046937225
3761.0,0.00631357021716953
3760.0,0.0063267969744728045
3759.0,0.006326868485711599
3758.0,0.006315970574282164
3757.0,0.006313111872546836
3756.0,0.006323438936042301
3755.0,0.006339541188856358
3754.0,0.006358768000421241
3753.0,0.006389592709970197
3752.0,0.006426671747324618
3751.0,0.006434945049919794
3750.0,0.006417718103555511
3749.0,0.006417690842636544
3748.0,0.0064341381250476734
3747.0,0.006430348215587687
3746.0,0.006388482598033036
3745.0,0.006324757639418428
3744.0,0.006270277999481228
3743.0,0.006247055280062376
3742.0,0.006255657801274562
3741.0,0.006284284130776997
3740.0,0.006313493788354184
3739.0,0.006316960421910592
3738.0,0.0062814681775074975
3737.0,0.006224828304812065
3736.0,0.006174326625550802
3735.0,0.006150242014109127
3734.0,0.006166269215204666
3733.0,0.006209099584496143
3732.0,0.006247544978086162
3731.0,0.006267322321088147
3730.0,0.0062735237068210405
3729.0,0.0062781669989978245
3728.0,0.006293701225446035
3727.0,0.006321780117843934
3726.0,0.006346530829742764
3725.0,0.006351486954579941
3724.0,0.00633550901090247
3723.0,0.006307824631032944
3722.0,0.0062773310730591765
3721.0,0.006250131263090032
3720.0,0.006232964097527865
3719.0,0.006234519613997917
3718.0,0.006260277742946256
3717.0,0.006303664400433782
3716.0,0.006346730741964279
3715.0,0.006377061498984297
3714.0,0.006404516126121445
3713.0,0.006460272877637676
3712.0,0.006549479584480927
3711.0,0.006623433485273589
3710.0,0.006655570739887404
3709.0,0.006670306844637228
3708.0,0.006695222728042559
3707.0,0.006738501015256087
3706.0,0.006790360396088322
3705.0,0.006833917827753056
3704.0,0.006862369135827602
3703.0,0.006889937078409011
3702.0,0.006938099635966104
3701.0,0.007010910111732198
3700.0,0.007090093673140375
3699.0,0.007154508306840904
3698.0,0.00719650792923191
3697.0,0.007219947476932623
3696.0,0.007228312591587225
3695.0,0.007221045527326275
3694.0,0.00719749199926415
3693.0,0.00716257140739304
3692.0,0.007129963973476907
3691.0,0.007109366358546244
3690.0,0.007081959785291227
3689.0,0.007023788674765998
3688.0,0.006957411346431822
3687.0,0.006917148269950078
3686.0,0.006908802875306019
3685.0,0.00692510835881236
3684.0,0.006955516367833393
3683.0,0.0069835558322246995
3682.0,0.0069960915661537205
3681.0,0.006994904760841483
3680.0,0.006989443965786122
3679.0,0.006982174465666336
3678.0,0.0069750070128322995
3677.0,0.006990087142941712
3676.0,0.007031470532048232
3675.0,0.007066186758570606
3674.0,0.007096335577165135
3673.0,0.0071312659671236974
3672.0,0.007170717560407372
3671.0,0.007211956013293609
3670.0,0.007229102488137264
3669.0,0.007216753105388198
3668.0,0.00721261911397669
3667.0,0.0072328475954011005
3666.0,0.007269983942951264
3665.0,0.007314544482888853
3664.0,0.007361321754261101
3663.0,0.0074099415341502195
3662.0,0.007461590200402138
3661.0,0.00751259592669343
3660.0,0.007552459899961106
3659.0,0.007574444977656966
3658.0,0.007588588358794153
3657.0,0.0076171600506790855
3656.0,0.007668581390723689
3655.0,0.007731769995463936
3654.0,0.007787942261048493
3653.0,0.007822259102234608
3652.0,0.007843200984796683
3651.0,0.007887283066663942
3650.0,0.007963673976628427
3649.0,0.008016469125270901
3648.0,0.008033010847711927
3647.0,0.008054997512010798
3646.0,0.008102632698022395
3645.0,0.008170277452464446
3644.0,0.008246797702064802
3643.0,0.008321630851663266
3642.0,0.008387893732522866
3641.0,0.008446437947879014
3640.0,0.00850268576489563
3639.0,0.008561041758437497
3638.0,0.00862345911870769
3637.0,0.008694833310025157
3636.0,0.008783972910142036
3635.0,0.008892202824373212
3634.0,0.009002894994720628
3633.0,0.009091640658386968
3632.0,0.009149578586185526
3631.0,0.009199476593624084
3630.0,0.009283937701878388
3629.0,0.009384799069546574
3628.0,0.009450396587486433
3627.0,0.009501228354655257
3626.0,0.00956906285044044
3625.0,0.009658111721163784
3624.0,0.009758467737863307
3623.0,0.009856464095984072
3622.0,0.009944604462353937
3621.0,0.010025136814125311
3620.0,0.010096993246940045
3619.0,0.010148590135989627
3618.0,0.010182878480715318
3617.0,0.010216215420198523
3616.0,0.01025653023032984
3615.0,0.010307111432383711
3614.0,0.010369673778042236
3613.0,0.010440251735313752
3612.0,0.010509571538499655
3611.0,0.010569446634778405
3610.0,0.010618793462952919
3609.0,0.010663507793526093
3608.0,0.010709982265735718
3607.0,0.010766386579985621
3606.0,0.010839015570402524
3605.0,0.010921394970735257
3604.0,0.011001767015554715
3603.0,0.0110775111556073
3602.0,0.011155150603971186
3601.0,0.011237254192705015
3600.0,0.011312854834824143
3599.0,0.011369797203973207
3598.0,0.011410080373961606
3597.0,0.01144949171578444
3596.0,0.011501282523002154
3595.0,0.011566285372809028
3594.0,0.011637974864225452
3593.0,0.011715443417704016
3592.0,0.011799508329588796
3591.0,0.01188612216194081
3590.0,0.01197415089665493
3589.0,0.01206408991626946
3588.0,0.012133115476473449
3587.0,0.012161068197167868
3586.0,0.012182575871148254
3585.0,0.01223544425447692
3584.0,0.012315837074324683
3583.0,0.012401661154366306
3582.0,0.012478372352862652
3581.0,0.012545454656373592
3580.0,0.012608127706033386
3579.0,0.012667847604733846
3578.0,0.012723087289392114
3577.0,0.012776160669094072
3576.0,0.012832596420794377
3575.0,0.012894981908931026
3574.0,0.01296213836927967
3573.0,0.013032470463601072
3572.0,0.01310277022105241
3571.0,0.013164714712286932
3570.0,0.013211665924767508
3569.0,0.013249872894069332
3568.0,0.013285708974568166
3567.0,0.013311205895601017
3566.0,0.01333789910705924
3565.0,0.013393572533774378
3564.0,0.013480154450597815
3563.0,0.013580855394651033
3562.0,0.013679664615200534
3561.0,0.013765257713301194
3560.0,0.013833092664959525
3559.0,0.013888695702770865
3558.0,0.013943489841273303
3557.0,0.014004094549604905
3556.0,0.014067486756889735
3555.0,0.014126039729389358
3554.0,0.014175529034908988
3553.0,0.01421838287457169
3552.0,0.014263259856498232
3551.0,0.014319351273526544
3550.0,0.014387951902975505
3549.0,0.014461413279731291
3548.0,0.014527422093627505
3547.0,0.01457532161038906
3546.0,0.014607877273900968
3545.0,0.014643550341439562
3544.0,0.014695884003448277
3543.0,0.014757602542805528
3542.0,0.014814726744413427
3541.0,0.014864618052195343
3540.0,0.01491445518032412
3539.0,0.014968673516758403
3538.0,0.015021876423276513
3537.0,0.015065458167993387
3536.0,0.015100185978702102
3535.0,0.015137882039354978
3534.0,0.01518750301176308
3533.0,0.015247653052081091
3532.0,0.015311536407003936
3531.0,0.015374356275560953
3530.0,0.01543347182215073
3529.0,0.01548384792699514
3528.0,0.01552081605598739
3527.0,0.015549662126001704
3526.0,0.015584803141560353
3525.0,0.015633700628767146
3524.0,0.015685948607487454
3523.0,0.01572542787314998
3522.0,0.015751355612312175
3521.0,0.015777394520104106
3520.0,0.015813414189883846
3519.0,0.015857049806277515
3518.0,0.015900867645030032
3517.0,0.015943561021080903
3516.0,0.015990605617583115
3515.0,0.0160463064877271
3514.0,0.01610720472048149
3513.0,0.016164112173485113
3512.0,0.016209582039855685
3511.0,0.01624438267788428
3510.0,0.016277032639568492
3509.0,0.016316056065566704
3508.0,0.016362269216361986
3507.0,0.01641075527038804
3506.0,0.016459951708646243
3505.0,0.016513693869681365
3504.0,0.016570616590641764
3503.0,0.016619219096222042
3502.0,0.016651763517462566
3501.0,0.01667437472906814
3500.0,0.016698951992843603
3499.0,0.016733824988780815
3498.0,0.016781597320793464
3497.0,0.01683932822497438
3496.0,0.016899378305398647
3495.0,0.016953046343669603
3494.0,0.016996438373572384
3493.0,0.01703297293900711
3492.0,0.017069186617092183
3491.0,0.017108829321240922
3490.0,0.017150984698479615
3489.0,0.017191927184979344
3488.0,0.017227854062457575
3487.0,0.017257710493404795
3486.0,0.01728526693210196
3485.0,0.01731855482618201
3484.0,0.0173640766441169
3483.0,0.01741839228420059
3482.0,0.017467518302927396
3481.0,0.017500553417651814
3480.0,0.01752309471397021
3479.0,0.017552358350195668
3478.0,0.017599981849318498
3477.0,0.017661655750553906
3476.0,0.017721801154426706
3475.0,0.017766828886464595
3474.0,0.017795240307864422
3473.0,0.017815894491230427
3472.0,0.01783839452680497
3471.0,0.017866959354044747
3470.0,0.017901374195990506
3469.0,0.017940270538972104
3468.0,0.017983290418307395
3467.0,0.018030880273229712
3466.0,0.018082189374830582
3465.0,0.018132948693267786
3464.0,0.018175602642045152
3463.0,0.01820349052065095
3462.0,0.018217464855510235
3461.0,0.018228332808216643
3460.0,0.018249396246341754
3459.0,0.018284490756628358
3458.0,0.018324385158703355
3457.0,0.018357392068670892
3456.0,0.01838293762332275
3455.0,0.018412424751872717
3454.0,0.018455433681045585
3453.0,0.01850860754388786
3452.0,0.018560286462576972
3451.0,0.018604213397794604
3450.0,0.01864470022884965
3449.0,0.01868860307993349
3448.0,0.01873602579473297
3447.0,0.018781776199303227
3446.0,0.018823065949651746
3445.0,0.018858793971045125
3444.0,0.018884757713941387
3443.0,0.018897953564549545
3442.0,0.01890471837379225
3441.0,0.018918921618233466
3440.0,0.01894904847277538
3439.0,0.01898991944395032
3438.0,0.01902904816778303
3437.0,0.019059358039963305
3436.0,0.019084833965091228
3435.0,0.019115568253739293
3434.0,0.019156864697456193
3433.0,0.019202736472205537
3432.0,0.019240474022813283
3431.0,0.019263725690711227
3430.0,0.01928128227694819
3429.0,0.01930967887083264
3428.0,0.019355881001156684
3427.0,0.019409461798534533
3426.0,0.01945304513439803
3425.0,0.019477692752863766
3424.0,0.01948753042529187
3423.0,0.019492976105132922
3422.0,0.019501509504604626
3421.0,0.01951390822672542
3420.0,0.01952784430011751
3419.0,0.01954427306650909
3418.0,0.01956902169453443
3417.0,0.01960723949184461
3416.0,0.01965700339897264
3415.0,0.019710134685271663
3414.0,0.019759469679662255
3413.0,0.019802483109613963
3412.0,0.019837482662735998
3411.0,0.019861202132995418
3410.0,0.019873300228031264
3409.0,0.019879728191582655
3408.0,0.019887521947243282
3407.0,0.019897875713899015
3406.0,0.019908126366242482
3405.0,0.019919121490274295
3404.0,0.01993599519683119
3403.0,0.019961514120148252
3402.0,0.019991930076085965
3401.0,0.020020951174325452
3400.0,0.020045307221394436
3399.0,0.02006543695154491
3398.0,0.02008358279926967
3397.0,0.020103331096662857
3396.0,0.02012896513779409
3395.0,0.020161852378669402
3394.0,0.020196840788960172
3393.0,0.020223714234490115
3392.0,0.020234253883994073
3391.0,0.020228886421801255
3390.0,0.020216978060393444
3389.0,0.02021156036346861
3388.0,0.02022192155088068
3387.0,0.020247590600063137
3386.0,0.02027842091150049
3385.0,0.020303092190872594
3384.0,0.020318762307443734
3383.0,0.020331565105584214
3382.0,0.020347904354910178
3381.0,0.020367999483775493
3380.0,0.02038823774331481
3379.0,0.020407070713602284
3378.0,0.020426267222500478
3377.0,0.020447248948195284
3376.0,0.02046878309189487
3375.0,0.020488504123484217
3374.0,0.020505238114750808
3373.0,0.02051947360441506
3372.0,0.02053256114539887
3371.0,0.020545275152587757
3370.0,0.020556582023729612
3369.0,0.020564545748384885
3368.0,0.020569419243398508
3367.0,0.02057451107263475
3366.0,0.02058215200138835
3365.0,0.020590288584915843
3364.0,0.020596018959885533
3363.0,0.020601511544914155
3362.0,0.020612285341646053
3361.0,0.020628567784788002
3360.0,0.02064231877265374
3359.0,0.020646223719613478
3358.0,0.020643837838906363
3357.0,0.020647068056594962
3356.0,0.020662904206150374
3355.0,0.020684347436657348
3354.0,0.020695805528047926
3353.0,0.02068782497563964
3352.0,0.020667673415761183
3351.0,0.020655674418768824
3350.0,0.02066842311483815
3349.0,0.020703013388941975
3348.0,0.0207389666612548
3347.0,0.020757894682876737
3346.0,0.02075982311722017
3345.0,0.02075832284593842
3344.0,0.02076248139121746
3343.0,0.020769258272287358
3342.0,0.020773041711122674
3341.0,0.020775512226209544
3340.0,0.0207815876233466
3339.0,0.020789381004502214
3338.0,0.020790726283865576
3337.0,0.020782201111031646
3336.0,0.0207708399037838
3335.0,0.02076651665824328
3334.0,0.02077203803849476
3333.0,0.020783778532996237
3332.0,0.020799035564437317
3331.0,0.020818244369041214
3330.0,0.020840241125603214
3329.0,0.02085920938453137
3328.0,0.0208685473247586
3327.0,0.020866750803276997
3326.0,0.020857701487127327
3325.0,0.02084574165134221
3324.0,0.020832702326624167
3323.0,0.02082084997277062
3322.0,0.020816687771816278
3321.0,0.020828455424294616
3320.0,0.020858022898865035
3319.0,0.020896063033310777
3318.0,0.020927202770657752
3317.0,0.020941295243404375
3316.0,0.02093971403031833
3315.0,0.020931143236110738
3314.0,0.020922818079208285
3313.0,0.020916559970406857
3312.0,0.02091172843738826
3311.0,0.020909172911398276
3310.0,0.020910668765333863
3309.0,0.020915539319469843
3308.0,0.020920261954351097
3307.0,0.020922632979465047
3306.0,0.020925270005892
3305.0,0.020933299849105268
3304.0,0.02094839579184614
3303.0,0.020966621947523835
3302.0,0.02098327961571478
3301.0,0.020998575529495574
3300.0,0.021015998630750522
3299.0,0.021035466377357592
3298.0,0.021050818806149507
3297.0,0.021055571369106026
3296.0,0.021049486235575062
3295.0,0.021038141361706283
3294.0,0.02102761650215742
3293.0,0.021020788868817357
3292.0,0.021016916638826343
3291.0,0.021012931151553244
3290.0,0.02100638975935022
3289.0,0.02099907873335891
3288.0,0.020996601101301842
3287.0,0.021002297845628654
3286.0,0.02101247723843244
3285.0,0.02102000733890269
3284.0,0.021022342718423112
3283.0,0.02102369858988595
3282.0,0.0210293196227416
3281.0,0.021039418668921436
3280.0,0.021048399873603785
3279.0,0.021048110164361096
3278.0,0.021033029119020295
3277.0,0.021005826123074247
3276.0,0.02097749958161547
3275.0,0.020958237686615828
3274.0,0.020947819729576496
3273.0,0.0209384660745353
3272.0,0.02092620247905812
3271.0,0.020913966110686886
3270.0,0.020903562382532343
3269.0,0.02089168516163163
3268.0,0.02087681149155273
3267.0,0.020863854667288607
3266.0,0.020856809664980627
3265.0,0.020850911902709903
3264.0,0.020837964342409164
3263.0,0.020816401356509338
3262.0,0.020790412604544048
3261.0,0.02076173743996945
3260.0,0.020729493563768606
3259.0,0.020697120654205033
3258.0,0.02067164777723302
3257.0,0.02065401864500718
3256.0,0.020635854826201224
3255.0,0.02060920282319652
3254.0,0.020575987173233348
3253.0,0.020545137417716578
3252.0,0.020522925951896254
3251.0,0.02050862127963478
3250.0,0.02049695609538086
3249.0,0.020482060016073222
3248.0,0.020460653595461318
3247.0,0.02043365006943688
3246.0,0.02040419544225515
3245.0,0.02037362392906699
3244.0,0.020340912451756493
3243.0,0.020306614618903873
3242.0,0.020275015329013615
3241.0,0.020250628908772505
3240.0,0.02023338419039082
3239.0,0.02021829597345306
3238.0,0.02020003979266303
3237.0,0.020177968787615904
3236.0,0.02015676264872501
3235.0,0.020141023955709103
3234.0,0.020128050310911222
3233.0,0.02010803568020024
3232.0,0.020074473979278893
3231.0,0.020033431431157572
3230.0,0.01999821089782375
3229.0,0.019973992559371975
3228.0,0.019952032452649537
3227.0,0.019921345719273467
3226.0,0.019882763566584083
3225.0,0.019848020992681535
3224.0,0.01982643760101952
3223.0,0.019815074408142105
3222.0,0.019801068647431842
3221.0,0.01977194059154277
3220.0,0.01972556837332697
3219.0,0.019672568613641868
3218.0,0.019628233965928388
3217.0,0.01960034447466192
3216.0,0.019584588989079527
3215.0,0.019571354165752338
3214.0,0.01955530980613824
3213.0,0.01953699680649886
3212.0,0.019516555287063326
3211.0,0.019490045354507823
3210.0,0.01945384324281621
3209.0,0.019410296705836678
3208.0,0.019366271588120047
3207.0,0.019326412312127686
3206.0,0.019290138872485207
3205.0,0.019255248670880874
3204.0,0.019221888639175008
3203.0,0.01919115475494242
3202.0,0.019161374963470954
3201.0,0.01912857191513264
3200.0,0.019091220441857272
3199.0,0.01905257389241343
3198.0,0.01901720619596455
3197.0,0.01898635119373567
3196.0,0.01895741988721127
3195.0,0.01892656844142013
3194.0,0.01889045018849555
3193.0,0.018847426490892702
3192.0,0.018799488935504025
3191.0,0.018752112431653808
3190.0,0.01870949758733182
3189.0,0.018669883672887598
3188.0,0.018628157593707322
3187.0,0.018583315306146556
3186.0,0.018540758984419942
3185.0,0.0185054748115589
3184.0,0.018474786762000612
3183.0,0.018440056576456313
3182.0,0.018395114089394378
3181.0,0.01834157251162362
3180.0,0.01828639676492437
3179.0,0.018235886535951477
3178.0,0.018192073680285893
3177.0,0.018153225943304117
3176.0,0.018116029468630196
3175.0,0.01807734438829353
3174.0,0.018035926382750627
3173.0,0.017994290549039855
3172.0,0.017957858683238015
3171.0,0.017929396435606676
3170.0,0.01790331451193731
3169.0,0.017867933686750593
3168.0,0.01781626845550276
3167.0,0.017754064768969676
3166.0,0.017695391275085168
3165.0,0.017650478297844874
3164.0,0.01761876576141256
3163.0,0.017592231513592797
3162.0,0.017562913381099894
3161.0,0.01752723282229631
3160.0,0.01748597298619464
3159.0,0.01744226527168128
3158.0,0.017398830404947198
3157.0,0.017355619599531268
3156.0,0.017309916780298324
3155.0,0.01725897966061031
3154.0,0.01720233493789941
3153.0,0.01714182623521622
3152.0,0.01708050901020739
3151.0,0.01702172069708973
3150.0,0.01696799960836686
3149.0,0.01691984354125354
3148.0,0.016875708008402494
3147.0,0.0168336433118459
3146.0,0.016792653389352107
3145.0,0.016752403260180005
3144.0,0.016712347900597575
3143.0,0.016671633549734284
3142.0,0.01662927132540328
3141.0,0.01658420205928318
3140.0,0.016535766459040764
3139.0,0.016484540266559686
3138.0,0.016432157561258102
3137.0,0.016380034628762082
3136.0,0.01632866933452366
3135.0,0.01627800167288945
3134.0,0.01622753904025367
3133.0,0.016176390197770455
3132.0,0.016124485944638823
3131.0,0.016074195094520287
3130.0,0.016029825746035065
3129.0,0.01599482745560423
3128.0,0.015969140020579344
3127.0,0.015948959709608548
3126.0,0.015928942309753537
3125.0,0.015904889781249987
3124.0,0.01587504677043735
3123.0,0.015839390739731982
3122.0,0.015797860931017784
3121.0,0.015749909878046097
3120.0,0.01569667143265995
3119.0,0.015643045417717556
3118.0,0.015595660884559187
3117.0,0.015558292753146068
3116.0,0.015530749711603864
3115.0,0.015512613913149037
3114.0,0.01550588241233482
3113.0,0.015512693633020321
3112.0,0.015532620752514345
3111.0,0.015563957992012527
3110.0,0.015605043427001787
3109.0,0.015651488058139523
3108.0,0.015693869815626788
3107.0,0.0157231406145402
3106.0,0.015739449692557143
3105.0,0.015750749149536624
3104.0,0.015759823423093705
3103.0,0.015756030069975353
3102.0,0.0157246673878236
3101.0,0.015664555625976233
3100.0,0.01559236343543135
3099.0,0.015527281530234313
3098.0,0.01547506156871269
3097.0,0.015429272343031902
3096.0,0.015384947628649157
3095.0,0.015348725036588757
3094.0,0.015335523804881275
3093.0,0.015357364292992757
3092.0,0.01541740005768189
3091.0,0.015513564209798256
3090.0,0.015645257385259688
3089.0,0.015814607688366497
3088.0,0.016020748587456824
3087.0,0.016253861283450976
3086.0,0.016495930796836228
3085.0,0.01672576679264783
3084.0,0.016920873237603485
3083.0,0.017055521945213564
3082.0,0.01710335121175914
3081.0,0.01705001113907822
3080.0,0.016907400129767387
3079.0,0.016713388986125403
3078.0,0.0165127515404254
3077.0,0.016334553427026183
3076.0,0.01618483685561067
3075.0,0.016058140859797558
3074.0,0.01595346277665693
3073.0,0.015879037052762307
3072.0,0.015844777221030112
3071.0,0.0158537427426935
3070.0,0.015902307865965658
3069.0,0.015986821804049103
3068.0,0.016107372476889353
3067.0,0.016265612018520875
3066.0,0.01646148434155037
3065.0,0.016692137639631555
3064.0,0.016950753962272753
3063.0,0.017221868403341382
3062.0,0.017477054252828684
3061.0,0.017678663469469315
3060.0,0.01779195616063397
3059.0,0.017797456298390194
3058.0,0.01769507653346711
3057.0,0.017501160184230275
3056.0,0.01724361280877917
3055.0,0.016954863309205644
3054.0,0.016662158366408983
3053.0,0.016380961353776407
3052.0,0.01611651293270872
3051.0,0.015869946703778018
3050.0,0.015642509886764976
3049.0,0.015435653409837291
3048.0,0.015250292415558114
3047.0,0.015088060363645765
3046.0,0.014952869825354488
3045.0,0.014850298426073159
3044.0,0.014784710223153896
3043.0,0.01475637564263772
3042.0,0.014761343386241296
3041.0,0.01479453565759027
3040.0,0.014854432716688744
3039.0,0.014945981796613479
3038.0,0.015079364951408575
3037.0,0.015266198868187858
3036.0,0.015516648676852637
3035.0,0.01583934345644305
3034.0,0.016242228576648227
3033.0,0.01673114572099158
3032.0,0.017305778707296052
3031.0,0.017955369397661364
3030.0,0.01865604882754552
3029.0,0.019369108038186627
3028.0,0.020040186660193346
3027.0,0.02060264487878326
3026.0,0.02099003984290112
3025.0,0.021152498199935987
3024.0,0.021066512145708205
3023.0,0.020738016600684046
3022.0,0.02020383362044063
3021.0,0.019528866982587892
3020.0,0.018789226850633
3019.0,0.01804878805820252
3018.0,0.0173486474823377
3017.0,0.01671228942500251
3016.0,0.016153434468016266
3015.0,0.015676856046522174
3014.0,0.015277321180898152
3013.0,0.0149438486796862
3012.0,0.01466747642133488
3011.0,0.014444832799746045
3010.0,0.01427479260939286
3009.0,0.014153444651984202
3008.0,0.014073644237740317
3007.0,0.014028787299285687
3006.0,0.014015184404600919
3005.0,0.014029642606030727
3004.0,0.014063692581202391
3003.0,0.01409996455206916
3002.0,0.014114554884683385
3001.0,0.014085730080641484
3000.0,0.014004020409298892
2999.0,0.0138753497508067
2998.0,0.013714618693248526
2997.0,0.013535462092684967
2996.0,0.013346628743836096
2995.0,0.01315589026373311
2994.0,0.01297355208675001
2993.0,0.01281084159649298
2992.0,0.012675472084966994
2991.0,0.01256917737251206
2990.0,0.012486555894946785
2989.0,0.012415398324777026
2988.0,0.012342629496995725
2987.0,0.012264216844778655
2986.0,0.012189146157251045
2985.0,0.012129746577034433
2984.0,0.012088879274056656
2983.0,0.01205857526871789
2982.0,0.012030475462014117
2981.0,0.012004073937670052
2980.0,0.011983436349601336
2979.0,0.011969621678882164
2978.0,0.011958873615229845
2977.0,0.011946957234292385
2976.0,0.011932225332664529
2975.0,0.011914889314000242
2974.0,0.01189601331061746
2973.0,0.011878392595437859
2972.0,0.011867035390035821
2971.0,0.011866684140162741
2970.0,0.011878368911680382
2969.0,0.01189864707981518
2968.0,0.011922567723858147
2967.0,0.011947227903944521
2966.0,0.011972275501245236
2965.0,0.011998413790167436
2964.0,0.012026744602428778
2963.0,0.012059036892145944
2962.0,0.012096317650060156
2961.0,0.01213673368700924
2960.0,0.01217712961810297
2959.0,0.012217766229669578
2958.0,0.012263567777884567
2957.0,0.012318403679912424
2956.0,0.01237954069518949
2955.0,0.012439750685347323
2954.0,0.012494955109300779
2953.0,0.012548721741852864
2952.0,0.012610663564152417
2951.0,0.012691336114766428
2950.0,0.012796674451605294
2949.0,0.01292436504085244
2948.0,0.013066310803414437
2947.0,0.013217718844879964
2946.0,0.013383307163338232
2945.0,0.0135723925174465
2944.0,0.013788244284605233
2943.0,0.01402572513517856
2942.0,0.01427923094530859
2941.0,0.014549141211637116
2940.0,0.014839035278041484
2939.0,0.01515096143821575
2938.0,0.015487019870370228
2937.0,0.015852566372282016
2936.0,0.016252158681898467
2935.0,0.016681009486009188
2934.0,0.017123379059206276
2933.0,0.017561066068059204
2932.0,0.017982922478320784
2931.0,0.018385968864495412
2930.0,0.018770733876153703
2929.0,0.01913725522682507
2928.0,0.019482855123364635
2927.0,0.019799072026763724
2926.0,0.020070238015654173
2925.0,0.020279214063015534
2924.0,0.0204179672138558
2923.0,0.0204924075729524
2922.0,0.020515678635355656
2921.0,0.02049721513747523
2920.0,0.02043955764204407
2919.0,0.02034485317994059
2918.0,0.02022211856311226
2917.0,0.020085833020447447
2916.0,0.019946755777760256
2915.0,0.019804457714816575
2914.0,0.019649253873909454
2913.0,0.01947143898134861
2912.0,0.019269770552278995
2911.0,0.019052389022586186
2910.0,0.018830057781631323
2909.0,0.01860700876102779
2908.0,0.018378441186734113
2907.0,0.018137504229219576
2906.0,0.017884068796656463
2905.0,0.01762423878209763
2904.0,0.017361074082913527
2903.0,0.017090857800718885
2902.0,0.01680964419732405
2901.0,0.016522445043253266
2900.0,0.016240004747087027
2899.0,0.01596870116646151
2898.0,0.015708303358968848
2897.0,0.015458236205275465
2896.0,0.015221767725094074
2895.0,0.015001982285265815
2894.0,0.014797663143198112
2893.0,0.014605593733380835
2892.0,0.014424849657868203
2891.0,0.014256709007433777
2890.0,0.014101191540093845
2889.0,0.013955936131722121
2888.0,0.013818523916302861
2887.0,0.013688462382642139
2886.0,0.013566044490307223
2885.0,0.01344945332004459
2884.0,0.013334414412853626
2883.0,0.013217856439460144
2882.0,0.01310143170286848
2881.0,0.012989364837502716
2880.0,0.012881891056813147
2879.0,0.012773860923970877
2878.0,0.012661810804125866
2877.0,0.012550479786795535
2876.0,0.012449244942843454
2875.0,0.012362631140188294
2874.0,0.012287992318480313
2873.0,0.01222189949817045
2872.0,0.01216468218819604
2871.0,0.012117282006185932
2870.0,0.012077444503563121
2869.0,0.012042364568049385
2868.0,0.012013151318491776
2867.0,0.011993895537039839
2866.0,0.01198787435338502
2865.0,0.01199777137551321
2864.0,0.012028898717451707
2863.0,0.012087938474531528
2862.0,0.012176328457043114
2861.0,0.012286768880885772
2860.0,0.012409102698080007
2859.0,0.012538738608088061
2858.0,0.012677695892956338
2857.0,0.012827394762390377
2856.0,0.012981928548729198
2855.0,0.013129408149262646
2854.0,0.013258663771848492
2853.0,0.013364703882856654
2852.0,0.013448623919129278
2851.0,0.013514036700664664
2850.0,0.01356385967185878
2849.0,0.0135981612728254
2848.0,0.013612340927054312
2847.0,0.013596762169771742
2846.0,0.013540110472969569
2845.0,0.013434386368496191
2844.0,0.013277444460000652
2843.0,0.01307194767880464
2842.0,0.012824221383074548
2841.0,0.012545285322618345
2840.0,0.012250731075158679
2839.0,0.011956491291931475
2838.0,0.011673553122523071
2837.0,0.011407035680042692
2836.0,0.011159627880645772
2835.0,0.010934940591564368
2834.0,0.010736708141990833
2833.0,0.01056541538888902
2832.0,0.010417007409458941
2831.0,0.010285447836890038
2830.0,0.010166481498616452
2829.0,0.010058478736626268
2828.0,0.00996060203617315
2827.0,0.009871914230539243
2826.0,0.009792459068539955
2825.0,0.009723480380681413
2824.0,0.009664840768481828
2823.0,0.009612901010796874
2822.0,0.009562690186874665
2821.0,0.009512253265605088
2820.0,0.009463677199842709
2819.0,0.009419141242521214
2818.0,0.009377126823322248
2817.0,0.009333829272114704
2816.0,0.0092880519068901
2815.0,0.009243483908423137
2814.0,0.009205378021292572
2813.0,0.009175018267391486
2812.0,0.009148197231795144
2811.0,0.009119577219361255
2810.0,0.009087811936331696
2809.0,0.009055645137100185
2808.0,0.00902515071326825
2807.0,0.008994039558697013
2806.0,0.008957567089440333
2805.0,0.008913718156301787
2804.0,0.008865494249037232
2803.0,0.008818208301641643
2802.0,0.008775622994902903
2801.0,0.008738327710305973
2800.0,0.00870467053680587
2799.0,0.008672603208513235
2798.0,0.008641070984851142
2797.0,0.008610414173385386
2796.0,0.008581109889921393
2795.0,0.008552078113776874
2794.0,0.0085213765235774
2793.0,0.00848930916677229
2792.0,0.008459545720281
2791.0,0.008435191011563026
2790.0,0.008414333730610594
2789.0,0.008391769467980837
2788.0,0.008365131011509607
2787.0,0.008336903236637995
2786.0,0.00830930841511969
2785.0,0.008280097719230243
2784.0,0.008246383435761687
2783.0,0.008210933908816113
2782.0,0.008181095570800436
2781.0,0.008161145723300749
2780.0,0.00814829372182593
2779.0,0.008136453331651302
2778.0,0.00812109143428984
2777.0,0.008100290631582316
2776.0,0.008074332388100916
2775.0,0.008045882288563257
2774.0,0.008018283205594202
2773.0,0.007991669577068764
2772.0,0.007962764594344586
2771.0,0.007930321166501931
2770.0,0.00789863441226574
2769.0,0.007873014701223112
2768.0,0.007853075043520102
2767.0,0.00783342558204305
2766.0,0.007810291827154046
2765.0,0.007784495959942415
2764.0,0.0077582035184518994
2763.0,0.0077319115441009615
2762.0,0.007705315912854394
2761.0,0.007678843693193124
2760.0,0.007653145646144901
2759.0,0.007628496276976099
2758.0,0.0076056353127009375
2757.0,0.007585950356985793
2756.0,0.007569944242700143
2755.0,0.007556192441787097
2754.0,0.0075424099412128446
2753.0,0.007527011690768407
2752.0,0.00750920948757565
2751.0,0.007488098852267464
2750.0,0.007462494508052357
2749.0,0.007432238190858327
2748.0,0.007400267162959078
2747.0,0.007372831429191522
2746.0,0.0073553387411198585
2745.0,0.007346652183376364
2744.0,0.0073388005009983786
2743.0,0.0073242754789824204
2742.0,0.007303109381380355
2741.0,0.007281308001806907
2740.0,0.0072631221384375725
2739.0,0.007247052551557454
2738.0,0.007229302992694574
2737.0,0.007208779014261814
2736.0,0.007187641487159653
2735.0,0.007168593962379702
2734.0,0.007152838937886388
2733.0,0.007139874005894625
2732.0,0.007128242821247902
2731.0,0.007116405342101422
2730.0,0.007103370180654583
2729.0,0.007088997634276299
2728.0,0.007074226739484491
2727.0,0.007060605373787158
2726.0,0.007048172887762746
2725.0,0.007033631805532591
2724.0,0.007012852052882098
2723.0,0.006986492825471213
2722.0,0.006961058575303921
2721.0,0.006942420954383356
2720.0,0.006929617931688795
2719.0,0.006917441778495328
2718.0,0.006903526165037991
2717.0,0.0068896351449602425
2716.0,0.006876856840084281
2715.0,0.006863248681434104
2714.0,0.006846814072544463
2713.0,0.006827640341831608
2712.0,0.00680616243449791
2711.0,0.006782144161326429
2710.0,0.006756857717848321
2709.0,0.006734097982508565
2708.0,0.006717111698216895
2707.0,0.0067053104099532405
2706.0,0.006694944250307055
2705.0,0.00668214780204344
2704.0,0.006665079537023497
2703.0,0.006644726134876927
2702.0,0.0066246917514393685
2701.0,0.006608933586819322
2700.0,0.006598443458656206
2699.0,0.006590303537734338
2698.0,0.006580301312448609
2697.0,0.006566158034567702
2696.0,0.006548517346692794
2695.0,0.0065300647203387265
2694.0,0.006513768369668214
2693.0,0.006500897418006412
2692.0,0.006490277588388335
2691.0,0.006479872315976554
2690.0,0.006468844992030503
2689.0,0.0064574230887299985
2688.0,0.006445448943977444
2687.0,0.006432139477333659
2686.0,0.006416828576645284
2685.0,0.006399095181975433
2684.0,0.006379082018499644
2683.0,0.0063587519067812605
2682.0,0.006341391197620678
2681.0,0.006328101024552801
2680.0,0.006316092016649969
2679.0,0.0063027378783090966
2678.0,0.00628997975113942
2677.0,0.0062817550290863
2676.0,0.00627793299469253
2675.0,0.006274203574660422
2674.0,0.006267654950198862
2673.0,0.006258897845468812
2672.0,0.006248344624700965
2671.0,0.006234119634678801
2670.0,0.00621510161785223
2669.0,0.006193294074691228
2668.0,0.006172172347733434
2667.0,0.006155276898426756
2666.0,0.006147212670569977
2665.0,0.006152252450261579
2664.0,0.006169369948473257
2663.0,0.006190836486488331
2662.0,0.006207787551572724
2661.0,0.006216449159102794
2660.0,0.006218350555839154
2659.0,0.0062172923642769265
2658.0,0.006217884930899579
2657.0,0.006224120689798354
2656.0,0.006235997347714858
2655.0,0.006248088094118869
2654.0,0.006253779324228004
2653.0,0.006250943863389947
2652.0,0.006242842224759737
2651.0,0.00623468962956358
2650.0,0.0062303876172365505
2649.0,0.006230654998179146
2648.0,0.006232368338264647
2647.0,0.006231202001343367
2646.0,0.006226733991047262
2645.0,0.006223871617037995
2644.0,0.00622725308735025
2643.0,0.006235497851755689
2642.0,0.006243289932678339
2641.0,0.006247903789838036
2640.0,0.006250874791299719
2639.0,0.006253557418629304
2638.0,0.00625442530553475
2637.0,0.0062518720147141105
2636.0,0.006247372803666933
2635.0,0.006243990918553022
2634.0,0.006242668613138582
2633.0,0.006241695094855208
2632.0,0.0062394023650282834
2631.0,0.006235789963575384
2630.0,0.006231105722066945
2629.0,0.006224411468060194
2628.0,0.006215106540078239
2627.0,0.0062047759414642495
2626.0,0.006195229054987816
2625.0,0.0061848670230188595
2624.0,0.006170298119926641
2623.0,0.006152709799352314
2622.0,0.0061388173772379375
2621.0,0.006132298013583127
2620.0,0.006127121195158416
2619.0,0.006114443403619454
2618.0,0.00609473507598312
2617.0,0.006077657606562884
2616.0,0.006069746194494494
2615.0,0.006067525848581378
2614.0,0.006064389786679363
2613.0,0.0060590656231854206
2612.0,0.006054288502524466
2611.0,0.006051148923996589
2610.0,0.0060486776465042014
2609.0,0.006046675034888197
2608.0,0.00604543783224592
2607.0,0.006044032417608479
2606.0,0.006041551646106345
2605.0,0.006039019224034401
2604.0,0.006037800559224877
2603.0,0.006037140400779699
2602.0,0.006035229533534046
2601.0,0.006031754419536912
2600.0,0.00602759715599682
2599.0,0.006022853135141781
2598.0,0.006016652146543666
2597.0,0.0060082404078738326
2596.0,0.005997211490586539
2595.0,0.005983739102686802
2594.0,0.005969617250907759
2593.0,0.0059579382718832775
2592.0,0.005950552832245837
2591.0,0.0059463995303832
2590.0,0.00594279096184197
2589.0,0.00593748560216297
2588.0,0.005929739445118698
2587.0,0.005921045217003738
2586.0,0.005914451446852678
2585.0,0.0059106990280524034
2584.0,0.00590531166555058
2583.0,0.005892776345503157
2582.0,0.005874315829694146
2581.0,0.0058579611002992195
2580.0,0.005849394677452766
2579.0,0.0058461294745426
2578.0,0.005842097171354597
2577.0,0.005834123908109555
2576.0,0.005821602668400362
2575.0,0.005803915836803893
2574.0,0.005782719188150161
2573.0,0.005764536091346813
2572.0,0.005755991497376938
2571.0,0.0057563324006934926
2570.0,0.005757952983688142
2569.0,0.005754432573937492
2568.0,0.005745717440554566
2567.0,0.005735887712130288
2566.0,0.005728589842691614
2565.0,0.005725095360098941
2564.0,0.005724512443500641
2563.0,0.00572459418255122
2562.0,0.00572323666149001
2561.0,0.005719641811844626
2560.0,0.005713282892068534
2559.0,0.005702072544470198
2558.0,0.005683597515147466
2557.0,0.0056594627879517495
2556.0,0.005637225029027733
2555.0,0.005625663962353619
2554.0,0.005627173697168673
2553.0,0.005635958177471687
2552.0,0.005644398127958096
2551.0,0.005649315923257179
2550.0,0.005650403081310792
2549.0,0.005645420115621428
2548.0,0.0056322414966214155
2547.0,0.0056157559335474555
2546.0,0.005606565249191525
2545.0,0.005609358291898559
2544.0,0.005616674403865089
2543.0,0.005618097660720938
2542.0,0.005612070644915037
2541.0,0.00560371163696331
2540.0,0.005594183939057089
2539.0,0.0055795058871881175
2538.0,0.005559657070407857
2537.0,0.005542332161203858
2536.0,0.005535453559989372
2535.0,0.005539096148254972
2534.0,0.005545726977529559
2533.0,0.005546108835171243
2532.0,0.005535609609939846
2531.0,0.005517997967755303
2530.0,0.005502708193855427
2529.0,0.005495380182142837
2528.0,0.005491895415806626
2527.0,0.005484638781548725
2526.0,0.005472378697718575
2525.0,0.005459439257899406
2524.0,0.005447793475084609
2523.0,0.005436763976430967
2522.0,0.005429248916298087
2521.0,0.005430100939878246
2520.0,0.005437053162312345
2519.0,0.005440483206689701
2518.0,0.005434828659032961
2517.0,0.005424656362231286
2516.0,0.005417174346126
2515.0,0.005414227019159826
2514.0,0.005413829824337055
2513.0,0.0054135945347927265
2512.0,0.00540988071818871
2511.0,0.005399556680667564
2510.0,0.005386311625873174
2509.0,0.005380038197945046
2508.0,0.005385689570733778
2507.0,0.005396785112135739
2506.0,0.005403398311816048
2505.0,0.005402082517374327
2504.0,0.00539439295220702
2503.0,0.0053811638850567636
2502.0,0.005364087140154196
2501.0,0.005349110852977884
2500.0,0.005341584947624392
2499.0,0.005339246194127792
2498.0,0.005334851449595053
2497.0,0.0053250121227501395
2496.0,0.005312988052647008
2495.0,0.0053040789703046095
2494.0,0.005301434748406549
2493.0,0.005304584106920116
2492.0,0.005308669018444492
2491.0,0.005306950532937829
2490.0,0.005297748264727548
2489.0,0.005287471612867538
2488.0,0.005283283987973551
2487.0,0.0052842743206253425
2486.0,0.00528357307902856
2485.0,0.005277662926511896
2484.0,0.005269268288501946
2483.0,0.005261831492203558
2482.0,0.005255766626960459
2481.0,0.0052504692248701275
2480.0,0.005245573256757723
2479.0,0.0052387972109608485
2478.0,0.005226544844024056
2477.0,0.005209720252679035
2476.0,0.005196738994392033
2475.0,0.005196754314974003
2474.0,0.005208897030038999
2473.0,0.005220146361489663
2472.0,0.005216059931226701
2471.0,0.005194505672957771
2470.0,0.005168480361304709
2469.0,0.005154858216396014
2468.0,0.0051600512337033845
2467.0,0.005176121743006477
2466.0,0.005189457472946369
2465.0,0.0051921909787669245
2464.0,0.005186487000712916
2463.0,0.005180218185640348
2462.0,0.005179481492077594
2461.0,0.005184485558890042
2460.0,0.005191507238476343
2459.0,0.005197618995309927
2458.0,0.005202307715700196
2457.0,0.005205224231889646
2456.0,0.005205264280116203
2455.0,0.005203015137354051
2454.0,0.005201520113572483
2453.0,0.005202636945046949
2452.0,0.005204660849382616
2451.0,0.005205359674025601
2450.0,0.005204780380014892
2449.0,0.005202739369964699
2448.0,0.00519677964931732
2447.0,0.005186334297387907
2446.0,0.005176147175189252
2445.0,0.0051709665700500436
2444.0,0.005168663225042476
2443.0,0.00516299977819407
2442.0,0.005151363071437277
2441.0,0.00513530641046919
2440.0,0.0051162170585688236
2439.0,0.005096780059843255
2438.0,0.005084711089632057
2437.0,0.005086738120223294
2436.0,0.005097935317843902
2435.0,0.005104212857324251
2434.0,0.00509726778156512
2433.0,0.0050812918377572455
2432.0,0.005064035637964426
2431.0,0.005048521846920854
2430.0,0.005036136537731553
2429.0,0.005030223546657976
2428.0,0.005031271840857395
2427.0,0.005033598901268704
2426.0,0.005032034621225138
2425.0,0.005028616548238458
2424.0,0.005028460016319986
2423.0,0.005031828924928494
2422.0,0.005034129402621765
2421.0,0.0050313137532547675
2420.0,0.005021957768023531
2419.0,0.005006473710019145
2418.0,0.004987769571252265
2417.0,0.004971102772612398
2416.0,0.004960523065030114
2415.0,0.004956495888055169
2414.0,0.0049580897357896616
2413.0,0.00496473182348341
2412.0,0.004973902428736322
2411.0,0.004979901184957559
2410.0,0.004977408817591268
2409.0,0.0049646114868744425
2408.0,0.004941845020506377
2407.0,0.004910587112715925
2406.0,0.004876071043057799
2405.0,0.0048473356523317185
2404.0,0.004830977568816042
2403.0,0.0048263702694554735
2402.0,0.004828714992533859
2401.0,0.004833880572075044
2400.0,0.004837968832115047
2399.0,0.004835807020171522
2398.0,0.0048246135463921305
2397.0,0.0048083288207959535
2396.0,0.0047946296041632705
2395.0,0.004787464982476144
2394.0,0.004784630422248284
2393.0,0.004781907888133088
2392.0,0.00477725113239842
2391.0,0.004771331799792228
2390.0,0.004766263823618085
2389.0,0.004764091280543652
2388.0,0.004765152519898847
2387.0,0.004767594760902709
2386.0,0.004768915395512273
2385.0,0.004767644511808104
2384.0,0.004763332242075773
2383.0,0.004755779324205295
2382.0,0.0047445886441297895
2381.0,0.004728513399284049
2380.0,0.004705025715645115
2379.0,0.004672324070292436
2378.0,0.00463379787337864
2377.0,0.004599403099577335
2376.0,0.004581171326103401
2375.0,0.004585723560474262
2374.0,0.004608706631403271
2373.0,0.004636230410995118
2372.0,0.00465311690340223
2371.0,0.004653300025918307
2370.0,0.004642812763125956
2369.0,0.00463121050134912
2368.0,0.004623233864913851
2367.0,0.004621455565082958
2366.0,0.0046295773900236065
2365.0,0.004642976155090646
2364.0,0.004644622087123409
2363.0,0.0046305134811824205
2362.0,0.0046216968118533795
2361.0,0.004634208370387433
2360.0,0.004657745608600351
2359.0,0.004664389203999386
2358.0,0.004643789491386185
2357.0,0.004612961187477929
2356.0,0.004587601465999071
2355.0,0.004573326922921484
2354.0,0.004561075517420355
2353.0,0.004538319202532003
2352.0,0.004499195416095737
2351.0,0.004453331805516711
2350.0,0.00443469806634062
2349.0,0.004468233419281851
2348.0,0.004551866829690055
2347.0,0.0046484880054008075
2346.0,0.004712856628914342
2345.0,0.004737919386513815
2344.0,0.004741957409448519
2343.0,0.004743115437517593
2342.0,0.0047351561106451215
2341.0,0.004718119675170068
2340.0,0.004711557018850914
2339.0,0.0047248410594156
2338.0,0.0047471503231980485
2337.0,0.004756188451995361
2336.0,0.004741097695046423
2335.0,0.004707656158129411
2334.0,0.004672090672728822
2333.0,0.004650135526932119
2332.0,0.004646679508882551
2331.0,0.004647127355054222
2330.0,0.004644938615997183
2329.0,0.0046476948832941374
2328.0,0.004686140927875285
2327.0,0.004783333936470275
2326.0,0.004929089279723878
2325.0,0.00508438178242528
2324.0,0.0051916964743956686
2323.0,0.005222234258541744
2322.0,0.0051843772152117655
2321.0,0.005116252287302775
2320.0,0.005051688723908558
2319.0,0.005007155898195623
2318.0,0.004991955527634207
2317.0,0.0050045160008065515
2316.0,0.005031703770211079
2315.0,0.005049105164441778
2314.0,0.005046254724743418
2313.0,0.0050333074592699666
2312.0,0.005029932788233493
2311.0,0.00504152468917794
2310.0,0.005057944982101783
2309.0,0.005066693874612772
2308.0,0.005063308351868717
2307.0,0.005053411422590533
2306.0,0.005047740399438614
2305.0,0.005056300565194984
2304.0,0.00507770914772674
2303.0,0.005099223694870128
2302.0,0.005107421380736402
2301.0,0.005101390674893674
2300.0,0.005093809512043592
2299.0,0.005098692471375246
2298.0,0.00512008245835018
2297.0,0.005148742600272976
2296.0,0.005171106514495577
2295.0,0.005181893103221589
2294.0,0.0051891480289561155
2293.0,0.005205578092439943
2292.0,0.005234212990805464
2291.0,0.0052680548163360685
2290.0,0.005299589735879206
2289.0,0.0053282416352330554
2288.0,0.00535470410526232
2287.0,0.005377269447533072
2286.0,0.005394115679298101
2285.0,0.0054059970886186385
2284.0,0.005411530693789508
2283.0,0.005406226669835295
2282.0,0.005390122019270081
2281.0,0.005372789230579773
2280.0,0.005364037204254396
2279.0,0.005361879164965684
2278.0,0.005355650401226514
2277.0,0.005340093364254392
2276.0,0.005321691579716922
2275.0,0.005309401353263872
2274.0,0.0053046609391749905
2273.0,0.005302012915643661
2272.0,0.0052977830881793045
2271.0,0.005294008706358908
2270.0,0.005292491288567114
2269.0,0.005288598292578209
2268.0,0.005276053853598165
2267.0,0.005258110853421302
2266.0,0.005246722333001546
2265.0,0.005246577980405689
2264.0,0.005247661777707937
2263.0,0.0052403493552392886
2262.0,0.005231305365150955
2261.0,0.0052348380941650485
2260.0,0.005252454985888126
2259.0,0.005272628089475848
2258.0,0.005286139434390501
2257.0,0.005289546714061942
2256.0,0.0052763722734599635
2255.0,0.005242278706471902
2254.0,0.0052023657284221685
2253.0,0.005186781322990161
2252.0,0.005210967275203015
2251.0,0.005259066272377341
2250.0,0.005302070490802776
2249.0,0.0053227185176197124
2248.0,0.0053201271815952675
2247.0,0.005302607117936614
2246.0,0.0052839693643833814
2245.0,0.0052777756482487856
2244.0,0.00528616009439358
2243.0,0.005298233898451308
2242.0,0.00530265273850921
2241.0,0.005296016827975573
2240.0,0.005278813058783957
2239.0,0.00525357954370667
2238.0,0.005229956083184981
2237.0,0.005220567858392435
2236.0,0.005226745099598672
2235.0,0.005237975024797293
2234.0,0.005248847231420969
2233.0,0.005265164677736695
2232.0,0.005289386871843956
2231.0,0.005312927954686091
2230.0,0.005328261833932144
2229.0,0.00533630410232924
2228.0,0.0053366474920929
2227.0,0.005324837391038541
2226.0,0.005306724420995552
2225.0,0.005299753453635481
2224.0,0.005308475320361632
2223.0,0.005312495909821886
2222.0,0.0052933302301607565
2221.0,0.005262800736713439
2220.0,0.005249804474141811
2219.0,0.005265360463704729
2218.0,0.00529330630795172
2217.0,0.005310253718312786
2216.0,0.005303201931538027
2215.0,0.005273304685486319
2214.0,0.005233885984962335
2213.0,0.005202827641395508
2212.0,0.005189050306720731
2211.0,0.005188325066116301
2210.0,0.005195796346668559
2209.0,0.005214049588852459
2208.0,0.0052433608391233115
2207.0,0.005273384707796352
2206.0,0.005291873107957466
2205.0,0.005294073680849071
2204.0,0.005278982692933073
2203.0,0.005247101754520201
2202.0,0.005210936019421944
2201.0,0.005197395250693654
2200.0,0.005225302924557662
2199.0,0.005284170057824911
2198.0,0.005341608157154664
2197.0,0.0053683511599726605
2196.0,0.005355577830887421
2195.0,0.005317208705399162
2194.0,0.005281777307692351
2193.0,0.005273278765090347
2192.0,0.005292763185871332
2191.0,0.005325240362166287
2190.0,0.005364912271906075
2189.0,0.005419357031143989
2188.0,0.005485429810819107
2187.0,0.005538350657980281
2186.0,0.005554216439950873
2185.0,0.005530497310168911
2184.0,0.005476115291671953
2183.0,0.0053974806432648004
2182.0,0.005308151500092757
2181.0,0.00523713524780153
2180.0,0.00520782622832622
2179.0,0.005215802890583313
2178.0,0.005238899780422035
2177.0,0.005257620135518954
2176.0,0.005258058992472317
2175.0,0.005232662117633644
2174.0,0.00519454083718386
2173.0,0.00518031930899139
2172.0,0.005220929372500416
2171.0,0.005313347126250916
2170.0,0.0054276059109277285
2169.0,0.005532010361366989
2168.0,0.005605876092321956
2167.0,0.005639856738666965
2166.0,0.005641858842960022
2165.0,0.00564239629573055
2164.0,0.005677307912815592
2163.0,0.005751365001045083
2162.0,0.005808961123732595
2161.0,0.005742210816342725
2160.0,0.005460988384054629
2159.0,0.004997993400331839
2158.0,0.004529359905951146
2157.0,0.0042352753167589
2156.0,0.004147899900382409
2155.0,0.004177473059148448
2154.0,0.004247862168496553
2153.0,0.004347981806796795
2152.0,0.004475900737728432
2151.0,0.00459394080093131
2150.0,0.0046566862382299784
2149.0,0.004653831209682254
2148.0,0.004608244128265162
2147.0,0.004549793694755392
2146.0,0.0045038325972929305
2145.0,0.004484045034586125
2144.0,0.004478427612573448
2143.0,0.00445862181516293
2142.0,0.004414997433008935
2141.0,0.004368389681106269
2140.0,0.004339325951792221
2139.0,0.004323340284468753
2138.0,0.004303904783320109
2137.0,0.004268938538884322
2136.0,0.004205981627885774
2135.0,0.004105714945196451
2134.0,0.00398752819758133
2133.0,0.0039021065669842874
2132.0,0.0038879451717226793
2131.0,0.003935558161702721
2130.0,0.004004538825079689
2129.0,0.004061185592104008
2128.0,0.004093340198933316
2127.0,0.004105360211330996
2126.0,0.004112763258920905
2125.0,0.004133044331378675
2124.0,0.004168740727700328
2123.0,0.004204006580288637
2122.0,0.004224225994863922
2121.0,0.004231742557208105
2120.0,0.004237116050058756
2119.0,0.004245720768444256
2118.0,0.004260830264994104
2117.0,0.004288579267104899
2116.0,0.00432858992388515
2115.0,0.0043677576233165875
2114.0,0.0043932985824485845
2113.0,0.004405349143098902
2112.0,0.00440933841714445
2111.0,0.004405333263184986
2110.0,0.0043944828758289865
2109.0,0.004385802854651133
2108.0,0.004384508157422367
2107.0,0.004382148057913394
2106.0,0.004370331067213942
2105.0,0.0043562593953118635
2104.0,0.00435217411158672
2103.0,0.004357298272839909
2102.0,0.004363351386299992
2101.0,0.004370110279378906
2100.0,0.004380233745519965
2099.0,0.0043838342844843385
2098.0,0.004363366017142875
2097.0,0.0043143398576831245
2096.0,0.004251023817366719
2095.0,0.0041929413730470745
2094.0,0.00415460940319851
2093.0,0.004143268446262479
2092.0,0.0041555858296317685
2091.0,0.004177999995960801
2090.0,0.004198054574515146
2089.0,0.004213833341339727
2088.0,0.004228310837226707
2087.0,0.004241345662596314
2086.0,0.004253438025888943
2085.0,0.004269395905430625
2084.0,0.004289733358627215
2083.0,0.004306445420255506
2082.0,0.004316858101572263
2081.0,0.004333541162139925
2080.0,0.004367675737590773
2079.0,0.004408825056731548
2078.0,0.004434869776792248
2077.0,0.004437938532328367
2076.0,0.004427633251365512
2075.0,0.004411212425299904
2074.0,0.004386769018522206
2073.0,0.004356357093632145
2072.0,0.004331518677253784
2071.0,0.00432185843289827
2070.0,0.004326158517722067
2069.0,0.004336435496829559
2068.0,0.0043440461380048236
2067.0,0.004341716234695473
2066.0,0.004325230904151903
2065.0,0.004295533565087987
2064.0,0.004258126504434066
2063.0,0.0042221990675466664
2062.0,0.0042010423884028415
2061.0,0.004205651841526555
2060.0,0.004232639553547271
2059.0,0.004265522632368482
2058.0,0.004291278999326397
2057.0,0.0043076543032035544
2056.0,0.004316440803500654
2055.0,0.004325969191380741
2054.0,0.004361650651029189
2053.0,0.004448406457348078
2052.0,0.004568677825894439
2051.0,0.0046578183145464455
2050.0,0.004660735790431529
2049.0,0.004589721366081257
2048.0,0.004509124831616816
2047.0,0.004464677253968843
2046.0,0.00445438845323011
2045.0,0.004463000255504817
2044.0,0.004487310746333388
2043.0,0.00452303110372512
2042.0,0.004554531363938517
2041.0,0.00457033118633638
2040.0,0.004575905553711833
2039.0,0.00458206772404505
2038.0,0.004590300088968113
2037.0,0.004593267192669153
2036.0,0.004580822605755784
2035.0,0.0045459018608696505
2034.0,0.004492160461410227
2033.0,0.004434406560287135
2032.0,0.004385331349554461
2031.0,0.004348088548191202
2030.0,0.004327205295899492
2029.0,0.004329930667125934
2028.0,0.004345804902083556
2027.0,0.004342685072528094
2026.0,0.004302021881779509
2025.0,0.004247408193493842
2024.0,0.004220806106390999
2023.0,0.004237709348849304
2022.0,0.004277546269563906
2021.0,0.004307621582711322
2020.0,0.004303350684358517
2019.0,0.004255792078963078
2018.0,0.004176866060837403
2017.0,0.0040961312539894755
2016.0,0.004038048201520598
2015.0,0.004006960402435338
2014.0,0.004002823815334345
2013.0,0.004032412664690646
2012.0,0.004091267508510725
2011.0,0.004150573144826086
2010.0,0.004176074480738965
2009.0,0.004153842578682032
2008.0,0.004094617078130652
2007.0,0.004023211392581243
2006.0,0.003968734990176544
2005.0,0.0039491306378038726
2004.0,0.003954482120957319
2003.0,0.003959480457299482
2002.0,0.0039559981268431745
2001.0,0.003960753610575033
2000.0,0.003984619278462692
1999.0,0.004012741602885812
1998.0,0.004025677722167199
1997.0,0.004021820164935549
1996.0,0.004010787178005013
1995.0,0.004001085333694894
1994.0,0.004004717420511211
1993.0,0.0040360346039757565
1992.0,0.0040894449067477535
1991.0,0.004136370526582164
1990.0,0.004161459734711111
1989.0,0.004179805810810919
1988.0,0.004208157993452836
1987.0,0.0042403729920013995
1986.0,0.004262775861438588
1985.0,0.004280306300440387
1984.0,0.004314748786508544
1983.0,0.004385895784879543
1982.0,0.004496422908308515
1981.0,0.0046193532283836485
1980.0,0.00469530768634163
1979.0,0.0046681946153745955
1978.0,0.0045429948595594434
1977.0,0.004388157200909948
1976.0,0.00426293037227899
1975.0,0.004169740968646552
1974.0,0.004093270341715354
1973.0,0.004040122948683432
1972.0,0.004015156976866709
1971.0,0.003997559307015512
1970.0,0.003971116478833807
1969.0,0.0039552777551467135
1968.0,0.003980019993881821
1967.0,0.004040044650617192
1966.0,0.004099430933841555
1965.0,0.004134284132939326
1964.0,0.004143660934825263
1963.0,0.004132500415451772
1962.0,0.004108889592906713
1961.0,0.0040873725579840805
1960.0,0.004078944991095892
1959.0,0.004086054607849516
1958.0,0.004113219979966642
1957.0,0.004166157705225599
1956.0,0.004234072496067005
1955.0,0.004291113214100846
1954.0,0.004325982624027586
1953.0,0.0043529554218548075
1952.0,0.004386960937188686
1951.0,0.004425948413318403
1950.0,0.004465668135920243
1949.0,0.004513226222533106
1948.0,0.004568968502088255
1947.0,0.004612446596126604
1946.0,0.004627637145123312
1945.0,0.004629013992372699
1944.0,0.004643103606081705
1943.0,0.004669973692248827
1942.0,0.004682642928973226
1941.0,0.004666019162383074
1940.0,0.0046290491757703936
1939.0,0.0045822132315289
1938.0,0.004530542502879911
1937.0,0.0044798099011616205
1936.0,0.004431833570110271
1935.0,0.0043787187050157465
1934.0,0.004312826971511607
1933.0,0.004236007587586903
1932.0,0.004153622431049829
1931.0,0.004066988265741441
1930.0,0.00397978928869569
1929.0,0.0039054064281723094
1928.0,0.0038489969935204447
1927.0,0.0037960921725116357
1926.0,0.0037302731647554507
1925.0,0.0036569718340997807
1924.0,0.003603421933379695
1923.0,0.00358880719160514
1922.0,0.00360419306497535
1921.0,0.0036267008015516476
1920.0,0.0036392540508472584
1919.0,0.003632770215762434
1918.0,0.0036067517779261042
1917.0,0.0035719347490130618
1916.0,0.003540341275849117
1915.0,0.003513764758631872
1914.0,0.003488232678336289
1913.0,0.003459306518053028
1912.0,0.003425771082380127
1911.0,0.003393593043766079
1910.0,0.0033749188911928597
1909.0,0.003376937010650969
1908.0,0.0033875618913430314
1907.0,0.0033887150161071265
1906.0,0.003378046012817703
1905.0,0.0033673208531181226
1904.0,0.0033648078414359106
1903.0,0.003365132877792528
1902.0,0.003363022824316564
1901.0,0.003363001358767908
1900.0,0.0033668447095649002
1899.0,0.003368545497186511
1898.0,0.003367523870510962
1897.0,0.00337532989147587
1896.0,0.0034035066794890732
1895.0,0.003445895235953339
1894.0,0.003484678146001409
1893.0,0.0035098918883203546
1892.0,0.003523222000644916
1891.0,0.0035328957878522256
1890.0,0.0035521154308564566
1889.0,0.0035878047819665826
1888.0,0.00362917286159473
1887.0,0.003660888748140286
1886.0,0.0036813356768853837
1885.0,0.003698537381637424
1884.0,0.0037164932556270026
1883.0,0.0037323292826794818
1882.0,0.0037465092415611377
1881.0,0.0037656582806431535
1880.0,0.0037890343378227747
1879.0,0.0038076208266505213
1878.0,0.0038205147371661585
1877.0,0.003837627873501508
1876.0,0.00386413237297349
1875.0,0.0038935846497617412
1874.0,0.003921019026035279
1873.0,0.003952324586399504
1872.0,0.003991077535990677
1871.0,0.004025358600739535
1870.0,0.00403849815025932
1869.0,0.0040285819693611225
1868.0,0.004006451028477966
1867.0,0.003978531756637738
1866.0,0.0039463974386213276
1865.0,0.0039145808125246725
1864.0,0.0038843853687065863
1863.0,0.003848407671426151
1862.0,0.0038005551267079746
1861.0,0.0037454624456908408
1860.0,0.0036897975759487274
1859.0,0.003630754955825259
1858.0,0.00356500898478776
1857.0,0.003501383978333501
1856.0,0.003449982955331694
1855.0,0.0034077166412618703
1854.0,0.003366719890466132
1853.0,0.003330848899305029
1852.0,0.0033054061705193073
1851.0,0.0032838159628668473
1850.0,0.003259700529510066
1849.0,0.003237518431612359
1848.0,0.0032261706003991306
1847.0,0.003226136090416242
1846.0,0.003233411940389976
1845.0,0.003244250085583934
1844.0,0.0032441386998148802
1843.0,0.0032129502412536403
1842.0,0.0031577097948296837
1841.0,0.0031084273257587967
1840.0,0.0030806738704772197
1839.0,0.0030671577789290172
1838.0,0.003055151783708965
1837.0,0.0030451845392444944
1836.0,0.0030439265120947175
1835.0,0.0030465587162519384
1834.0,0.0030442223043340533
1833.0,0.0030371453745106566
1832.0,0.0030293680211119383
1831.0,0.003030778993120866
1830.0,0.0030556303352900866
1829.0,0.0030951055949251173
1828.0,0.003126208210920143
1827.0,0.0031424671777804305
1826.0,0.0031546602298954886
1825.0,0.0031733607997259067
1824.0,0.0031901667588199903
1823.0,0.0031916467985272233
1822.0,0.0031842062461646652
1821.0,0.00318387438840239
1820.0,0.003192143954194428
1819.0,0.0031969571096022503
1818.0,0.0031930489301426686
1817.0,0.0031926551234044763
1816.0,0.003209724495479008
1815.0,0.0032399334034656987
1814.0,0.003272213673760298
1813.0,0.0033034355497928176
1812.0,0.0033368237425054083
1811.0,0.0033747144443414282
1810.0,0.003413380021707734
1809.0,0.0034519485586208577
1808.0,0.0034940143391525183
1807.0,0.003538495164846901
1806.0,0.003581137247642254
1805.0,0.0036211019242352615
1804.0,0.003659191601680878
1803.0,0.0036888243875988964
1802.0,0.0037014358025926983
1801.0,0.003695132335310178
1800.0,0.003675447024472309
1799.0,0.003649414878596844
1798.0,0.003619113065466756
1797.0,0.003588756422087745
1796.0,0.0035639942290261848
1795.0,0.003543246965627685
1794.0,0.003518386738540614
1793.0,0.003481502262986944
1792.0,0.003429452642697363
1791.0,0.003360764519705454
1790.0,0.003279972163918076
1789.0,0.003206352191354633
1788.0,0.0031583127383071085
1787.0,0.0031362519996466134
1786.0,0.003124861451239696
1785.0,0.0031089471413702713
1784.0,0.003080872559608635
1783.0,0.003037812729404392
1782.0,0.0029932000386428156
1781.0,0.0029711129093467807
1780.0,0.0029743343347834543
1779.0,0.0029804069819021448
1778.0,0.002972765685916941
1777.0,0.0029597980584382916
1776.0,0.002951268913691076
1775.0,0.002944385715187211
1774.0,0.002940580361342138
1773.0,0.002960136272526642
1772.0,0.00300900153575945
1771.0,0.003055280234203102
1770.0,0.0030766893297664976
1769.0,0.003081644557321055
1768.0,0.003079018561542631
1767.0,0.003064075915872838
1766.0,0.003040429083543389
1765.0,0.003031219558869954
1764.0,0.00305539261095079
1763.0,0.0031084226763162365
1762.0,0.0031663704018326977
1761.0,0.003206491443369572
1760.0,0.003228974076154598
1759.0,0.003250693509054166
1758.0,0.0032879472102652577
1757.0,0.003350664702986822
1756.0,0.003419167820193903
1755.0,0.003467081409423735
1754.0,0.0035021403161804737
1753.0,0.0035535279276495625
1752.0,0.0036299579212717226
1751.0,0.00370507739904083
1750.0,0.003756863331836339
1749.0,0.003804848393660811
1748.0,0.003866551336039514
1747.0,0.003922680100708952
1746.0,0.003963669277232545
1745.0,0.004003080258798584
1744.0,0.004047202848821202
1743.0,0.004084077619261265
1742.0,0.004106629707203743
1741.0,0.004126792958354393
1740.0,0.004154424819542161
1739.0,0.004174698170390574
1738.0,0.0041774825603548525
1737.0,0.004180358358279944
1736.0,0.0042022125807124975
1735.0,0.004231353146725664
1734.0,0.004230941887440996
1733.0,0.00419631835583977
1732.0,0.004160166972771113
1731.0,0.004134730164346036
1730.0,0.004117776819095754
1729.0,0.004118418994455185
1728.0,0.004130454595475029
1727.0,0.004139842669769857
1726.0,0.004145716955356732
1725.0,0.004158517780839572
1724.0,0.00417966579371635
1723.0,0.004198846355966213
1722.0,0.004207318653915686
1721.0,0.0042073936284480465
1720.0,0.004196536816126377
1719.0,0.004183393424059019
1718.0,0.004207767704431198
1717.0,0.0042799705021267535
1716.0,0.004358008560103425
1715.0,0.004402135104195581
1714.0,0.004405542646416927
1713.0,0.004396620013715396
1712.0,0.00440324980719531
1711.0,0.0044267692790031345
1710.0,0.0044584095231107075
1709.0,0.004499710097543854
1708.0,0.004553632236382903
1707.0,0.004619461382055376
1706.0,0.004705356820201837
1705.0,0.004814201066455483
1704.0,0.004928487294810086
1703.0,0.005042113226918232
1702.0,0.005167096653712974
1701.0,0.005314661175328623
1700.0,0.005457768198185903
1699.0,0.005514180968437407
1698.0,0.005497062349996331
1697.0,0.0055386499644911455
1696.0,0.005703126191483633
1695.0,0.005888139146029061
1694.0,0.005989785730918465
1693.0,0.0060366274280805226
1692.0,0.006086514941136307
1691.0,0.006172764441457163
1690.0,0.006291587163028608
1689.0,0.00641542758541297
1688.0,0.006512520147247513
1687.0,0.006585794692140932
1686.0,0.0066720810052528865
1685.0,0.0068538344318205095
1684.0,0.007149188176910523
1683.0,0.007377389873935833
1682.0,0.007469740882796537
1681.0,0.0075380582980421685
1680.0,0.007642791475992769
1679.0,0.007780055452169153
1678.0,0.007922646355418402
1677.0,0.008079837816862832
1676.0,0.008263244449990555
1675.0,0.008434308571918325
1674.0,0.008539980351115624
1673.0,0.008605115050465831
1672.0,0.008690290986471262
1671.0,0.008821823231170766
1670.0,0.00898227294911718
1669.0,0.009129294446517309
1668.0,0.009232534385680804
1667.0,0.009296145578399412
1666.0,0.009350457225890906
1665.0,0.009425317216590522
1664.0,0.009534727877240901
1663.0,0.009658697853707923
1662.0,0.009751849367929104
1661.0,0.009807782979708132
1660.0,0.009850463952977704
1659.0,0.009895332770084801
1658.0,0.009941056954063563
1657.0,0.009991284627496108
1656.0,0.010036152170071417
1655.0,0.01006324738474353
1654.0,0.010057290434942278
1653.0,0.010036561665879642
1652.0,0.010028975822003967
1651.0,0.01002371106889118
1650.0,0.010019175807011465
1649.0,0.009999504025719176
1648.0,0.00999160874291864
1647.0,0.009990945243126789
1646.0,0.009963204096745518
1645.0,0.009916708399385424
1644.0,0.009879571896951895
1643.0,0.009844804290325573
1642.0,0.0098024293377684
1641.0,0.009754366635022809
1640.0,0.00971128845931589
1639.0,0.009670339084072633
1638.0,0.009620299328008224
1637.0,0.009559512555989379
1636.0,0.00950220197842709
1635.0,0.009449941906002941
1634.0,0.009383877832864308
1633.0,0.00930463327479202
1632.0,0.00923259771180282
1631.0,0.00917048978494962
1630.0,0.009098124958646956
1629.0,0.009004020832914543
1628.0,0.008902524676978813
1627.0,0.008809613027625951
1626.0,0.00871802088436148
1625.0,0.008607341013563065
1624.0,0.008458559992240244
1623.0,0.008273420548562557
1622.0,0.008083454124054446
1621.0,0.007916806940248673
1620.0,0.007764886352877371
1619.0,0.007603537045559091
1618.0,0.007411285790270479
1617.0,0.007192227769555091
1616.0,0.007000888320902289
1615.0,0.006870809492613094
1614.0,0.006773477445270264
1613.0,0.0066873363832342
1612.0,0.006628159938188902
1611.0,0.006622524668053374
1610.0,0.006699222647077025
1609.0,0.006894640360178112
1608.0,0.0072441678796469336
1607.0,0.007747752318674509
1606.0,0.008371970963738233
1605.0,0.009089837770531487
1604.0,0.009869623894049202
1603.0,0.01060943667659413
1602.0,0.011135369130131703
1601.0,0.011319586262324613
1600.0,0.011147350143422274
1599.0,0.01067225951493827
1598.0,0.009989569326426518
1597.0,0.009223713443853618
1596.0,0.008483498814087642
1595.0,0.007831672438490056
1594.0,0.007292957344480742
1593.0,0.006864370807125411
1592.0,0.006519992786526154
1591.0,0.006231506726969206
1590.0,0.005994116963818861
1589.0,0.005830466560091312
1588.0,0.005768651290445462
1587.0,0.0058214697394980185
1586.0,0.005973696968896162
1585.0,0.006177277519263328
1584.0,0.006352350779509969
1583.0,0.006406940773766702
1582.0,0.006289622738431505
1581.0,0.006031349563336388
1580.0,0.005712540774333221
1579.0,0.005388686100845304
1578.0,0.0050802442193652155
1577.0,0.004799684053278465
1576.0,0.004583440516582462
1575.0,0.004460071024973757
1574.0,0.0043962913721128
1573.0,0.004347079339368085
1572.0,0.004297162884654569
1571.0,0.004245078759564562
1570.0,0.0041907089359932695
1569.0,0.004138580115013377
1568.0,0.004087286487073852
1567.0,0.0040398983576287375
1566.0,0.004004459841423071
1565.0,0.003981674840743197
1564.0,0.003965488620669582
1563.0,0.003949432737292438
1562.0,0.003944833863679606
1561.0,0.003941166727724706
1560.0,0.003914022519918537
1559.0,0.003993801082025674
1558.0,0.004128479987041222
1557.0,0.0041534732785713435
1556.0,0.004142127358882811
1555.0,0.004138063169691611
1554.0,0.0041576480995843025
1553.0,0.004174276501284584
1552.0,0.004189165005317184
1551.0,0.00421351153651718
1550.0,0.004252097324628216
1549.0,0.004289003313602518
1548.0,0.0043181672553044975
1547.0,0.004348050576925448
1546.0,0.00438318363280697
1545.0,0.004417796007176571
1544.0,0.004445601655065491
1543.0,0.004449287511939195
1542.0,0.004408294842255048
1541.0,0.004308396023865722
1540.0,0.00420128778480015
1539.0,0.004162150577572925
1538.0,0.004164423019315209
1537.0,0.004169587258411485
1536.0,0.004166753169989071
1535.0,0.004144988001493129
1534.0,0.004087218037891156
1533.0,0.003998911887421055
1532.0,0.003907406561989033
1531.0,0.0038300197196576356
1530.0,0.0037672432462239826
1529.0,0.0037157536961786165
1528.0,0.0036716366543242717
1527.0,0.003626745642587811
1526.0,0.003563935367377191
1525.0,0.003480650589258885
1524.0,0.0033957313145171497
1523.0,0.003332417665337178
1522.0,0.0032973032089494213
1521.0,0.0032716807691877394
1520.0,0.0032379999425594564
1519.0,0.003185208868984474
1518.0,0.003110516993243661
1517.0,0.0030325380634074464
1516.0,0.002973320743467907
1515.0,0.002927511309263069
1514.0,0.0028779158686494883
1513.0,0.0028224299753644125
1512.0,0.0027666377728344784
1511.0,0.0027109629304098324
1510.0,0.002638692264235193
1509.0,0.0025368327536165495
1508.0,0.0024290786571885712
1507.0,0.0023780580129961417
1506.0,0.0023830973228741712
1505.0,0.002386770795987688
1504.0,0.0024009882685321043
1503.0,0.0024564285870229455
1502.0,0.002580416037821818
1501.0,0.0028088479403838833
1500.0,0.0032136821395091775
1499.0,0.003939474930283432
1498.0,0.005319846598794569
1497.0,0.0077882542001473706
1496.0,0.011147459280218833
1495.0,0.014420742939442161
1494.0,0.01692383140427704
1493.0,0.01846841314766515
1492.0,0.018819501818177847
1491.0,0.01756844642494111
1490.0,0.01482039681751106
1489.0,0.011834061634109803
1488.0,0.009670967220019812
1487.0,0.00825154067832393
1486.0,0.00722546412539811
1485.0,0.006441553431008317
1484.0,0.005818660330585689
1483.0,0.005284356111132279
1482.0,0.004806633715791828
1481.0,0.004418565891938639
1480.0,0.0041436073973488965
1479.0,0.003950871165398139
1478.0,0.003799340223506499
1477.0,0.0036748688350839204
1476.0,0.003579259735953812
1475.0,0.0035047461679296003
1474.0,0.0034503244962859666
1473.0,0.0034293334197554363
1472.0,0.0034175150867195663
1471.0,0.0033814787500104073
1470.0,0.0033443968396424145
1469.0,0.003346407018614595
1468.0,0.003389154657542564
1467.0,0.003440560556210394
1466.0,0.0034815361627692945
1465.0,0.0035314149227643676
1464.0,0.0035937759198992384
1463.0,0.003635040117398623
1462.0,0.0036859851368721028
1461.0,0.0037870759295247124
1460.0,0.0040007989345531465
1459.0,0.004449508539669598
1458.0,0.005725051035461046
1457.0,0.008449657203286798
1456.0,0.01165311399581582
1455.0,0.014212002496811512
1454.0,0.016252710645786823
1453.0,0.017855199954523844
1452.0,0.0187333735209536
1451.0,0.018707141079960014
1450.0,0.017957072303607616
1449.0,0.016786451404092344
1448.0,0.015451313978190806
1447.0,0.014250358623577378
1446.0,0.013345331474873882
1445.0,0.012637236495737371
1444.0,0.011953824734586201
1443.0,0.011242014280847746
1442.0,0.010562850796288742
1441.0,0.009981092755031945
1440.0,0.009504995287004166
1439.0,0.009100862577872015
1438.0,0.008678197713121316
1437.0,0.008098456991677981
1436.0,0.007392014912871385
1435.0,0.00677819023280444
1434.0,0.006336132679276535
1433.0,0.005981850126091778
1432.0,0.005638658842760101
1431.0,0.005294948395854002
1430.0,0.004984891830752747
1429.0,0.004720926743763855
1428.0,0.004496490654959114
1427.0,0.004311291803362809
1426.0,0.004158217300697338
1425.0,0.004015161027504742
1424.0,0.00387287043580787
1423.0,0.003758753813261329
1422.0,0.0036935515178331806
1421.0,0.003654691852000069
1420.0,0.0035951527136245925
1419.0,0.003501852352001996
1418.0,0.003400632344702325
1417.0,0.0032963817794233147
1416.0,0.003189318955558358
1415.0,0.0030965042396437314
1414.0,0.0030260934213195566
1413.0,0.0029646955316267967
1412.0,0.002898703407148696
1411.0,0.0028325155136901953
1410.0,0.0027740961709915523
1409.0,0.00271677762229103
1408.0,0.0026547828995269035
1407.0,0.0025953116905026233
1406.0,0.0025454826156993335
1405.0,0.002498857938335449
1404.0,0.002446604783087563
1403.0,0.0023986223848188235
1402.0,0.0023672585413517565
1401.0,0.0023470959543485997
1400.0,0.0023269919031655623
1399.0,0.002308395314909972
1398.0,0.002297557008337884
1397.0,0.0022937134470044263
1396.0,0.0023002075437998895
1395.0,0.0023210083428067854
1394.0,0.0023434436726444668
1393.0,0.0023508638698253397
1392.0,0.0023536654850779756
1391.0,0.0023797419003548552
1390.0,0.0024423860384016763
1389.0,0.002534640663769811
1388.0,0.0026440397358589098
1387.0,0.0027567914686477987
1386.0,0.002855598001647424
1385.0,0.0029372345311388438
1384.0,0.003016969441192141
1383.0,0.0031079655100723913
1382.0,0.0032078193278581787
1381.0,0.003307804905683453
1380.0,0.003407975978244503
1379.0,0.0035106203982626203
1378.0,0.003608822460572004
1377.0,0.0036942414493997015
1376.0,0.003769785733942299
1375.0,0.0038413845172954233
1374.0,0.0038988529018369163
1373.0,0.003923573112951914
1372.0,0.003916678790175383
1371.0,0.0038950863080057917
1370.0,0.0038687272216222537
1369.0,0.0038372290769418398
1368.0,0.00380035956231838
1367.0,0.0037663625916244236
1366.0,0.0037423529892547753
1365.0,0.003723937454115925
1364.0,0.0036995198068994896
1363.0,0.0036609366505818744
1362.0,0.0036071203284485085
1361.0,0.003542020101330795
1360.0,0.0034716295094782113
1359.0,0.003402440259644834
1358.0,0.0033392528897135923
1357.0,0.0032833040122881886
1356.0,0.0032347029393087756
1355.0,0.0031957533210674157
1354.0,0.003168322698604427
1353.0,0.003149699214205489
1352.0,0.0031362688156722296
1351.0,0.003126414083328413
1350.0,0.0031173981046027826
1349.0,0.003104611987403994
1348.0,0.003084646210010254
1347.0,0.0030583663897831084
1346.0,0.0030265263331193904
1345.0,0.0029880119405461154
1344.0,0.002944345201986066
1343.0,0.0029016724942059514
1342.0,0.0028637441958943486
1341.0,0.0028275664741082792
1340.0,0.002788773041902009
1339.0,0.0027515690359476075
1338.0,0.002727563167244772
1337.0,0.0027232368701302786
1336.0,0.0027392816271552484
1335.0,0.0027767674357006833
1334.0,0.002834204121076474
1333.0,0.002903931553804391
1332.0,0.002976480626292718
1331.0,0.003045897488060573
1330.0,0.003107685623483024
1329.0,0.003153976546978798
1328.0,0.0031759336028903762
1327.0,0.0031713047540145004
1326.0,0.00314700778863947
1325.0,0.0031136518932595343
1324.0,0.0030789519186532376
1323.0,0.003047763402828822
1322.0,0.0030229425514263246
1321.0,0.0030047765115737003
1320.0,0.0029930016268627027
1319.0,0.002990802576061685
1318.0,0.003002661339603678
1317.0,0.0030276132440054276
1316.0,0.0030596446765616785
1315.0,0.003094423929745496
1314.0,0.0031302645895933514
1313.0,0.003162290566061207
1312.0,0.003181887712512453
1311.0,0.003184325940576253
1310.0,0.0031726999621273845
1309.0,0.0031525595473776593
1308.0,0.003126664711402462
1307.0,0.00309560068572306
1306.0,0.003060474977164391
1305.0,0.003023041039508557
1304.0,0.0029840573195788435
1303.0,0.002944327672301551
1302.0,0.002905378925670255
1301.0,0.0028686801440801204
1300.0,0.002835558712944067
1299.0,0.002808509951776176
1298.0,0.002790166905785653
1297.0,0.0027806512131266655
1296.0,0.002777674035633801
1295.0,0.002779122011092338
1294.0,0.0027837625787503414
1293.0,0.0027892681146684914
1292.0,0.0027922248956452683
1291.0,0.002790795157421302
1290.0,0.0027856279271740495
1289.0,0.002778061427399443
1288.0,0.0027697424361090997
1287.0,0.002764217092413916
1286.0,0.002766019611686622
1285.0,0.0027769557452851355
1284.0,0.002794885304549914
1283.0,0.0028162426646750347
1282.0,0.002837847969698489
1281.0,0.0028566893832453195
1280.0,0.0028700014372104476
1279.0,0.002876467835592775
1278.0,0.002876703311341795
1277.0,0.0028722487435624026
1276.0,0.0028656178265743246
1275.0,0.0028608154653467135
1274.0,0.0028617101685419616
1273.0,0.002869234194821482
1272.0,0.0028819098834762043
1271.0,0.0028992797114678116
1270.0,0.0029228924209921815
1269.0,0.0029536277819591657
1268.0,0.002990222214108331
1267.0,0.003031210234610779
1266.0,0.003076238369418516
1265.0,0.003124459433223822
1264.0,0.0031739332217746536
1263.0,0.003223938164291311
1262.0,0.0032761870982143957
1261.0,0.0033326112315825163
1260.0,0.003393213003863728
1259.0,0.00345725860958173
1258.0,0.0035252170767518126
1257.0,0.0035975714700445405
1256.0,0.0036736672258849746
1255.0,0.003753737615304089
1254.0,0.0038406774345258656
1253.0,0.003937266127798143
1252.0,0.004042364841942243
1251.0,0.0041520298696654115
1250.0,0.004263878839320286
1249.0,0.00437808342361213
1248.0,0.0044949177295024395
1247.0,0.004614576273369222
1246.0,0.004738910704616372
1245.0,0.004869256344124201
1244.0,0.005002500489683125
1243.0,0.0051330334617975485
1242.0,0.0052592005863016395
1241.0,0.005384415614072891
1240.0,0.005512112092423524
1239.0,0.005643535891485405
1238.0,0.005779954441649306
1237.0,0.005922264988503094
1236.0,0.006068244779281069
1235.0,0.006214947625991582
1234.0,0.006364191333646933
1233.0,0.0065208550415058715
1232.0,0.006685761999851227
1231.0,0.006855755533699393
1230.0,0.0070304050531433265
1229.0,0.0072117470266719495
1228.0,0.007397043085774325
1227.0,0.007579301171251587
1226.0,0.007756556782214306
1225.0,0.007933786614648147
1224.0,0.008114437976151405
1223.0,0.008297611551024762
1222.0,0.008484381054324591
1221.0,0.00867799621976303
1220.0,0.008876304631279471
1219.0,0.009073261441134052
1218.0,0.009270010737839684
1217.0,0.009474703250126676
1216.0,0.009689362247438844
1215.0,0.009907564111115607
1214.0,0.010127286336998274
1213.0,0.01035443837513474
1212.0,0.010590606310447977
1211.0,0.010829587626414533
1210.0,0.011069978368849728
1209.0,0.01131856438338461
1208.0,0.011577208514922197
1207.0,0.011839601738564987
1206.0,0.012105151539627698
1205.0,0.01238221168248703
1204.0,0.012672590247605555
1203.0,0.012966981054118032
1202.0,0.013260735937941302
1201.0,0.013559061663729114
1200.0,0.013861065869533706
1199.0,0.014154522305671186
1198.0,0.01443319721986023
1197.0,0.014704132522552189
1196.0,0.014972108126846824
1195.0,0.01523342291600014
1194.0,0.015490084134061189
1193.0,0.015752197791944866
1192.0,0.016020425966769877
1191.0,0.016284421709874344
1190.0,0.01654472840439155
1189.0,0.01681792139524192
1188.0,0.01711511919172407
1187.0,0.01743488380880753
1186.0,0.01778109382450014
1185.0,0.01816436192276916
1184.0,0.01857745934750833
1183.0,0.018989754134834703
1182.0,0.0193728839015114
1181.0,0.019711647144962288
1180.0,0.019986185930774423
1179.0,0.020174861741671025
1178.0,0.020287163069389717
1177.0,0.020366078405459526
1176.0,0.020447949887073588
1175.0,0.020544245349794224
1174.0,0.020664071669250904
1173.0,0.020821432758322666
1172.0,0.021011103151176193
1171.0,0.021207324480685758
1170.0,0.021397572435365386
1169.0,0.02159286538701892
1168.0,0.02179786496966339
1167.0,0.021999939201534938
1166.0,0.022196517764333495
1165.0,0.022402901091446423
1164.0,0.022623075328794838
1163.0,0.0228437938482022
1162.0,0.023068065703849814
1161.0,0.023323362287977555
1160.0,0.023625470323602755
1159.0,0.02396329616290729
1158.0,0.02432636366540725
1157.0,0.024711928142726634
1156.0,0.025092078672584346
1155.0,0.025409412631720422
1154.0,0.025623791270590442
1153.0,0.025735752447621486
1152.0,0.025757303822115236
1151.0,0.02569923291443234
1150.0,0.02559680376572567
1149.0,0.025503522191557784
1148.0,0.025442517968538553
1147.0,0.025396450439630954
1146.0,0.0253524107468539
1145.0,0.025321108850426228
1144.0,0.025305301359767975
1143.0,0.025288823183848612
1142.0,0.025268416193643197
1141.0,0.025260255124084346
1140.0,0.02526448348505821
1139.0,0.025259471189080705
1138.0,0.025241003107665142
1137.0,0.02523042224988186
1136.0,0.025234693206861836
1135.0,0.02523578188601297
1134.0,0.02522847681336671
1133.0,0.025229990591600217
1132.0,0.02524276420889557
1131.0,0.025246728534756062
1130.0,0.025238743498460538
1129.0,0.025241300988411132
1128.0,0.025261065332098532
1127.0,0.025276988185700802
1126.0,0.025280850165873083
1125.0,0.025291144184695052
1124.0,0.025315707991401377
1123.0,0.02533997721199061
1122.0,0.025363441751079213
1121.0,0.025407424139631877
1120.0,0.025474481641900238
1119.0,0.025539505969699988
1118.0,0.025592642829181316
1117.0,0.025651640246459127
1116.0,0.025720354618254383
1115.0,0.025775730286615738
1114.0,0.025808501264991436
1113.0,0.02583525362102821
1112.0,0.025856647720658866
1111.0,0.02584689379803909
1110.0,0.02579999136938172
1109.0,0.025743531307479486
1108.0,0.025691313891005273
1107.0,0.02562450938394921
1106.0,0.025533356206761622
1105.0,0.02543598268336183
1104.0,0.02534177915932337
1103.0,0.025235712633280546
1102.0,0.025111862673762884
1101.0,0.024983955747970413
1100.0,0.024851854856183304
1099.0,0.02469650006021723
1098.0,0.024517101070852986
1097.0,0.02433576056705965
1096.0,0.024155760237663644
1095.0,0.02395489701302298
1094.0,0.02372754710962995
1093.0,0.023493652000423474
1092.0,0.02325920786307989
1091.0,0.023008119477946308
1090.0,0.02273992172067245
1089.0,0.02247593396765235
1088.0,0.02222098317251673
1087.0,0.021957826335523855
1086.0,0.021686472785789675
1085.0,0.021429942201627156
1084.0,0.021193386715212446
1083.0,0.020955537642010514
1082.0,0.020707987428208004
1081.0,0.0204661945837051
1080.0,0.02023522988630097
1079.0,0.020002191491778343
1078.0,0.019770601326779803
1077.0,0.01956671439606469
1076.0,0.019402768924933856
1075.0,0.019265600927754332
1074.0,0.019147599370758318
1073.0,0.019055811894072613
1072.0,0.01898229070465817
1071.0,0.01889706568416443
1070.0,0.018779431345650334
1069.0,0.0186278227056371
1068.0,0.018434625337298696
1067.0,0.01818439970899073
1066.0,0.017884033427089562
1065.0,0.017563906725686057
1064.0,0.01724330656581388
1063.0,0.016922181482140926
1062.0,0.0166083854605554
1061.0,0.016322859992822184
1060.0,0.01607260912448015
1059.0,0.015845053577855334
1058.0,0.015633946126792315
1057.0,0.015446701692151553
1056.0,0.01528279196471137
1055.0,0.015129691173503525
1054.0,0.014985628435503863
1053.0,0.0148637920481127
1052.0,0.014766982260257312
1051.0,0.0146796433824538
1050.0,0.014592096103833175
1049.0,0.01450885627258359
1048.0,0.014427987828241642
1047.0,0.014339472465417443
1046.0,0.01424674704643063
1045.0,0.014164019380318395
1044.0,0.01409131472800712
1043.0,0.014014248487827804
1042.0,0.013929143424601866
1041.0,0.013849195517133595
1040.0,0.01378663653277152
1039.0,0.013750682843321777
1038.0,0.013765937143256546
1037.0,0.013873608026208085
1036.0,0.01410939107506061
1035.0,0.014490213723517473
1034.0,0.015015013238750385
1033.0,0.015655440480198023
1032.0,0.01634250445712237
1031.0,0.01698380405486679
1030.0,0.017502774425685375
1029.0,0.017844846629389916
1028.0,0.01795262305251925
1027.0,0.017779756723706724
1026.0,0.017346082419076012
1025.0,0.016745354854093498
1024.0,0.01608361160171758
1023.0,0.01543044747840564
1022.0,0.014823876369601802
1021.0,0.014284419722990162
1020.0,0.013811540373966796
1019.0,0.013388828323289484
1018.0,0.013005487869341002
1017.0,0.012662387508156578
1016.0,0.01235669628904292
1015.0,0.012078109626500954
1014.0,0.011823706264631762
1013.0,0.01160071770008605
1012.0,0.011410727764269851
1011.0,0.011245176475366032
1010.0,0.01110001322802899
1009.0,0.010982154205691558
1008.0,0.010898291320526587
1007.0,0.010848373019235885
1006.0,0.01083014406929251
1005.0,0.010834353792420674
1004.0,0.010830797112244913
1003.0,0.010774299443631386
1002.0,0.010635174308810443
1001.0,0.010418774161994462
1000.0,0.010155407164855246
999.0,0.009882443755095276
998.0,0.009633833525079747
997.0,0.009429214387203703
996.0,0.009266204738495997
995.0,0.009130417399225578
994.0,0.009014234866644155
993.0,0.008919056508593615
992.0,0.008842630486161225
991.0,0.008777681466125455
990.0,0.008724449545952044
989.0,0.008692080987939072
988.0,0.008684611168459488
987.0,0.008696167985185424
986.0,0.00872232687581983
985.0,0.00876515368240094
984.0,0.008823295480801371
983.0,0.008887056668475378
982.0,0.008947484373766103
981.0,0.009001540139473931
980.0,0.00904494072447402
979.0,0.009069830763588927
978.0,0.009074447988956895
977.0,0.009066948021428541
976.0,0.009056642507551614
975.0,0.00905007829751461
974.0,0.009057725770609473
973.0,0.009094666326911357
972.0,0.009170735192059716
971.0,0.009286670728153774
970.0,0.009440949446848153
969.0,0.009631933750760798
968.0,0.009851172945726287
967.0,0.010083011045922753
966.0,0.01031361330066331
965.0,0.010532766885005158
964.0,0.01072650342274454
963.0,0.010880298395184219
962.0,0.010993520728958043
961.0,0.011080073332102064
960.0,0.011152508148524976
959.0,0.011217024753141626
958.0,0.011284533390150125
957.0,0.011371294791743152
956.0,0.011483909914531227
955.0,0.011615903222743145
954.0,0.01176316846654688
953.0,0.011930881325177813
952.0,0.012121306302931137
951.0,0.0123276581609565
950.0,0.012545218118288421
949.0,0.012776160969799019
948.0,0.013017911393516242
947.0,0.013258689722278783
946.0,0.01348991638817731
945.0,0.013711584045485324
944.0,0.013921231074397702
943.0,0.014110162191422143
942.0,0.014274557821701624
941.0,0.014417410409664684
940.0,0.014536570281001452
939.0,0.014625341170635634
938.0,0.014687655607829943
937.0,0.01473678805737609
936.0,0.01477596490787014
935.0,0.014796466691754552
934.0,0.014797434175005017
933.0,0.014790261249632411
932.0,0.014780307639231492
931.0,0.014761845575886215
930.0,0.014734556437931175
929.0,0.014707557564353843
928.0,0.014683255024507657
927.0,0.014654260235627041
926.0,0.01461997041929017
925.0,0.0145890207963392
924.0,0.01456166338315221
923.0,0.014527410885901702
922.0,0.01448421964516995
921.0,0.014442692897497928
920.0,0.014407670356376232
919.0,0.014373897343103556
918.0,0.01434466756270196
917.0,0.01433717311441412
916.0,0.014363998226780732
915.0,0.014425243298558717
914.0,0.01452267034558297
913.0,0.014663303448061698
912.0,0.014841384092613085
911.0,0.01503176671569537
910.0,0.015207298329818094
909.0,0.015347187795024335
908.0,0.015423767068051385
907.0,0.015401902856438592
906.0,0.015261598356567247
905.0,0.015005213527026906
904.0,0.014638608887141066
903.0,0.014166050215924191
902.0,0.01360812156235275
901.0,0.013003139263658207
900.0,0.012384827451695408
899.0,0.011774202328207391
898.0,0.011192120724627323
897.0,0.010659576860993494
896.0,0.01018155357084457
895.0,0.009745978002306043
894.0,0.009341916202258538
893.0,0.008967253404186094
892.0,0.008618483441811872
891.0,0.008286872916797446
890.0,0.007967619483515419
889.0,0.007662098685308987
888.0,0.007369401071982786
887.0,0.007085508649645148
886.0,0.006811482671920316
885.0,0.006552677018828401
884.0,0.006309441284862574
883.0,0.006077481864805394
882.0,0.005856327541802188
881.0,0.005647565602259753
880.0,0.005446085974832121
879.0,0.005244304400797701
878.0,0.00504463493671703
877.0,0.0048564575170904276
876.0,0.004681082988961036
875.0,0.00451103189961552
874.0,0.004343675231684357
873.0,0.004184064807477848
872.0,0.004034311474418071
871.0,0.003890870223804222
870.0,0.0037521833635347193
869.0,0.0036194704843891356
868.0,0.0034908989618628065
867.0,0.0033643571003336304
866.0,0.0032447341352655544
865.0,0.0031389036452351914
864.0,0.003044218955078778
863.0,0.0029512270877161523
862.0,0.002857641692700805
861.0,0.0027705213175775304
860.0,0.002694141838046881
859.0,0.00262470007190478
858.0,0.002558228617148674
857.0,0.002495635363703443
856.0,0.0024386422040996018
855.0,0.0023888930172678603
854.0,0.002353231585542333
853.0,0.0023423516655396706
852.0,0.00236115188099367
851.0,0.0024057009945860756
850.0,0.002471067738487721
849.0,0.0025559935393704354
848.0,0.0026576172896911085
847.0,0.0027677687438405377
846.0,0.002877802051768359
845.0,0.002982199543003595
844.0,0.0030748771386925897
843.0,0.0031468721053404024
842.0,0.0031899524748505753
841.0,0.003198196847029018
840.0,0.0031658996378589
839.0,0.003090364544462387
838.0,0.002977318883786482
837.0,0.0028374455430352904
836.0,0.002678586719518457
835.0,0.0025079983950104614
834.0,0.002339290638230507
833.0,0.002187565689599311
832.0,0.0020581052790166776
831.0,0.0019474719806294373
830.0,0.001854334701454106
829.0,0.0017806408558693652
828.0,0.0017230584256852615
827.0,0.0016740029388734167
826.0,0.0016327201993727091
825.0,0.0016043044649135933
824.0,0.0015856711452194088
823.0,0.001564983649481022
822.0,0.0015377434323335698
821.0,0.0015111498337208851
820.0,0.0014911306683965703
819.0,0.001476446852002901
818.0,0.0014654847530811595
817.0,0.0014582171641405219
816.0,0.001450485356024262
815.0,0.0014355693463935885
814.0,0.0014139019866513769
813.0,0.0013938192984901663
812.0,0.0013804928279283143
811.0,0.0013708795918004697
810.0,0.0013611769816201426
809.0,0.0013523730758583184
808.0,0.0013462711337868904
807.0,0.0013419455202316349
806.0,0.0013378366196493154
805.0,0.001332435121169525
804.0,0.0013231579963045408
803.0,0.0013105553562914542
802.0,0.0013024141959335485
801.0,0.0013057455584586147
800.0,0.0013153756379957638
799.0,0.0013194073870870598
798.0,0.001316400813506089
797.0,0.0013176718644170745
796.0,0.0013312074823229423
795.0,0.001353708037449507
794.0,0.0013814452070131798
793.0,0.001418832503534919
792.0,0.0014713005169284595
791.0,0.0015378511296784817
790.0,0.001615664396785653
789.0,0.0017053432116804729
788.0,0.001807056313081849
787.0,0.0019175121581837178
786.0,0.002034980883438773
785.0,0.0021621550327139472
784.0,0.002301542245615426
783.0,0.002454895908465002
782.0,0.002630446971516429
781.0,0.0028434928131836896
780.0,0.003105547017135749
779.0,0.0034185571784481647
778.0,0.003782392880195113
777.0,0.004200963574818925
776.0,0.0046775026551045505
775.0,0.005211244496823032
774.0,0.005802763306261514
773.0,0.0064550051286575965
772.0,0.007165172026196245
771.0,0.00792415411572482
770.0,0.008726817458551332
769.0,0.00957004534823251
768.0,0.010435516172622644
767.0,0.011291458035754477
766.0,0.012122736691911532
765.0,0.01294482513740089
764.0,0.013779089043035452
763.0,0.01463156762096801
762.0,0.015502762065983347
761.0,0.01639248472963945
760.0,0.01727752333868218
759.0,0.01810429236147148
758.0,0.018821032781844903
757.0,0.0194012374299688
756.0,0.01982839575207908
755.0,0.02009042955938355
754.0,0.02020903398134726
753.0,0.02024696178115556
752.0,0.02026729934326844
751.0,0.020304500854675733
750.0,0.02037401967882327
749.0,0.02046814648059612
748.0,0.02052235445410715
747.0,0.020417410810960716
746.0,0.020045300882556235
745.0,0.01936895973519816
744.0,0.01842136235372664
743.0,0.017279623719003743
742.0,0.01604701533441903
741.0,0.014821849694909833
740.0,0.013658305671394505
739.0,0.012563322196170333
738.0,0.011528063455563868
737.0,0.010544345368566181
736.0,0.009595686004368357
735.0,0.008661495046078068
734.0,0.007741441626629893
733.0,0.006862041979986201
732.0,0.006055172781758138
731.0,0.005341204808657522
730.0,0.004729408494281818
729.0,0.004215659264090759
728.0,0.0037762769442082475
727.0,0.003381048509148995
726.0,0.0030185457529647137
725.0,0.0026958245607182057
724.0,0.0024114666868158097
723.0,0.0021460177417727717
722.0,0.0018840483145295037
721.0,0.0016302750985492341
720.0,0.001396875142765488
719.0,0.0011887323820620767
718.0,0.0010104276559581887
717.0,0.0008750579570119308
716.0,0.0007974190607968789
715.0,0.0007902295320210267
714.0,0.0008764634751598869
713.0,0.0010974254964983003
712.0,0.0015022301987847831
711.0,0.0021403768963507417
710.0,0.003072357383003638
709.0,0.004374254137188135
708.0,0.006117360658250215
707.0,0.008348956174705888
706.0,0.011103095346975895
705.0,0.01441728564423841
704.0,0.01831912937102161
703.0,0.02280776459000889
702.0,0.027868900741936733
701.0,0.03348990791716139
700.0,0.039626635877791104
699.0,0.04614709926575545
698.0,0.05276360235083468
697.0,0.058879783033500464
696.0,0.06342041616640536
695.0,0.0650366310496231
694.0,0.0629195856634274
693.0,0.05754586240692825
692.0,0.05041518174143292
691.0,0.04309451673005236
690.0,0.0365815336314327
689.0,0.0312586846604577
688.0,0.02710188538740421
687.0,0.02389896055134528
686.0,0.021412950394749775
685.0,0.019454972622447584
684.0,0.017876840284467205
683.0,0.016559538688397216
682.0,0.01542939219237328
681.0,0.014456317786127543
680.0,0.013617624238714406
679.0,0.012878680270657486
678.0,0.012216448776312085
677.0,0.011633889779654908
676.0,0.01112899109214051
675.0,0.010676889060690949
674.0,0.010256560624391705
673.0,0.009872394016933376
672.0,0.00953367260070504
671.0,0.009225788692549607
670.0,0.00891088477479734
669.0,0.008534862083207246
668.0,0.008101608134647508
667.0,0.007737511722358937
666.0,0.0074834512261172945
665.0,0.00727043237361507
664.0,0.00704734681922669
663.0,0.0067880548348415075
662.0,0.006503601508265403
661.0,0.0062323459154608515
660.0,0.005990415774246342
659.0,0.00575864136365775
658.0,0.00552183486810614
657.0,0.005291260682641779
656.0,0.005076161514102053
655.0,0.004868641299249958
654.0,0.004665644213372981
653.0,0.004480392300837323
652.0,0.0043205251071492725
651.0,0.004174406367655976
650.0,0.004030060990443012
649.0,0.0038895360300557377
648.0,0.003753659773030912
647.0,0.0036143813291264863
646.0,0.0034739406421200806
645.0,0.0033479569239595166
644.0,0.0032377687207637246
643.0,0.0031221946737190497
642.0,0.0029908431550226726
641.0,0.0028644564137614197
640.0,0.0027661677527085083
639.0,0.0026944316380318437
638.0,0.002639771021286736
637.0,0.0026059558530154027
636.0,0.0025926238746635313
635.0,0.002577625893706813
634.0,0.002541101144283843
633.0,0.0024892045461483744
632.0,0.0024340527393135673
631.0,0.0023769994682869707
630.0,0.002327625701699321
629.0,0.0023067728420236066
628.0,0.0023099686415818683
627.0,0.002294025757159963
626.0,0.002223455804617268
625.0,0.0021098602999380413
624.0,0.0019830350713746507
623.0,0.0018581540990794886
622.0,0.001750145032881719
621.0,0.0016707369610671353
620.0,0.0015928188203457433
619.0,0.0014716593186661234
618.0,0.001327238419911209
617.0,0.0012416509664536788
616.0,0.00124675260783572
615.0,0.0012868924519007932
614.0,0.001312891665316759
613.0,0.0013330318238460013
612.0,0.0013473980536293
611.0,0.0013228322702311392
610.0,0.0012706034950931088
609.0,0.0012639931267280557
608.0,0.0013330346702458038
607.0,0.0014150675389117563
606.0,0.0014522273986248974
605.0,0.0014706901613321837
604.0,0.0015112433151859377
603.0,0.0015609137667397127
602.0,0.0016038078821700205
601.0,0.0016644173467805104
600.0,0.0017498277932379651
599.0,0.0018150579040386039
598.0,0.0018370219738420765
597.0,0.0018558689526713087
596.0,0.0018968426885641577
595.0,0.0019260426942045057
594.0,0.0019270487751085117
593.0,0.0019418329229480787
592.0,0.001977007336967342
591.0,0.001957340254985401
590.0,0.0018515894619313463
589.0,0.001738779536285034
588.0,0.0016750748907476123
587.0,0.001612923968579339
586.0,0.0015025543539647459
585.0,0.0013836716842301796
584.0,0.0013053727230952724
583.0,0.0012467946022920748
582.0,0.0011885027613929044
581.0,0.001165006651589658
580.0,0.001165351915481315
579.0,0.0010899354733309389
578.0,0.0009065321764062161
577.0,0.0007302978840469142
576.0,0.0006628445627714185
575.0,0.0006769429951181003
574.0,0.0007263640662099322
573.0,0.0008427193194706936
572.0,0.0010213432393279633
571.0,0.0011422374888982202
570.0,0.001131950632772996
569.0,0.0010922884213137676
568.0,0.0011181228504390287
567.0,0.0011564517164568693
566.0,0.0011653168766044884
565.0,0.0012215128428409686
564.0,0.001347770223738913
563.0,0.001419472906608543
562.0,0.0013681873311084762
561.0,0.001311567007385482
560.0,0.0013402711763486174
559.0,0.0013763500011706625
558.0,0.001360742025335252
557.0,0.001378542229502806
556.0,0.0014548043137628057
555.0,0.0014372394672436547
554.0,0.0012545907099592555
553.0,0.001079868841790873
552.0,0.0010505770495724842
551.0,0.001066295555558751
550.0,0.000995258536158116
