cm-1,A
4000.0,0.0033532834857481486
3999.0,0.003358179999911433
3998.0,0.003360279710259102
3997.0,0.003352846836466824
3996.0,0.003335938970301243
3995.0,0.0033186471764225303
3994.0,0.003312357868129393
3993.0,0.0033218111384114425
3992.0,0.003341908323812933
3991.0,0.003363129389468911
3990.0,0.0033789827883718704
3989.0,0.0033893741261168124
3988.0,0.003398258339084822
3987.0,0.00340847205700486
3986.0,0.003419438003479596
3985.0,0.003428305821163883
3984.0,0.003432706664493829
3983.0,0.0034330836428038483
3982.0,0.0034323091197345037
3981.0,0.0034325968058422467
3980.0,0.003431385628527685
3979.0,0.0034219059040407635
3978.0,0.0033986982731326215
3977.0,0.0033638208613186752
3976.0,0.00332961483582544
3975.0,0.003310991109747693
3974.0,0.0033150035785558833
3973.0,0.0033361991502742026
3972.0,0.00336185766844097
3971.0,0.003382373231061809
3970.0,0.0033947711156220753
3969.0,0.003400477989397562
3968.0,0.0034000522317818166
3967.0,0.0033923973084798585
3966.0,0.0033784202716177695
3965.0,0.0033621771749770446
3964.0,0.0033490125224497824
3963.0,0.003342136204814549
3962.0,0.003341379744440757
3961.0,0.003343440248053806
3960.0,0.003343442041205468
3959.0,0.003340728980761729
3958.0,0.0033401299187667396
3957.0,0.003347762283414448
3956.0,0.0033641425981649265
3955.0,0.0033808454817396334
3954.0,0.003388206119565411
3953.0,0.0033842433251454153
3952.0,0.0033734799093539584
3951.0,0.0033619724931831575
3950.0,0.0033537735834576997
3949.0,0.003352857507520164
3948.0,0.0033634419180931605
3947.0,0.0033861493471326882
3946.0,0.003418113863149819
3945.0,0.00344625145958638
3944.0,0.003453542302721409
3943.0,0.0034397552422847006
3942.0,0.0034200362273675102
3941.0,0.0034091894823908833
3940.0,0.003410233651679104
3939.0,0.0034160396810925834
3938.0,0.0034180045426792397
3937.0,0.00341258124424321
3936.0,0.0034005385501668407
3935.0,0.0033810626772814915
3934.0,0.0033558484610767443
3933.0,0.003333994107311524
3932.0,0.003331531843361447
3931.0,0.00335299784118481
3930.0,0.0033858673249830915
3929.0,0.003419983411480792
3928.0,0.003448176387867684
3927.0,0.0034595306385342547
3926.0,0.0034425548495889808
3925.0,0.0034084634665382217
3924.0,0.003388375887524704
3923.0,0.0033927677840637077
3922.0,0.003404361952136746
3921.0,0.003400481541619076
3920.0,0.003376663797775346
3919.0,0.0033544804178216956
3918.0,0.0033576952759900498
3917.0,0.003389349857452016
3916.0,0.0034311774936640785
3915.0,0.0034646119240186947
3914.0,0.003484189003822212
3913.0,0.0034908255681102263
3912.0,0.003487557825106559
3911.0,0.003481971441011843
3910.0,0.003477963903957655
3909.0,0.0034729232855838957
3908.0,0.003455788167475064
3907.0,0.0034084302721481613
3906.0,0.003317998096943566
3905.0,0.0032066967154590954
3904.0,0.0031377359393389495
3903.0,0.0031534609667457475
3902.0,0.003228788924487856
3901.0,0.003304045989724006
3900.0,0.003342874537070331
3899.0,0.0033503634001637605
3898.0,0.003352432242039412
3897.0,0.0033663637421854553
3896.0,0.003387173132008998
3895.0,0.0034027958582253143
3894.0,0.003404549151161654
3893.0,0.003391944735932267
3892.0,0.0033768088549427848
3891.0,0.0033704297828330045
3890.0,0.003373909764457894
3889.0,0.003391907258451329
3888.0,0.0034146436842226657
3887.0,0.003408943751593708
3886.0,0.003368582863385252
3885.0,0.0033423986734234857
3884.0,0.0033668476158358676
3883.0,0.003427807176715329
3882.0,0.0034811550025873137
3881.0,0.0034945467254676194
3880.0,0.0034755466497972225
3879.0,0.003455317929028775
3878.0,0.0034631771462224977
3877.0,0.0035005524305667026
3876.0,0.0035292967721553426
3875.0,0.0035058524166595058
3874.0,0.0034368741995708884
3873.0,0.0033733589766723727
3872.0,0.003343395753833637
3871.0,0.0033293094802703685
3870.0,0.0033116754777318042
3869.0,0.0033016590831695235
3868.0,0.0033231114114160637
3867.0,0.0033746483995929486
3866.0,0.0034083379235069176
3865.0,0.0033874255029933908
3864.0,0.003338140216433825
3863.0,0.003308138697541761
3862.0,0.0033084671032816626
3861.0,0.003326271483219425
3860.0,0.0033417037822400224
3859.0,0.003334526621357393
3858.0,0.003296454276966882
3857.0,0.0032457363464279245
3856.0,0.003214968638616733
3855.0,0.0032096490768241414
3854.0,0.0032055142191848183
3853.0,0.003228189389125141
3852.0,0.0032727470188864583
3851.0,0.0033135113487115027
3850.0,0.0033429573666698344
3849.0,0.003358284089339551
3848.0,0.003366704806027258
3847.0,0.0033792440655327073
3846.0,0.0033946622744939208
3845.0,0.0034042774433420053
3844.0,0.0034011437705348474
3843.0,0.003386398511601406
3842.0,0.003368700816465611
3841.0,0.0033586145743672202
3840.0,0.003363473302100282
3839.0,0.0033920828017905136
3838.0,0.003433145115278371
3837.0,0.0034553682253653135
3836.0,0.0034451803933456824
3835.0,0.0034157990250762273
3834.0,0.003383648686266017
3833.0,0.0033605119217193654
3832.0,0.003356220014643586
3831.0,0.003375459587957135
3830.0,0.0034114816430074572
3829.0,0.003447169376838302
3828.0,0.003456595077668768
3827.0,0.0034231454419040436
3826.0,0.0033626754888212654
3825.0,0.0033156148706527714
3824.0,0.0033105331121724476
3823.0,0.003330379854934528
3822.0,0.003322052842181611
3821.0,0.0032908061722279128
3820.0,0.003282668623564877
3819.0,0.0033116475366449408
3818.0,0.003360866109780582
3817.0,0.003391280136841566
3816.0,0.0033841155453688413
3815.0,0.003358939809697597
3814.0,0.003344243721307429
3813.0,0.003341735423472555
3812.0,0.0033337736075443546
3811.0,0.0033172686842398145
3810.0,0.0033088064511731827
3809.0,0.0033103730673407217
3808.0,0.003298424306049998
3807.0,0.0032696338365020257
3806.0,0.003260432210182266
3805.0,0.0033036116951439447
3804.0,0.0033837033550218874
3803.0,0.003438700639425754
3802.0,0.0034286652457384964
3801.0,0.003387277459972736
3800.0,0.0033578706366064453
3799.0,0.003352246521832285
3798.0,0.0033541397070756458
3797.0,0.0033428763984579917
3796.0,0.0033206073658046415
3795.0,0.003305414445245066
3794.0,0.0033061309721329054
3793.0,0.003312185724956633
3792.0,0.0033094457361144817
3791.0,0.003298184911268542
3790.0,0.003289931901857566
3789.0,0.0032934446190216664
3788.0,0.0033077874461341678
3787.0,0.00332471122891842
3786.0,0.0033368512460282126
3785.0,0.003346411231630145
3784.0,0.0033629685919543597
3783.0,0.003394343787100045
3782.0,0.003436772829918842
3781.0,0.003466165771211164
3780.0,0.0034592141428441145
3779.0,0.0034247738142726895
3778.0,0.0033895500477101365
3777.0,0.003368846831909144
3776.0,0.003357767179905635
3775.0,0.0033454626366985585
3774.0,0.0033331128433016287
3773.0,0.0033285286359016767
3772.0,0.0033250314470221884
3771.0,0.0033070813941464944
3770.0,0.003281848482654909
3769.0,0.0032766591857693117
3768.0,0.0033006952032359413
3767.0,0.003331829286914985
3766.0,0.0033411635691149074
3765.0,0.003325318361288852
3764.0,0.003310396180177271
3763.0,0.0033246801472363438
3762.0,0.003365651198862337
3761.0,0.0034004712631617215
3760.0,0.0034045706739784976
3759.0,0.0033879285079070455
3758.0,0.0033712259225061577
3757.0,0.003362661637021589
3756.0,0.0033671843656443994
3755.0,0.0033804002107631448
3754.0,0.0033772207017057176
3753.0,0.0033177024095030097
3752.0,0.00320332963392507
3751.0,0.0031138007497222404
3750.0,0.003087593782901011
3749.0,0.0030809457580770003
3748.0,0.003080529451452498
3747.0,0.00310296996751512
3746.0,0.003139033096985828
3745.0,0.0031605814016066637
3744.0,0.003170352647075915
3743.0,0.003201593303116722
3742.0,0.0032604449341015664
3741.0,0.0033151793671874962
3740.0,0.003345966250906252
3739.0,0.003370237622688224
3738.0,0.003404491339777575
3737.0,0.0034251558953798454
3736.0,0.0034169713144828824
3735.0,0.003407501547330466
3734.0,0.0034023373350843384
3733.0,0.0033820308602515573
3732.0,0.003347130441995232
3731.0,0.003314111351705175
3730.0,0.0032961202207118577
3729.0,0.003291508031184324
3728.0,0.0032856272832531134
3727.0,0.0032760111904365503
3726.0,0.0032864360302257544
3725.0,0.0033352915200899292
3724.0,0.003407632049967491
3723.0,0.0034713325272780816
3722.0,0.003508630958965426
3721.0,0.00352269638919794
3720.0,0.003523192785003203
3719.0,0.0035160603708182833
3718.0,0.0035034655859393273
3717.0,0.0034941175281565456
3716.0,0.0035030905070387404
3715.0,0.0035328717792363793
3714.0,0.003563381572821917
3713.0,0.0035690986055755187
3712.0,0.003570191955941481
3711.0,0.003622353809232996
3710.0,0.00371150932581819
3709.0,0.00378784058799382
3708.0,0.003841490470442785
3707.0,0.003887966983355779
3706.0,0.003947577422466918
3705.0,0.004033962014522039
3704.0,0.0041442857404473754
3703.0,0.004257749153613679
3702.0,0.00435235365733998
3701.0,0.004420999570905221
3700.0,0.004473541915057238
3699.0,0.004524975437627305
3698.0,0.0045752875229805885
3697.0,0.004611482328061741
3696.0,0.004630059624999182
3695.0,0.004643285593441251
3694.0,0.0046634063618789705
3693.0,0.004690349755988248
3692.0,0.004705073533074713
3691.0,0.004684216135458967
3690.0,0.0046299403451934545
3689.0,0.0045640929485422895
3688.0,0.004497110694868291
3687.0,0.004450530536123522
3686.0,0.004445570831333239
3685.0,0.004469775390324659
3684.0,0.004494768188114807
3683.0,0.004509818679775271
3682.0,0.004522566005091614
3681.0,0.00453499631114749
3680.0,0.0045446642613754425
3679.0,0.004566025310173009
3678.0,0.004621194040953045
3677.0,0.004697952937142227
3676.0,0.004759701191810732
3675.0,0.0047881318736275715
3674.0,0.004791820656288798
3673.0,0.004815937755471308
3672.0,0.0048652982862940055
3671.0,0.004915650924978515
3670.0,0.0049775011013118275
3669.0,0.005054451208854599
3668.0,0.005120164597549109
3667.0,0.005173590835474078
3666.0,0.005220067661956156
3665.0,0.005261331401700395
3664.0,0.005301797029795827
3663.0,0.005347262182228097
3662.0,0.0053983958072079665
3661.0,0.005450919812496787
3660.0,0.005504490777529645
3659.0,0.005563894609997322
3658.0,0.00563494700535982
3657.0,0.005715933522928378
3656.0,0.005801309672849973
3655.0,0.005887503893345906
3654.0,0.0059853023110539106
3653.0,0.006108130979125433
3652.0,0.006238380244901802
3651.0,0.006331526439150779
3650.0,0.006403602385726686
3649.0,0.006542674160557381
3648.0,0.006701939361618305
3647.0,0.00678402636378001
3646.0,0.006804413632226522
3645.0,0.006820595751389675
3644.0,0.006861139591681889
3643.0,0.006928977235252764
3642.0,0.007018537189855869
3641.0,0.007121240202325051
3640.0,0.007222909926185859
3639.0,0.007306257209726321
3638.0,0.007368010028693914
3637.0,0.007425597332207071
3636.0,0.007498200895943049
3635.0,0.0075828742643823735
3634.0,0.0076602972897625845
3633.0,0.0077208508380846265
3632.0,0.0077763782156737805
3631.0,0.007846596894111034
3630.0,0.007949545898035044
3629.0,0.008114701180862402
3628.0,0.008309159301170056
3627.0,0.008466088848008913
3626.0,0.008591202665495755
3625.0,0.008704149215303797
3624.0,0.008816608541923267
3623.0,0.008943463242229456
3622.0,0.00909669767145636
3621.0,0.009267693748445067
3620.0,0.009427887070701442
3619.0,0.009551871444808898
3618.0,0.009636206606267326
3617.0,0.009703455104955622
3616.0,0.00977748786880067
3615.0,0.009860177065694632
3614.0,0.009938606819556302
3613.0,0.010000336148039567
3612.0,0.010048916367820095
3611.0,0.010112637980975465
3610.0,0.010225992804344379
3609.0,0.01039530483559961
3608.0,0.010583925939538724
3607.0,0.01074061959923898
3606.0,0.010852256012928998
3605.0,0.010944906401802417
3604.0,0.011042764830211
3603.0,0.011147782827659262
3602.0,0.011251958621755593
3601.0,0.011349474621024485
3600.0,0.011437908782139353
3599.0,0.01151581069706262
3598.0,0.011586425773217574
3597.0,0.011655242720566132
3596.0,0.011724003157499722
3595.0,0.011788018280736954
3594.0,0.01184323640433096
3593.0,0.011891838959676224
3592.0,0.011944550955020998
3591.0,0.01201972045829442
3590.0,0.012127328247495772
3589.0,0.012256436204059433
3588.0,0.012390758821512438
3587.0,0.012516811909469041
3586.0,0.012622288730254743
3585.0,0.012722151146863276
3584.0,0.01283890842452282
3583.0,0.012972433374267888
3582.0,0.013111052422989648
3581.0,0.013244860108685376
3580.0,0.01336796009508401
3579.0,0.01347742059161253
3578.0,0.0135762624183121
3577.0,0.013672691140828872
3576.0,0.013772197253313164
3575.0,0.013873663871761862
3574.0,0.01397173620974081
3573.0,0.014064379626220124
3572.0,0.014157747992771643
3571.0,0.014267541960832155
3570.0,0.01440647744200593
3569.0,0.014562432222105837
3568.0,0.014707976771267083
3567.0,0.01483862736857776
3566.0,0.01495635728990053
3565.0,0.015059676991579809
3564.0,0.015162992881870679
3563.0,0.015276723852285113
3562.0,0.015395944042647379
3561.0,0.015513108847487807
3560.0,0.015627434965651544
3559.0,0.015744506049975245
3558.0,0.015869519433171046
3557.0,0.01600186983439079
3556.0,0.016135504810057582
3555.0,0.016266099052090498
3554.0,0.016396232292144524
3553.0,0.016531133545128054
3552.0,0.01666438747613865
3551.0,0.01678015298060806
3550.0,0.016873028979368543
3549.0,0.016949933637643567
3548.0,0.01702089219853165
3547.0,0.017101973535926896
3546.0,0.01721331432069552
3545.0,0.01735860981984181
3544.0,0.017518346708925877
3543.0,0.01767381595503178
3542.0,0.017819559297830172
3541.0,0.01795538553747702
3540.0,0.018080349936942377
3539.0,0.01819639880359576
3538.0,0.018313357029086434
3537.0,0.018443076326235333
3536.0,0.01858645797301595
3535.0,0.01873160674703585
3534.0,0.018869863160688335
3533.0,0.019000877933212312
3532.0,0.019125830806750906
3531.0,0.019244138818165675
3530.0,0.01935588991087466
3529.0,0.019461898849247258
3528.0,0.01956123679809127
3527.0,0.019654508237071953
3526.0,0.019749988076528117
3525.0,0.01986138012332988
3524.0,0.019997123686208217
3523.0,0.02015252149376974
3522.0,0.020313292956083088
3521.0,0.02046667152163524
3520.0,0.020606768531610125
3519.0,0.020734121405589032
3518.0,0.020855943277905763
3517.0,0.02097985579819808
3516.0,0.02110563670044611
3515.0,0.021226314316768833
3514.0,0.0213383553728769
3513.0,0.021445620298901354
3512.0,0.02155444955080568
3511.0,0.02167002115231531
3510.0,0.021795014087446773
3509.0,0.02192500938322984
3508.0,0.022049830786343254
3507.0,0.022165321322203908
3506.0,0.02227681418185544
3505.0,0.022389195990709748
3504.0,0.022501790661029676
3503.0,0.02261394321083206
3502.0,0.022729915186706615
3501.0,0.02285651853407575
3500.0,0.022995044399372635
3499.0,0.02313739609980407
3498.0,0.023274669396262503
3497.0,0.023406258065127288
3496.0,0.023536471756074786
3495.0,0.02366608692043606
3494.0,0.023792578814198644
3493.0,0.023916097447325407
3492.0,0.024041203413830998
3491.0,0.024172431457902592
3490.0,0.024308518660430854
3489.0,0.02444016172820409
3488.0,0.02455633288354024
3487.0,0.02465682119351613
3486.0,0.024755674791497623
3485.0,0.024866923902661053
3484.0,0.024989909855705462
3483.0,0.02511265168550609
3482.0,0.02522711166250967
3481.0,0.02533527688515401
3480.0,0.025443034490131633
3479.0,0.02555641606918209
3478.0,0.025681356799417018
3477.0,0.02581894202965741
3476.0,0.02595983106326556
3475.0,0.02608891260217714
3474.0,0.026197445469285326
3473.0,0.026288397736074484
3472.0,0.02637213301390102
3471.0,0.026461575593901446
3470.0,0.026568282987769313
3469.0,0.02669442616603011
3468.0,0.02682784995638733
3467.0,0.026953334263138392
3466.0,0.027069880995951243
3465.0,0.02718911274842526
3464.0,0.027316918329275353
3463.0,0.027444450338541333
3462.0,0.027559139094766136
3461.0,0.02765836911748278
3460.0,0.027750087175926197
3459.0,0.027845911981055314
3458.0,0.027955544955821
3457.0,0.02808025103536205
3456.0,0.0282098622201401
3455.0,0.02833049779326427
3454.0,0.028438398566268255
3453.0,0.028542120855990078
3452.0,0.02865163860080843
3451.0,0.028769326525734863
3450.0,0.02889024181310754
3449.0,0.029005445978353687
3448.0,0.029105982381495636
3447.0,0.029190323798784355
3446.0,0.02926897915865196
3445.0,0.029358314950428125
3444.0,0.029466650444391944
3443.0,0.02958678814367223
3442.0,0.029703433175612113
3441.0,0.029806368048855003
3440.0,0.029896530088582406
3439.0,0.029981888833405548
3438.0,0.030070292723219753
3437.0,0.03016542336950166
3436.0,0.030267893839735743
3435.0,0.030376946458388187
3434.0,0.030488833750603326
3433.0,0.030593476230529812
3432.0,0.030679083640122125
3431.0,0.03074424019950038
3430.0,0.030802039798566067
3429.0,0.030868703870610147
3428.0,0.030949042398785192
3427.0,0.031035122975908044
3426.0,0.031116072920257927
3425.0,0.031186723528341124
3424.0,0.031250564021305875
3423.0,0.03131841983989867
3422.0,0.03140135791620067
3421.0,0.03149929107481043
3420.0,0.031598624533460296
3419.0,0.03168598581680827
3418.0,0.0317611012547498
3417.0,0.03183334306460296
3416.0,0.031910494659592364
3415.0,0.03199368314507654
3414.0,0.03207836997523571
3413.0,0.032156931023627114
3412.0,0.032223855550207174
3411.0,0.032282326789077914
3410.0,0.032343197734563366
3409.0,0.03241397084828328
3408.0,0.03249088811283327
3407.0,0.03256493243775205
3406.0,0.032632576332206155
3405.0,0.03269675950441731
3404.0,0.03276065079841888
3403.0,0.03282457631120634
3402.0,0.032887794299395784
3401.0,0.03294881036308739
3400.0,0.033004780246012534
3399.0,0.03305432379508423
3398.0,0.03310086412532659
3397.0,0.03315034899358402
3396.0,0.033205341046369734
3395.0,0.03326323594517566
3394.0,0.03331903308060109
3393.0,0.03336819270467684
3392.0,0.033409278810452525
3391.0,0.03344681887495018
3390.0,0.03348956815174036
3389.0,0.033542513668342294
3388.0,0.033601728352792806
3387.0,0.033658845818799944
3386.0,0.03370939798758716
3385.0,0.03375487676693233
3384.0,0.03379899688596571
3383.0,0.03384452301977966
3382.0,0.03389223755799203
3381.0,0.03393972820036085
3380.0,0.033982426218648866
3379.0,0.034017988205508005
3378.0,0.034047792464310354
3377.0,0.03407307819968474
3376.0,0.03409345084172009
3375.0,0.03411257959628227
3374.0,0.03414076587541547
3373.0,0.03418586516240584
3372.0,0.03424272141583579
3371.0,0.034296320836781406
3370.0,0.03433562870287856
3369.0,0.03436223147514218
3368.0,0.03438622125561019
3367.0,0.034415925064696075
3366.0,0.0344504654971045
3365.0,0.034480319020188104
3364.0,0.03449645380988131
3363.0,0.034500016421978176
3362.0,0.03450119426764634
3361.0,0.034508292658785585
3360.0,0.03452207774245349
3359.0,0.03454173149178425
3358.0,0.0345691939493225
3357.0,0.03460257504503707
3356.0,0.0346314053946867
3355.0,0.0346465530078442
3354.0,0.03465181700253133
3353.0,0.03465874318167921
3352.0,0.034672127456696
3351.0,0.03468711671748834
3350.0,0.03469912885128659
3349.0,0.03470968584723471
3348.0,0.034721772684896915
3347.0,0.03473505300845446
3346.0,0.0347482769028595
3345.0,0.03476275182407184
3344.0,0.034781399753116726
3343.0,0.03480540448527623
3342.0,0.0348319930805112
3341.0,0.03485510198514846
3340.0,0.0348697300260058
3339.0,0.03487692057811053
3338.0,0.03488256289880302
3337.0,0.034890254036856465
3336.0,0.03489847007644809
3335.0,0.034906501607968245
3334.0,0.034918409781801225
3333.0,0.03493708898664766
3332.0,0.03495848345741585
3331.0,0.03497597832540404
3330.0,0.034987304117366204
3329.0,0.0349935821072143
3328.0,0.034995856651394736
3327.0,0.03499745260051067
3326.0,0.03500612917330606
3325.0,0.03502671032669089
3324.0,0.0350530221438766
3323.0,0.03507334512795532
3322.0,0.03508361973793301
3321.0,0.03509006537162328
3320.0,0.03509902032210552
3319.0,0.03510945077286903
3318.0,0.03511664388036426
3317.0,0.03511940978274406
3316.0,0.035122372760006605
3315.0,0.03513301928821833
3314.0,0.03515592629209563
3313.0,0.03518739341583156
3312.0,0.03521630242956984
3311.0,0.03523257695289653
3310.0,0.03523480374090815
3309.0,0.03522948646488195
3308.0,0.035225586078011
3307.0,0.035231023647482325
3306.0,0.035250070351757715
3305.0,0.03527939824785221
3304.0,0.03530841691314357
3303.0,0.03532732336255407
3302.0,0.03533419164336009
3301.0,0.03533249483312149
3300.0,0.03532575826132821
3299.0,0.0353180989127351
3298.0,0.03531556403034507
3297.0,0.03532063915859934
3296.0,0.03532782980204305
3295.0,0.035330542102829994
3294.0,0.03533028085858128
3293.0,0.03533273884578774
3292.0,0.03533549834918379
3291.0,0.03532682954516005
3290.0,0.03529909602131963
3289.0,0.03525835947116238
3288.0,0.0352180858316279
3287.0,0.03518626418557323
3286.0,0.03516004742356714
3285.0,0.03513043644556706
3284.0,0.0350902215136238
3283.0,0.03503894581864371
3282.0,0.03498186006922169
3281.0,0.03492448747372321
3280.0,0.03486859225748615
3279.0,0.03481303761771803
3278.0,0.0347564376669521
3277.0,0.03469709618346477
3276.0,0.03463182681724052
3275.0,0.03455740674448493
3274.0,0.034473464875889946
3273.0,0.03438330745961644
3272.0,0.03429278162449458
3271.0,0.03420814162999474
3270.0,0.034132165506199616
3269.0,0.03406071793319318
3268.0,0.03398521935837203
3267.0,0.03390027142858319
3266.0,0.0338072728282068
3265.0,0.03370978198165213
3264.0,0.03360798754458138
3263.0,0.03350018059327012
3262.0,0.03338709675747771
3261.0,0.0332719742797816
3260.0,0.03315742318376562
3259.0,0.03304431444628543
3258.0,0.03293249383441661
3257.0,0.03282077718892335
3256.0,0.03270825082912342
3255.0,0.03259702163380726
3254.0,0.03249122635767914
3253.0,0.03239118384246027
3252.0,0.0322919411803436
3251.0,0.03219016821552199
3250.0,0.032089302632339764
3249.0,0.03199453283937013
3248.0,0.03190453848227912
3247.0,0.031811781049070446
3246.0,0.03171032037729125
3245.0,0.03160080852292698
3244.0,0.03148848178420043
3243.0,0.03137877231567714
3242.0,0.03127397347601984
3241.0,0.031171404529439964
3240.0,0.0310651023900929
3239.0,0.030951681898602555
3238.0,0.030834374487907417
3237.0,0.030720352351354962
3236.0,0.030615343191593068
3235.0,0.03052080241378119
3234.0,0.030433132537450704
3233.0,0.03034383153912634
3232.0,0.030244387075309687
3231.0,0.03013473403578311
3230.0,0.030024779606691122
3229.0,0.02992486485638747
3228.0,0.02983647988175478
3227.0,0.029753991343420737
3226.0,0.02967205243005843
3225.0,0.0295882540470472
3224.0,0.029501553031815373
3223.0,0.029411982339168162
3222.0,0.029320040085907793
3221.0,0.029224029151027738
3220.0,0.029120558591042425
3219.0,0.029010497528565164
3218.0,0.028900480790385395
3217.0,0.02879465310517521
3216.0,0.028688925887497437
3215.0,0.02857841124669458
3214.0,0.02846711335025882
3213.0,0.028363418779992124
3212.0,0.028267736085884374
3211.0,0.02817152629719639
3210.0,0.028068424889364424
3209.0,0.027961165122466693
3208.0,0.02785652876933615
3207.0,0.027757271278809857
3206.0,0.027659933975201077
3205.0,0.02755868042929166
3204.0,0.027451796637088792
3203.0,0.0273459673993167
3202.0,0.027250712957229025
3201.0,0.02716520340196614
3200.0,0.027073961424089864
3199.0,0.026961617377041263
3198.0,0.02683105406547692
3197.0,0.026700992499728324
3196.0,0.02658563288348383
3195.0,0.026482624524295256
3194.0,0.026380952581499074
3193.0,0.026273557106653293
3192.0,0.026160315247072418
3191.0,0.0260439336313652
3190.0,0.025926916643984863
3189.0,0.025811467396395008
3188.0,0.025699292448230774
3187.0,0.02559050528510222
3186.0,0.025482179002135563
3185.0,0.025368968278621506
3184.0,0.025247668189314804
3183.0,0.025121892190749118
3182.0,0.02499894509704568
3181.0,0.024880478605919146
3180.0,0.024760170368504184
3179.0,0.02463299087673234
3178.0,0.02450252800919381
3177.0,0.02437547020400257
3176.0,0.02425301240484612
3175.0,0.024132154589808566
3174.0,0.02401122954746
3173.0,0.023888750829101343
3172.0,0.02376077288400566
3171.0,0.023626088881990435
3170.0,0.023491733430371912
3169.0,0.023366413410021464
3168.0,0.023249341607821987
3167.0,0.0231322198169185
3166.0,0.0230109940873334
3165.0,0.02288885153976428
3164.0,0.022768217124220908
3163.0,0.022646810498411666
3162.0,0.022522724536888104
3161.0,0.022397745123184723
3160.0,0.02227438074214582
3159.0,0.02215438732329361
3158.0,0.02204058553463569
3157.0,0.021934399286359384
3156.0,0.02183054280556962
3155.0,0.021720047876950144
3154.0,0.021600774638565523
3153.0,0.021480575839127606
3152.0,0.021368234710997785
3151.0,0.02126468252274948
3150.0,0.021164592316094907
3149.0,0.021063029224929548
3148.0,0.020958129264827922
3147.0,0.020850014851884077
3146.0,0.02073958830034676
3145.0,0.020627487327432196
3144.0,0.020514072499204977
3143.0,0.02040141356097056
3142.0,0.02029375987644331
3141.0,0.020192892459106267
3140.0,0.020094052830232377
3139.0,0.019990731011901807
3138.0,0.019884157100898865
3137.0,0.019783398862066013
3136.0,0.01969433618706893
3135.0,0.019612157357615057
3134.0,0.019526634237161496
3133.0,0.019432366915006178
3132.0,0.019332157365762163
3131.0,0.019232194872221393
3130.0,0.01913609352998434
3129.0,0.019042749006320532
3128.0,0.018949341547478425
3127.0,0.018857150388394348
3126.0,0.018772472280804715
3125.0,0.018699101983401946
3124.0,0.018631204613513138
3123.0,0.018557373835182706
3122.0,0.01847271951348325
3121.0,0.018384069490023164
3120.0,0.01830208358472146
3119.0,0.01823046650684874
3118.0,0.018163842294076436
3117.0,0.018094661117515936
3116.0,0.018021234576160415
3115.0,0.017949254332254316
3114.0,0.017885431660534537
3113.0,0.01782956200711877
3112.0,0.01777455581810934
3111.0,0.01771444257393844
3110.0,0.017650025484345
3109.0,0.017585862970400087
3108.0,0.01752454217282197
3107.0,0.01746630893229529
3106.0,0.01741127206291741
3105.0,0.0173589792807747
3104.0,0.01730805391814807
3103.0,0.0172590952232943
3102.0,0.01721590596816935
3101.0,0.01718149643824226
3100.0,0.017154224654217322
3099.0,0.017130087631961426
3098.0,0.017106428751263048
3097.0,0.017080954914503982
3096.0,0.017050196370668454
3095.0,0.01701182009596254
3094.0,0.01696766767615623
3093.0,0.01692284324535441
3092.0,0.016882827995651644
3091.0,0.01685111135909902
3090.0,0.016825929286816897
3089.0,0.016798653531044885
3088.0,0.01675969525625042
3087.0,0.016708411103075645
3086.0,0.016653129286345308
3085.0,0.016600097079772502
3084.0,0.016548030807129598
3083.0,0.016495167087253574
3082.0,0.016445112179969863
3081.0,0.016400499753864452
3080.0,0.01635654762860129
3079.0,0.01630791960580376
3078.0,0.016257436708500973
3077.0,0.016211161209720007
3076.0,0.016168140805180285
3075.0,0.016122207822285475
3074.0,0.01607219756926269
3073.0,0.016022816177878086
3072.0,0.015976281183898565
3071.0,0.015928892420792012
3070.0,0.01587605025091049
3069.0,0.015816441935055044
3068.0,0.015751404197831307
3067.0,0.015684783774537196
3066.0,0.015622672276722763
3065.0,0.015568761129816486
3064.0,0.015519619041513366
3063.0,0.015468189244516059
3062.0,0.015411160981698716
3061.0,0.015349824386382433
3060.0,0.015285896405681112
3059.0,0.01522091173498442
3058.0,0.015159084756740415
3057.0,0.015104663072939117
3056.0,0.015055106406159592
3055.0,0.015000593652928629
3054.0,0.014933129487006072
3053.0,0.014854679167166335
3052.0,0.014775128812264955
3051.0,0.014703770051379425
3050.0,0.014642058099214374
3049.0,0.014583489004301899
3048.0,0.014521222950857721
3047.0,0.014455639057170048
3046.0,0.014392723161577485
3045.0,0.014335644878784744
3044.0,0.014280946495899113
3043.0,0.014224740521079023
3042.0,0.014168766422566405
3041.0,0.01411765190954869
3040.0,0.014072623594302777
3039.0,0.01403035342636129
3038.0,0.013986130885751204
3037.0,0.013936063456241923
3036.0,0.013878982723442354
3035.0,0.013818389757326131
3034.0,0.013759574357934094
3033.0,0.013702914170449013
3032.0,0.01364384277875279
3031.0,0.01358171262449733
3030.0,0.01352313321209157
3029.0,0.013471542023047524
3028.0,0.013419146243424454
3027.0,0.013355328988322784
3026.0,0.013280825969042879
3025.0,0.013207503443143377
3024.0,0.013145695169089065
3023.0,0.013097367918806576
3022.0,0.013059520416489818
3021.0,0.013027843294005897
3020.0,0.012996856988069135
3019.0,0.01296207288846755
3018.0,0.012922980020965622
3017.0,0.012881348278523042
3016.0,0.012837623197776335
3015.0,0.012791862028638563
3014.0,0.012745763234665966
3013.0,0.012699982968292264
3012.0,0.012651777319852488
3011.0,0.012599750330329599
3010.0,0.012548569186366636
3009.0,0.012504229281010925
3008.0,0.012466275822986046
3007.0,0.012429208879389135
3006.0,0.012389336995430478
3005.0,0.012346155333454218
3004.0,0.012299393054247994
3003.0,0.012250406914230457
3002.0,0.012205054587807471
3001.0,0.012169817761229771
3000.0,0.012145469768781149
2999.0,0.012129006368898876
2998.0,0.012119808301894299
2997.0,0.012118754078132572
2996.0,0.01212268594768361
2995.0,0.01212653942168414
2994.0,0.012131053268359154
2993.0,0.012142193423735972
2992.0,0.012162279019213813
2991.0,0.01218799533890328
2990.0,0.012218185735996118
2989.0,0.012257704533841918
2988.0,0.01231070248012951
2987.0,0.012375101985592059
2986.0,0.01244610317383024
2985.0,0.012521136569950988
2984.0,0.012598384234710082
2983.0,0.012674764157777576
2982.0,0.012749769050968585
2981.0,0.012829251970108277
2980.0,0.0129215841617747
2979.0,0.013029827732925263
2978.0,0.013149434876891531
2977.0,0.013273693323370183
2976.0,0.013399613881745098
2975.0,0.01352845172381788
2974.0,0.013661900985744591
2973.0,0.013800477499934793
2972.0,0.013946744454464987
2971.0,0.0141074962323863
2970.0,0.014288241927632327
2969.0,0.014484829100060591
2968.0,0.01468446843330032
2967.0,0.014877751473056276
2966.0,0.015066716711792678
2965.0,0.015260236021625323
2964.0,0.015465273345052771
2963.0,0.015685558564652865
2962.0,0.015923087730307154
2961.0,0.016174560612218235
2960.0,0.016428609148981834
2959.0,0.01667178259342573
2958.0,0.016898078510508566
2957.0,0.017110011477058516
2956.0,0.017313483602255746
2955.0,0.017515327503951874
2954.0,0.01772349355588406
2953.0,0.01794520286091956
2952.0,0.01818676531077349
2951.0,0.018459796161150836
2950.0,0.018786226728323686
2949.0,0.01919326561276257
2948.0,0.01970332267929329
2947.0,0.020332362607740677
2946.0,0.02109431216001029
2945.0,0.022000826531886227
2944.0,0.02305705747587718
2943.0,0.024262184401459632
2942.0,0.025615554910319548
2941.0,0.027119619608807276
2940.0,0.028777995849805272
2939.0,0.03059608115304622
2938.0,0.032584908184093056
2937.0,0.034761108019701586
2936.0,0.037142021142874515
2935.0,0.03974145124047476
2934.0,0.042570545755871006
2933.0,0.04564270319428064
2932.0,0.04897836110791565
2931.0,0.05260690673780634
2930.0,0.056566934600101156
2929.0,0.06091022099458916
2928.0,0.06571177925508014
2927.0,0.07107456415918599
2926.0,0.07711528357278676
2925.0,0.08394145547281319
2924.0,0.09163363350663861
2923.0,0.10023007919558365
2922.0,0.10971507789044684
2921.0,0.12000741681678932
2920.0,0.13092455433847214
2919.0,0.14207607381660928
2918.0,0.1527108866420197
2917.0,0.16168439664735879
2916.0,0.16769344265679548
2915.0,0.1697360891406623
2914.0,0.16753277824441332
2913.0,0.1616693728772334
2912.0,0.15334230946279293
2911.0,0.1438857322258931
2910.0,0.13438575476864595
2909.0,0.12551195310070176
2908.0,0.11758292765564207
2907.0,0.11068693973274801
2906.0,0.10478176559500785
2905.0,0.09975777773513597
2904.0,0.09548130354999856
2903.0,0.09182108175804136
2902.0,0.08865398831314504
2901.0,0.08586611108181354
2900.0,0.08335701383469073
2899.0,0.08104459993800696
2898.0,0.07886337218173674
2897.0,0.0767646439716029
2896.0,0.07471778379370976
2895.0,0.0727045928953901
2894.0,0.07070959927498423
2893.0,0.06871506347016768
2892.0,0.06670701036127642
2891.0,0.06468151218384538
2890.0,0.0626405418059875
2889.0,0.06058575399900108
2888.0,0.05851791410198007
2887.0,0.05644119599831723
2886.0,0.05436411000633669
2885.0,0.05229417020914475
2884.0,0.05023331171469365
2883.0,0.04817898691932247
2882.0,0.046129880866003364
2881.0,0.044091199262941715
2880.0,0.04207545695166085
2879.0,0.04010154481427736
2878.0,0.0381940821570379
2877.0,0.03638389148760681
2876.0,0.034706486787182925
2875.0,0.0331954862615417
2874.0,0.03187336566865024
2873.0,0.03074521670272364
2872.0,0.029803438018508707
2871.0,0.029039898249111937
2870.0,0.02845701744153125
2869.0,0.02806916991217386
2868.0,0.027897974320240458
2867.0,0.027969368275735033
2866.0,0.02831338612059163
2865.0,0.028964592534251713
2864.0,0.029963515314491578
2863.0,0.03135925734228562
2862.0,0.03321095684975676
2861.0,0.035590156108176854
2860.0,0.03858541285492989
2859.0,0.04230739060405522
2858.0,0.04689312624150938
2857.0,0.052515150860348504
2856.0,0.059407791034846696
2855.0,0.06787886168404643
2854.0,0.07827464382394285
2853.0,0.09084972464605727
2852.0,0.10550062936840109
2851.0,0.12136810689773755
2850.0,0.13647869673507299
2849.0,0.14792667283467667
2848.0,0.15297563516997628
2847.0,0.15053844417114534
2846.0,0.14174093690344886
2845.0,0.12912519426736063
2844.0,0.1152820271601195
2843.0,0.1020194386474612
2842.0,0.09024136954258836
2841.0,0.08020973600838335
2840.0,0.07183969504998576
2839.0,0.06490776472163132
2838.0,0.05915432812570508
2837.0,0.05434702288969371
2836.0,0.05029716819538351
2835.0,0.046856845193913255
2834.0,0.04391239540796927
2833.0,0.041371772228386
2832.0,0.039159358406048145
2831.0,0.037211452178405796
2830.0,0.03548146174978931
2829.0,0.03393869288533381
2828.0,0.03256007512818248
2827.0,0.031322684246753406
2826.0,0.030203320654804595
2825.0,0.029180773853754897
2824.0,0.028237592802528487
2823.0,0.02736262342126071
2822.0,0.026553573976559094
2821.0,0.025812062135159068
2820.0,0.025133576683529082
2819.0,0.024504234159719956
2818.0,0.023908653728911627
2817.0,0.023339256983049356
2816.0,0.022797578791532054
2815.0,0.022289117492231433
2814.0,0.02181726941894648
2813.0,0.021378751630587823
2812.0,0.020963829103033692
2811.0,0.020563337515249795
2810.0,0.02017538588436791
2809.0,0.019803234133087544
2808.0,0.019448330708069953
2807.0,0.019108899706445484
2806.0,0.018784410650546143
2805.0,0.018476220633900784
2804.0,0.018182787199196165
2803.0,0.017898317843139926
2802.0,0.0176176129296135
2801.0,0.017340282972022242
2800.0,0.017069970937184917
2799.0,0.01681159829847218
2798.0,0.01656852227125388
2797.0,0.01633823490300517
2796.0,0.016111212827526318
2795.0,0.015878313238600925
2794.0,0.0156396033965342
2793.0,0.015403006341386555
2792.0,0.015174655590380323
2791.0,0.01495391800352807
2790.0,0.014737345281603571
2789.0,0.01452300716330029
2788.0,0.014310144984512782
2787.0,0.01409921017213877
2786.0,0.013893790938274694
2785.0,0.013698894846792565
2784.0,0.01351572018291496
2783.0,0.013340049861631191
2782.0,0.013166336330034622
2781.0,0.01299184498215797
2780.0,0.012817602382443255
2779.0,0.012647990742290303
2778.0,0.012488702573409756
2777.0,0.012341233748627443
2776.0,0.01220005012621006
2775.0,0.012059127758213701
2774.0,0.011920774376021943
2773.0,0.011793734567952893
2772.0,0.011681700094586332
2771.0,0.011577874114746945
2770.0,0.011472024076312915
2769.0,0.011359518893522859
2768.0,0.011242902003555192
2767.0,0.011127951105534929
2766.0,0.011019835267423126
2765.0,0.010920712472351218
2764.0,0.010828849944449282
2763.0,0.010740457035778882
2762.0,0.010652712352484977
2761.0,0.010564359505975758
2760.0,0.01047488750162014
2759.0,0.010385400337089295
2758.0,0.0102991586723108
2757.0,0.010218729281872401
2756.0,0.010143111884347895
2755.0,0.010069452033113517
2754.0,0.009996360466779531
2753.0,0.009923500890984486
2752.0,0.00984985481826535
2751.0,0.009775720228078034
2750.0,0.009705649435548436
2749.0,0.009646245608368558
2748.0,0.009600643521549965
2747.0,0.009566363602803999
2746.0,0.009537042745207483
2745.0,0.00950456425604018
2744.0,0.009462585746969785
2743.0,0.009411569596168288
2742.0,0.009358758429053104
2741.0,0.009310519789343635
2740.0,0.009266133563435374
2739.0,0.009221078948985124
2738.0,0.009173199056399309
2737.0,0.00912219289654621
2736.0,0.009066160154216399
2735.0,0.009003581464562893
2734.0,0.008937372299700775
2733.0,0.008872673278885506
2732.0,0.008811460210711152
2731.0,0.008752755558464389
2730.0,0.00869622993770707
2729.0,0.008641549810060219
2728.0,0.008586163206348878
2727.0,0.008528325874687818
2726.0,0.008471022079318248
2725.0,0.008418455620976194
2724.0,0.008369688428694228
2723.0,0.00831974333727767
2722.0,0.008265949276789543
2721.0,0.008209310148994309
2720.0,0.00815127064167463
2719.0,0.00809381004958968
2718.0,0.008041227706253585
2717.0,0.00799664034997446
2716.0,0.00795715396848746
2715.0,0.007916772014100815
2714.0,0.007873603190875015
2713.0,0.007830192103394825
2712.0,0.007787756397744716
2711.0,0.007744747540560605
2710.0,0.007700699864144976
2709.0,0.007657049770916715
2708.0,0.007614193269908269
2707.0,0.007571385950107021
2706.0,0.007528996968655897
2705.0,0.007487456685180087
2704.0,0.007445198511772702
2703.0,0.007401648311711231
2702.0,0.0073607049147479935
2701.0,0.007326216747664064
2700.0,0.007294996632279545
2699.0,0.007259618887716303
2698.0,0.007218007160173148
2697.0,0.007175316758888618
2696.0,0.0071359888788296594
2695.0,0.007099151131491439
2694.0,0.0070630482848472245
2693.0,0.007029460000339801
2692.0,0.007001840358117044
2691.0,0.006981636051565986
2690.0,0.00696757938066877
2689.0,0.006956408552069379
2688.0,0.006943998851622766
2687.0,0.006928071602455908
2686.0,0.006909864385711977
2685.0,0.006891635972431922
2684.0,0.006873558808447644
2683.0,0.006855087080997127
2682.0,0.006837669036512005
2681.0,0.006823166789916009
2680.0,0.006810909052140925
2679.0,0.006799394605063036
2678.0,0.006789746608671734
2677.0,0.006784622912337125
2676.0,0.006784912418864338
2675.0,0.0067899521131718765
2674.0,0.006799031964238156
2673.0,0.006809863134092136
2672.0,0.006818096201244712
2671.0,0.006822102484319868
2670.0,0.006826158583503196
2669.0,0.006835171662407843
2668.0,0.006848446007631541
2667.0,0.006862776448759448
2666.0,0.006878998483124411
2665.0,0.006899844416612766
2664.0,0.0069227262586145505
2663.0,0.006940314406510264
2662.0,0.006948546230849223
2661.0,0.00695002528772998
2660.0,0.006949563053386769
2659.0,0.0069501308445552345
2658.0,0.006952471162756178
2657.0,0.006954401396080268
2656.0,0.006950465208871211
2655.0,0.00693609336027379
2654.0,0.00691267833505025
2653.0,0.006886393998474988
2652.0,0.006862948189516704
2651.0,0.006845734955701837
2650.0,0.006836618508755328
2649.0,0.0068340820918592095
2648.0,0.0068324092503386745
2647.0,0.00682739056671969
2646.0,0.006822081909918944
2645.0,0.006823184182967921
2644.0,0.006832779425008446
2643.0,0.006847193985974505
2642.0,0.006862066086148996
2641.0,0.006874317544818373
2640.0,0.0068812250665201856
2639.0,0.006882549047457516
2638.0,0.006882294218396433
2637.0,0.006884045080203241
2636.0,0.006886043079559145
2635.0,0.006884103300513548
2634.0,0.006876213009193671
2633.0,0.006859953363236883
2632.0,0.006830399101444041
2631.0,0.006787871183054654
2630.0,0.006743899159438801
2629.0,0.006710686257192189
2628.0,0.006685862240301177
2627.0,0.006655830187111095
2626.0,0.0066130550335612255
2625.0,0.006561841086825181
2624.0,0.006508152820771175
2623.0,0.00645315165290482
2622.0,0.006398301829012501
2621.0,0.006348313066391863
2620.0,0.006306087265226712
2619.0,0.00627066291669969
2618.0,0.006241198080071777
2617.0,0.0062169262262959935
2616.0,0.006192902863231537
2615.0,0.006162914502681942
2614.0,0.006127758319077228
2613.0,0.006093932353363655
2612.0,0.006063023035629987
2611.0,0.0060294469611218765
2610.0,0.005990257525975429
2609.0,0.005949953408379601
2608.0,0.005912949201900522
2607.0,0.005877904071952041
2606.0,0.005843152600513029
2605.0,0.005812310805656986
2604.0,0.005790326416688957
2603.0,0.005776926184338757
2602.0,0.005766400959022881
2601.0,0.0057516901305324514
2600.0,0.0057283048998041375
2599.0,0.005697678113826392
2598.0,0.005667142614108985
2597.0,0.005643518617124292
2596.0,0.0056261308931120505
2595.0,0.0056084988705318055
2594.0,0.005585981343372867
2593.0,0.005558670499043648
2592.0,0.0055288588057815355
2591.0,0.005499563867269525
2590.0,0.005473546651691506
2589.0,0.005449398226487633
2588.0,0.005420360291669028
2587.0,0.005381810016971384
2586.0,0.005338223643366202
2585.0,0.005298270368778988
2584.0,0.005265442944379576
2583.0,0.0052382247589795984
2582.0,0.0052160346738593065
2581.0,0.005198271582265533
2580.0,0.005179690049699605
2579.0,0.005154308387538892
2578.0,0.0051237823851581245
2577.0,0.0050960202952389
2576.0,0.0050755701738447985
2575.0,0.005060252211673186
2574.0,0.005046461580247589
2573.0,0.00503258957030885
2572.0,0.005017796425610464
2571.0,0.005001890635969823
2570.0,0.004985779406001738
2569.0,0.004968923469257784
2568.0,0.004948430920806091
2567.0,0.004924082749626163
2566.0,0.004901343965913175
2565.0,0.00488521212748686
2564.0,0.004873850375772846
2563.0,0.004861962550082638
2562.0,0.004846909782830245
2561.0,0.004828170508645955
2560.0,0.004805605083747135
2559.0,0.004782385014757699
2558.0,0.0047645107043841695
2557.0,0.004752958071090134
2556.0,0.0047419071386362935
2555.0,0.0047293040816511886
2554.0,0.0047219560512123
2553.0,0.0047235850728750495
2552.0,0.004725274841358818
2551.0,0.004715882469017224
2550.0,0.004695645439428909
2549.0,0.00467175318779589
2548.0,0.004646743924141221
2547.0,0.004619761486542463
2546.0,0.004593262897059537
2545.0,0.00456921086541821
2544.0,0.004544065794209153
2543.0,0.004516456451247254
2542.0,0.0044937718267117266
2541.0,0.004481314812276292
2540.0,0.004471182282400581
2539.0,0.004453492618125231
2538.0,0.004433251988239287
2537.0,0.004423781652290377
2536.0,0.004427198636796957
2535.0,0.0044331812937821345
2534.0,0.004434460683691259
2533.0,0.004432034124279084
2532.0,0.004426586906380916
2531.0,0.00441566856299373
2530.0,0.004399051765430273
2529.0,0.0043788290031378605
2528.0,0.004356414761270646
2527.0,0.004336441964686446
2526.0,0.00432811598937937
2525.0,0.004332422744005828
2524.0,0.004333041830679924
2523.0,0.0043122205664015275
2522.0,0.004272795672356314
2521.0,0.004233564460575059
2520.0,0.004206156805555164
2519.0,0.004187788725186562
2518.0,0.004173252746535662
2517.0,0.004160417499515218
2516.0,0.004144737906951953
2515.0,0.004121813713946878
2514.0,0.0040968993671446075
2513.0,0.004080829053734033
2512.0,0.004075250246939347
2511.0,0.004071240377057906
2510.0,0.004062507112587128
2509.0,0.004050567813420537
2508.0,0.004037272727446668
2507.0,0.004022129666432925
2506.0,0.004007565404495509
2505.0,0.003997782570614258
2504.0,0.0039918230079131894
2503.0,0.003985656070186791
2502.0,0.003980182598267504
2501.0,0.003978627789742759
2500.0,0.003977633155040402
2499.0,0.00397060505730863
2498.0,0.003958946134218556
2497.0,0.003949865771805594
2496.0,0.003943247826864381
2495.0,0.003931186397806376
2494.0,0.00391182503920991
2493.0,0.0038936896093450706
2492.0,0.0038833770353609988
2491.0,0.0038770745544201685
2490.0,0.0038674688139638718
2489.0,0.00385282091169707
2488.0,0.0038368035063029906
2487.0,0.003824319851808577
2486.0,0.0038188884543798977
2485.0,0.003819862821525836
2484.0,0.003821361545028641
2483.0,0.0038169076422596092
2482.0,0.0038045835811797287
2481.0,0.0037860536622804355
2480.0,0.0037642621032732805
2479.0,0.0037450499502697777
2478.0,0.0037356258540663287
2477.0,0.003736219360173657
2476.0,0.0037381298749232994
2475.0,0.003735316475924021
2474.0,0.0037318395259743156
2473.0,0.003731294158417425
2472.0,0.0037260208755391573
2471.0,0.003706464388557125
2470.0,0.0036765390868316768
2469.0,0.0036500198776169453
2468.0,0.003634790759401389
2467.0,0.0036291115010481144
2466.0,0.003629604270700807
2465.0,0.0036330780192707227
2464.0,0.0036325987259740065
2463.0,0.0036213058865849166
2462.0,0.003600449677746393
2461.0,0.0035781014520772114
2460.0,0.0035618624956710496
2459.0,0.0035571278009994675
2458.0,0.0035669694187603204
2457.0,0.003586273477057183
2456.0,0.0036006717515025145
2455.0,0.0035995555948489695
2454.0,0.003586987727513341
2453.0,0.003573382554695928
2452.0,0.0035614382912116985
2451.0,0.0035476945699641858
2450.0,0.00353240660339189
2449.0,0.003518826289734355
2448.0,0.0035068758877663444
2447.0,0.0034958071685188123
2446.0,0.003488656050739549
2445.0,0.003486053126345989
2444.0,0.0034808253676238752
2443.0,0.0034672911857554964
2442.0,0.003450856781192462
2441.0,0.003440001115587786
2440.0,0.0034341633654717137
2439.0,0.0034280041682496288
2438.0,0.003421473356712582
2437.0,0.003416439898866927
2436.0,0.003409879009416621
2435.0,0.003400506197319419
2434.0,0.003395762342751517
2433.0,0.003401281817048352
2432.0,0.0034091996566607405
2431.0,0.0034080943918811026
2430.0,0.0033989588153748515
2429.0,0.0033901155528340988
2428.0,0.003382518168741676
2427.0,0.003372629137057869
2426.0,0.003364278361445998
2425.0,0.003363838340710805
2424.0,0.0033672634358425605
2423.0,0.0033653389488110647
2422.0,0.003359197013535796
2421.0,0.0033579032078699623
2420.0,0.0033630933436747737
2419.0,0.0033684362018765
2418.0,0.003371919332021289
2417.0,0.003376092478811639
2416.0,0.0033777083560724347
2415.0,0.0033693489657645875
2414.0,0.0033513440611044926
2413.0,0.003331964410918878
2412.0,0.0033161776339731687
2411.0,0.003302858656791494
2410.0,0.0032910266708362336
2409.0,0.0032794151223988666
2408.0,0.0032622961377239434
2407.0,0.0032360712922479655
2406.0,0.003208166612527936
2405.0,0.0031894041189983956
2404.0,0.003179632821593102
2403.0,0.0031703770778197756
2402.0,0.0031588490545679557
2401.0,0.0031494018609979613
2400.0,0.003143487979819276
2399.0,0.0031382928885026937
2398.0,0.0031337625942624036
2397.0,0.003131368773288418
2396.0,0.003127326667441892
2395.0,0.003116395224148729
2394.0,0.003101125199481015
2393.0,0.003088638235780437
2392.0,0.0030802013648494075
2391.0,0.003072388728255661
2390.0,0.0030660341290595357
2389.0,0.0030651240897757222
2388.0,0.0030686196305120717
2387.0,0.0030720785682939573
2386.0,0.003075689971535671
2385.0,0.0030822576412567943
2384.0,0.0030892196190945315
2383.0,0.0030916158721540827
2382.0,0.003091773797139657
2381.0,0.0030969108284476803
2380.0,0.003106826421466965
2379.0,0.0031127505843914346
2378.0,0.0031087292051713666
2377.0,0.003094953540355775
2376.0,0.0030702338616474313
2375.0,0.003035283385039048
2374.0,0.0030042285284826976
2373.0,0.0029964744711140625
2372.0,0.0030133144372160143
2371.0,0.003038653287967343
2370.0,0.00306487703980246
2369.0,0.003097251406236613
2368.0,0.003131185302504067
2367.0,0.003151176297245611
2366.0,0.003155765818774253
2365.0,0.0031600995965081727
2364.0,0.003170865167127564
2363.0,0.0031803435652489683
2362.0,0.00319194753156368
2361.0,0.0032175339947307733
2360.0,0.003245819280404942
2359.0,0.0032559580138973067
2358.0,0.0032487502164918925
2357.0,0.003242581370543975
2356.0,0.003245794802219463
2355.0,0.003254348983049022
2354.0,0.003268642477632604
2353.0,0.0032836240711401235
2352.0,0.0032904397836777803
2351.0,0.0032902966345856335
2350.0,0.0032942591037706526
2349.0,0.0033120311195347575
2348.0,0.0033321193453365503
2347.0,0.003336476199486058
2346.0,0.0033240179733521153
2345.0,0.0033201783424872495
2344.0,0.003345804576249821
2343.0,0.003391189484422435
2342.0,0.0034461541497925172
2341.0,0.003499555745589159
2340.0,0.0035329875712056705
2339.0,0.0035358893821805025
2338.0,0.003523741321218368
2337.0,0.0035149801041372704
2336.0,0.0035080552020115277
2335.0,0.003493248658448035
2334.0,0.0034791594292575994
2333.0,0.0034738380948528573
2332.0,0.003467612919982544
2331.0,0.003448560077855372
2330.0,0.0034283522037868415
2329.0,0.0034389984859893724
2328.0,0.0034920027489801497
2327.0,0.0035807446954276827
2326.0,0.003686353574199576
2325.0,0.0037782382429989033
2324.0,0.003817488492017314
2323.0,0.0037832663628670484
2322.0,0.0037041183126227217
2321.0,0.0036257665680020056
2320.0,0.0035709194858292493
2319.0,0.0035349876740469097
2318.0,0.0035164935446432358
2317.0,0.0035160013438139824
2316.0,0.0035222311483842548
2315.0,0.003519784369397043
2314.0,0.0035079230452396957
2313.0,0.0034955517283294436
2312.0,0.003481640530106163
2311.0,0.0034607196880372536
2310.0,0.003437587670889174
2309.0,0.003421429212829805
2308.0,0.0034085990671604955
2307.0,0.003391169111273931
2306.0,0.0033742095806581947
2305.0,0.0033682572436203634
2304.0,0.0033698964288251467
2303.0,0.0033654435369667723
2302.0,0.0033505819554258457
2301.0,0.0033324916780227256
2300.0,0.0033163539533500827
2299.0,0.003305135266381797
2298.0,0.003305452137540664
2297.0,0.0033205409101802587
2296.0,0.00333979869282116
2295.0,0.003353036969477565
2294.0,0.0033666828143089893
2293.0,0.0033924445538496516
2292.0,0.00342473617523516
2291.0,0.0034481112202506517
2290.0,0.0034604463788002033
2289.0,0.0034709741415196935
2288.0,0.003480164059310182
2287.0,0.0034810721231983187
2286.0,0.003477427863955892
2285.0,0.0034791646733015116
2284.0,0.003481799228130059
2283.0,0.003470826531565768
2282.0,0.0034471147055615352
2281.0,0.003428013298456964
2280.0,0.0034223410806984806
2279.0,0.003422776774055728
2278.0,0.0034230377792461558
2277.0,0.0034224440209743006
2276.0,0.0034142688977661442
2275.0,0.003390816694602384
2274.0,0.00336034686938502
2273.0,0.0033385407608884786
2272.0,0.00332456450863541
2271.0,0.0033069168977071873
2270.0,0.0032906375742222187
2269.0,0.00329298385350518
2268.0,0.00331163821305538
2267.0,0.0033226302295150784
2266.0,0.003312278255230904
2265.0,0.0032898797675578813
2264.0,0.0032667907410261618
2263.0,0.0032459033551039264
2262.0,0.003232656693351787
2261.0,0.0032344106640735367
2260.0,0.0032467366813591627
2259.0,0.0032582430935364235
2258.0,0.0032677037445668407
2257.0,0.0032769652585835046
2256.0,0.003273816280641947
2255.0,0.00324646097092339
2254.0,0.0032107506963532455
2253.0,0.0031961193551638665
2252.0,0.0032062965796079705
2251.0,0.0032189477439891114
2250.0,0.0032213500314178314
2249.0,0.003219409857714398
2248.0,0.003215513349873624
2247.0,0.00320540609059884
2246.0,0.0031965430546121625
2245.0,0.003203963221171284
2244.0,0.0032254177454374548
2243.0,0.003243882480577629
2242.0,0.003253000879995707
2241.0,0.003257450695819705
2240.0,0.003253831813773522
2239.0,0.003236377642599392
2238.0,0.003216141953798793
2237.0,0.0032077317012366396
2236.0,0.0032022210312507
2235.0,0.0031806724648737357
2234.0,0.0031483351532526883
2233.0,0.0031266355121243707
2232.0,0.0031186170519302402
2231.0,0.0031141300081142585
2230.0,0.003120377769007928
2229.0,0.0031502978734872836
2228.0,0.003186723230821091
2227.0,0.0031968161933710578
2226.0,0.0031803834811118797
2225.0,0.0031681713395791543
2224.0,0.0031732219300140783
2223.0,0.003179712729242629
2222.0,0.0031782620117188237
2221.0,0.003175057760477898
2220.0,0.0031664424353650264
2219.0,0.003140970935469259
2218.0,0.0031078001966584425
2217.0,0.003087667764634401
2216.0,0.003076513125402923
2215.0,0.0030539220648547007
2214.0,0.0030255128193950554
2213.0,0.0030197087343983037
2212.0,0.0030428272940560643
2211.0,0.003073756554951556
2210.0,0.003100971558629958
2209.0,0.0031271713335354304
2208.0,0.0031423034016323926
2207.0,0.003133138276321339
2206.0,0.0031173376233355303
2205.0,0.0031264233663961796
2204.0,0.003154454658501701
2203.0,0.003165734923481117
2202.0,0.003152562971949655
2201.0,0.0031417022232722936
2200.0,0.003144624084512927
2199.0,0.0031451838977591983
2198.0,0.0031382045832141887
2197.0,0.003136563065079931
2196.0,0.003137516814610564
2195.0,0.0031265391932060707
2194.0,0.0031170905338399426
2193.0,0.003138764735346569
2192.0,0.003179615181893929
2191.0,0.003188854847434177
2190.0,0.0031479714746088113
2189.0,0.0030980251116842863
2188.0,0.0030851353847838395
2187.0,0.003115902015007066
2186.0,0.003173768429612509
2185.0,0.0032357784050699246
2184.0,0.0032641679631872865
2183.0,0.0032248485353428636
2182.0,0.003131027993231443
2181.0,0.003039831093800141
2180.0,0.002996306162475744
2179.0,0.0030043568396755844
2178.0,0.0030447087789203593
2177.0,0.0030846841089182116
2176.0,0.003084424565981523
2175.0,0.003039627229801925
2174.0,0.003007823226665979
2173.0,0.0030463646930320846
2172.0,0.0031342682277927104
2171.0,0.003201849054530104
2170.0,0.0032229490542227883
2169.0,0.0032279882027845563
2168.0,0.0032397364045929408
2167.0,0.0032526592250792623
2166.0,0.003275088780617657
2165.0,0.003333844735689813
2164.0,0.00342460974797875
2163.0,0.0035034405295915044
2162.0,0.003527468488351544
2161.0,0.003461545780125774
2160.0,0.0032677098284286505
2159.0,0.0029612896219715426
2158.0,0.0026622980239238503
2157.0,0.002497025774763357
2156.0,0.002462491189695047
2155.0,0.0024694295263240572
2154.0,0.00247640861947122
2153.0,0.0025030655718954065
2152.0,0.002550597499101838
2151.0,0.0025888835462246234
2150.0,0.002612585866266389
2149.0,0.0026431130860360675
2148.0,0.0026741338470794743
2147.0,0.0026722103212480364
2146.0,0.0026329252772104754
2145.0,0.0025868400993567324
2144.0,0.002550734525907424
2143.0,0.0025200391050000963
2142.0,0.0025057610085651755
2141.0,0.002529416572181445
2140.0,0.002579873857756264
2139.0,0.002616802654267291
2138.0,0.002616353873914308
2137.0,0.0025801482596949604
2136.0,0.0025101588425130534
2135.0,0.002414193140841959
2134.0,0.002327120145390117
2133.0,0.002284756525678618
2132.0,0.0022819252664036684
2131.0,0.0022902418056542405
2130.0,0.002305148848483009
2129.0,0.0023396508466855207
2128.0,0.002385777321945075
2127.0,0.0024213289046777255
2126.0,0.0024462124285393734
2125.0,0.0024752452478127114
2124.0,0.0025018309699079058
2123.0,0.002506344988923891
2122.0,0.0024961710005592603
2121.0,0.002500092546803386
2120.0,0.0025239841303681186
2119.0,0.002547912992257606
2118.0,0.0025662933690122677
2117.0,0.0025949613382361954
2116.0,0.0026354388854232073
2115.0,0.0026662416740354114
2114.0,0.002675126234104775
2113.0,0.002670281264303167
2112.0,0.0026567020169945836
2111.0,0.002631290944111989
2110.0,0.0026044811327677908
2109.0,0.002595937084720052
2108.0,0.002604533502417653
2107.0,0.0026109491786073338
2106.0,0.002611125309638791
2105.0,0.002617602628976696
2104.0,0.0026284190091462167
2103.0,0.0026281168284099854
2102.0,0.00262131563285735
2101.0,0.00263079607347485
2100.0,0.002657588988488331
2099.0,0.00267391605757327
2098.0,0.00266023822082809
2097.0,0.0026219481134690903
2096.0,0.0025686596685495816
2095.0,0.002508467889328196
2094.0,0.002463159327558107
2093.0,0.002454663838337251
2092.0,0.002474074186171561
2091.0,0.0024933329053210187
2090.0,0.0025060930854171977
2089.0,0.0025269130730258176
2088.0,0.0025535114577087356
2087.0,0.002565795272087634
2086.0,0.002562192507372819
2085.0,0.0025618543725272704
2084.0,0.002569422072740918
2083.0,0.0025717087737199334
2082.0,0.0025721243199729603
2081.0,0.00259224292798736
2080.0,0.002632030894969296
2079.0,0.0026627937502965954
2078.0,0.0026676309894481357
2077.0,0.0026577219530273402
2076.0,0.0026434738653171117
2075.0,0.0026222700121623847
2074.0,0.0026007856765497893
2073.0,0.0025962096074064966
2072.0,0.002608046307330764
2071.0,0.0026174973336478484
2070.0,0.0026180610364603327
2069.0,0.0026181864486901165
2068.0,0.0026156483406901405
2067.0,0.002601550052142097
2066.0,0.0025868995418295896
2065.0,0.002589311970301868
2064.0,0.0025953894176806375
2063.0,0.002578962238819549
2062.0,0.002550422831148901
2061.0,0.0025433237670333193
2060.0,0.0025613510498353463
2059.0,0.002581915261391073
2058.0,0.002603160696704194
2057.0,0.0026370533694826228
2056.0,0.002663981156458712
2055.0,0.0026550395486822924
2054.0,0.002639636466502924
2053.0,0.0026844222514976284
2052.0,0.0027937824979261017
2051.0,0.002891499999827103
2050.0,0.0029166302540793434
2049.0,0.0028876382470591406
2048.0,0.002850987124278518
2047.0,0.0028184016531404015
2046.0,0.002789906980881092
2045.0,0.0027840779892240237
2044.0,0.002803642519406187
2043.0,0.0028169749482642144
2042.0,0.0028055527772379092
2041.0,0.0027904103354993094
2040.0,0.00278852629832767
2039.0,0.0027887976625058787
2038.0,0.0027912023006338373
2037.0,0.0028167122511883725
2036.0,0.002860091787541128
2035.0,0.0028829764497755187
2034.0,0.0028711721956787175
2033.0,0.0028487364040727715
2032.0,0.002822159853283434
2031.0,0.0027711443209972207
2030.0,0.0027077048831936614
2029.0,0.002680912898177579
2028.0,0.0027028579889880303
2027.0,0.0027287932861815955
2026.0,0.002730063808501193
2025.0,0.002728210141436521
2024.0,0.002742302105570714
2023.0,0.0027583152168944875
2022.0,0.00276588065149102
2021.0,0.002773497029143427
2020.0,0.0027747735141268244
2019.0,0.0027482607893921734
2018.0,0.0027019828200189034
2017.0,0.0026702700033506125
2016.0,0.002655845721066927
2015.0,0.002632530743929757
2014.0,0.0026053701800758527
2013.0,0.0026057039519976986
2012.0,0.0026314674226507076
2011.0,0.002646670527661588
2010.0,0.0026369617587198293
2009.0,0.0026129689043563656
2008.0,0.0025650681415141305
2007.0,0.0024782444052279346
2006.0,0.0023884303943961936
2005.0,0.002355404520921412
2004.0,0.002379619881292823
2003.0,0.002406867539915747
2002.0,0.0024095534284240758
2001.0,0.0024048984923904547
2000.0,0.0024013657972199037
1999.0,0.002387683994148963
1998.0,0.0023720264428989013
1997.0,0.0023763506219887545
1996.0,0.0023927348077504
1995.0,0.0023962212105986536
1994.0,0.0023953288597242934
1993.0,0.002420700418287959
1992.0,0.0024594925574278072
1991.0,0.0024645091634221982
1990.0,0.0024404999700303803
1989.0,0.002441960885271455
1988.0,0.002485222012232416
1987.0,0.0025312319885977563
1986.0,0.002553431674281468
1985.0,0.0025655650753175596
1984.0,0.002581039213618133
1983.0,0.002603333036835727
1982.0,0.002655552901717197
1981.0,0.0027531103730654817
1980.0,0.0028416305124880034
1979.0,0.002830294441602547
1978.0,0.0027048062510865436
1977.0,0.0025465959571443126
1976.0,0.002420363248488105
1975.0,0.00231855763858133
1974.0,0.0022329824906205083
1973.0,0.0021904781300463787
1972.0,0.0021974779836741406
1971.0,0.002225114910103112
1970.0,0.0022637064128910238
1969.0,0.0023284453749443223
1968.0,0.0024000119525000997
1967.0,0.002422964818413309
1966.0,0.002385794477538833
1965.0,0.002335763832900036
1964.0,0.0023020562065092726
1963.0,0.0022727972681437147
1962.0,0.002242282808050069
1961.0,0.0022177805543409997
1960.0,0.0021817893401607667
1959.0,0.002109871626295604
1958.0,0.002030811502485391
1957.0,0.002009118494619533
1956.0,0.0020606448152293588
1955.0,0.0021347157449236854
1954.0,0.0021826237185480703
1953.0,0.002197341134930421
1952.0,0.002184643577721274
1951.0,0.0021471618111502102
1950.0,0.0021067539533972638
1949.0,0.0020928945099342303
1948.0,0.002098014686044606
1947.0,0.0020857364205721625
1946.0,0.002046833839776952
1945.0,0.0020073586764975697
1944.0,0.0019808534767229904
1943.0,0.001956623039127755
1942.0,0.001938418757413525
1941.0,0.0019440317851954715
1940.0,0.001966845568546531
1939.0,0.0019813703833159017
1938.0,0.0019781394494969786
1937.0,0.0019659842653700957
1936.0,0.001947936929824572
1935.0,0.0019243235734123661
1934.0,0.0019140271512350581
1933.0,0.001934289047411071
1932.0,0.001963164302082082
1931.0,0.001963002701562421
1930.0,0.0019396110133961114
1929.0,0.0019301393658708883
1928.0,0.0019391782295156473
1927.0,0.0019359006326344092
1926.0,0.0019104519288499603
1925.0,0.0018893017693252998
1924.0,0.0018893885706938137
1923.0,0.0018975015778080844
1922.0,0.001901580445650004
1921.0,0.001905865772743909
1920.0,0.0019102831682577916
1919.0,0.001907864126806446
1918.0,0.0019114463240148415
1917.0,0.0019423189923139291
1916.0,0.0019870969688349335
1915.0,0.0020127627510002914
1914.0,0.002011429396930968
1913.0,0.0020008950352727478
1912.0,0.001990858130096245
1911.0,0.0019736568819081674
1910.0,0.001957410179873083
1909.0,0.0019657407579558536
1908.0,0.0019948090836038367
1907.0,0.0020163738692296094
1906.0,0.002023099627526954
1905.0,0.0020320887882773453
1904.0,0.0020467916707422144
1903.0,0.0020539124302647134
1902.0,0.002055416898414
1901.0,0.0020652093606551465
1900.0,0.002078799907310328
1899.0,0.0020801539501114816
1898.0,0.002074409705468409
1897.0,0.0020832178615782
1896.0,0.002103586951855427
1895.0,0.0021053911276243207
1894.0,0.002079962928285626
1893.0,0.0020502858563700567
1892.0,0.0020293910824506376
1891.0,0.0020067829351699982
1890.0,0.0019789988811686108
1889.0,0.0019557923259173994
1888.0,0.0019322990282329702
1887.0,0.0018987853238344682
1886.0,0.0018679085031682535
1885.0,0.0018600882885744746
1884.0,0.001868177727751342
1883.0,0.0018644631105633818
1882.0,0.0018458561291463467
1881.0,0.0018340587259331933
1880.0,0.0018338877460540323
1879.0,0.0018284172368999779
1878.0,0.00181313378477172
1877.0,0.0018016901813887151
1876.0,0.0017943606228001873
1875.0,0.0017749876299623726
1874.0,0.0017453621930625981
1873.0,0.0017262363371162502
1872.0,0.0017219955937039602
1871.0,0.0017175930203305833
1870.0,0.0017131818407951993
1869.0,0.0017306011068375672
1868.0,0.0017583697291766458
1867.0,0.0017558300675610443
1866.0,0.0017270012346242952
1865.0,0.0017053953887619176
1864.0,0.0016985834427246831
1863.0,0.001692729133093869
1862.0,0.0016862968066830694
1861.0,0.001693194444310425
1860.0,0.0017099337039043372
1859.0,0.0017153077224168448
1858.0,0.0017082997965477433
1857.0,0.0017089578616899
1856.0,0.0017203117673687638
1855.0,0.0017242447387632615
1854.0,0.0017169723760603935
1853.0,0.0017134264437348489
1852.0,0.0017155120425228624
1851.0,0.0017085377573423132
1850.0,0.0016873787131173427
1849.0,0.0016623959614973012
1848.0,0.0016305456588495484
1847.0,0.001573183738203422
1846.0,0.0014960382648423508
1845.0,0.001448443613639047
1844.0,0.0014625879565529955
1843.0,0.0015076086305625235
1842.0,0.001553938206341612
1841.0,0.0015967670672537289
1840.0,0.001624468794002481
1839.0,0.0016256509644264911
1838.0,0.001610140497930668
1837.0,0.0016036051572532717
1836.0,0.001608924873079351
1835.0,0.001604272409160777
1834.0,0.0015823140320181306
1833.0,0.0015574795049954644
1832.0,0.0015428996905994606
1831.0,0.001538709672221206
1830.0,0.0015434626137658647
1829.0,0.0015597797577378814
1828.0,0.0015810697143616127
1827.0,0.0015946121261528755
1826.0,0.0015991874176471213
1825.0,0.0016070374107949679
1824.0,0.0016189656608123148
1823.0,0.0016219741536254995
1822.0,0.001617248299029087
1821.0,0.0016147136342941132
1820.0,0.0016110264677984384
1819.0,0.0015923324034682628
1818.0,0.0015610906434806572
1817.0,0.0015404388169682176
1816.0,0.0015365078942967435
1815.0,0.0015337029529820761
1814.0,0.0015290209935243414
1813.0,0.0015374780671469814
1812.0,0.0015627047418018995
1811.0,0.0015783330534574638
1810.0,0.001567515026810232
1809.0,0.0015514724385660408
1808.0,0.0015467150388256115
1807.0,0.0015432549664419711
1806.0,0.0015359566594873497
1805.0,0.001536619961893697
1804.0,0.001547257856010723
1803.0,0.0015524877788884752
1802.0,0.0015478495228260186
1801.0,0.0015498166827099115
1800.0,0.0015591424608373983
1799.0,0.001554152609556083
1798.0,0.0015382155569853876
1797.0,0.0015340300646713861
1796.0,0.00153617330196707
1795.0,0.0015169089987315772
1794.0,0.0014724111336786403
1793.0,0.0014442655684192855
1792.0,0.0014625360902553357
1791.0,0.0014947475647570545
1790.0,0.0015136647050584752
1789.0,0.0015290145939413548
1788.0,0.0015402440015499306
1787.0,0.0015358769069449467
1786.0,0.0015201909152104762
1785.0,0.0015149283435502668
1784.0,0.001525748771554365
1783.0,0.0015384336657250344
1782.0,0.0015483011747942017
1781.0,0.0015630278008157011
1780.0,0.0015799404624760734
1779.0,0.0015816296113037032
1778.0,0.001571367556455825
1777.0,0.0015672437510787162
1776.0,0.0015620959674040454
1775.0,0.0015316378971141913
1774.0,0.0014726730239189411
1773.0,0.0014301162992110866
1772.0,0.00143550219808624
1771.0,0.001451102335792109
1770.0,0.0014577827656119201
1769.0,0.0014813234297463103
1768.0,0.001522964400939957
1767.0,0.0015572621161133184
1766.0,0.0015757756058147536
1765.0,0.0015921715442861583
1764.0,0.0016094994890299005
1763.0,0.0016206149033234768
1762.0,0.0016335006992872366
1761.0,0.0016705769841069518
1760.0,0.0017356638116929003
1759.0,0.0018052702966932699
1758.0,0.0018706284711838153
1757.0,0.0019466803687977936
1756.0,0.0020291218628288176
1755.0,0.002094525734960929
1754.0,0.0021429985572681874
1753.0,0.00219736629346496
1752.0,0.0022801000178271098
1751.0,0.0023882505208064854
1750.0,0.002508057975866949
1749.0,0.002653476128752495
1748.0,0.0028128224056968854
1747.0,0.0029363824506197255
1746.0,0.0030181546120508647
1745.0,0.0030995848562237814
1744.0,0.0031929153104569737
1743.0,0.003255158757294961
1742.0,0.0032600625003925965
1741.0,0.003249065195445538
1740.0,0.0032670287191392095
1739.0,0.0032972204423856065
1738.0,0.0033107782977356143
1737.0,0.0033097173058676673
1736.0,0.0032989197903152785
1735.0,0.0032854520540061775
1734.0,0.0032958556734646186
1733.0,0.0033624971866904664
1732.0,0.003474881833034258
1731.0,0.0035769788172980515
1730.0,0.0036377045996853585
1729.0,0.003670631302871547
1728.0,0.0036940283178969868
1727.0,0.003712190121962525
1726.0,0.0037290978624333906
1725.0,0.003757858451540443
1724.0,0.00379841779548207
1723.0,0.0038203698983412006
1722.0,0.0038111610729156596
1721.0,0.0037979768915583664
1720.0,0.003809476275508463
1719.0,0.003835018838252205
1718.0,0.003836160458648073
1717.0,0.0038553317730724342
1716.0,0.003946270962755995
1715.0,0.004057003050155846
1714.0,0.004153813142465695
1713.0,0.0042589831946665425
1712.0,0.004376047395942455
1711.0,0.004480220985192816
1710.0,0.004557807972016285
1709.0,0.004627998768375589
1708.0,0.004714034023656794
1707.0,0.004819789498437934
1706.0,0.00494551539975172
1705.0,0.005090454753377153
1704.0,0.005209228681449605
1703.0,0.0052588174313657025
1702.0,0.005262595192687461
1701.0,0.005397082871640108
1700.0,0.005748672388738373
1699.0,0.006118513539141548
1698.0,0.006431569431430972
1697.0,0.006816488615942715
1696.0,0.007276791539924026
1695.0,0.007629930057721652
1694.0,0.007856556349396224
1693.0,0.008089874842802759
1692.0,0.008365797437671345
1691.0,0.00866860416526294
1690.0,0.008978228406608654
1689.0,0.009286994245980127
1688.0,0.009559832863598435
1687.0,0.00977981670105307
1686.0,0.009984123013961978
1685.0,0.010373587652397497
1684.0,0.010942286298714866
1683.0,0.0113213930239016
1682.0,0.011558429247820945
1681.0,0.01187739171954887
1680.0,0.012244278313853989
1679.0,0.012552293760752821
1678.0,0.012763799648232082
1677.0,0.01297206472723933
1676.0,0.013284836789975867
1675.0,0.013672993668437793
1674.0,0.014013986494936787
1673.0,0.014300211329243437
1672.0,0.01459182233821289
1671.0,0.014921115664641958
1670.0,0.01531376299857787
1669.0,0.015741471416881616
1668.0,0.016128141474531087
1667.0,0.016439805601810797
1666.0,0.016696392696172277
1665.0,0.016950416111607608
1664.0,0.017264052765154372
1663.0,0.0176300588280531
1662.0,0.017965737757142015
1661.0,0.01824479108073463
1660.0,0.018500025095919477
1659.0,0.018722884944868498
1658.0,0.018887708911459467
1657.0,0.019000486149520997
1656.0,0.019091673638113
1655.0,0.019176111722637966
1654.0,0.019258565404984492
1653.0,0.01924958620192002
1652.0,0.019177936782064673
1651.0,0.019221102139304762
1650.0,0.019323972425069242
1649.0,0.019408384319551157
1648.0,0.0194606160806567
1647.0,0.019410069916453845
1646.0,0.019258423552618937
1645.0,0.0191433308546775
1644.0,0.01913198158824245
1643.0,0.019148945869673382
1642.0,0.019133870581204027
1641.0,0.019086357229667485
1640.0,0.019031019420951395
1639.0,0.018971213356519415
1638.0,0.018882741001517347
1637.0,0.018735075165891308
1636.0,0.018490035618764198
1635.0,0.018177165234503072
1634.0,0.01793389240071724
1633.0,0.01781487843322903
1632.0,0.017735330766739044
1631.0,0.017612640196838537
1630.0,0.01741484589525569
1629.0,0.017145245802633883
1628.0,0.016826897157421177
1627.0,0.016501163982361802
1626.0,0.0161988784492448
1625.0,0.015902856449936487
1624.0,0.015554418296652798
1623.0,0.015138281286186009
1622.0,0.01475331451949392
1621.0,0.014480138982421339
1620.0,0.014281267332026592
1619.0,0.01407394971594883
1618.0,0.013778808239223091
1617.0,0.01335790959658406
1616.0,0.012902349953385473
1615.0,0.012552119778368332
1614.0,0.012319063661109825
1613.0,0.012127160003114803
1612.0,0.01191470421508693
1611.0,0.01166472461324325
1610.0,0.011399890885106182
1609.0,0.011141951479173328
1608.0,0.010892207623567239
1607.0,0.010654958175509766
1606.0,0.01044521883691622
1605.0,0.010259431719416059
1604.0,0.010074289287493744
1603.0,0.009879494822661424
1602.0,0.00969229537513724
1601.0,0.009528230837804973
1600.0,0.009380173313476625
1599.0,0.009240301497129252
1598.0,0.009112198590487315
1597.0,0.008994577472728634
1596.0,0.008873620536327516
1595.0,0.008744335099580492
1594.0,0.00862325491815414
1593.0,0.008522149173406053
1592.0,0.008432753821049924
1591.0,0.008348780776909226
1590.0,0.00827764597492188
1589.0,0.008220031736078015
1588.0,0.008163357456795247
1587.0,0.008105084720414081
1586.0,0.008059798154688779
1585.0,0.008033087003725403
1584.0,0.008012502811228877
1583.0,0.007992560437030347
1582.0,0.007982124392083586
1581.0,0.007983209970271073
1580.0,0.007983374619821269
1579.0,0.007977750358279453
1578.0,0.007977869047516274
1577.0,0.007998317882809332
1576.0,0.008014632275457853
1575.0,0.0080084528154604
1574.0,0.008022794016382236
1573.0,0.008066170672123103
1572.0,0.008104143291122695
1571.0,0.008131613463357999
1570.0,0.008182857762953051
1569.0,0.008263268223158092
1568.0,0.008342614097926429
1567.0,0.008423466086470464
1566.0,0.008522589060815903
1565.0,0.008631577061633524
1564.0,0.00872113987131371
1563.0,0.008758108445262522
1562.0,0.008754749617731877
1561.0,0.008740528424581902
1560.0,0.008833761386214565
1559.0,0.009024366392025949
1558.0,0.009092846724157819
1557.0,0.009147143050942023
1556.0,0.00931775688342407
1555.0,0.009511415760496716
1554.0,0.009676510410358736
1553.0,0.009813063683446114
1552.0,0.00993799188382819
1551.0,0.010048074909767968
1550.0,0.010129075663759108
1549.0,0.01017259649074387
1548.0,0.010178198396959921
1547.0,0.010158165532410689
1546.0,0.010120450740895768
1545.0,0.010070118234806729
1544.0,0.009994255944554496
1543.0,0.009881322382323393
1542.0,0.009748547627158577
1541.0,0.00967861231118196
1540.0,0.009654224622642961
1539.0,0.009543816051564725
1538.0,0.0094301867335144
1537.0,0.009400383425762016
1536.0,0.009385399955000224
1535.0,0.00932306335670029
1534.0,0.00919293479386648
1533.0,0.009040492407479127
1532.0,0.008920358343939864
1531.0,0.00882906892591645
1530.0,0.008742167311494095
1529.0,0.00864811810436105
1528.0,0.008530849015034599
1527.0,0.008363013742432007
1526.0,0.00816823154272271
1525.0,0.008018744273676758
1524.0,0.00792972131792295
1523.0,0.007830494344633676
1522.0,0.007674459377216126
1521.0,0.007530305717625424
1520.0,0.00745222288414893
1519.0,0.007402627031260277
1518.0,0.00733777097296813
1517.0,0.007238460914421035
1516.0,0.007096835760845473
1515.0,0.006923355527009715
1514.0,0.006752724351893804
1513.0,0.006606222925125994
1512.0,0.006475044571053235
1511.0,0.006334571794010296
1510.0,0.00618849447219446
1509.0,0.006065290472067667
1508.0,0.005963954144006298
1507.0,0.005781080062516788
1506.0,0.005485020288039674
1505.0,0.005289038494541581
1504.0,0.005262030457656353
1503.0,0.005254283258792903
1502.0,0.005199666708442277
1501.0,0.005125165189633512
1500.0,0.00505192558214242
1499.0,0.0049502934377341715
1498.0,0.004807671235216169
1497.0,0.004702550655379969
1496.0,0.004661713589872111
1495.0,0.004607839976037952
1494.0,0.004539818691248565
1493.0,0.004510577810115821
1492.0,0.004510069625119351
1491.0,0.004460747277890843
1490.0,0.0043661913189998024
1489.0,0.004364504354671099
1488.0,0.004442179116253863
1487.0,0.004475712856302069
1486.0,0.004494337010202162
1485.0,0.0045786718267136674
1484.0,0.004716991292375602
1483.0,0.004866111620548244
1482.0,0.005070390141684699
1481.0,0.005419787877358395
1480.0,0.005908971555110463
1479.0,0.006569187435281556
1478.0,0.007764404098837223
1477.0,0.010082843040785177
1476.0,0.01386075076731554
1475.0,0.018819527970552103
1474.0,0.02440788729972827
1473.0,0.028846957317163982
1472.0,0.02962730359013113
1471.0,0.027638378666801793
1470.0,0.025480494045484896
1469.0,0.02397562759846392
1468.0,0.023059942677611692
1467.0,0.02283782505397164
1466.0,0.02402703496153907
1465.0,0.027250328864510533
1464.0,0.03121234938673207
1463.0,0.0335610518652095
1462.0,0.03346618233123125
1461.0,0.031356441904917765
1460.0,0.027847486702272037
1459.0,0.023603850999947756
1458.0,0.01929562731705155
1457.0,0.0159246815794148
1456.0,0.014133424972392398
1455.0,0.013347650880714643
1454.0,0.012840619522215099
1453.0,0.012309988834987726
1452.0,0.011721885877065236
1451.0,0.011210984924809316
1450.0,0.010822078318489312
1449.0,0.01048422457169982
1448.0,0.010156196894105587
1447.0,0.009901818743511677
1446.0,0.009739588562921203
1445.0,0.009604773786372447
1444.0,0.009464108024643163
1443.0,0.009335790721926246
1442.0,0.009222530044123474
1441.0,0.009093187949245317
1440.0,0.008936254261734715
1439.0,0.008771456764932382
1438.0,0.008603291939747003
1437.0,0.008408049957952267
1436.0,0.008216237430018852
1435.0,0.008103030122473973
1434.0,0.008043424537609494
1433.0,0.007953680171717445
1432.0,0.007809560819476861
1431.0,0.007647658831690427
1430.0,0.0074902021968967615
1429.0,0.007322633071302336
1428.0,0.007160884752976568
1427.0,0.007044267290245623
1426.0,0.00696845849504894
1425.0,0.006887349775018841
1424.0,0.006783190503461357
1423.0,0.006685285762542123
1422.0,0.006603205368989546
1421.0,0.00651409202976063
1420.0,0.0064202489268866
1419.0,0.0063609099588916255
1418.0,0.00634083004732244
1417.0,0.006322836956347654
1416.0,0.0062979671600409326
1415.0,0.0062741828357496185
1414.0,0.006242244510400055
1413.0,0.006187379713424343
1412.0,0.006117089424518133
1411.0,0.006057630897503442
1410.0,0.006010235480353626
1409.0,0.005952313199766167
1408.0,0.005880204645216719
1407.0,0.0058095233619760095
1406.0,0.0057367185163978585
1405.0,0.005636763068994192
1404.0,0.005518228520033517
1403.0,0.00542050506387352
1402.0,0.005347015661068171
1401.0,0.005265138033050747
1400.0,0.005159695923633856
1399.0,0.00505531434457199
1398.0,0.004971275670216479
1397.0,0.0048899413096932
1396.0,0.004801123811245985
1395.0,0.004722833437668574
1394.0,0.004657381446042645
1393.0,0.004592304670772955
1392.0,0.004536373046425328
1391.0,0.004497098215976606
1390.0,0.004460346090264992
1389.0,0.004407021688299539
1388.0,0.004344094612117544
1387.0,0.004304077532955998
1386.0,0.0042915053470949
1385.0,0.004282370823655745
1384.0,0.004274878735010243
1383.0,0.004286358370739094
1382.0,0.004320169520268781
1381.0,0.004361454006438147
1380.0,0.0043978553676410695
1379.0,0.004425174982846112
1378.0,0.004432828428595056
1377.0,0.004411087733878423
1376.0,0.0043709542629697595
1375.0,0.004340203674934453
1374.0,0.004331361757549589
1373.0,0.004331015038107712
1372.0,0.004337392194583971
1371.0,0.004362784233464745
1370.0,0.004396587861194312
1369.0,0.0044049901271795925
1368.0,0.004370002215867827
1367.0,0.00430555127688741
1366.0,0.004227794087999627
1365.0,0.00413681033693809
1364.0,0.0040311596534968784
1363.0,0.003924472329148107
1362.0,0.0038310656886660125
1361.0,0.003747258958090384
1360.0,0.00367408986283048
1359.0,0.003623209306427374
1358.0,0.003594185007033213
1357.0,0.003576372848689897
1356.0,0.003567972578145951
1355.0,0.0035747038773594427
1354.0,0.003588649976282704
1353.0,0.0035913341095373933
1352.0,0.0035774441809511503
1351.0,0.003555703371177207
1350.0,0.0035298116790101015
1349.0,0.0034935568000954813
1348.0,0.0034484524785934542
1347.0,0.0034048863872413408
1346.0,0.003363730985594573
1345.0,0.0033159432171485812
1344.0,0.0032624584965395445
1343.0,0.0032153178952736648
1342.0,0.0031767594952765163
1341.0,0.0031334340838232687
1340.0,0.0030818231420799568
1339.0,0.0030388260091220344
1338.0,0.0030067566606494403
1337.0,0.0029697911180958424
1336.0,0.002927689443912949
1335.0,0.0028933537411645442
1334.0,0.0028698322409223716
1333.0,0.00284931169914762
1332.0,0.0028295148057039202
1331.0,0.002817712949057819
1330.0,0.0028166113342868045
1329.0,0.0028200203405878347
1328.0,0.0028252864983051807
1327.0,0.0028370517557568305
1326.0,0.0028559477468213506
1325.0,0.0028753922758822485
1324.0,0.0028944566446327
1323.0,0.0029195757669632865
1322.0,0.0029512991692208558
1321.0,0.0029826821927255243
1320.0,0.003012395706559171
1319.0,0.003046140272900397
1318.0,0.0030818918495115
1317.0,0.003110336923568717
1316.0,0.0031322992265465986
1315.0,0.0031584681089890337
1314.0,0.0031917382303378677
1313.0,0.0032239529458371707
1312.0,0.0032497135365095785
1311.0,0.003270843734731938
1310.0,0.0032867102645413146
1309.0,0.0032937190095488136
1308.0,0.0032953017844332883
1307.0,0.0032999938723526174
1306.0,0.0033079409982671205
1305.0,0.0033104042428295823
1304.0,0.003305141267281218
1303.0,0.00329882032093708
1302.0,0.0032937111966720232
1301.0,0.003284341624121094
1300.0,0.003268783913290724
1299.0,0.0032516073038056778
1298.0,0.0032343215764156497
1297.0,0.003214178916982752
1296.0,0.003193190182471627
1295.0,0.0031775626745638094
1294.0,0.0031668400495665655
1293.0,0.00315471124038944
1292.0,0.003140806177446924
1291.0,0.003130790124532499
1290.0,0.003125169285118099
1289.0,0.0031192073210720376
1288.0,0.0031140790376500273
1287.0,0.0031161474092587316
1286.0,0.0031248264113275946
1285.0,0.003133650410935477
1284.0,0.003142810271619551
1283.0,0.0031580845224452037
1282.0,0.0031782880122373887
1281.0,0.003195709412145492
1280.0,0.0032093972143424133
1279.0,0.00322651747604938
1278.0,0.003249309265655886
1277.0,0.0032726368434765293
1276.0,0.0032952761043619754
1275.0,0.0033221927461492672
1274.0,0.003353818548281243
1273.0,0.003383892986100984
1272.0,0.003410299372376864
1271.0,0.003438011126893495
1270.0,0.0034688493591652474
1269.0,0.0034983258387357523
1268.0,0.00352474274564567
1267.0,0.003550667922315696
1266.0,0.0035735092263223917
1265.0,0.003585432778648284
1264.0,0.003585106209798536
1263.0,0.003580794125858992
1262.0,0.003581141772954719
1261.0,0.0035914084179670264
1260.0,0.0036183851465325825
1259.0,0.00366820734034705
1258.0,0.003737310267968648
1257.0,0.0038154591334665804
1256.0,0.0038975235419420958
1255.0,0.003983714636008239
1254.0,0.004070222059754181
1253.0,0.004149726914575942
1252.0,0.004221456119194523
1251.0,0.00429171531103748
1250.0,0.004363466560106605
1249.0,0.0044333807056601
1248.0,0.0044997632783298925
1247.0,0.004564997165099844
1246.0,0.004628857089837692
1245.0,0.004687381920685711
1244.0,0.004739469653268701
1243.0,0.004787514324124596
1242.0,0.004831050497301419
1241.0,0.0048669665463888685
1240.0,0.004896526049928059
1239.0,0.00492520245216871
1238.0,0.0049546459293721146
1237.0,0.0049810283647065915
1236.0,0.005001997406857751
1235.0,0.005018903162462443
1234.0,0.005031577043192515
1233.0,0.005037492349257431
1232.0,0.005037276465909136
1231.0,0.0050349986002114
1230.0,0.0050318632786740146
1229.0,0.005025296689716334
1228.0,0.005014797433724102
1227.0,0.005002898358123573
1226.0,0.004990158613014331
1225.0,0.004975306804596642
1224.0,0.004960589665155532
1223.0,0.004950060106661055
1222.0,0.004941570008581737
1221.0,0.004927401962470336
1220.0,0.004904516503330056
1219.0,0.004878035757771686
1218.0,0.004852935928055863
1217.0,0.004828860750797478
1216.0,0.0048054490680860965
1215.0,0.004786197288458368
1214.0,0.004773761534759737
1213.0,0.004766456229025098
1212.0,0.00476184886119722
1211.0,0.004759139270420198
1210.0,0.004756720653781861
1209.0,0.0047523321372908295
1208.0,0.0047465574152289166
1207.0,0.004741408587721655
1206.0,0.0047352709473707484
1205.0,0.004724534015031278
1204.0,0.004710220496619756
1203.0,0.0046972599128943925
1202.0,0.004686860221672084
1201.0,0.0046754510842291624
1200.0,0.004661549921927754
1199.0,0.004647549576677403
1198.0,0.0046341521267429875
1197.0,0.004619733508344619
1196.0,0.004606277112148052
1195.0,0.00459921571132965
1194.0,0.004599843500630902
1193.0,0.004603940694303951
1192.0,0.004609389371249073
1191.0,0.004618742490655308
1190.0,0.004632647616882888
1189.0,0.004647453311132657
1188.0,0.004661887821394328
1187.0,0.004680255602708504
1186.0,0.004706286829498167
1185.0,0.004738883390610588
1184.0,0.004776285014869381
1183.0,0.004819566783266262
1182.0,0.004869778241187331
1181.0,0.004925754123757269
1180.0,0.004986608749724031
1179.0,0.005052662670734767
1178.0,0.005122241784163823
1177.0,0.005190989054757722
1176.0,0.005255674383458435
1175.0,0.005316180939677021
1174.0,0.005373553981504015
1173.0,0.0054286121844992295
1172.0,0.005482707659975822
1171.0,0.005537058257204186
1170.0,0.005590498359747644
1169.0,0.005639641541812157
1168.0,0.005681659598236788
1167.0,0.005716378550191695
1166.0,0.0057469233847958386
1165.0,0.005779474269497297
1164.0,0.005820329750904482
1163.0,0.0058706596148735
1162.0,0.0059252580511505075
1161.0,0.005978337443296806
1160.0,0.006029055294718525
1159.0,0.006079999150106526
1158.0,0.00613284414507663
1157.0,0.006187829164954246
1156.0,0.006244905375284701
1155.0,0.0063023118800818725
1154.0,0.006356150017514193
1153.0,0.006404680712879934
1152.0,0.006451487214564037
1151.0,0.006501296153409292
1150.0,0.006553904503225264
1149.0,0.0066050461829093654
1148.0,0.006652194478320665
1147.0,0.006696768033637134
1146.0,0.006741275353324217
1145.0,0.006786730164302047
1144.0,0.006832929292831265
1143.0,0.006879765275989479
1142.0,0.006927837909140252
1141.0,0.006978023753281883
1140.0,0.0070300491590367924
1139.0,0.007081741527432311
1138.0,0.007131066700283918
1137.0,0.007179004743608581
1136.0,0.007229025767227067
1135.0,0.00728381160875882
1134.0,0.007343860712284963
1133.0,0.0074085345350552115
1132.0,0.007476126539298627
1131.0,0.007543393251296945
1130.0,0.007607717352859415
1129.0,0.007669448631895402
1128.0,0.007729633639960792
1127.0,0.0077863924465228
1126.0,0.007837019770921315
1125.0,0.007883156199920364
1124.0,0.007930239222699266
1123.0,0.007981986452434399
1122.0,0.008038574488004517
1121.0,0.008099919978651938
1120.0,0.00816702419619858
1119.0,0.008239436040374061
1118.0,0.008314431504782975
1117.0,0.00838941582858478
1116.0,0.008462902973711698
1115.0,0.008533290880539028
1114.0,0.008599080125661863
1113.0,0.008659976061084188
1112.0,0.00871587239262684
1111.0,0.008766122281370104
1110.0,0.008811634365398328
1109.0,0.008855666038161786
1108.0,0.00890060720894676
1107.0,0.00894557124529572
1106.0,0.008989394079402576
1105.0,0.009033336319993182
1104.0,0.009078067842776738
1103.0,0.009121080942807901
1102.0,0.009159415457420385
1101.0,0.009193282201572117
1100.0,0.009224643245333394
1099.0,0.009254621760062054
1098.0,0.009286564769324896
1097.0,0.009324957664905209
1096.0,0.009369185704933225
1095.0,0.00941197514015062
1094.0,0.009448456349634158
1093.0,0.009483008615467145
1092.0,0.00952296788119402
1091.0,0.009568844028737845
1090.0,0.009614812033180715
1089.0,0.009656020022591257
1088.0,0.009691632286843412
1087.0,0.009723412888742403
1086.0,0.00975468710489838
1085.0,0.009787783827545013
1084.0,0.009819597633411153
1083.0,0.009842725364150037
1082.0,0.009853257621702546
1081.0,0.009853727926727602
1080.0,0.009846709598432118
1079.0,0.009830586965400923
1078.0,0.009803781106381753
1077.0,0.009767857853586583
1076.0,0.009724125012833618
1075.0,0.00967238111033251
1074.0,0.009615111372471804
1073.0,0.00955738609357686
1072.0,0.009500360658375465
1071.0,0.00944017831943707
1070.0,0.009375556122677453
1069.0,0.009311381782539537
1068.0,0.009252584935342941
1067.0,0.009199201238430483
1066.0,0.009149358106543111
1065.0,0.009102296132938486
1064.0,0.009056015452963119
1063.0,0.009006220187275715
1062.0,0.008950386980436102
1061.0,0.008889802577836203
1060.0,0.008825908742891716
1059.0,0.008758272414857113
1058.0,0.008687839043048554
1057.0,0.008618538371584602
1056.0,0.008553779615137586
1055.0,0.008493987845094288
1054.0,0.008438262466056246
1053.0,0.008384944669196762
1052.0,0.008329232647912308
1051.0,0.008264423766669075
1050.0,0.008188670808004844
1049.0,0.00810761912579469
1048.0,0.008028348254557373
1047.0,0.007953777685815113
1046.0,0.007883331339086008
1045.0,0.00781491918677722
1044.0,0.007745297032505616
1043.0,0.007671763826376522
1042.0,0.007594932121047204
1041.0,0.0075180747016786965
1040.0,0.007443552012011318
1039.0,0.007372031011458867
1038.0,0.007304977568064258
1037.0,0.007244781509418946
1036.0,0.007191211716092749
1035.0,0.007139896287799518
1034.0,0.007085948365903946
1033.0,0.007027937636309335
1032.0,0.006966969625747739
1031.0,0.006902681155362444
1030.0,0.006831570460074624
1029.0,0.006749396431799695
1028.0,0.006654951054784399
1027.0,0.006551584876821863
1026.0,0.00644472557650324
1025.0,0.006337582573027636
1024.0,0.00622975546009043
1023.0,0.006120031361868977
1022.0,0.006009610506746974
1021.0,0.005902451314351572
1020.0,0.005803160476107306
1019.0,0.005714039565454943
1018.0,0.005632832516395283
1017.0,0.005554123271572554
1016.0,0.0054746520374772
1015.0,0.0053968955435694625
1014.0,0.005326129074797017
1013.0,0.005264877999624772
1012.0,0.005212000585465752
1011.0,0.0051657098807972035
1010.0,0.005124385208757069
1009.0,0.005084754483142227
1008.0,0.005042462924779952
1007.0,0.004995502149448185
1006.0,0.0049450975518975935
1005.0,0.004892389132504743
1004.0,0.004836150467694691
1003.0,0.004774777769901222
1002.0,0.004708478675011309
1001.0,0.00463773790838679
1000.0,0.004560916625456116
999.0,0.004475400212907314
998.0,0.004381168981958804
997.0,0.004282286174996913
996.0,0.0041846599977521815
995.0,0.004092332641641186
994.0,0.004005544203021921
993.0,0.003922432631614132
992.0,0.0038424746442021077
991.0,0.003767091695561834
990.0,0.0036965973511697953
989.0,0.003628456520013243
988.0,0.0035599152520220207
987.0,0.0034911269557156392
986.0,0.003424611296980078
985.0,0.0033628528895496717
984.0,0.003307256127207826
983.0,0.0032576920292079724
982.0,0.0032118335074413865
981.0,0.0031666343361419534
980.0,0.003121601692473541
979.0,0.0030787126802433464
978.0,0.0030379997340217275
977.0,0.002995684718914181
976.0,0.0029484567342545755
975.0,0.0028973286602558515
974.0,0.0028452205237788904
973.0,0.0027928017224176475
972.0,0.0027391669119042968
971.0,0.0026848794507794162
970.0,0.0026315266267365367
969.0,0.0025791237520705903
968.0,0.0025261856242152292
967.0,0.002471640230222426
966.0,0.002414942151094573
965.0,0.002355332110687444
964.0,0.0022927977530052264
963.0,0.002228933200508513
962.0,0.0021654380863978
961.0,0.0021028450257416695
960.0,0.0020418448168017236
959.0,0.0019841595323398143
958.0,0.0019305506837334746
957.0,0.0018794772234017765
956.0,0.0018290710822817045
955.0,0.001778917284592991
954.0,0.0017290702691388114
953.0,0.0016796955540366735
952.0,0.0016330425287655447
951.0,0.0015931656423477853
950.0,0.0015616677590512872
949.0,0.0015357320001332237
948.0,0.0015120085710770292
947.0,0.0014904316547056024
946.0,0.0014729720751537956
945.0,0.0014608813162364522
944.0,0.0014543823829202818
943.0,0.0014526464534188842
942.0,0.0014527221429802048
941.0,0.0014507908059339656
940.0,0.001445742803798385
939.0,0.0014396216338178345
938.0,0.0014339600723024168
937.0,0.0014280302866978502
936.0,0.0014211872547865295
935.0,0.0014139604691831096
934.0,0.0014058894556301029
933.0,0.001395261798728527
932.0,0.0013822121248995992
931.0,0.0013693953788256085
930.0,0.001358494452027686
929.0,0.0013486760882265333
928.0,0.0013393894300745986
927.0,0.0013317409904071203
926.0,0.0013260943746751508
925.0,0.001321341041965442
924.0,0.0013174948494670043
923.0,0.0013157990058406492
922.0,0.001315496320988688
921.0,0.001314329763760556
920.0,0.0013134917340206392
919.0,0.0013179965524909175
918.0,0.0013300939174701316
917.0,0.0013457365867251307
916.0,0.0013594302117865818
915.0,0.0013692039465247616
914.0,0.0013752035046716948
913.0,0.001377231392950789
912.0,0.0013759432299784203
911.0,0.0013727287401730619
910.0,0.0013655116957629395
909.0,0.0013480932937280942
908.0,0.0013169366348256325
907.0,0.001275847535490686
906.0,0.0012311161119725703
905.0,0.0011850990088960861
904.0,0.0011378425573668899
903.0,0.0010917224258596998
902.0,0.0010501700313330627
901.0,0.0010140100460121816
900.0,0.0009826734204314445
899.0,0.0009567187231403709
898.0,0.0009357678728791065
897.0,0.0009163199132916556
896.0,0.0008956230435274931
895.0,0.0008756102062778028
894.0,0.0008594537595233103
893.0,0.0008461619297511291
892.0,0.000832358482890389
891.0,0.0008179094859273588
890.0,0.0008061446840319051
889.0,0.0007992715092030543
888.0,0.0007962959117892557
887.0,0.0007946210596622322
886.0,0.0007917498357891315
885.0,0.0007868866845478424
884.0,0.0007826068377210919
883.0,0.0007829491339354826
882.0,0.0007880606736507859
881.0,0.0007933966694222165
880.0,0.0007963744936637485
879.0,0.0008005081192152627
878.0,0.0008100429703438367
877.0,0.0008240907499068621
876.0,0.0008399653988591507
875.0,0.0008586029301393032
874.0,0.0008811731197263088
873.0,0.0009020304688879786
872.0,0.0009100198605492203
871.0,0.0008971450352957986
870.0,0.0008644100263114417
869.0,0.0008211307715784072
868.0,0.0007808116140707787
867.0,0.0007549670631465735
866.0,0.0007464095356018275
865.0,0.0007487355090955628
864.0,0.000754056734738063
863.0,0.0007593276306962883
862.0,0.000764186654511531
861.0,0.0007668017113420808
860.0,0.0007655083807932871
859.0,0.0007617987153931532
858.0,0.0007578263928543968
857.0,0.0007527324918807954
856.0,0.0007446480308646638
855.0,0.0007343822754316538
854.0,0.0007239063951245667
853.0,0.0007132629584004276
852.0,0.0007024298120698383
851.0,0.0006941557442781594
850.0,0.0006911813907534904
849.0,0.0006924463338181349
848.0,0.0006956184002885275
847.0,0.0007012392381951227
846.0,0.0007104579256614363
845.0,0.0007209516719578053
844.0,0.0007298230796520722
843.0,0.0007393686931815292
842.0,0.0007556409795850682
841.0,0.0007817016041312424
840.0,0.0008155636705588054
839.0,0.0008532890361516511
838.0,0.0008902877515835436
837.0,0.0009210779823593902
836.0,0.0009425049026086542
835.0,0.0009575814476697543
834.0,0.0009727396618318361
833.0,0.0009909670104994697
832.0,0.0010102902613392003
831.0,0.0010280753984827028
830.0,0.001043184948711555
829.0,0.0010547292755901723
828.0,0.0010632787077330835
827.0,0.0010731596981757967
826.0,0.00108814817464815
825.0,0.0011046156216735655
824.0,0.0011152071527097882
823.0,0.0011196888554284815
822.0,0.0011250730185367811
821.0,0.0011351458831872897
820.0,0.0011477305971605873
819.0,0.0011618351657089172
818.0,0.0011797332756241443
817.0,0.001201230501519855
816.0,0.0012219244981420438
815.0,0.001238561527042713
814.0,0.0012514874254762436
813.0,0.0012607872582635724
812.0,0.0012651135204365456
811.0,0.0012662040247419138
810.0,0.0012695335240977925
809.0,0.0012778326422856724
808.0,0.001287940629734167
807.0,0.0012959006065398153
806.0,0.0013011759862105283
805.0,0.0013044285609104989
804.0,0.0013060940491414076
803.0,0.0013090900299649504
802.0,0.001317580896530673
801.0,0.0013306003167408286
800.0,0.0013419301398832407
799.0,0.0013489577223219408
798.0,0.0013568556361508784
797.0,0.0013715430752057867
796.0,0.00139361751298804
795.0,0.0014214025932769436
794.0,0.0014536006229261835
793.0,0.0014857523773374572
792.0,0.0015107380556748677
791.0,0.0015274303125355723
790.0,0.0015435419307736683
789.0,0.0015655190153974015
788.0,0.001590600002361048
787.0,0.0016126667943152447
786.0,0.0016303621770455017
785.0,0.00164527179537979
784.0,0.0016580230254104043
783.0,0.0016709543429107643
782.0,0.001688529132481596
781.0,0.0017099803412555807
780.0,0.001727501268868113
779.0,0.0017365247473217261
778.0,0.00174127867637808
777.0,0.0017456222103304918
776.0,0.0017465876117902389
775.0,0.0017431495751518583
774.0,0.0017426552823283168
773.0,0.0017505312739957844
772.0,0.001761592346242559
771.0,0.0017698811405358595
770.0,0.0017792335939497692
769.0,0.0017949093455082274
768.0,0.001812338130978297
767.0,0.001824456943123824
766.0,0.001833304182528656
765.0,0.0018440631328486394
764.0,0.0018546635240710534
763.0,0.0018616929695862657
762.0,0.0018694639458461083
761.0,0.001882322762621754
760.0,0.0018950916878621524
759.0,0.0019024708972704906
758.0,0.0019104504397944849
757.0,0.0019265077182471465
756.0,0.0019462469593175076
755.0,0.001962283687900057
754.0,0.0019781762708049487
753.0,0.00200017054922241
752.0,0.002024242422957229
751.0,0.0020455921763120636
750.0,0.0020708278537137255
749.0,0.0021049335901138387
748.0,0.0021367165361672203
747.0,0.002154995920270828
746.0,0.0021694697893273446
745.0,0.002196671661939922
744.0,0.0022358399755596334
743.0,0.00227937444792587
742.0,0.0023354067122620904
741.0,0.002417219041061419
740.0,0.0025243652805465987
739.0,0.002661199843135099
738.0,0.0028622974990656813
737.0,0.003185483251231931
736.0,0.0037270735679928854
735.0,0.00469428635454672
734.0,0.006393821080900156
733.0,0.00897697120783187
732.0,0.012068322538503762
731.0,0.014691354965969999
730.0,0.015815950997245466
729.0,0.015183266103213605
728.0,0.013488953309920795
727.0,0.011732350002448948
726.0,0.010557569776121533
725.0,0.010155152165897931
724.0,0.010567387777818585
723.0,0.011956820617272929
722.0,0.014513045161312887
721.0,0.018001543777957055
720.0,0.02137555328291926
719.0,0.023171386136037773
718.0,0.022668736516820526
717.0,0.020405941665323547
716.0,0.017458087988712203
715.0,0.014627337322557854
714.0,0.012259416464605329
713.0,0.010421917258317936
712.0,0.009068378079648871
711.0,0.008092341734204724
710.0,0.0073649702079982135
709.0,0.006795580809146427
708.0,0.006347969431307483
707.0,0.0059972542835068565
706.0,0.005706203366969666
705.0,0.005451993610259026
704.0,0.005238550365554128
703.0,0.0050659053565433355
702.0,0.004914926443913122
701.0,0.004773062401577412
700.0,0.004647474751791796
699.0,0.004541813154496394
698.0,0.004444095365055128
697.0,0.004348287260797452
696.0,0.004264685077870922
695.0,0.004197584391029989
694.0,0.004134098784994423
693.0,0.0040655346758922345
692.0,0.004000684213671119
691.0,0.003947643564639138
690.0,0.003899952117279325
689.0,0.0038508588278893955
688.0,0.0038045128481276323
687.0,0.0037630476051711595
686.0,0.0037211005877095943
685.0,0.0036809718522818084
684.0,0.003652723984834473
683.0,0.003634633483933459
682.0,0.0036130989210010228
681.0,0.0035854583035311144
680.0,0.0035636722713409622
679.0,0.0035509187590291804
678.0,0.003533994470992051
677.0,0.003506102113492887
676.0,0.0034775594717476343
675.0,0.0034553751383238837
674.0,0.0034321786617415883
673.0,0.003402377584843112
672.0,0.0033708634720703607
671.0,0.003339303655049417
670.0,0.0033014709870223934
669.0,0.003254941220930656
668.0,0.003215740420836716
667.0,0.00319856931263565
666.0,0.0031902164154208605
665.0,0.003174360575076882
664.0,0.0031558727129942696
663.0,0.0031402196266689265
662.0,0.003123843332828567
661.0,0.0031041169334111917
660.0,0.0030898510684204844
659.0,0.0030850111614708895
658.0,0.0030777633416630536
657.0,0.003058208749456569
656.0,0.0030327345777928574
655.0,0.003009208186111746
654.0,0.002984887255249412
653.0,0.002957392152968105
652.0,0.0029315739897739527
651.0,0.002906799942351505
650.0,0.00287282490151853
649.0,0.002827444585488362
648.0,0.002783689106287592
647.0,0.002752357283027518
646.0,0.00273099908694966
645.0,0.002714838024561951
644.0,0.0027021893306158197
643.0,0.002684851416914051
642.0,0.002652549767740441
641.0,0.0026120840376698123
640.0,0.0025821409583233115
639.0,0.0025630334059411337
638.0,0.002533093839716534
637.0,0.0024854159155982833
636.0,0.0024438643478830427
635.0,0.0024305656378966587
634.0,0.0024386221359984353
633.0,0.002450716007654123
632.0,0.0024599403243341996
631.0,0.0024561710196241344
630.0,0.002422138672051526
629.0,0.0023599826745323627
628.0,0.002296422164770093
627.0,0.002247239634149557
626.0,0.0021947675658122293
625.0,0.0021169439713365074
624.0,0.002020133431877029
623.0,0.0019218500888068197
622.0,0.0018226686328038863
621.0,0.0017221271238452424
620.0,0.0016433238618535529
619.0,0.0016097881128562842
618.0,0.001609915158398531
617.0,0.001617064979239095
616.0,0.0016303887600785055
615.0,0.0016581262285687579
614.0,0.0016831280782345969
613.0,0.001683527625886127
612.0,0.0016663638818528554
611.0,0.0016551294567168293
610.0,0.0016624262168408602
609.0,0.0016926930372652452
608.0,0.0017511098502032663
607.0,0.0018230204304319026
606.0,0.0018658574814968884
605.0,0.001852093095531286
604.0,0.001800436252372839
603.0,0.0017505986451382281
602.0,0.0017251832737163956
601.0,0.0017246146834200913
600.0,0.0017404096108830992
599.0,0.001756523772241396
598.0,0.0017531019614828187
597.0,0.0017256102845006535
596.0,0.0016905384890190892
595.0,0.0016682858095946628
594.0,0.0016670689209896106
593.0,0.0016822154758162743
592.0,0.0016965164832024693
591.0,0.0016775393983104962
590.0,0.00160400522849896
589.0,0.0014980689407753506
588.0,0.0014036090835081705
587.0,0.001338650877336857
586.0,0.0012788135013714467
585.0,0.0011934743676807022
584.0,0.0010832101917707684
583.0,0.0009663530985143356
582.0,0.0008496576299970115
581.0,0.0007305932894118756
580.0,0.0006187971484926379
579.0,0.0005288426810759961
578.0,0.0004582661619688554
577.0,0.0004052797534057527
576.0,0.0003938325420053044
575.0,0.00043685599591737536
574.0,0.0004924421884431521
573.0,0.0005147591681559889
572.0,0.0005082742754935461
571.0,0.0004995907656563782
570.0,0.0004997792765968771
569.0,0.0005143534590351194
568.0,0.0005581135415929674
567.0,0.0006119313689631329
566.0,0.0006111814104063775
565.0,0.000535042357318463
564.0,0.0004529587528764566
563.0,0.0004542368089778383
562.0,0.0005435882072257631
561.0,0.0006406269508276997
560.0,0.0006742151531165336
559.0,0.0006295551664364096
558.0,0.0005409033688499196
557.0,0.0004672321165449009
556.0,0.0004515097474741921
555.0,0.00048028811045702606
554.0,0.00049359885967173
553.0,0.0004654185443185691
552.0,0.00043940429710266827
551.0,0.00045568484715926243
550.0,0.00047720670233009175
