cm-1,A
4000.0,0.003882833393749091
3999.0,0.003877892222984034
3998.0,0.0038746590436575766
3997.0,0.003876202315657027
3996.0,0.0038820170406482103
3995.0,0.0038894115981493805
3994.0,0.0038952424326766794
3993.0,0.003896907272722441
3992.0,0.0038936881990130727
3991.0,0.003887521753841757
3990.0,0.0038823444642027234
3989.0,0.0038814351908903937
3988.0,0.0038851699994595142
3987.0,0.0038910620438839414
3986.0,0.003895616275024147
3985.0,0.003896557025672735
3984.0,0.0038942511612605106
3983.0,0.003891514982541278
3982.0,0.0038914180638022315
3981.0,0.0038948587809777896
3980.0,0.003899391863889206
3979.0,0.003900881675623926
3978.0,0.0038965715028708202
3977.0,0.003887173982319101
3976.0,0.00387701868550348
3975.0,0.0038710803163017867
3974.0,0.0038715523518386705
3973.0,0.0038759017910727483
3972.0,0.003878749602707489
3971.0,0.0038767527553947674
3970.0,0.0038718486416048845
3969.0,0.0038698152527647973
3968.0,0.003874626392273173
3967.0,0.003884836610580438
3966.0,0.0038949166230681197
3965.0,0.0038992389704932927
3964.0,0.0038958284774912467
3963.0,0.0038871452130383724
3962.0,0.003878280443178941
3961.0,0.003872793839865625
3960.0,0.003870204501673671
3959.0,0.0038683760921808027
3958.0,0.0038673985538295024
3957.0,0.0038697905303466612
3956.0,0.003876998208275865
3955.0,0.0038874938818150373
3954.0,0.003898089414614986
3953.0,0.0039062066243886646
3952.0,0.003910055608221411
3951.0,0.003908694044958415
3950.0,0.003902963907020501
3949.0,0.0038962625827352604
3948.0,0.0038933879274870636
3947.0,0.003896396141166312
3946.0,0.0039018789747544457
3945.0,0.003902598459855606
3944.0,0.0038958482021508424
3943.0,0.0038894049884224185
3942.0,0.0038918236500683793
3941.0,0.0039005429214298074
3940.0,0.0039050998468172626
3939.0,0.0038990915389945525
3938.0,0.003887890966360783
3937.0,0.0038826630657048684
3936.0,0.003887949398880662
3935.0,0.003898276694209159
3934.0,0.003905684091782307
3933.0,0.003907936423604408
3932.0,0.003908027757775462
3931.0,0.003908345540754334
3930.0,0.003909742015879656
3929.0,0.0039142291496664676
3928.0,0.003922371506149728
3927.0,0.003929561189803976
3926.0,0.003931297302794707
3925.0,0.003931375348052354
3924.0,0.0039369197275768465
3923.0,0.0039461919188459975
3922.0,0.003951386525148646
3921.0,0.003949706487183236
3920.0,0.003945397805493604
3919.0,0.003941638077794342
3918.0,0.003935364628820278
3917.0,0.003923146468101978
3916.0,0.0039073630504869485
3915.0,0.003890780053980065
3914.0,0.0038741222664704705
3913.0,0.0038590081601665403
3912.0,0.003850405057677685
3911.0,0.003852494323375967
3910.0,0.0038644119335410317
3909.0,0.003883255715502105
3908.0,0.003906351244258102
3907.0,0.003928718725315916
3906.0,0.003941382063282969
3905.0,0.00394161796416525
3904.0,0.003938515383450499
3903.0,0.0039402025210139345
3902.0,0.003942638604867465
3901.0,0.003935421581084135
3900.0,0.003918178992398218
3899.0,0.003901668490883397
3898.0,0.003893207408061341
3897.0,0.003890927461725876
3896.0,0.003892725188873407
3895.0,0.0038983101286899392
3894.0,0.003903600475641895
3893.0,0.0038968745386454935
3892.0,0.003874953087167914
3891.0,0.0038544960841830934
3890.0,0.0038550355657293537
3889.0,0.0038783919107460247
3888.0,0.0039008231659813436
3887.0,0.0038967085898547844
3886.0,0.003878416817393285
3885.0,0.0038798630211891475
3884.0,0.003906419136087344
3883.0,0.0039313485552516
3882.0,0.003926593710368269
3881.0,0.0038950568283235166
3880.0,0.0038682453574949253
3879.0,0.003866310957969416
3878.0,0.00388304026239726
3877.0,0.0038978991071658255
3876.0,0.003892669700246521
3875.0,0.003876294095335263
3874.0,0.003880510487102775
3873.0,0.003915900074314139
3872.0,0.003948167616753982
3871.0,0.003938740502131376
3870.0,0.0039042621369395616
3869.0,0.0038900242424780122
3868.0,0.003904547394724652
3867.0,0.003916993763275426
3866.0,0.0039034205072952842
3865.0,0.003879557068274265
3864.0,0.0038732995453277397
3863.0,0.0038794530608707856
3862.0,0.0038785899231083155
3861.0,0.0038682242882244105
3860.0,0.0038598047781157295
3859.0,0.003864321640491372
3858.0,0.0038867561758920855
3857.0,0.003923591657409051
3856.0,0.003947994276069947
3855.0,0.003921211887401704
3854.0,0.003872833265927243
3853.0,0.003867161992095862
3852.0,0.0038901447264660756
3851.0,0.0038978415008559496
3850.0,0.0038817016333646624
3849.0,0.0038585000191529734
3848.0,0.0038481845477698565
3847.0,0.0038561922488734874
3846.0,0.003874492166689691
3845.0,0.00389215853963031
3844.0,0.003905578767549118
3843.0,0.003919392938526706
3842.0,0.003938111887122844
3841.0,0.003953432164163524
3840.0,0.0039500719848654135
3839.0,0.003927417949302508
3838.0,0.0039021745276145697
3837.0,0.0038893414764139267
3836.0,0.0038893859345804933
3835.0,0.0038948096005385867
3834.0,0.0038969797265449944
3833.0,0.003891406639654851
3832.0,0.0038837008859780864
3831.0,0.0038830050016808023
3830.0,0.0038917958424728354
3829.0,0.003901919921616248
3828.0,0.0039017575231720097
3827.0,0.003891947492688662
3826.0,0.003890337820341425
3825.0,0.0039107337038854495
3824.0,0.003940481057481269
3823.0,0.003944417045069283
3822.0,0.003914027107027076
3821.0,0.0038923816055658643
3820.0,0.003904483844894422
3819.0,0.003930077078546993
3818.0,0.003932603692649234
3817.0,0.0038989822327557397
3816.0,0.0038657123823697855
3815.0,0.003865046370961912
3814.0,0.0038812558670497125
3813.0,0.0038853379193765246
3812.0,0.0038742263901615694
3811.0,0.0038679366556516248
3810.0,0.0038798546870645627
3809.0,0.003892658667706224
3808.0,0.0038848250041494453
3807.0,0.0038709796058473264
3806.0,0.003881489758467092
3805.0,0.003919789476809627
3804.0,0.003954350642792223
3803.0,0.003946961069999739
3802.0,0.003915034685975153
3801.0,0.003911908447497646
3800.0,0.003941520896462237
3799.0,0.0039664218432706325
3798.0,0.003959912080811804
3797.0,0.003930103690426895
3796.0,0.0039053453228796962
3795.0,0.003897716589095071
3794.0,0.003895336831455455
3793.0,0.0038866139451697425
3792.0,0.003874260824595642
3791.0,0.003866330085671296
3790.0,0.003864745471103514
3789.0,0.003866501019510648
3788.0,0.003870035720464837
3787.0,0.0038752088189694545
3786.0,0.0038806466866558222
3785.0,0.003885225010328011
3784.0,0.003891299042426811
3783.0,0.003900184682307699
3782.0,0.003907909836411861
3781.0,0.003907998670511693
3780.0,0.003902946733650099
3779.0,0.0039028710163675597
3778.0,0.003910217162469568
3777.0,0.003916791367843211
3776.0,0.00391497538705318
3775.0,0.003908638477232521
3774.0,0.00391029715657599
3773.0,0.003922309328982292
3772.0,0.003930860718658129
3771.0,0.003929251148791858
3770.0,0.0039325006660648485
3769.0,0.003951171944351108
3768.0,0.003971140174259145
3767.0,0.003971707783524149
3766.0,0.003954310705423866
3765.0,0.0039432147121201905
3764.0,0.003955716858114082
3763.0,0.003982432288176425
3762.0,0.004001570028346351
3761.0,0.00400523055069976
3760.0,0.004005972785299727
3759.0,0.004012520538529059
3758.0,0.004019920671949567
3757.0,0.004026737379491975
3756.0,0.004038742131656099
3755.0,0.004054475331202648
3754.0,0.0040624196438700565
3753.0,0.00405681924701086
3752.0,0.004048458873493927
3751.0,0.004046607350054402
3750.0,0.0040447341802117565
3749.0,0.004045776368660033
3748.0,0.00406573317298967
3747.0,0.004095364895936926
3746.0,0.004091362043500787
3745.0,0.0040603662143626935
3744.0,0.004061635607613998
3743.0,0.004097668269226455
3742.0,0.004127626380194122
3741.0,0.004133109644071703
3740.0,0.0041277928451322375
3739.0,0.004132628796338843
3738.0,0.004143757545045793
3737.0,0.004146126746126067
3736.0,0.004146418145874939
3735.0,0.004156024341387535
3734.0,0.0041602714820552405
3733.0,0.004141002916095684
3732.0,0.004108265805925901
3731.0,0.004087456174021138
3730.0,0.004091262341916026
3729.0,0.0041119741664602414
3728.0,0.004135670519527248
3727.0,0.004162933230896605
3726.0,0.004201183116350487
3725.0,0.0042417611589320395
3724.0,0.004268309383476215
3723.0,0.004279811641115796
3722.0,0.004291940130413753
3721.0,0.004316663539869966
3720.0,0.004351811146115054
3719.0,0.004389281527920361
3718.0,0.00442771318444298
3717.0,0.0044756003265987105
3716.0,0.004539073698267521
3715.0,0.004613055625443492
3714.0,0.004689211450438146
3713.0,0.004769573332927598
3712.0,0.0048670161379874835
3711.0,0.0049838766266780766
3710.0,0.005108882149979969
3709.0,0.005237145612991002
3708.0,0.005373406244216108
3707.0,0.005526589388381999
3706.0,0.005705596350828422
3705.0,0.0059166042716539725
3704.0,0.006163793397916544
3703.0,0.0064499769420398
3702.0,0.006765666987252063
3701.0,0.0070771225171295925
3700.0,0.007346454679721892
3699.0,0.007559031437683841
3698.0,0.007720051828272484
3697.0,0.007839529688495661
3696.0,0.007921288633061558
3695.0,0.007959379358131805
3694.0,0.007948868923128335
3693.0,0.007895610342970445
3692.0,0.007810300115134094
3691.0,0.007697426682127237
3690.0,0.0075599272054736825
3689.0,0.00741477790944038
3688.0,0.007284901877246978
3687.0,0.0071809763926158916
3686.0,0.007097566831862655
3685.0,0.007023558355426521
3684.0,0.006957120214191627
3683.0,0.006908347929611503
3682.0,0.006882425960158098
3681.0,0.006873929259514107
3680.0,0.0068803130149703
3679.0,0.0069066191526161655
3678.0,0.006947759212785341
3677.0,0.0069883670915782
3676.0,0.007045690017531848
3675.0,0.007134948731680699
3674.0,0.007226870117713507
3673.0,0.007300128512246441
3672.0,0.0073524275990591755
3671.0,0.00740329944843892
3670.0,0.007490230440124921
3669.0,0.0076028230395584154
3668.0,0.007694744394072589
3667.0,0.0077527832559706415
3666.0,0.007796302949289097
3665.0,0.007848245822175914
3664.0,0.007919281259610604
3663.0,0.008006153448991233
3662.0,0.008100278631295185
3661.0,0.008197943207708731
3660.0,0.00830092132349432
3659.0,0.008412185807999295
3658.0,0.008534164200647648
3657.0,0.008670351513163296
3656.0,0.008815346260295932
3655.0,0.00894876072097889
3654.0,0.009059684662890578
3653.0,0.009156695299046174
3652.0,0.009258199542996308
3651.0,0.009392886381064707
3650.0,0.009575992797048702
3649.0,0.0097687391532596
3648.0,0.009914294120826147
3647.0,0.010003940325252245
3646.0,0.010063487145163324
3645.0,0.010113789969826608
3644.0,0.01016419537745698
3643.0,0.010222929878816608
3642.0,0.01030091849719809
3641.0,0.010403535600501019
3640.0,0.010523931999450268
3639.0,0.010650914774567087
3638.0,0.010778894312796493
3637.0,0.010907008636021672
3636.0,0.011034208448546285
3635.0,0.011159951118093165
3634.0,0.011286697521713133
3633.0,0.011415336689009995
3632.0,0.011547568348377342
3631.0,0.011696855772981806
3630.0,0.011908187044467328
3629.0,0.012216429871600239
3628.0,0.012544879534654045
3627.0,0.012794765545025897
3626.0,0.012969633308783863
3625.0,0.013123153336751063
3624.0,0.013299325354198407
3623.0,0.013516701445445069
3622.0,0.01376905196253719
3621.0,0.014032216071165397
3620.0,0.014269522657824697
3619.0,0.014440212554965973
3618.0,0.014524261494962633
3617.0,0.014540404777351718
3616.0,0.014524664554383619
3615.0,0.014509061780321714
3614.0,0.01451823955317088
3613.0,0.014559380186365593
3612.0,0.014615963681479001
3611.0,0.014670621328364955
3610.0,0.014731679839315611
3609.0,0.014824243537398241
3608.0,0.014953480874495256
3607.0,0.015089422542056613
3606.0,0.015202184500991162
3605.0,0.015292215171270579
3604.0,0.015378880573822092
3603.0,0.01548040945810691
3602.0,0.01560447866946326
3601.0,0.015746945360058624
3600.0,0.015893632696190506
3599.0,0.016029418754394002
3598.0,0.01615166867809808
3597.0,0.01627243966782435
3596.0,0.016404354192761927
3595.0,0.01654726529839882
3594.0,0.016687396619570867
3593.0,0.016807816643664028
3592.0,0.01690483115045958
3591.0,0.016995051691901616
3590.0,0.017108000518241614
3589.0,0.017271939984673114
3588.0,0.01748672467842222
3587.0,0.01770431704282409
3586.0,0.017871046733447308
3585.0,0.017981631974275557
3584.0,0.01806783386486571
3583.0,0.01816306289277604
3582.0,0.018284399069876944
3581.0,0.018428423929929067
3580.0,0.018578934286943436
3579.0,0.018722907162527655
3578.0,0.018861036409777623
3577.0,0.01900102378466983
3576.0,0.019146296076360207
3575.0,0.019294957847720593
3574.0,0.019444695292993277
3573.0,0.019591401056261188
3572.0,0.01972809804173487
3571.0,0.019854702145226416
3570.0,0.019987608637107027
3569.0,0.020156823674016753
3568.0,0.020382883580031236
3567.0,0.020639388139127628
3566.0,0.02086262793228869
3565.0,0.021018571166544216
3564.0,0.021127783018048917
3563.0,0.021231741127286183
3562.0,0.02136035534824301
3561.0,0.021518684961287907
3560.0,0.021690518001393905
3559.0,0.02185543147656766
3558.0,0.022004537833472195
3557.0,0.022140594286936544
3556.0,0.022271657389478772
3555.0,0.022409611699133476
3554.0,0.022568213611877698
3553.0,0.022751470789511886
3552.0,0.022941711739545533
3551.0,0.023112114882850296
3550.0,0.023253652821460004
3549.0,0.023383175481142975
3548.0,0.02352889214051828
3547.0,0.023708867672686065
3546.0,0.023916726567794387
3545.0,0.02412544963555702
3544.0,0.024308437597087774
3543.0,0.024458641775496386
3542.0,0.02458843935884363
3541.0,0.024715707340858123
3540.0,0.024851898141610113
3539.0,0.02500138091737687
3538.0,0.025166352053416684
3537.0,0.02534600162446854
3536.0,0.025530734526276678
3535.0,0.025706061172311737
3534.0,0.025864968640436938
3533.0,0.02601266387409866
3532.0,0.02616053859709262
3531.0,0.02631834025838397
3530.0,0.026490480558747843
3529.0,0.02667375569827107
3528.0,0.02685748023380534
3527.0,0.027030900789469296
3526.0,0.027192368946191516
3525.0,0.02734890269803863
3524.0,0.027506094783622478
3523.0,0.027661069709199754
3522.0,0.027807177180172997
3521.0,0.027943242375781142
3520.0,0.02807587166875276
3519.0,0.02821457103532923
3518.0,0.02836442576495859
3517.0,0.028521879461802856
3516.0,0.028677978531780498
3515.0,0.02882711383756476
3514.0,0.028971661518801997
3513.0,0.02911785291642721
3512.0,0.02927088393538671
3511.0,0.029434098600737847
3510.0,0.02960615395524846
3509.0,0.029776303126786897
3508.0,0.02992976346803463
3507.0,0.030064023210039842
3506.0,0.030196078970531108
3505.0,0.030348856111658065
3504.0,0.0305298517080229
3503.0,0.030722747598850686
3502.0,0.030901153440231297
3501.0,0.031051163433400968
3500.0,0.031180256302045732
3499.0,0.03130946120526426
3498.0,0.03145755804621228
3497.0,0.03162571825707375
3496.0,0.031796925469153525
3495.0,0.03195355634168745
3494.0,0.03209336624685396
3493.0,0.032226533515727844
3492.0,0.032362888314852005
3491.0,0.03250758423105479
3490.0,0.03266389071975299
3489.0,0.03283087316550003
3488.0,0.03299915995526125
3487.0,0.03315670556286293
3486.0,0.03330010502012076
3485.0,0.03343694895733476
3484.0,0.03357877295918883
3483.0,0.033734358013126464
3482.0,0.03390514951056627
3481.0,0.03408147776617364
3480.0,0.03424640228487208
3479.0,0.034389919696064496
3478.0,0.03451871012075302
3477.0,0.03464805526029187
3476.0,0.03478616857571538
3475.0,0.03493010676264201
3474.0,0.03507468791271623
3473.0,0.03521968442562429
3472.0,0.035367978181533866
3471.0,0.03552160143238101
3470.0,0.0356807513941185
3469.0,0.03584296585419112
3468.0,0.03600261571776234
3467.0,0.03615388251916109
3466.0,0.03629439532221492
3465.0,0.03642530155169513
3464.0,0.036550498831802426
3463.0,0.03667740189964313
3462.0,0.036813778550237694
3461.0,0.03695995882631584
3460.0,0.03710724863324372
3459.0,0.03724778760181031
3458.0,0.03738280936679225
3457.0,0.037517902937806914
3456.0,0.03765430827607423
3455.0,0.03778940491869263
3454.0,0.03792149058489052
3453.0,0.038048769586110844
3452.0,0.03816765017804478
3451.0,0.03827881850580768
3450.0,0.03839380689227284
3449.0,0.038528523300094625
3448.0,0.038686837368406335
3447.0,0.03885229089886205
3446.0,0.03900055056942739
3445.0,0.03912145492932351
3444.0,0.03922632378772518
3443.0,0.03933494255273508
3442.0,0.039456647899704406
3441.0,0.03958384307153035
3440.0,0.03970535933728915
3439.0,0.039822118991585505
3438.0,0.03994256493589267
3437.0,0.04006590929301007
3436.0,0.04018020656833525
3435.0,0.04027946254996201
3434.0,0.04037400813101802
3433.0,0.04047860073890463
3432.0,0.04059637314859572
3431.0,0.04071905608928817
3430.0,0.04083756463584422
3429.0,0.0409469241624464
3428.0,0.04104496396955177
3427.0,0.041132521705662846
3426.0,0.04121412724443352
3425.0,0.04129551425320634
3424.0,0.041381729807291955
3423.0,0.04147824517050597
3422.0,0.0415885676752018
3421.0,0.04170720253606369
3420.0,0.041820255962215586
3419.0,0.041918085422401725
3418.0,0.04200378839052668
3417.0,0.04208609490981295
3416.0,0.04216855401805478
3415.0,0.042249443754004724
3414.0,0.04232801520484336
3413.0,0.04240554240120407
3412.0,0.04248238418286117
3411.0,0.0425583259248628
3410.0,0.04263442389498656
3409.0,0.04271172195482034
3408.0,0.04278979696718506
3407.0,0.042868404106940906
3406.0,0.04294798039547804
3405.0,0.04302686265883825
3404.0,0.04310116347843363
3403.0,0.04316964272679719
3402.0,0.04323579759915403
3401.0,0.04330337858558526
3400.0,0.04337335124726159
3399.0,0.04344627348785677
3398.0,0.043522454347264594
3397.0,0.043597812428883886
3396.0,0.04366580235981845
3395.0,0.04372684837422137
3394.0,0.04378977811423012
3393.0,0.043859247921855714
3392.0,0.04392717306406306
3391.0,0.04398239221959102
3390.0,0.04402422182954326
3389.0,0.044061180200471436
3388.0,0.044100764155988896
3387.0,0.04414554899966489
3386.0,0.04419547246878313
3385.0,0.04424831652333092
3384.0,0.044300007525795146
3383.0,0.04434904760065806
3382.0,0.0443985926086256
3381.0,0.044450701026540106
3380.0,0.04450166710641947
3379.0,0.044546648992151064
3378.0,0.04458578330628116
3377.0,0.04462177852190495
3376.0,0.044655085210620095
3375.0,0.044686110471329664
3374.0,0.0447188513592678
3373.0,0.044757220976555025
3372.0,0.04479991250889736
3371.0,0.044842644426045554
3370.0,0.04488291613893181
3369.0,0.044919290309642264
3368.0,0.04494944695161659
3367.0,0.04497348666761879
3366.0,0.04499650962703832
3365.0,0.045023855862118156
3364.0,0.04505601573233996
3363.0,0.045090530467969514
3362.0,0.045124851882875544
3361.0,0.04515450939794659
3360.0,0.04517391321293637
3359.0,0.04518409595795795
3358.0,0.045195407968059674
3357.0,0.04521668505832638
3356.0,0.04524455217731831
3355.0,0.04526845321235828
3354.0,0.04528310192421182
3353.0,0.04529101270706073
3352.0,0.04529647144078361
3351.0,0.04530317651496238
3350.0,0.04531545150348487
3349.0,0.04533524541823325
3348.0,0.04535812548744926
3347.0,0.04537694773224196
3346.0,0.04538928781402895
3345.0,0.04539803655041643
3344.0,0.04540620360613959
3343.0,0.04541467176687621
3342.0,0.045423221375408336
3341.0,0.04543007867471917
3340.0,0.045432423712680636
3339.0,0.04543116599045737
3338.0,0.04543321713279385
3337.0,0.04544450611261093
3336.0,0.04546187069497762
3335.0,0.045476288566913846
3334.0,0.045483481101879504
3333.0,0.04548731473308544
3332.0,0.04549339152794618
3331.0,0.045503157345281466
3330.0,0.04551433813472774
3329.0,0.04552435025563741
3328.0,0.04553278973078055
3327.0,0.04554186650869474
3326.0,0.045554209383572915
3325.0,0.04556981460150938
3324.0,0.045586285053188215
3323.0,0.04560214790475991
3322.0,0.04561776407168798
3321.0,0.04563286791081356
3320.0,0.045646557241755016
3319.0,0.045660444652935415
3318.0,0.04567781436880305
3317.0,0.0456981183180752
3316.0,0.0457163692292937
3315.0,0.04573003738834237
3314.0,0.045742771651441805
3313.0,0.045759214039658255
3312.0,0.045780063084164505
3311.0,0.045804626109874035
3310.0,0.045833629350972536
3309.0,0.04586555966878444
3308.0,0.04589404561592041
3307.0,0.045913745641766396
3306.0,0.045926968762594174
3305.0,0.04594100050453206
3304.0,0.04596067443099517
3303.0,0.045986071255067464
3302.0,0.046014872585232805
3301.0,0.046043889632200775
3300.0,0.04607010205095491
3299.0,0.046092584888913324
3298.0,0.04611182834840583
3297.0,0.04612634368363742
3296.0,0.04613346454360252
3295.0,0.04613495718885846
3294.0,0.04613743682584069
3293.0,0.04614439796374598
3292.0,0.04615185704764482
3291.0,0.046155150435637456
3290.0,0.04615583206129158
3289.0,0.046157594472591025
3288.0,0.04615887994127305
3287.0,0.046154356466482166
3286.0,0.04614150636928695
3285.0,0.04612118648487751
3284.0,0.046093291710449555
3283.0,0.04605677069411047
3282.0,0.046013894840230204
3281.0,0.04597058206036953
3280.0,0.04593132059070562
3279.0,0.04589526817613571
3278.0,0.045857162853214804
3277.0,0.04581124558555905
3276.0,0.04575540054308877
3275.0,0.04569219978541677
3274.0,0.045624602725437176
3273.0,0.045550940883910034
3272.0,0.045467266728570835
3271.0,0.04537499639726366
3270.0,0.04528202900144989
3269.0,0.04519422053885715
3268.0,0.045108755961895425
3267.0,0.04501782221270454
3266.0,0.04491631885911721
3265.0,0.044804642855399854
3264.0,0.044687332133770095
3263.0,0.04457135874515302
3262.0,0.0444625715881368
3261.0,0.04436041382373426
3260.0,0.044257680082559626
3259.0,0.04414758780063766
3258.0,0.04402933107367896
3257.0,0.04390591572272611
3256.0,0.0437799682995459
3255.0,0.04365359655495186
3254.0,0.043529089552843174
3253.0,0.04340706541108473
3252.0,0.04328597843519053
3251.0,0.043164953143553564
3250.0,0.043044721888191105
3249.0,0.04292509581466004
3248.0,0.042805290506611644
3247.0,0.042687861240150775
3246.0,0.04257745073467785
3245.0,0.04247284116068555
3244.0,0.04236497184142459
3243.0,0.042247086227500216
3242.0,0.042123330444377306
3241.0,0.042003522024148296
3240.0,0.04189272259480284
3239.0,0.04178944020523045
3238.0,0.04169043214287601
3237.0,0.04159269121208748
3236.0,0.04149321675459103
3235.0,0.041391529128994596
3234.0,0.04129094655492293
3233.0,0.041193564868355986
3232.0,0.04109569863518388
3231.0,0.04099231158031934
3230.0,0.040884478353804876
3229.0,0.04077819366913158
3228.0,0.04067673623519399
3227.0,0.04057815458885203
3226.0,0.040479750801039556
3225.0,0.04038115289928157
3224.0,0.040282550222348994
3223.0,0.04018317006679166
3222.0,0.04008270600473996
3221.0,0.03998228390160419
3220.0,0.03988306672876324
3219.0,0.03978479024510514
3218.0,0.039685819007097965
3217.0,0.03958423034824045
3216.0,0.03947942867240945
3215.0,0.03937302992138323
3214.0,0.03926715615270731
3213.0,0.03916217189285081
3212.0,0.0390581388926814
3211.0,0.03895785140551363
3210.0,0.03886449793894377
3209.0,0.038775134200124774
3208.0,0.03868049621304986
3207.0,0.03857412665962579
3206.0,0.03845925512303682
3205.0,0.03834427522071167
3204.0,0.038233777779128494
3203.0,0.03812652203745308
3202.0,0.03801979924346479
3201.0,0.03791228175384816
3200.0,0.03780355012046043
3199.0,0.03769360097681895
3198.0,0.03758235400789398
3197.0,0.03746817700674002
3196.0,0.03734827398681943
3195.0,0.03722224276575119
3194.0,0.037093855598107725
3193.0,0.03696770189569983
3192.0,0.03684526518445379
3191.0,0.03672541560436571
3190.0,0.036607016278689807
3189.0,0.03648914281459264
3188.0,0.036370125367481354
3187.0,0.036248596215733384
3186.0,0.036124876558463456
3185.0,0.035999929483900045
3184.0,0.03587399206912162
3183.0,0.03574743946438059
3182.0,0.03562141725871529
3181.0,0.035496104298465274
3180.0,0.035369551126075496
3179.0,0.035239591482820305
3178.0,0.03510608948991566
3177.0,0.03497069085101919
3176.0,0.034835668696277716
3175.0,0.034703595155425836
3174.0,0.03457642210048045
3173.0,0.03445367400073544
3172.0,0.03433260026298696
3171.0,0.03421071923830642
3170.0,0.034087027967003025
3169.0,0.03396080024873369
3168.0,0.03383158358375577
3167.0,0.033700959221863794
3166.0,0.033571819521182295
3165.0,0.03344498488322638
3164.0,0.0333185489952014
3163.0,0.03319102023482965
3162.0,0.033062898812546586
3161.0,0.03293486184265862
3160.0,0.032807155749167836
3159.0,0.03268139860964822
3158.0,0.03255982249894308
3157.0,0.03244164609619055
3156.0,0.032323337394956776
3155.0,0.032203648644877514
3154.0,0.032085025608864205
3153.0,0.03196870021484552
3152.0,0.0318519245164767
3151.0,0.031732178301177624
3150.0,0.03161124536854681
3149.0,0.03149245944961163
3148.0,0.03137620711023139
3147.0,0.03126083835399304
3146.0,0.031145956363537876
3145.0,0.0310322165334959
3144.0,0.030919274482388674
3143.0,0.03080595167936765
3142.0,0.030691613374052594
3141.0,0.0305764860614596
3140.0,0.030461957164669616
3139.0,0.030351182544773897
3138.0,0.03024694940762194
3137.0,0.030147518259839398
3136.0,0.030047239186095455
3135.0,0.02994288210076676
3134.0,0.029836898297290408
3133.0,0.029732866254392337
3132.0,0.029630401626089507
3131.0,0.02952702099658016
3130.0,0.029422506672905774
3129.0,0.02931827188878707
3128.0,0.029214282375761357
3127.0,0.02910955143936479
3126.0,0.029004728560597152
3125.0,0.0289025071170251
3124.0,0.028806171984093593
3123.0,0.028717985850664308
3122.0,0.028637037567256593
3121.0,0.028558017742779274
3120.0,0.028474678937202916
3119.0,0.028386049636354552
3118.0,0.02829732030382268
3117.0,0.028213642526708393
3116.0,0.02813536952159867
3115.0,0.028060166163768687
3114.0,0.027986241473962333
3113.0,0.02791128397904317
3112.0,0.027832025466223962
3111.0,0.02774823989067473
3110.0,0.027664745982703434
3109.0,0.02758671764300429
3108.0,0.02751454284725003
3107.0,0.02744552421627867
3106.0,0.02737850586866096
3105.0,0.027313855990889438
3104.0,0.02725069066303257
3103.0,0.027186965364568823
3102.0,0.027122034932723887
3101.0,0.027057702588390378
3100.0,0.026996908604836313
3099.0,0.026941865545477086
3098.0,0.026891893468557915
3097.0,0.02684233263760945
3096.0,0.026787571385177178
3095.0,0.02672643959052852
3094.0,0.026663065723748058
3093.0,0.026601493503449085
3092.0,0.0265419126853968
3091.0,0.02648306203417625
3090.0,0.026425140111198966
3089.0,0.026368653558886
3088.0,0.026312813157693307
3087.0,0.02625738246109478
3086.0,0.026204334708113508
3085.0,0.026155311791955207
3084.0,0.026108644573716637
3083.0,0.026060083595761854
3082.0,0.026005622891554038
3081.0,0.025943576133057592
3080.0,0.025876184745742183
3079.0,0.025809714494647997
3078.0,0.025749771508013105
3077.0,0.025695408382826183
3076.0,0.025640467351451462
3075.0,0.025581774441608383
3074.0,0.025522277402005054
3073.0,0.02546463766286449
3072.0,0.02540622469934276
3071.0,0.025343042178349744
3070.0,0.025275813539415524
3069.0,0.025208686987041498
3068.0,0.025143883584908547
3067.0,0.02508038353882205
3066.0,0.025015614760175626
3065.0,0.024946372633366118
3064.0,0.024870413064687125
3063.0,0.024789880978679388
3062.0,0.02471056707936795
3061.0,0.024635083401751724
3060.0,0.024558898404872413
3059.0,0.02447629850851925
3058.0,0.024388673281452524
3057.0,0.024302967795339556
3056.0,0.02422327869130571
3055.0,0.02414677367345618
3054.0,0.024067392874543046
3053.0,0.023981250470535096
3052.0,0.023889132840949776
3051.0,0.023796228209344548
3050.0,0.023708357331908417
3049.0,0.023625987213862065
3048.0,0.02354294830823686
3047.0,0.023453152422023973
3046.0,0.02335704659358716
3045.0,0.02325993998047913
3044.0,0.023166014211752
3043.0,0.023076705649190357
3042.0,0.022992720952860646
3041.0,0.02291340960401119
3040.0,0.02283498520581691
3039.0,0.02275329425763774
3038.0,0.022668732711097473
3037.0,0.022585682071557475
3036.0,0.022507101761005822
3035.0,0.022432089339075943
3034.0,0.022358906533159303
3033.0,0.022287188510456125
3032.0,0.022216266280845016
3031.0,0.022143906959801767
3030.0,0.022068302166291107
3029.0,0.021990183598519383
3028.0,0.021911820497963443
3027.0,0.021834991986133492
3026.0,0.02176066080154783
3025.0,0.021690246627345165
3024.0,0.021626146213719367
3023.0,0.021570135222443478
3022.0,0.021521058823807036
3021.0,0.021475063522540173
3020.0,0.021429230914230553
3019.0,0.021383993074351123
3018.0,0.021340529311535905
3017.0,0.021296925821842918
3016.0,0.021249997245736257
3015.0,0.021200478301861368
3014.0,0.02115297235191604
3013.0,0.0211097179542112
3012.0,0.021067333683518416
3011.0,0.021021071880780295
3010.0,0.02096954446080815
3009.0,0.02091435368287548
3008.0,0.0208580366693217
3007.0,0.020804145160632535
3006.0,0.02075648300844945
3005.0,0.020715624315118187
3004.0,0.020678113421522145
3003.0,0.020641095707845912
3002.0,0.02060606177588801
3001.0,0.02057666436152026
3000.0,0.020554982218194892
2999.0,0.02054217754736869
2998.0,0.020540745249490178
2997.0,0.020553547224259405
2996.0,0.020581377789723087
2995.0,0.02062300452172413
2994.0,0.020676683808388007
2993.0,0.02074130362435356
2992.0,0.020818128422830148
2991.0,0.020912457511636368
2990.0,0.021031054346995204
2989.0,0.021175930741069604
2988.0,0.021343101778482667
2987.0,0.02152915125858737
2986.0,0.02173698169027056
2985.0,0.021972856674942132
2984.0,0.02224064846828875
2983.0,0.022542242415544235
2982.0,0.022881718280059946
2981.0,0.023265977658242863
2980.0,0.02370201186689529
2979.0,0.024196008889121486
2978.0,0.024754710481243985
2977.0,0.025386454991601384
2976.0,0.02610181722080166
2975.0,0.02691356148430149
2974.0,0.027834431421303613
2973.0,0.028874054394554986
2972.0,0.030038469933117727
2971.0,0.03133241082880258
2970.0,0.032758717859506944
2969.0,0.03431436533863217
2968.0,0.035989074373189385
2967.0,0.03776667593178289
2966.0,0.039621565976544176
2965.0,0.04150723579162426
2964.0,0.04335116210399151
2963.0,0.045064809191992836
2962.0,0.04656385601243268
2961.0,0.0477946513702484
2960.0,0.04875662829624911
2959.0,0.049509998849303204
2958.0,0.05016101769412949
2957.0,0.050832093331866994
2956.0,0.051630865182111595
2955.0,0.052621094926554375
2954.0,0.05379593555407001
2953.0,0.055061069743325974
2952.0,0.056239791678945175
2951.0,0.05711051364364627
2950.0,0.057458943062288916
2949.0,0.05712854215046712
2948.0,0.05606543566108989
2947.0,0.05433572246166969
2946.0,0.052111400773319286
2945.0,0.04962770908668138
2944.0,0.04713321142709042
2943.0,0.04484715964922726
2942.0,0.04292818338574963
2941.0,0.041463637438574584
2940.0,0.040474836271361295
2939.0,0.03994114768819662
2938.0,0.03982558054023933
2937.0,0.04008693762470778
2936.0,0.040687222710590894
2935.0,0.04159530276734365
2934.0,0.04278355686911794
2933.0,0.04421983073403473
2932.0,0.04586225907195875
2931.0,0.04766217589109838
2930.0,0.04956788161720879
2929.0,0.05152312199942105
2928.0,0.05346846498687791
2927.0,0.05535202757700718
2926.0,0.05714187620274187
2925.0,0.05883364488968502
2924.0,0.060448271009335405
2923.0,0.062014345686475035
2922.0,0.06353731731047657
2921.0,0.06496937618610066
2920.0,0.06620328491368302
2919.0,0.06709257677004762
2918.0,0.06749367688079397
2917.0,0.06731411458896736
2916.0,0.06655262360081868
2915.0,0.06530765133025766
2914.0,0.06374388689523104
2913.0,0.06204471982922185
2912.0,0.06036662830235937
2911.0,0.0588107023709465
2910.0,0.057414793553412495
2909.0,0.05616313122610714
2908.0,0.05500756424546043
2907.0,0.0538912965362568
2906.0,0.05276753978729093
2905.0,0.05160921543438324
2904.0,0.05041125672248139
2903.0,0.049183973899961694
2902.0,0.047943398573441195
2901.0,0.046704464176556416
2900.0,0.045481164552360266
2899.0,0.0442893712958356
2898.0,0.04314661240865425
2897.0,0.042070742953024265
2896.0,0.041079679539707196
2895.0,0.04019177672958745
2894.0,0.03942301271348776
2893.0,0.0387820747167309
2892.0,0.03826895210362423
2891.0,0.037877753299001005
2890.0,0.03759926543457963
2889.0,0.03742010834735995
2888.0,0.037324110293985496
2887.0,0.037299501576579734
2886.0,0.03734497736127394
2885.0,0.03746792816734518
2884.0,0.037676243348098645
2883.0,0.037971051054267665
2882.0,0.03834248962118496
2881.0,0.038765208048163954
2880.0,0.03919499212290962
2879.0,0.03957024448702805
2878.0,0.039826392154578644
2877.0,0.039922212395934804
2876.0,0.039866449946201955
2875.0,0.03972270723018369
2874.0,0.03958363972499154
2873.0,0.03953210492541885
2872.0,0.039613116738638196
2871.0,0.03982894020148524
2870.0,0.04014471049419605
2869.0,0.04048636534241377
2868.0,0.040738389499171516
2867.0,0.04075591593963584
2866.0,0.04039894871127425
2865.0,0.03958350192433117
2864.0,0.03832265809432251
2863.0,0.036732879200145084
2862.0,0.03499508417997684
2861.0,0.03329329367812333
2860.0,0.03176264620164097
2859.0,0.03047238911485306
2858.0,0.029440864617948807
2857.0,0.028656706403849756
2856.0,0.028093650825964066
2855.0,0.027718916244238608
2854.0,0.02749994843504636
2853.0,0.027409699367928413
2852.0,0.027428439267423742
2851.0,0.027544674947634806
2850.0,0.027756560383267306
2849.0,0.028073171833300548
2848.0,0.028513792603079503
2847.0,0.029104318233144626
2846.0,0.029867578679157486
2845.0,0.030810524028114288
2844.0,0.03191414840456755
2843.0,0.033129645270623946
2842.0,0.0343808746433982
2841.0,0.03556812841642016
2840.0,0.03657492136203696
2839.0,0.037276751194292225
2838.0,0.037555611016419965
2837.0,0.03732401466857129
2836.0,0.036555088186501085
2835.0,0.03530150393940458
2834.0,0.03368842512595634
2833.0,0.03188232559937101
2832.0,0.030048907244065524
2831.0,0.02832021088303116
2830.0,0.02677645636400126
2829.0,0.025445595772142546
2828.0,0.024317861509075778
2827.0,0.023364819870851743
2826.0,0.02255641102021154
2825.0,0.0218660754510215
2824.0,0.021269838650764296
2823.0,0.02074699068850415
2822.0,0.02028244778580397
2821.0,0.01986671295721948
2820.0,0.019493006244018778
2819.0,0.01915527512479604
2818.0,0.01884798972820736
2817.0,0.01856610913960652
2816.0,0.018305677740944794
2815.0,0.01806509062361289
2814.0,0.017844137434355062
2813.0,0.01764015016762098
2812.0,0.01744658320850891
2811.0,0.017256997425938177
2810.0,0.01706867602912262
2809.0,0.016880498888049426
2808.0,0.01668938228914514
2807.0,0.01649173885516805
2806.0,0.01628737667878958
2805.0,0.016079518187092738
2804.0,0.015872016213015778
2803.0,0.01566900845494179
2802.0,0.015476458187034192
2801.0,0.015300401525439204
2800.0,0.01514310834044558
2799.0,0.015002363176842476
2798.0,0.01487428810005359
2797.0,0.014755518902923828
2796.0,0.014642824779452598
2795.0,0.014532530821328514
2794.0,0.014420512847824887
2793.0,0.01430276251848376
2792.0,0.014177256294767909
2791.0,0.014046158167352139
2790.0,0.013914735757118837
2789.0,0.013786758384919358
2788.0,0.013662427300511449
2787.0,0.013541110629276374
2786.0,0.013423433121077863
2785.0,0.013309522814421625
2784.0,0.01319798341724904
2783.0,0.01308867321636138
2782.0,0.01298395061039187
2781.0,0.012884980743563538
2780.0,0.012789449907117884
2779.0,0.012695418319306801
2778.0,0.012604754532072996
2777.0,0.01251982962395918
2776.0,0.012439489796121202
2775.0,0.012361647601608204
2774.0,0.012287590848656386
2773.0,0.012219983832173698
2772.0,0.012157988587474635
2771.0,0.012097949295272603
2770.0,0.012037849250678223
2769.0,0.011977993918154314
2768.0,0.011918712486731663
2767.0,0.011860523521559325
2766.0,0.01180532992040744
2765.0,0.011754218177325587
2764.0,0.011704818731191776
2763.0,0.011653537860381865
2762.0,0.011599660052057025
2761.0,0.011544999937708914
2760.0,0.011491095091073425
2759.0,0.011439193494233411
2758.0,0.011390920826886643
2757.0,0.011345871748763846
2756.0,0.011300516594213843
2755.0,0.01125288967773424
2754.0,0.011206513446013658
2753.0,0.01116598748856837
2752.0,0.011130459483053216
2751.0,0.011095339167639436
2750.0,0.011058941894724388
2749.0,0.01102324290235605
2748.0,0.010989136445906931
2747.0,0.010955781129978965
2746.0,0.010924502969290243
2745.0,0.010898875285999733
2744.0,0.01088014902569416
2743.0,0.01086583033275167
2742.0,0.010853381276308808
2741.0,0.010842556848846408
2740.0,0.01083393244412715
2739.0,0.01082788699554098
2738.0,0.010825189481685702
2737.0,0.010825993597093589
2736.0,0.010828104351293218
2735.0,0.010828698212212542
2734.0,0.010828095927463754
2733.0,0.010829933558908359
2732.0,0.010837657797901896
2731.0,0.010852696721141518
2730.0,0.01087541649868307
2729.0,0.010905425543407616
2728.0,0.010940757907420433
2727.0,0.01097795893083647
2726.0,0.011012471864020101
2725.0,0.011038115380552656
2724.0,0.011047929871842978
2723.0,0.011037596829673983
2722.0,0.011007214344290151
2721.0,0.010958420059533104
2720.0,0.010891645355505443
2719.0,0.010808473170613883
2718.0,0.010714820564605692
2717.0,0.010618645552911227
2716.0,0.010525308403965742
2715.0,0.010436883097346196
2714.0,0.010354310409324672
2713.0,0.01027764397471383
2712.0,0.01020514877651022
2711.0,0.010135034747864018
2710.0,0.010067696862274801
2709.0,0.010004442904052455
2708.0,0.009945184875386174
2707.0,0.009889226875576888
2706.0,0.009836689993118816
2705.0,0.009787043178902206
2704.0,0.009737936292089954
2703.0,0.009687819015797393
2702.0,0.009638195470099952
2701.0,0.009591208017213426
2700.0,0.009547042199425279
2699.0,0.009506073862655
2698.0,0.009470874825591802
2697.0,0.009442593308154931
2696.0,0.009417372386919816
2695.0,0.009390190803391322
2694.0,0.009361224911140843
2693.0,0.009334857511176485
2692.0,0.009313460419244482
2691.0,0.009295345049546728
2690.0,0.009277868141067546
2689.0,0.009259347781332233
2688.0,0.00923859304140618
2687.0,0.009215514285574482
2686.0,0.009191826546835674
2685.0,0.009169086000759748
2684.0,0.009147011864667706
2683.0,0.009125436141877224
2682.0,0.009105778051137239
2681.0,0.009088227483929524
2680.0,0.009069842764678104
2679.0,0.009048698743699957
2678.0,0.009027682461446094
2677.0,0.009010553273078903
2676.0,0.008995968744210572
2675.0,0.008979194725617323
2674.0,0.008958272388229606
2673.0,0.008934830596536561
2672.0,0.00891025137874398
2671.0,0.008885168869800921
2670.0,0.00886193606797528
2669.0,0.00884366609389932
2668.0,0.008831016117008046
2667.0,0.008823072616702315
2666.0,0.008820544839854103
2665.0,0.008824537336741276
2664.0,0.008832847559866814
2663.0,0.008841038394317683
2662.0,0.008847028074585513
2661.0,0.008851761945073918
2660.0,0.008855728761574581
2659.0,0.008857721547668415
2658.0,0.00885662007679543
2657.0,0.008851714137490533
2656.0,0.008841910903799263
2655.0,0.008827269238906098
2654.0,0.008810474160547203
2653.0,0.008794156770613234
2652.0,0.008777716453293635
2651.0,0.008759511960641864
2650.0,0.008740792452343934
2649.0,0.008724271526466968
2648.0,0.008710012972029862
2647.0,0.00869610997674167
2646.0,0.008682268022729424
2645.0,0.008669240780973484
2644.0,0.008655732428731654
2643.0,0.008639357465189908
2642.0,0.008620072662288517
2641.0,0.00859964871352278
2640.0,0.00857898904985898
2639.0,0.008559066710667437
2638.0,0.008542664002027474
2637.0,0.008531401585596163
2636.0,0.008522551671308554
2635.0,0.008512854804584358
2634.0,0.008504095635773468
2633.0,0.008500418656646672
2632.0,0.008501311602311091
2631.0,0.00850183622431894
2630.0,0.008499253545220832
2629.0,0.008495202477467633
2628.0,0.008491676075936563
2627.0,0.008488843050578726
2626.0,0.008486342215460237
2625.0,0.00848316904948819
2624.0,0.008476939659137664
2623.0,0.00846665387134847
2622.0,0.008455046569678906
2621.0,0.00844509700930764
2620.0,0.00843595871183076
2619.0,0.008425976677670305
2618.0,0.00841716597114837
2617.0,0.008411777538939562
2616.0,0.008406469855042679
2615.0,0.008395416016599454
2614.0,0.00837829739102071
2613.0,0.008360023866160108
2612.0,0.008343081225831548
2611.0,0.008324929972931097
2610.0,0.008302737310291186
2609.0,0.008276455949067873
2608.0,0.008247661381889856
2607.0,0.0082188242939108
2606.0,0.008192745862145454
2605.0,0.008169338328848396
2604.0,0.00814452500032146
2603.0,0.008115704495718528
2602.0,0.008085960322663528
2601.0,0.008059483853282964
2600.0,0.0080364181241495
2599.0,0.008016506011363198
2598.0,0.008003361504218912
2597.0,0.007998742718824978
2596.0,0.007996269568020768
2595.0,0.007988514632130458
2594.0,0.007977849796611319
2593.0,0.007972628797268452
2592.0,0.007974567455162899
2591.0,0.007977555412501969
2590.0,0.007977987497435758
2589.0,0.00797857163158581
2588.0,0.007982088025357891
2587.0,0.007988715424034131
2586.0,0.007999335229189532
2585.0,0.008014306188256276
2584.0,0.008028315844127562
2583.0,0.008032824939126673
2582.0,0.008024633488679425
2581.0,0.008006955153200821
2580.0,0.00798243015772673
2579.0,0.007951298635671986
2578.0,0.007916378761741458
2577.0,0.00788309345241994
2576.0,0.007853058840578894
2575.0,0.007822758373164505
2574.0,0.007789606895260098
2573.0,0.0077547259581053855
2572.0,0.0077191811322068725
2571.0,0.007682229149194
2570.0,0.0076444235033680495
2569.0,0.007608912959725881
2568.0,0.007578911778105766
2567.0,0.007556021591970823
2566.0,0.007539713965509091
2565.0,0.007525740629973125
2564.0,0.007507469052366805
2563.0,0.007482561531756648
2562.0,0.007456175132538812
2561.0,0.007434021016311734
2560.0,0.007415376822904076
2559.0,0.007397102689544596
2558.0,0.007380472939325502
2557.0,0.007368137528416014
2556.0,0.007357741695200872
2555.0,0.007344951795645545
2554.0,0.007330058240450316
2553.0,0.007314962802196068
2552.0,0.0072965121730873325
2551.0,0.007270570086575589
2550.0,0.007241172773313473
2549.0,0.007218175116428523
2548.0,0.007205710712376691
2547.0,0.0071985834052791
2546.0,0.007189444341447384
2545.0,0.007174307877038537
2544.0,0.007152606826271559
2543.0,0.007127665743848811
2542.0,0.007106014523280519
2541.0,0.007091016387742068
2540.0,0.007078472755936302
2539.0,0.007063055430432088
2538.0,0.0070462842749340025
2537.0,0.007032889232966565
2536.0,0.007022659867065517
2535.0,0.00701220954535307
2534.0,0.007001828552189192
2533.0,0.006993538612825983
2532.0,0.00698468786603113
2531.0,0.006970888747223932
2530.0,0.006953762949905127
2529.0,0.006938858161979967
2528.0,0.0069273073471384245
2527.0,0.006916173219995421
2526.0,0.006905518299949497
2525.0,0.006897890870964396
2524.0,0.006891533331802948
2523.0,0.006881063827419839
2522.0,0.006864889772551052
2521.0,0.006846355533100085
2520.0,0.00682830927141778
2519.0,0.006811870334161564
2518.0,0.006799281498729507
2517.0,0.006792100919064014
2516.0,0.006787079457524298
2515.0,0.006778862173046565
2514.0,0.006765955400693737
2513.0,0.0067499699019337766
2512.0,0.006731335891351999
2511.0,0.006710517238646772
2510.0,0.006690755100324713
2509.0,0.006674272646619518
2508.0,0.006658160924459318
2507.0,0.006639223077717084
2506.0,0.0066200837299911115
2505.0,0.006604989473867904
2504.0,0.006592667440582271
2503.0,0.00657939676951895
2502.0,0.006566082606361359
2501.0,0.0065557978042825584
2500.0,0.0065469969696915625
2499.0,0.006535632615984891
2498.0,0.006521586508926565
2497.0,0.006506853613871092
2496.0,0.006490067131383507
2495.0,0.006469340394037826
2494.0,0.0064480623323733
2493.0,0.006431249943683447
2492.0,0.006418201831745747
2491.0,0.0064048815870082565
2490.0,0.006391011982047954
2489.0,0.006378507235985176
2488.0,0.0063657666160678965
2487.0,0.006350357171646709
2486.0,0.006334792308990604
2485.0,0.006322777883626075
2484.0,0.006312085702827387
2483.0,0.006297955060884059
2482.0,0.006281342105198892
2481.0,0.006267121201922022
2480.0,0.006256142561973096
2479.0,0.006245501776767247
2478.0,0.00623455275076037
2477.0,0.0062242979969491475
2476.0,0.006213030647863148
2475.0,0.0061988894165052435
2474.0,0.006184374380238285
2473.0,0.0061721149980090585
2472.0,0.006159007843530461
2471.0,0.006141329598566766
2470.0,0.006122976277937017
2469.0,0.006111441093777625
2468.0,0.006107458571927046
2467.0,0.00610509912049627
2466.0,0.006100147715571052
2465.0,0.006092446987574096
2464.0,0.006082662854626332
2463.0,0.006073114340594608
2462.0,0.006069173783382947
2461.0,0.006073263874610747
2460.0,0.006079631114109897
2459.0,0.0060808562210520525
2458.0,0.006076663178709581
2457.0,0.0060708242947586635
2456.0,0.006063631133195768
2455.0,0.006054244539636063
2454.0,0.006046326982611479
2453.0,0.006043338492014941
2452.0,0.006041263537148467
2451.0,0.006033816897451482
2450.0,0.0060222684893074295
2449.0,0.0060126689314270315
2448.0,0.006006043013213682
2447.0,0.005998768187164538
2446.0,0.005989875820531846
2445.0,0.005980472273253473
2444.0,0.005968744685161795
2443.0,0.005953065050577556
2442.0,0.005937406984610333
2441.0,0.005926522643666532
2440.0,0.005918678009051398
2439.0,0.005910108801298212
2438.0,0.00590285706444607
2437.0,0.0059004325734225765
2436.0,0.005899573598421609
2435.0,0.005894749635066676
2434.0,0.005887347681362308
2433.0,0.005881814253499713
2432.0,0.005876159006901014
2431.0,0.005865539205818677
2430.0,0.0058523304184515
2429.0,0.005842987282778716
2428.0,0.005836908725313776
2427.0,0.005827628137383038
2426.0,0.0058134845635077976
2425.0,0.005798538180214881
2424.0,0.0057846241966678594
2423.0,0.00577083044028311
2422.0,0.005758808630062134
2421.0,0.005749980741073712
2420.0,0.005739726986462212
2419.0,0.005723462993306224
2418.0,0.005706383100652893
2417.0,0.005697561018337225
2416.0,0.005695622588259507
2415.0,0.005689796969307326
2414.0,0.005675137713044734
2413.0,0.0056580543495409474
2412.0,0.005646297733595559
2411.0,0.005640901001182509
2410.0,0.005638070927057751
2409.0,0.005632053716223553
2408.0,0.005616641900693061
2407.0,0.005591129411459483
2406.0,0.005564554176053284
2405.0,0.005547498256457353
2404.0,0.005540599846462142
2403.0,0.005537106126506414
2402.0,0.005534037120267807
2401.0,0.0055331091343726645
2400.0,0.005532431018455302
2399.0,0.0055259803546302685
2398.0,0.005511877308337145
2397.0,0.005494512038186125
2396.0,0.0054781721034125605
2395.0,0.005464150274607817
2394.0,0.005453262013461455
2393.0,0.005445067397774888
2392.0,0.005435516226014193
2391.0,0.005421183628024609
2390.0,0.0054048276182658
2389.0,0.005391306537144144
2388.0,0.005379406964193559
2387.0,0.00536357446352872
2386.0,0.005342475161007078
2385.0,0.0053200252968148174
2384.0,0.005299181496227643
2383.0,0.005280479860216091
2382.0,0.005265420066553508
2381.0,0.00525488748261286
2380.0,0.005244704891697446
2379.0,0.005229900917835831
2378.0,0.005214079751451826
2377.0,0.005206414077153171
2376.0,0.005208061647636651
2375.0,0.005210313118087784
2374.0,0.005206422755445395
2373.0,0.005195071695951228
2372.0,0.005172505101840525
2371.0,0.0051367399131557415
2370.0,0.005101897377404238
2369.0,0.005089435653222538
2368.0,0.00509963861602141
2367.0,0.005110703995972828
2366.0,0.0051102348760979945
2365.0,0.005106562365982236
2364.0,0.00510463454714613
2363.0,0.005099566214205835
2362.0,0.0050960431534688025
2361.0,0.005100107122691372
2360.0,0.0050987479370291034
2359.0,0.0050806783272167345
2358.0,0.005065442803368125
2357.0,0.005077518688347244
2356.0,0.00510252449519477
2355.0,0.005109691987713586
2354.0,0.005096847584055115
2353.0,0.005083625007447274
2352.0,0.005079389977752612
2351.0,0.005080735102251773
2350.0,0.005087280949267872
2349.0,0.005095027160701384
2348.0,0.005090959221656215
2347.0,0.005069837200548335
2346.0,0.0050465039920054525
2345.0,0.00504242968379469
2344.0,0.005052636415969491
2343.0,0.0050594824411337265
2342.0,0.005067807107994934
2341.0,0.005092218322272828
2340.0,0.005126189477284845
2339.0,0.005150759464397566
2338.0,0.005163981701720817
2337.0,0.005174556175803173
2336.0,0.00517992412954211
2335.0,0.0051699650643967955
2334.0,0.005149526127347994
2333.0,0.005131892205852329
2332.0,0.005122336921030185
2331.0,0.005115246677287028
2330.0,0.005117151251191729
2329.0,0.00514520926162822
2328.0,0.005211419295546735
2327.0,0.00531570299643587
2326.0,0.005445530619283295
2325.0,0.005572108870708975
2324.0,0.005653367606307003
2323.0,0.0056636843284009215
2322.0,0.005619457452403586
2321.0,0.005559597559704
2320.0,0.00550913005073882
2319.0,0.005471620121781899
2318.0,0.005448089562307975
2317.0,0.005436520031686478
2316.0,0.005427480921371405
2315.0,0.005411145133947065
2314.0,0.005392224386409344
2313.0,0.0053803867292403626
2312.0,0.00537612267929587
2311.0,0.005373130969241139
2310.0,0.005373580217114982
2309.0,0.005382979611592407
2308.0,0.005397949670679595
2307.0,0.005409094296236327
2306.0,0.005414999093806232
2305.0,0.005420123892446367
2304.0,0.005425114676202711
2303.0,0.005427415799910499
2302.0,0.005430434041179488
2301.0,0.005439009936588602
2300.0,0.00545086282230429
2299.0,0.005459990135054705
2298.0,0.005468529564209963
2297.0,0.005483523420299779
2296.0,0.005505778983105857
2295.0,0.005529526746428059
2294.0,0.005551889885943666
2293.0,0.005574179225850309
2292.0,0.005597100484836267
2291.0,0.005622464436546449
2290.0,0.005655399723606777
2289.0,0.005697087607305875
2288.0,0.005738779603957761
2287.0,0.005771183226991545
2286.0,0.005793629201758015
2285.0,0.005806017094672845
2284.0,0.005799610483706409
2283.0,0.005768954573487057
2282.0,0.0057268642053986026
2281.0,0.0056944568855607
2280.0,0.005678497383841833
2279.0,0.005671197339546868
2278.0,0.005666854692837455
2277.0,0.00566462762231698
2276.0,0.0056598699460253055
2275.0,0.005649425770066929
2274.0,0.005643213513197982
2273.0,0.005654042512781608
2272.0,0.005677735359539797
2271.0,0.005697197791495554
2270.0,0.005703962900722376
2269.0,0.00570141449467935
2268.0,0.005691762516159419
2267.0,0.005675298136429011
2266.0,0.005659217549851745
2265.0,0.005651012585029747
2264.0,0.005645826768308386
2263.0,0.005635026076857767
2262.0,0.0056235361170831975
2261.0,0.005624350094114281
2260.0,0.00564036806055485
2259.0,0.005664573450751851
2258.0,0.0056908529736399175
2257.0,0.005709289412467645
2256.0,0.005701830971703603
2255.0,0.005662470053949029
2254.0,0.00561525882105813
2253.0,0.005590848382652897
2252.0,0.005591486058506375
2251.0,0.005597459179515951
2250.0,0.005600162792246191
2249.0,0.0056054017842277724
2248.0,0.005611707398338695
2247.0,0.0056103127914194
2246.0,0.005604393783245831
2245.0,0.005605278365033424
2244.0,0.005611109835018902
2243.0,0.005610921084669737
2242.0,0.005608083690375786
2241.0,0.005617211319099622
2240.0,0.00563852737213006
2239.0,0.005656384776071729
2238.0,0.005662653597111378
2237.0,0.00566294572561747
2236.0,0.005661333998440974
2235.0,0.005657971396705466
2234.0,0.005658911519335559
2233.0,0.005669045947308241
2232.0,0.005678243220347818
2231.0,0.005673467057017471
2230.0,0.00566045812992016
2229.0,0.005654346226093605
2228.0,0.005655940123938541
2227.0,0.005657326084067895
2226.0,0.005662151991285099
2225.0,0.005675905344952515
2224.0,0.005684306276132076
2223.0,0.005669355789263975
2222.0,0.00564209809104113
2221.0,0.0056324918050004195
2220.0,0.005648017199236193
2219.0,0.005668637077875665
2218.0,0.005680135421486272
2217.0,0.005686698921572087
2216.0,0.005692421212356953
2215.0,0.005695508231992554
2214.0,0.005700081303434078
2213.0,0.005709748897093261
2212.0,0.005711394063673873
2211.0,0.005689084818081382
2210.0,0.0056520682522823015
2209.0,0.00562668777949773
2208.0,0.005622641451979203
2207.0,0.00562842839727117
2206.0,0.005635570938585634
2205.0,0.005644386053197951
2204.0,0.005651841913654854
2203.0,0.005656761474968731
2202.0,0.005670579782305537
2201.0,0.00569972817066449
2200.0,0.005725599753208905
2199.0,0.005727345996713448
2198.0,0.005715680416868381
2197.0,0.005718198899143688
2196.0,0.005739470710882866
2195.0,0.005762120527689518
2194.0,0.005777639823602598
2193.0,0.0057878155839398105
2192.0,0.0057860427343051765
2191.0,0.005768944992207067
2190.0,0.005758748785806013
2189.0,0.0057814032804788034
2188.0,0.005827333661198213
2187.0,0.005862897346577514
2186.0,0.0058728930375147315
2185.0,0.005862296693398363
2184.0,0.005827317295629166
2183.0,0.0057627543958582725
2182.0,0.0056934317344363005
2181.0,0.005659684746549878
2180.0,0.005668453983887113
2179.0,0.005688565702490944
2178.0,0.0056911029159904475
2177.0,0.005669672223399994
2176.0,0.005633177235599682
2175.0,0.005606289289985268
2174.0,0.005623427843542408
2173.0,0.005691915486300127
2172.0,0.005773926180456172
2171.0,0.005832895918421546
2170.0,0.005879630462418089
2169.0,0.005943030537889374
2168.0,0.006016127937062184
2167.0,0.006067754640362979
2166.0,0.006093656981270181
2165.0,0.006119448115113323
2164.0,0.006161987628276127
2163.0,0.006216367931677415
2162.0,0.006255927059062317
2161.0,0.006208814931231714
2160.0,0.005977777825932672
2159.0,0.005560416862428745
2158.0,0.005120877650442648
2157.0,0.004848907328639729
2156.0,0.0047773113493768905
2155.0,0.004813618400393949
2154.0,0.004884975768041404
2153.0,0.004971323552142212
2152.0,0.005052505052013636
2151.0,0.005103159638136322
2150.0,0.005127827481066346
2149.0,0.005146832845651695
2148.0,0.005153740845103753
2147.0,0.005129410864215377
2146.0,0.005085522183001666
2145.0,0.005051492607243554
2144.0,0.005030706670796983
2143.0,0.005010397446951076
2142.0,0.004999974069386166
2141.0,0.005015590250037759
2140.0,0.005039140444468097
2139.0,0.005035469907957594
2138.0,0.005001574118688854
2137.0,0.004960307720497622
2136.0,0.00491604719839011
2135.0,0.004857329538188399
2134.0,0.004796112291684922
2133.0,0.0047629438039987005
2132.0,0.004766443434194827
2131.0,0.00479129099872419
2130.0,0.004829748714415854
2129.0,0.0048818834593470735
2128.0,0.004932862225516432
2127.0,0.004962418459225689
2126.0,0.0049745535368532975
2125.0,0.00499037688678592
2124.0,0.005014246792017617
2123.0,0.005032239945947663
2122.0,0.005041023931798962
2121.0,0.005051978196159141
2120.0,0.005068158929535824
2119.0,0.00508212064755805
2118.0,0.005096212641758692
2117.0,0.005121595921976628
2116.0,0.005156358375164599
2115.0,0.005185799870263773
2114.0,0.005204534866706578
2113.0,0.005218741034259248
2112.0,0.005228202514326096
2111.0,0.005225741175388937
2110.0,0.00521306487929692
2109.0,0.005198601432154808
2108.0,0.005182793887091783
2107.0,0.005164308431287371
2106.0,0.005155048832480769
2105.0,0.005167447066007322
2104.0,0.005191838858736328
2103.0,0.005207747362699026
2102.0,0.005212185273105387
2101.0,0.005214804881996464
2100.0,0.005213047998456855
2099.0,0.005195005104791727
2098.0,0.005160988745700699
2097.0,0.005119323478167375
2096.0,0.005068844293266885
2095.0,0.005011141057049404
2094.0,0.004970421937687066
2093.0,0.004971383117640519
2092.0,0.005004424861356588
2091.0,0.005039854509957301
2090.0,0.005068550526995412
2089.0,0.00510160202839537
2088.0,0.005137721897138919
2087.0,0.005161490995139218
2086.0,0.005170830794700295
2085.0,0.005178111296889219
2084.0,0.0051854845284974044
2083.0,0.005184404317621347
2082.0,0.0051781365322655
2081.0,0.0051794192002146775
2080.0,0.005187590893229529
2079.0,0.005191832550413153
2078.0,0.0051938450909606105
2077.0,0.005202033516957392
2076.0,0.005208294085100704
2075.0,0.005197715627448127
2074.0,0.005175742116239172
2073.0,0.005159989607897841
2072.0,0.00515140355595053
2071.0,0.005140332206198739
2070.0,0.005133263638032424
2069.0,0.0051425665553196005
2068.0,0.005157218345108737
2067.0,0.005155695317518484
2066.0,0.005140612788421968
2065.0,0.00512977460537527
2064.0,0.005122047272167246
2063.0,0.00510596393552849
2062.0,0.005090802249073919
2061.0,0.00509190514062472
2060.0,0.005098416616755128
2059.0,0.005093537062588028
2058.0,0.005092950826801414
2057.0,0.005119963144028571
2056.0,0.005157201696002004
2055.0,0.005173861045497435
2054.0,0.005191290608508043
2053.0,0.005261275451076908
2052.0,0.0053777195440961045
2051.0,0.005465749793949601
2050.0,0.005469240109540971
2049.0,0.005407963992878475
2048.0,0.005335157405099806
2047.0,0.005279668024206836
2046.0,0.005251015558725704
2045.0,0.005253948229642457
2044.0,0.0052703295298866006
2043.0,0.005266250709913547
2042.0,0.005237005041930884
2041.0,0.00521447571239289
2040.0,0.005221283649488295
2039.0,0.005250454815995386
2038.0,0.005290363647408747
2037.0,0.005326661062313194
2036.0,0.005324880708063219
2035.0,0.005261108659622897
2034.0,0.005169693178224747
2033.0,0.005111266917300267
2032.0,0.005093713672071643
2031.0,0.005078920545902088
2030.0,0.005058774969505017
2029.0,0.0050631221930682
2028.0,0.005095774296539725
2027.0,0.005124294552637351
2026.0,0.005134036769507701
2025.0,0.005137209081139567
2024.0,0.005132506637302934
2023.0,0.0051085535225607525
2022.0,0.005082997549612989
2021.0,0.005083636558089662
2020.0,0.005095758122041874
2019.0,0.005081329603295701
2018.0,0.005044058541107992
2017.0,0.005022160906977551
2016.0,0.005022741213625221
2015.0,0.005021975790766772
2014.0,0.0050205304691072605
2013.0,0.005037335471226138
2012.0,0.005058129711771911
2011.0,0.005048024735591392
2010.0,0.005007810130630115
2009.0,0.004964275208510947
2008.0,0.004915376175866522
2007.0,0.004844224107394966
2006.0,0.004775533939916462
2005.0,0.004753076396222088
2004.0,0.004769907509614158
2003.0,0.004781868739677966
2002.0,0.004780879885934391
2001.0,0.00479453396811026
2000.0,0.004825316934063184
1999.0,0.004845699499884597
1998.0,0.0048482720588586365
1997.0,0.00485197477043911
1996.0,0.004859933485779984
1995.0,0.004857541381063589
1994.0,0.004849013461471952
1993.0,0.004853180119239734
1992.0,0.004864772092335052
1991.0,0.0048655400113840645
1990.0,0.004869596673445014
1989.0,0.004905331255872352
1988.0,0.004961865047011112
1987.0,0.005003509401624327
1986.0,0.00502826898740403
1985.0,0.005063519490450753
1984.0,0.005114936751400678
1983.0,0.005169479268946384
1982.0,0.005234643210237576
1981.0,0.00531290014494212
1980.0,0.0053501864331158624
1979.0,0.0052787407400795615
1978.0,0.0051180971346602
1977.0,0.004968332874166354
1976.0,0.004883674591046625
1975.0,0.00482932370429706
1974.0,0.0047716341187936445
1973.0,0.00472425159748581
1972.0,0.004697766263934853
1971.0,0.004678608806781202
1970.0,0.004666569283899292
1969.0,0.0046728120810996185
1968.0,0.004676841995281338
1967.0,0.0046435416881606875
1966.0,0.004586996480088324
1965.0,0.004557112592115281
1964.0,0.004563624608941618
1963.0,0.004570262779111137
1962.0,0.004554330704219951
1961.0,0.004521985076394513
1960.0,0.004475418018743831
1959.0,0.004417257455441109
1958.0,0.004379730767984124
1957.0,0.004394591668138043
1956.0,0.004438733506498905
1955.0,0.004459570076702585
1954.0,0.004445460998457978
1953.0,0.004427545742745772
1952.0,0.004420541206786345
1951.0,0.004411656663915814
1950.0,0.004401152068693473
1949.0,0.004400433715274096
1948.0,0.004397996661901772
1947.0,0.004374752630575149
1946.0,0.004345860033152883
1945.0,0.004341175600978456
1944.0,0.004350188187304318
1943.0,0.004334692268876702
1942.0,0.00429468937900902
1941.0,0.004268575944714485
1940.0,0.004268487373532947
1939.0,0.004271698674012071
1938.0,0.004267950225688787
1937.0,0.004268906999821019
1936.0,0.004274486620640115
1935.0,0.004271147223054203
1934.0,0.0042631282521553675
1933.0,0.00426822732092465
1932.0,0.004280068012955086
1931.0,0.004274910113747046
1930.0,0.004254387790347936
1929.0,0.004237680611884778
1928.0,0.004226154422774849
1927.0,0.004207269346141399
1926.0,0.004189798811823248
1925.0,0.0041941293639356
1924.0,0.004210622546939451
1923.0,0.004214243186682998
1922.0,0.00421134389552512
1921.0,0.004226924022503477
1920.0,0.004252436277067166
1919.0,0.004251136199548779
1918.0,0.004218669221093352
1917.0,0.004193296324092144
1916.0,0.004194364261253618
1915.0,0.00420551270680497
1914.0,0.00421546133098658
1913.0,0.004230588297840235
1912.0,0.004245136131622865
1911.0,0.004237893294390741
1910.0,0.004207893128065791
1909.0,0.0041785789509685934
1908.0,0.004164594546940744
1907.0,0.004158232242821645
1906.0,0.004155847176410691
1905.0,0.004162615011810365
1904.0,0.004168341449259767
1903.0,0.00415952931220626
1902.0,0.004146497658913661
1901.0,0.004148030878487391
1900.0,0.0041594837617466825
1899.0,0.004161917784387251
1898.0,0.004157822650813014
1897.0,0.00416487063911303
1896.0,0.004177147570463703
1895.0,0.004173006858810885
1894.0,0.004157933842808462
1893.0,0.0041579193862311984
1892.0,0.004172203409343812
1891.0,0.004171314158818039
1890.0,0.004143821120579274
1889.0,0.004112629059271372
1888.0,0.004094871736679301
1887.0,0.004084966661027054
1886.0,0.004079450711565646
1885.0,0.004082939075206783
1884.0,0.0040877232163350746
1883.0,0.00407931230531997
1882.0,0.004063110469837453
1881.0,0.004057089658475409
1880.0,0.004061925086837751
1879.0,0.004062406890124421
1878.0,0.004056536775071092
1877.0,0.004057379112724076
1876.0,0.004061689765719108
1875.0,0.004051733996583179
1874.0,0.004032759093045171
1873.0,0.00403172585571224
1872.0,0.004054301311858695
1871.0,0.004073162354121405
1870.0,0.004063811950976128
1869.0,0.004033822450670345
1868.0,0.004003471382841921
1867.0,0.003982924557832605
1866.0,0.003980005439856166
1865.0,0.003996140941007471
1864.0,0.004013376244044522
1863.0,0.004011101002748738
1862.0,0.003994638272796853
1861.0,0.00398663655184851
1860.0,0.003991920582933118
1859.0,0.003995907631574701
1858.0,0.003995126323870538
1857.0,0.003999403181846777
1856.0,0.004006478407456925
1855.0,0.004001249915214493
1854.0,0.003984292920132293
1853.0,0.003969279856805557
1852.0,0.00396174571799161
1851.0,0.003955960853606434
1850.0,0.003950766922824642
1849.0,0.003956042519628071
1848.0,0.003972476198605801
1847.0,0.003987367900986654
1846.0,0.003989510564682117
1845.0,0.003973168921965689
1844.0,0.003936098340299779
1843.0,0.003892915791535451
1842.0,0.003876318659770418
1841.0,0.0038967434349359556
1840.0,0.0039284503115192765
1839.0,0.003939554666844804
1838.0,0.003930864900560288
1837.0,0.003927011927063545
1836.0,0.00393255868232841
1835.0,0.00393437770203973
1834.0,0.003937189156558408
1833.0,0.003958474011438503
1832.0,0.003992786696720153
1831.0,0.0040028659994968485
1830.0,0.0039702640826311635
1829.0,0.003933547830893683
1828.0,0.003930513304472987
1827.0,0.003948723959146814
1826.0,0.003954923739597738
1825.0,0.003939902410229392
1824.0,0.00391834830586398
1823.0,0.003904223042437661
1822.0,0.003904255947137973
1821.0,0.003915815021649768
1820.0,0.0039219990726799105
1819.0,0.003902406920702661
1818.0,0.003863805952540653
1817.0,0.003837327445197159
1816.0,0.0038361492206600233
1815.0,0.003849127579395763
1814.0,0.0038665548174019754
1813.0,0.0038889159997385907
1812.0,0.003907613355089168
1811.0,0.0039048605883546493
1810.0,0.0038885647461941635
1809.0,0.0038844221708301623
1808.0,0.0038940163371557054
1807.0,0.003899611580066599
1806.0,0.0039002293699253896
1805.0,0.0039130899901746626
1804.0,0.003939523788868862
1803.0,0.003963047264599258
1802.0,0.003974603747547392
1801.0,0.003984125411299749
1800.0,0.003996072685410912
1799.0,0.003999856984478648
1798.0,0.003998980268991312
1797.0,0.004009260885714394
1796.0,0.004031570415296974
1795.0,0.004051569598447479
1794.0,0.00405670422760621
1793.0,0.004044710900033754
1792.0,0.004016422744825077
1791.0,0.003979224038974117
1790.0,0.003959350838437654
1789.0,0.003973221292376127
1788.0,0.004003050758914922
1787.0,0.004017776707319799
1786.0,0.004008763195384521
1785.0,0.003996112582578666
1784.0,0.00399473108790174
1783.0,0.004002825098410081
1782.0,0.0040097301838809725
1781.0,0.004010864829644717
1780.0,0.004007955184564263
1779.0,0.00400058654340619
1778.0,0.003997581738572815
1777.0,0.0040072561462239685
1776.0,0.004027336242290937
1775.0,0.004047628390116864
1774.0,0.004055822311594628
1773.0,0.0040439162201712595
1772.0,0.004017355845784149
1771.0,0.00399280369746487
1770.0,0.003991340740543361
1769.0,0.004017052666660123
1768.0,0.004045484667519135
1767.0,0.004059388873056066
1766.0,0.0040774854795770105
1765.0,0.004124465617880287
1764.0,0.004185872437006614
1763.0,0.004218939774425917
1762.0,0.004208269219635584
1761.0,0.004197105588554981
1760.0,0.004223152780385733
1759.0,0.004273739253649241
1758.0,0.004322336980498527
1757.0,0.00435779706109111
1756.0,0.004387988369513378
1755.0,0.004422717831628658
1754.0,0.0044713390236969935
1753.0,0.0045393006387045255
1752.0,0.004617545989439246
1751.0,0.0046827060188459006
1750.0,0.004735967767106691
1749.0,0.004803246961979932
1748.0,0.0048801658737698105
1747.0,0.004944734170323263
1746.0,0.005000114338918775
1745.0,0.005070876251928009
1744.0,0.005157617197498612
1743.0,0.005234026469452571
1742.0,0.005296561100062932
1741.0,0.005366597324320115
1740.0,0.005434354899214537
1739.0,0.005470522013404862
1738.0,0.0054943563002005326
1737.0,0.005550203448370844
1736.0,0.005634944465838014
1735.0,0.005685081401722023
1734.0,0.005674188621920529
1733.0,0.005687663085262506
1732.0,0.0057820823292652574
1731.0,0.005902887385827648
1730.0,0.005998077461167233
1729.0,0.006074888614334073
1728.0,0.006154187003559398
1727.0,0.006234311828035141
1726.0,0.006311614306439041
1725.0,0.006404031869334112
1724.0,0.006513891429046896
1723.0,0.0066123683133478975
1722.0,0.0066954778634691235
1721.0,0.006793300927702657
1720.0,0.006917202523461774
1719.0,0.007032411948062611
1718.0,0.0071190089324046964
1717.0,0.007224989670377292
1716.0,0.007375905632501962
1715.0,0.007533250115663685
1714.0,0.007678454833008143
1713.0,0.007833766977676007
1712.0,0.008005486701317765
1711.0,0.008173230547025335
1710.0,0.008331411085753693
1709.0,0.008502220827878045
1708.0,0.008702022707448326
1707.0,0.008916809067956187
1706.0,0.009132720588355132
1705.0,0.009349334913013568
1704.0,0.009550389471339675
1703.0,0.009734904695525612
1702.0,0.009962523199264982
1701.0,0.010328872825515763
1700.0,0.010789484392865211
1699.0,0.011154140435353071
1698.0,0.01144890090794453
1697.0,0.011833092802151725
1696.0,0.012336361354255643
1695.0,0.012812838570105026
1694.0,0.013184148776680418
1693.0,0.013521511963160376
1692.0,0.01387585279344083
1691.0,0.014249581246290003
1690.0,0.014635067587862123
1689.0,0.015010927930466766
1688.0,0.015340497206039434
1687.0,0.015617804213138742
1686.0,0.01592591954943398
1685.0,0.016424763119400356
1684.0,0.01708507679331263
1683.0,0.01760802855541153
1682.0,0.01795898633052672
1681.0,0.01830023382685174
1680.0,0.018675292407464412
1679.0,0.01903043018388973
1678.0,0.019344372327148546
1677.0,0.019692241194990103
1676.0,0.02014945090767493
1675.0,0.02065395638716728
1674.0,0.02106808632848663
1673.0,0.02139733440860023
1672.0,0.021738401725079615
1671.0,0.022151057237878954
1670.0,0.022646319585351134
1669.0,0.02316724349871024
1668.0,0.023621353317011637
1667.0,0.023971328511562966
1666.0,0.024261990285946257
1665.0,0.02458625652309029
1664.0,0.025014670928277506
1663.0,0.02552371019183986
1662.0,0.02600575374929319
1661.0,0.026402324963531697
1660.0,0.026742883904083824
1659.0,0.027040580140365162
1658.0,0.027275600446519787
1657.0,0.0274357952366896
1656.0,0.027550692877825248
1655.0,0.02768574557897042
1654.0,0.027981320325658053
1653.0,0.028431530316032433
1652.0,0.028690625163149873
1651.0,0.028724427950540976
1650.0,0.028696820805111177
1649.0,0.028688780165963077
1648.0,0.028761590827509648
1647.0,0.028894455194897722
1646.0,0.02897616069720043
1645.0,0.028982370121905292
1644.0,0.028972074166968956
1643.0,0.028959194060275646
1642.0,0.028938493131210274
1641.0,0.02891850736989661
1640.0,0.02889945104604474
1639.0,0.028858923374389184
1638.0,0.028801448531487518
1637.0,0.02878907641960479
1636.0,0.028861605524426685
1635.0,0.02891257928986766
1634.0,0.028850060767818205
1633.0,0.0287345087117488
1632.0,0.028614501590086067
1631.0,0.028485025642147714
1630.0,0.028336148487925615
1629.0,0.028170434036672028
1628.0,0.027987242816858545
1627.0,0.02777229826758355
1626.0,0.0275190971014979
1625.0,0.027239354587263204
1624.0,0.026939368243335815
1623.0,0.026609224662798588
1622.0,0.02624960183396284
1621.0,0.025883321894841108
1620.0,0.02552466453033042
1619.0,0.025159772326562517
1618.0,0.02476632383715681
1617.0,0.024342187334111413
1616.0,0.023925624819369707
1615.0,0.023554646832637062
1614.0,0.023219670149117147
1613.0,0.022888729959836093
1612.0,0.022548990876275453
1611.0,0.022213804986477865
1610.0,0.021896388919933684
1609.0,0.021593903792499584
1608.0,0.021302416285634163
1607.0,0.021029116257681356
1606.0,0.020776406012854694
1605.0,0.020535563394785548
1604.0,0.02030484233267979
1603.0,0.020090244813080634
1602.0,0.019892667788389655
1601.0,0.019705060697701456
1600.0,0.019524403018764822
1599.0,0.01935646112208105
1598.0,0.01920355001029645
1597.0,0.01906013126621361
1596.0,0.018922177665224624
1595.0,0.0187933172138315
1594.0,0.018675525179976345
1593.0,0.018562325660988137
1592.0,0.018449952390016674
1591.0,0.01834519469188735
1590.0,0.01825386527473928
1589.0,0.01817110421487606
1588.0,0.018093645749758504
1587.0,0.0180285620724546
1586.0,0.017981727757049093
1585.0,0.01794276535013671
1584.0,0.01790365070248183
1583.0,0.017872650893399438
1582.0,0.01785517562568846
1581.0,0.017840922267676893
1580.0,0.01781965293862568
1579.0,0.017797454689251355
1578.0,0.017791942314019142
1577.0,0.017817017777322457
1576.0,0.01785450834564876
1575.0,0.017872557725177558
1574.0,0.01787059066872475
1573.0,0.017860584653180137
1572.0,0.01785503320942216
1571.0,0.01787640174270056
1570.0,0.017933266134680652
1569.0,0.017985539796699892
1568.0,0.01800713341752607
1567.0,0.018027819242748697
1566.0,0.018076870203300212
1565.0,0.01814203864641027
1564.0,0.018191268739095837
1563.0,0.018196743679342268
1562.0,0.01817507561222078
1561.0,0.01817162999887671
1560.0,0.018293956731786
1559.0,0.01860342047499165
1558.0,0.018851539627964743
1557.0,0.01893735078981864
1556.0,0.019010377230063574
1555.0,0.019119262345887234
1554.0,0.019240310182339584
1553.0,0.019345274373157802
1552.0,0.019440666566133937
1551.0,0.019543597186599457
1550.0,0.019646857066558266
1549.0,0.019717846883170107
1548.0,0.019740095584955736
1547.0,0.01973751881067292
1546.0,0.019737898580855066
1545.0,0.019746509242741853
1544.0,0.01974371648580038
1543.0,0.019709829925023844
1542.0,0.01965823090822703
1541.0,0.019622166821255067
1540.0,0.019576100897992017
1539.0,0.019456428966870352
1538.0,0.019296862425479865
1537.0,0.019156317817842005
1536.0,0.019025878962185234
1535.0,0.01888448582082276
1534.0,0.018725143856883272
1533.0,0.018555554147777344
1532.0,0.01838600085462416
1531.0,0.018223749705738094
1530.0,0.01807573606052168
1529.0,0.017942749643523288
1528.0,0.017815369177191422
1527.0,0.017685028804413347
1526.0,0.017556883063119953
1525.0,0.017443117677914094
1524.0,0.017345592233927173
1523.0,0.017258042850198763
1522.0,0.017186922857138354
1521.0,0.01713374019762536
1520.0,0.017080778847799502
1519.0,0.017025472557297843
1518.0,0.016968634334160338
1517.0,0.01689369211324449
1516.0,0.01676999471304429
1515.0,0.01659311680149404
1514.0,0.016394328646917318
1513.0,0.016198831623520416
1512.0,0.01600770001154518
1511.0,0.015812965913699947
1510.0,0.015621519054328091
1509.0,0.015448586837490966
1508.0,0.015286159714419975
1507.0,0.015086349159998406
1506.0,0.014850061174600148
1505.0,0.014665267549229071
1504.0,0.014560657943711381
1503.0,0.014478828781341227
1502.0,0.014385487678600288
1501.0,0.01429027807160169
1500.0,0.01420460715866858
1499.0,0.0141140805195398
1498.0,0.014009437889358036
1497.0,0.013916124346446266
1496.0,0.013841973044937608
1495.0,0.0137671219703284
1494.0,0.013699442740354485
1493.0,0.013659831428103834
1492.0,0.01363843514460809
1491.0,0.013604767292729426
1490.0,0.013561423289615751
1489.0,0.013544107075388364
1488.0,0.013549504036481707
1487.0,0.013550480436295666
1486.0,0.013561490297429512
1485.0,0.013606327051917815
1484.0,0.013682019446736032
1483.0,0.013778235901547007
1482.0,0.013905815689860239
1481.0,0.014077072704960187
1480.0,0.014269624183427733
1479.0,0.014466903322588695
1478.0,0.014704323455639112
1477.0,0.01502590725025127
1476.0,0.015410656367942116
1475.0,0.01583357225738031
1474.0,0.016392957176546128
1473.0,0.01723162396377992
1472.0,0.01825522384804931
1471.0,0.0192246604118233
1470.0,0.020116729478304528
1469.0,0.021033382191941098
1468.0,0.02200988410459636
1467.0,0.023059561640745147
1466.0,0.024242321691972688
1465.0,0.025542188997441408
1464.0,0.026728859931967563
1463.0,0.02760200595215599
1462.0,0.02821690408044703
1461.0,0.02870006714410936
1460.0,0.02909827364718427
1459.0,0.029424153025281213
1458.0,0.02974295420843127
1457.0,0.03007684821509473
1456.0,0.030303792473235294
1455.0,0.03039606856925839
1454.0,0.03043369485084682
1453.0,0.03041707647164371
1452.0,0.03028518406220968
1451.0,0.029993270482879218
1450.0,0.029515842347290752
1449.0,0.028790781127649136
1448.0,0.027781701342044145
1447.0,0.026619370583821727
1446.0,0.02550001006261604
1445.0,0.024498008214964492
1444.0,0.023603344089929347
1443.0,0.0228242173354335
1442.0,0.022195502207862358
1441.0,0.021730167190588942
1440.0,0.02141679462574044
1439.0,0.021249042906727286
1438.0,0.021229016951044653
1437.0,0.021296830776591672
1436.0,0.021281294792014172
1435.0,0.02106041797877636
1434.0,0.020661025236426243
1433.0,0.02014446519432832
1432.0,0.019576140847008552
1431.0,0.01904882339515567
1430.0,0.01863209648191013
1429.0,0.018334161538540606
1428.0,0.0181322343912048
1427.0,0.018010010992076792
1426.0,0.017945995110183854
1425.0,0.01791202954934131
1424.0,0.017892385842839146
1423.0,0.01787521243310318
1422.0,0.017849822447366576
1421.0,0.017819304830489536
1420.0,0.017806945945969484
1419.0,0.017824137476277008
1418.0,0.01783693961015419
1417.0,0.017814994938721254
1416.0,0.017766902023313606
1415.0,0.01770835824350112
1414.0,0.017640097831233766
1413.0,0.017555311619046887
1412.0,0.0174557664947193
1411.0,0.01734701834317508
1410.0,0.017222819259054684
1409.0,0.01707474361398905
1408.0,0.01690827679004687
1407.0,0.016739095313021087
1406.0,0.01656735048376685
1405.0,0.016375494698104665
1404.0,0.01616760540230846
1403.0,0.015970029710404125
1402.0,0.015787971436645284
1401.0,0.015597700592253481
1400.0,0.015386813007224331
1399.0,0.015174992281858493
1398.0,0.014978062384095499
1397.0,0.014784898564400458
1396.0,0.014587486795571744
1395.0,0.014399181648322244
1394.0,0.014225252040452045
1393.0,0.014060393799599344
1392.0,0.013918830946321585
1391.0,0.013821216670443488
1390.0,0.013767998788589576
1389.0,0.01375653203630955
1388.0,0.013824017540391031
1387.0,0.014036381841851273
1386.0,0.014427395706085259
1385.0,0.015023617811474384
1384.0,0.015916274129900397
1383.0,0.017222478723973932
1382.0,0.019004408402594253
1381.0,0.021292684767904205
1380.0,0.02412308699135948
1379.0,0.027378646823799282
1378.0,0.030600890363731363
1377.0,0.0331064703784467
1376.0,0.0342506033089579
1375.0,0.03361010909185242
1374.0,0.03132237316981386
1373.0,0.02820885630301654
1372.0,0.0251173179291607
1371.0,0.022388720497371044
1370.0,0.020054096714117845
1369.0,0.018135280118268864
1368.0,0.016681804895497948
1367.0,0.015680299296925056
1366.0,0.015043699748834696
1365.0,0.014680285939516584
1364.0,0.01453360500550564
1363.0,0.01457411020275386
1362.0,0.014761321964784944
1361.0,0.015016930177009825
1360.0,0.015238506669147011
1359.0,0.0153293444325075
1358.0,0.01522452701655655
1357.0,0.01491177712860246
1356.0,0.01443311818026543
1355.0,0.013866210824313207
1354.0,0.013295725784158913
1353.0,0.01278265944850908
1352.0,0.012345234836146616
1351.0,0.01197332477272645
1350.0,0.011652525688786216
1349.0,0.011372480656950153
1348.0,0.01112607959521726
1347.0,0.010907809826674933
1346.0,0.010714597362062638
1345.0,0.010544371115333977
1344.0,0.010394716246042865
1343.0,0.010263427365022735
1342.0,0.010148325517498427
1341.0,0.010046409794700215
1340.0,0.009955399495459257
1339.0,0.00987529412006166
1338.0,0.009806589100934038
1337.0,0.009749333046811819
1336.0,0.009704985217867317
1335.0,0.009677424203730986
1334.0,0.009669809303438366
1333.0,0.009679874762134126
1332.0,0.009697975918096954
1331.0,0.009709217500633973
1330.0,0.009698598770766958
1329.0,0.009658343583476383
1328.0,0.009591435781562952
1327.0,0.009507419850958052
1326.0,0.009413729232673376
1325.0,0.0093133016126775
1324.0,0.009211010041353641
1323.0,0.0091159873464619
1322.0,0.009035506029329076
1321.0,0.008969711110890746
1320.0,0.00891388109083157
1319.0,0.00886242374536754
1318.0,0.00881051341419705
1317.0,0.008756429770203052
1316.0,0.008703245152356395
1315.0,0.008655119560858803
1314.0,0.008612103039477419
1313.0,0.008572322970371173
1312.0,0.008538800337852733
1311.0,0.00852029888433509
1310.0,0.008526309754411852
1309.0,0.00856622460164914
1308.0,0.008648487502985336
1307.0,0.008769419415673435
1306.0,0.00889963065197259
1305.0,0.00899154828954555
1304.0,0.009009398608149281
1303.0,0.008953035862080353
1302.0,0.00885486325397124
1301.0,0.008755811369320248
1300.0,0.00868332850871543
1299.0,0.00864390345210131
1298.0,0.008627178521846902
1297.0,0.00861584028612517
1296.0,0.008595079686708341
1295.0,0.008556257679172147
1294.0,0.008496356423753751
1293.0,0.008418713590188689
1292.0,0.008333737110011568
1291.0,0.008254039507302332
1290.0,0.00818663935416694
1289.0,0.008131549664538258
1288.0,0.008087019511561558
1287.0,0.008051955673103581
1286.0,0.008023856143769723
1285.0,0.00799986258860149
1284.0,0.007980601345638135
1283.0,0.007968637976491336
1282.0,0.007963304159715322
1281.0,0.007961252689385615
1280.0,0.00796224244361528
1279.0,0.007969459522638807
1278.0,0.007983494867799765
1277.0,0.008000783663736136
1276.0,0.008018715757791145
1275.0,0.008038250324569268
1274.0,0.008060862354127653
1273.0,0.008086969772681132
1272.0,0.008117823058103537
1271.0,0.008155067844947152
1270.0,0.008198026789425446
1269.0,0.008244914259632473
1268.0,0.008296794117864855
1267.0,0.008356571580694593
1266.0,0.008424540433452735
1265.0,0.008498848951449626
1264.0,0.008579937526300855
1263.0,0.008671207706772542
1262.0,0.008776739039540711
1261.0,0.008901873440020518
1260.0,0.009053885043752138
1259.0,0.009235184054264328
1258.0,0.009433689514281151
1257.0,0.009622978655311797
1256.0,0.00977338524969301
1255.0,0.00986581350268207
1254.0,0.009901363138430883
1253.0,0.009901181295265484
1252.0,0.009895112248060037
1251.0,0.00990633542345251
1250.0,0.009942965634087052
1249.0,0.010001517302675164
1248.0,0.010075469536167564
1247.0,0.010159049857051716
1246.0,0.010246722482322747
1245.0,0.01033437694516771
1244.0,0.010421218485236595
1243.0,0.01050813398086114
1242.0,0.010594458644825406
1241.0,0.010678248286219947
1240.0,0.010759362285990762
1239.0,0.010840271818695424
1238.0,0.010923143580900707
1237.0,0.01100678202382857
1236.0,0.011086970686791991
1235.0,0.011159942868531884
1234.0,0.011225476217418482
1233.0,0.011286266538550258
1232.0,0.011344623320223325
1231.0,0.011401000446058138
1230.0,0.011455599421277144
1229.0,0.011509196812742364
1228.0,0.011561616021857022
1227.0,0.011612001654382198
1226.0,0.011662307938377903
1225.0,0.01171787660068799
1224.0,0.011781592279088189
1223.0,0.01184856514672554
1222.0,0.011908835988409359
1221.0,0.011954271144508925
1220.0,0.0119813823382716
1219.0,0.011990062372363781
1218.0,0.011982682644152816
1217.0,0.0119629729457837
1216.0,0.011933163695911138
1215.0,0.011893307903167148
1214.0,0.0118451256223006
1213.0,0.011795004375016706
1212.0,0.011750988522313289
1211.0,0.011717301720885183
1210.0,0.011692954916552218
1209.0,0.011674368854885226
1208.0,0.01165780235428378
1207.0,0.011640908222844366
1206.0,0.011624582319342033
1205.0,0.011612574199555066
1204.0,0.011607248866852427
1203.0,0.011606366329968549
1202.0,0.011605655353946857
1201.0,0.01160369833427353
1200.0,0.011602673870200258
1199.0,0.011605408323351643
1198.0,0.011613405408929566
1197.0,0.011626543240090948
1196.0,0.011642561514773771
1195.0,0.011657899123211912
1194.0,0.011671268091840447
1193.0,0.011685475396129416
1192.0,0.011703770998356466
1191.0,0.011725607081754217
1190.0,0.011748171211422046
1189.0,0.011770770333565045
1188.0,0.011795177068307112
1187.0,0.011822901041897524
1186.0,0.011855017773902327
1185.0,0.011893908243164967
1184.0,0.011942405163507228
1183.0,0.012001619061359482
1182.0,0.012071736771062123
1181.0,0.012154233728505512
1180.0,0.012251434328435439
1179.0,0.012365699317892952
1178.0,0.012502259970573706
1177.0,0.012671675610666483
1176.0,0.012886431751450027
1175.0,0.013156212793723362
1174.0,0.01348908883679139
1173.0,0.013893081190458349
1172.0,0.014367363406623201
1171.0,0.014887286373447734
1170.0,0.015400975573082582
1169.0,0.01584357679780516
1168.0,0.016158280294883497
1167.0,0.016317121443202444
1166.0,0.016334024310973194
1165.0,0.01625603891394003
1164.0,0.016135468789475707
1163.0,0.016009169988831826
1162.0,0.015897969957624592
1161.0,0.01581214751119054
1160.0,0.015752951629318453
1159.0,0.01571610513850613
1158.0,0.015699622411630323
1157.0,0.015705687121018438
1156.0,0.015733493913703708
1155.0,0.015775145938566656
1154.0,0.015820060336985405
1153.0,0.01585787512482308
1152.0,0.015876069752180446
1151.0,0.015863291318399544
1150.0,0.015819807413862835
1149.0,0.015758510788995
1148.0,0.015692603558561065
1147.0,0.015628018763065542
1146.0,0.015568564130811782
1145.0,0.015519774260715408
1144.0,0.015483793400076197
1143.0,0.01545720897420121
1142.0,0.015438099996363946
1141.0,0.015430261374103998
1140.0,0.015437558247951514
1139.0,0.015459458949830505
1138.0,0.015494791305705378
1137.0,0.01554411560819911
1136.0,0.015605674233480034
1135.0,0.01567526611878553
1134.0,0.015753036815264222
1133.0,0.015843619311554393
1132.0,0.015946398282445626
1131.0,0.01605311327870582
1130.0,0.016159332076767677
1129.0,0.016270899292434072
1128.0,0.016394191950134782
1127.0,0.016527383579101433
1126.0,0.016666988447579894
1125.0,0.016816020418570582
1124.0,0.016979562230573942
1123.0,0.017158391651096942
1122.0,0.017352038974131474
1121.0,0.017561545433012495
1120.0,0.01778461518130147
1119.0,0.01801536756014057
1118.0,0.018253067235385074
1117.0,0.01850239458595286
1116.0,0.018760604709209365
1115.0,0.019014625603311335
1114.0,0.019256470745770866
1113.0,0.01949057015653818
1112.0,0.019719957875125045
1111.0,0.019938452597143688
1110.0,0.02014429963546306
1109.0,0.020348754196642928
1108.0,0.020562565958111782
1107.0,0.020785459584228123
1106.0,0.021014950425994543
1105.0,0.021249984194704866
1104.0,0.02147686697444875
1103.0,0.021667171721890574
1102.0,0.021802559072202896
1101.0,0.021891833865680818
1100.0,0.02195560286088412
1099.0,0.02200676909423056
1098.0,0.022052537626303666
1097.0,0.022100154379629262
1096.0,0.02215129105453041
1095.0,0.022202077122848645
1094.0,0.02225505376212876
1093.0,0.02231962589312019
1092.0,0.022396975038251377
1091.0,0.02247795099351986
1090.0,0.022558965553947086
1089.0,0.02264504181135594
1088.0,0.022734036621046744
1087.0,0.02281479712085056
1086.0,0.02288534439538607
1085.0,0.022954855750084605
1084.0,0.023022532775886534
1083.0,0.023073333742008522
1082.0,0.023100569112675585
1081.0,0.023114038204511175
1080.0,0.02312034722881117
1079.0,0.02311482378481413
1078.0,0.023098291865947102
1077.0,0.02308130732741092
1076.0,0.023065074539696556
1075.0,0.02303787974507587
1074.0,0.02299734148093876
1073.0,0.02295643412012882
1072.0,0.02292040695632261
1071.0,0.022877760878224632
1070.0,0.022822040230936855
1069.0,0.02276334819235331
1068.0,0.022710029533696843
1067.0,0.022657199702161356
1066.0,0.02260140696022745
1065.0,0.02254925043203683
1064.0,0.022502947353611347
1063.0,0.022452782741455297
1062.0,0.022392311468329113
1061.0,0.02232805013760396
1060.0,0.02226765846895094
1059.0,0.022211523656800274
1058.0,0.022161026129201192
1057.0,0.022121241425585674
1056.0,0.022090389325642536
1055.0,0.02205996558777534
1054.0,0.022030557150744694
1053.0,0.02201493836698123
1052.0,0.022020131850237695
1051.0,0.022039237769176115
1050.0,0.022066000758558336
1049.0,0.02210130360164041
1048.0,0.022139973112256923
1047.0,0.022169321326004774
1046.0,0.022184290401161058
1045.0,0.02218679000244431
1044.0,0.022170536456161474
1043.0,0.02212575283940119
1042.0,0.022060827070115977
1041.0,0.02200139481270178
1040.0,0.021963735457123473
1039.0,0.021943804137296036
1038.0,0.021934084553543415
1037.0,0.02193435712076078
1036.0,0.021942013215976226
1035.0,0.021948179787155662
1034.0,0.021949264634208238
1033.0,0.02194817847149851
1032.0,0.021939761044907694
1031.0,0.02190961876705205
1030.0,0.021851182080614793
1029.0,0.021768500428712242
1028.0,0.02165913770733663
1027.0,0.021511731651869512
1026.0,0.021325527519193446
1025.0,0.02111627321896914
1024.0,0.02089797637704419
1023.0,0.02067353482276083
1022.0,0.020447025482708325
1021.0,0.02022980529382273
1020.0,0.020028827944956175
1019.0,0.0198423630275205
1018.0,0.019672538324382698
1017.0,0.019529411252407574
1016.0,0.019417354271546963
1015.0,0.019329714143934723
1014.0,0.01926286915701675
1013.0,0.01922403590670574
1012.0,0.0192184571554286
1011.0,0.019239038926314168
1010.0,0.019275429094018682
1009.0,0.019324202485721826
1008.0,0.019383378586583185
1007.0,0.019446246225578213
1006.0,0.01950971169456395
1005.0,0.01958363148695569
1004.0,0.019687290997986863
1003.0,0.01984329558009803
1002.0,0.020074163041413882
1001.0,0.020384554991428803
1000.0,0.020727653352140885
999.0,0.020992795593107745
998.0,0.02104614638013287
997.0,0.02080052780859999
996.0,0.020261091850096093
995.0,0.019522106965158475
994.0,0.018720729459231436
993.0,0.017971839284118052
992.0,0.01732702225975084
991.0,0.01678436163449956
990.0,0.016325577597034603
989.0,0.015938013685840906
988.0,0.015611227624129611
987.0,0.015331031481727712
986.0,0.015085964985570629
985.0,0.014875505279738556
984.0,0.01470833507120272
983.0,0.014596331707724099
982.0,0.014552987211479192
981.0,0.014593351565585229
980.0,0.014729846179324515
979.0,0.014967070766738755
978.0,0.015300855732572356
977.0,0.01571685568369733
976.0,0.01618013013673369
975.0,0.016620742681461798
974.0,0.016933541352189288
973.0,0.01700398009744353
972.0,0.016755404982859372
971.0,0.016196898937520885
970.0,0.015433274848320841
969.0,0.01461468068812568
968.0,0.013863220655317504
967.0,0.013235455898010774
966.0,0.012732559143566063
965.0,0.012328979006106133
964.0,0.011994184759502159
963.0,0.011703438006998305
962.0,0.011442546751114353
961.0,0.01120714077134767
960.0,0.01099634292669656
959.0,0.010806156244982896
958.0,0.010628825093954974
957.0,0.010458247276928187
956.0,0.010295279631697676
955.0,0.010146873111834777
954.0,0.010019064897774144
953.0,0.009910575957029022
952.0,0.009813597361233635
951.0,0.00972036928238953
950.0,0.00962846738519792
949.0,0.009541108302232636
948.0,0.009464731087206751
947.0,0.009406327021953964
946.0,0.00937028793019594
945.0,0.009355772910891656
944.0,0.00935727608717108
943.0,0.00936731643662663
942.0,0.009376974305370687
941.0,0.009374226796649
940.0,0.00934573546171854
939.0,0.009284388454353113
938.0,0.009194917755137111
937.0,0.009089666742422996
936.0,0.008979482254112145
935.0,0.008870674797112866
934.0,0.008768325590872079
933.0,0.008677321137374502
932.0,0.008598875189773555
931.0,0.00852923891873226
930.0,0.008464307796542435
929.0,0.008404767275755292
928.0,0.008355394563420344
927.0,0.008319711303093464
926.0,0.008296185583718177
925.0,0.008279468240429144
924.0,0.008264671419199293
923.0,0.008250694504272474
922.0,0.00824055559694185
921.0,0.00823913075832857
920.0,0.008250065344945027
919.0,0.008273646014171422
918.0,0.008306490684321075
917.0,0.008343132154494387
916.0,0.008378822280627004
915.0,0.008411893221976476
914.0,0.008443251909621311
913.0,0.00847210451452345
912.0,0.008491644176033155
911.0,0.00849048147477124
910.0,0.008460269313482467
909.0,0.008402909989831934
908.0,0.008331479055876771
907.0,0.008265876119560898
906.0,0.008227194518332337
905.0,0.008232989775064136
904.0,0.008293153111915214
903.0,0.008404601294977256
902.0,0.008545532635901536
901.0,0.008674713844979202
900.0,0.008740759250861591
899.0,0.008700410908342022
898.0,0.008536871078565694
897.0,0.008266198114584821
896.0,0.007929605055568516
895.0,0.007579023510085835
894.0,0.007260526056111504
893.0,0.006999943603036709
892.0,0.006799432019421072
891.0,0.006646589913783883
890.0,0.006526574810995719
889.0,0.006428915710046104
888.0,0.006349230403200569
887.0,0.006288621695139036
886.0,0.006250445664957631
885.0,0.006235247196919999
884.0,0.006239280885022578
883.0,0.006259850047074982
882.0,0.006301307155358081
881.0,0.00637176990506194
880.0,0.006470990007096816
879.0,0.006583238605491584
878.0,0.0066867048946123615
877.0,0.0067716587713838455
876.0,0.006846907024215624
875.0,0.006925948557271966
874.0,0.007005561150104032
873.0,0.00705674053836706
872.0,0.007038223522047443
871.0,0.006925782870651631
870.0,0.006735042667174654
869.0,0.006515759804561885
868.0,0.006320936189786446
867.0,0.006178400909990514
866.0,0.006085462125990915
865.0,0.006023714117109825
864.0,0.005976400830033967
863.0,0.005935334795488457
862.0,0.005898974949295331
861.0,0.005868375512851368
860.0,0.005843783787680945
859.0,0.005822865835735921
858.0,0.005802043351675851
857.0,0.005778918006194227
856.0,0.005751283504117596
855.0,0.005714892099831864
854.0,0.005667570347069306
853.0,0.00561750206361449
852.0,0.005582352886643823
851.0,0.005575889338507946
850.0,0.0055983818220445986
849.0,0.005644301573267358
848.0,0.005717695592068072
847.0,0.005839611240595609
846.0,0.006048348326895955
845.0,0.0063922693435745775
844.0,0.006896355612088371
843.0,0.0075015348257454414
842.0,0.008036632133448398
841.0,0.008292843591308285
840.0,0.008167861954469132
839.0,0.0077477645189460796
838.0,0.007239286669683697
837.0,0.006818764239337452
836.0,0.006544053290350562
835.0,0.006382786299394511
834.0,0.006284983271187995
833.0,0.006220135018425249
832.0,0.006172870539914992
831.0,0.006134059941972627
830.0,0.006102350969535318
829.0,0.0060833125256977896
828.0,0.006080511302666352
827.0,0.006089280089385472
826.0,0.00610022524062351
825.0,0.0061071255408005655
824.0,0.006111917264862505
823.0,0.006123577522674327
822.0,0.0061505828279773515
821.0,0.006192952473666467
820.0,0.006243232690033389
819.0,0.006295487985621583
818.0,0.006351753414327225
817.0,0.006421489437645958
816.0,0.006518903890874261
815.0,0.00666023839530498
814.0,0.006856541331451619
813.0,0.0071027729084621165
812.0,0.007373415309059311
811.0,0.007630158010510696
810.0,0.007834503893909871
809.0,0.00795614253181375
808.0,0.007978886416906566
807.0,0.007909355488217163
806.0,0.007779514646030524
805.0,0.007631794247610667
804.0,0.007498109319617426
803.0,0.007392647294705696
802.0,0.007317580757860433
801.0,0.007267795402064875
800.0,0.007232314929315359
799.0,0.007199663934260922
798.0,0.00716546098094905
797.0,0.007132811284780468
796.0,0.007105590189928299
795.0,0.0070842222600510825
794.0,0.007067135410991639
793.0,0.0070528009941487994
792.0,0.007040021352156483
791.0,0.007027875189039277
790.0,0.007014569413538924
789.0,0.006995759409332919
788.0,0.006967279621052596
787.0,0.006931670876529213
786.0,0.0068981456397043065
785.0,0.0068728312059019026
784.0,0.006853024453216984
783.0,0.006834636512264696
782.0,0.006820427263994778
781.0,0.006815202344876781
780.0,0.006816734468394342
779.0,0.006818053114142837
778.0,0.006815898002751888
777.0,0.006810410447915078
776.0,0.006798989883602332
775.0,0.006778125722221522
774.0,0.00675098216868724
773.0,0.006726691258014266
772.0,0.006711932680620224
771.0,0.006708077146098777
770.0,0.0067152033968753255
769.0,0.006732650118403384
768.0,0.006756071807427672
767.0,0.006780130853363828
766.0,0.00680443535692744
765.0,0.006831642489800905
764.0,0.0068597663400983624
763.0,0.0068816440117809435
762.0,0.006892414338818606
761.0,0.0068935374536447
760.0,0.006890669578829325
759.0,0.006892132614072672
758.0,0.0069070595178225575
757.0,0.006938446647448002
756.0,0.00697887974136205
755.0,0.00701880165099842
754.0,0.007057207113867673
753.0,0.007097884982467752
752.0,0.007138149619472544
751.0,0.007170409431712939
750.0,0.0071936125258951
749.0,0.0072133261491757975
748.0,0.007230080311082451
747.0,0.007237217243564973
746.0,0.007232075299774661
745.0,0.007220461039307239
744.0,0.007207739545519251
743.0,0.007194107537980551
742.0,0.007181259247824548
741.0,0.007174263332467004
740.0,0.0071719556931308034
739.0,0.007163185459673966
738.0,0.007138387670933567
737.0,0.007100281765566064
736.0,0.007059656331690473
735.0,0.007024911405955927
734.0,0.00699779607689178
733.0,0.006974501461122322
732.0,0.006948809553267828
731.0,0.0069190407316479
730.0,0.006894058247582876
729.0,0.0068879122690986665
728.0,0.006906685232399868
727.0,0.006943749780512071
726.0,0.006986765595226364
725.0,0.007024279337281291
724.0,0.007048786029395827
723.0,0.00706215899957688
722.0,0.00707709428145455
721.0,0.007103857498581686
720.0,0.00713459070715851
719.0,0.007153635613979078
718.0,0.007165945643499011
717.0,0.0071984769658211475
716.0,0.007268750866151025
715.0,0.007362445893460759
714.0,0.00744625054094219
713.0,0.007497097886340788
712.0,0.007515030779850208
711.0,0.007517177011376988
710.0,0.007526814978921957
709.0,0.007559571882983009
708.0,0.007610997063542419
707.0,0.007660625812942213
706.0,0.007693869645815109
705.0,0.007717339313304032
704.0,0.007749432075151028
703.0,0.007800864030926825
702.0,0.007867596567851503
701.0,0.007936513783474118
700.0,0.007993443975614143
699.0,0.008030150126675562
698.0,0.008047134795573889
697.0,0.008047225501527871
696.0,0.008028158234961816
695.0,0.007989050641784673
694.0,0.00794290364482826
693.0,0.007911527391502377
692.0,0.007904909742911649
691.0,0.007913724574052811
690.0,0.007923253833490466
689.0,0.007924426839312184
688.0,0.007910287625523779
687.0,0.007875926501100784
686.0,0.007828183488865076
685.0,0.007784056472112194
684.0,0.007754419829416829
683.0,0.007738577178510137
682.0,0.007734815476175251
681.0,0.0077443024516328125
680.0,0.007763057400606326
679.0,0.007781373943891076
678.0,0.007792752467459642
677.0,0.007792104122745409
676.0,0.007769570601488482
675.0,0.00772083505050483
674.0,0.00765707326125188
673.0,0.007597960764894511
672.0,0.00754609891942686
671.0,0.007493757542933514
670.0,0.007440501614791831
669.0,0.007435279043196401
668.0,0.007525255541886631
667.0,0.007601105161915275
666.0,0.007574199525935254
665.0,0.00750098391870252
664.0,0.007433480956680085
663.0,0.007384785718627726
662.0,0.007351093436170101
661.0,0.007325917668057109
660.0,0.007304819179988969
659.0,0.007282450221949675
658.0,0.007260008692783475
657.0,0.007244001219833101
656.0,0.007233750170353406
655.0,0.007217471403823127
654.0,0.0071894249379806235
653.0,0.00716282025737818
652.0,0.0071537357152321075
651.0,0.007158837421269042
650.0,0.007159062780407947
649.0,0.007141861766551712
648.0,0.007111401309073487
647.0,0.007080948650157194
646.0,0.0070600016800057685
645.0,0.007043184848473886
644.0,0.007011613773915119
643.0,0.006953240332931376
642.0,0.006879372236127125
641.0,0.006807477065460676
640.0,0.006735627951775198
639.0,0.006655751950327507
638.0,0.006581284904024386
637.0,0.006529293200462123
636.0,0.006482642838940029
635.0,0.00641088609474362
634.0,0.0063303707779724105
633.0,0.006294959350984463
632.0,0.006316723000614427
631.0,0.00634353389790066
630.0,0.006330053414843082
629.0,0.006286207360020175
628.0,0.006228368920023987
627.0,0.006130112234522804
626.0,0.005970457016023828
625.0,0.005797425355421097
624.0,0.005682494673229788
623.0,0.005626738141078259
622.0,0.005565633599076839
621.0,0.005465292097975
620.0,0.005362289626040602
619.0,0.0053047029649236875
618.0,0.005299895421426587
617.0,0.00532999646960251
616.0,0.0053785628151307285
615.0,0.005425072171842758
614.0,0.00544609362317275
613.0,0.0054349510757354825
612.0,0.005403193966994145
611.0,0.005361766986510924
610.0,0.005320926531408246
609.0,0.005299368700597926
608.0,0.005307315724723892
607.0,0.005338190511832775
606.0,0.005400322254701533
605.0,0.005531528661596794
604.0,0.0057428690438309955
603.0,0.005966120039090684
602.0,0.006109360274200788
601.0,0.006150857804444763
600.0,0.006130065400749535
599.0,0.006076387614133365
598.0,0.005995350041689969
597.0,0.005902529883274216
596.0,0.005821060011934526
595.0,0.0057465861686757935
594.0,0.0056546240141199175
593.0,0.005545195304919736
592.0,0.005441715254493168
591.0,0.005339019515364762
590.0,0.005190538610904806
589.0,0.004969090309434029
588.0,0.0047149796641357145
587.0,0.004512079909222004
586.0,0.0044296283711970485
585.0,0.004483180021641142
584.0,0.004635914196383041
583.0,0.004802137355338543
582.0,0.004878703811263941
581.0,0.00484110811920513
580.0,0.004771305021360299
579.0,0.004743651566691461
578.0,0.00471003564230546
577.0,0.004553997048178299
576.0,0.004265051341343126
575.0,0.0039926322518199775
574.0,0.0038595482757506263
573.0,0.003805951764644617
572.0,0.0037264403262137324
571.0,0.0036565982628994197
570.0,0.003710653931251872
569.0,0.0038824205177484996
568.0,0.004026539750874834
567.0,0.004036522944247915
566.0,0.003961475319754338
565.0,0.003905276980940781
564.0,0.0039011787732966176
563.0,0.0039438092923916625
562.0,0.00405220053093506
561.0,0.004224165407598146
560.0,0.0043572728044275685
559.0,0.004295964778240777
558.0,0.004015212561881337
557.0,0.003685150146434413
556.0,0.003505954710521805
555.0,0.0035499656022459133
554.0,0.00374269402071546
553.0,0.003962793624245096
552.0,0.004112611845617176
551.0,0.004102971283364565
550.0,0.0038869729111608124
