cm-1,A
4000.0,0.004723128865998169
3999.0,0.004726716592522858
3998.0,0.004721724501256535
3997.0,0.00471282778062313
3996.0,0.004705493052584895
3995.0,0.004702351663493264
3994.0,0.0047026777807811036
3993.0,0.004704211498490938
3992.0,0.004705035653984387
3991.0,0.0047049151541016
3990.0,0.0047052929119834695
3989.0,0.004707784540350344
3988.0,0.004711986361456463
3987.0,0.0047150043259579135
3986.0,0.0047144918705545515
3985.0,0.004710985157002063
3984.0,0.004707091026804907
3983.0,0.004705178278195721
3982.0,0.0047063972577100245
3981.0,0.004711659817614282
3980.0,0.00472142496593082
3979.0,0.004733865762788971
3978.0,0.004744331434590517
3977.0,0.004748372794454796
3976.0,0.004744715678395437
3975.0,0.00473572370899627
3974.0,0.00472531390240831
3973.0,0.004716887790003699
3972.0,0.004713231772901193
3971.0,0.004715601643045738
3970.0,0.004722528773069112
3969.0,0.004730473969089365
3968.0,0.004737029241713611
3967.0,0.004741975004696393
3966.0,0.004744920225473482
3965.0,0.0047444169732207934
3964.0,0.004739990177677738
3963.0,0.004734273104526222
3962.0,0.004730714394661032
3961.0,0.004729542760265949
3960.0,0.004728819802629498
3959.0,0.004728303208196892
3958.0,0.004729954975967907
3957.0,0.004734197919914251
3956.0,0.004738553717008714
3955.0,0.0047399875015971486
3954.0,0.004737523637259416
3953.0,0.0047319377085180605
3952.0,0.00472409960676743
3951.0,0.0047150351919881435
3950.0,0.0047076171934640944
3949.0,0.004705902378258476
3948.0,0.0047095014732114766
3947.0,0.004711935323290674
3946.0,0.004707675171065892
3945.0,0.004701425533882742
3944.0,0.0047041816086810136
3943.0,0.004717977172268146
3942.0,0.004733874634429303
3941.0,0.004743921464228192
3940.0,0.004749255516808128
3939.0,0.004755977916401319
3938.0,0.004764377651652291
3937.0,0.004766520419383406
3936.0,0.004757290496892051
3935.0,0.004742830319513336
3934.0,0.004734379464058561
3933.0,0.004736096274282011
3932.0,0.004742045289178197
3931.0,0.00474674949336683
3930.0,0.004749905872601816
3929.0,0.004749909003119373
3928.0,0.004744974715155836
3927.0,0.004740043867522796
3926.0,0.0047446317703376435
3925.0,0.004758230688572333
3924.0,0.004767013998625365
3923.0,0.0047620204343253175
3922.0,0.004749038041750718
3921.0,0.0047391997823035045
3920.0,0.004736214939768901
3919.0,0.004736258210525467
3918.0,0.0047385981535508145
3917.0,0.004746386441967213
3916.0,0.004758738693329658
3915.0,0.0047718451590229635
3914.0,0.004784877502874724
3913.0,0.0048001060874982154
3912.0,0.004817025202294845
3911.0,0.0048291866001579226
3910.0,0.004830939831273357
3909.0,0.004819558474640698
3908.0,0.004796781040604645
3907.0,0.004769358061671624
3906.0,0.004747611105665208
3905.0,0.004734628918488424
3904.0,0.004721003782063606
3903.0,0.004699813797787595
3902.0,0.004677902255883716
3901.0,0.004670535411657567
3900.0,0.004684295253264192
3899.0,0.004710436697880098
3898.0,0.004736527097425985
3897.0,0.004756492597664546
3896.0,0.004768080460925179
3895.0,0.004768714859868281
3894.0,0.004758586450599133
3893.0,0.004747361797848678
3892.0,0.004748594135885525
3891.0,0.004761864010314721
3890.0,0.004769127154942257
3889.0,0.004751481699860867
3888.0,0.00472000031031364
3887.0,0.004709783181340091
3886.0,0.004727952496563955
3885.0,0.004741696119821701
3884.0,0.004726384217714692
3883.0,0.004692934623737252
3882.0,0.004675394815326724
3881.0,0.004693036890675673
3880.0,0.004729502382277652
3879.0,0.004755912304070157
3878.0,0.004756770482647695
3877.0,0.0047413374456474824
3876.0,0.004737608783474633
3875.0,0.004756046455428244
3874.0,0.004770019547520113
3873.0,0.004751198467104088
3872.0,0.004714805128384335
3871.0,0.004705163502759336
3870.0,0.004727574515943765
3869.0,0.004739764858753262
3868.0,0.0047152055231925345
3867.0,0.0046771265905850255
3866.0,0.004669631208447133
3865.0,0.004698489572358163
3864.0,0.004728856840942116
3863.0,0.004742615189128413
3862.0,0.004751884401897081
3861.0,0.00476692789136344
3860.0,0.004785475772255226
3859.0,0.004797815273057495
3858.0,0.004793113755958811
3857.0,0.004762910724464485
3856.0,0.004721399379804557
3855.0,0.004710096900683294
3854.0,0.004721149861002572
3853.0,0.004707399353561055
3852.0,0.0046809161635285815
3851.0,0.0046721769687608945
3850.0,0.004688941823377592
3849.0,0.004724379336176161
3848.0,0.004760269639269864
3847.0,0.004781044586192893
3846.0,0.004783989217241732
3845.0,0.004775553204080114
3844.0,0.004763089981811384
3843.0,0.004748311102184915
3842.0,0.004727533534172823
3841.0,0.004704607204786049
3840.0,0.004695434018417412
3839.0,0.004707539150986682
3838.0,0.004732321907436429
3837.0,0.004754900538628638
3836.0,0.004765779879427678
3835.0,0.004763248621459791
3834.0,0.004754712584825193
3833.0,0.004753415266038874
3832.0,0.004764926845004035
3831.0,0.00478110591305648
3830.0,0.004790157877486156
3829.0,0.004791158205293937
3828.0,0.0047975613934962864
3827.0,0.004819362418427299
3826.0,0.0048425865723990165
3825.0,0.004839969405108325
3824.0,0.0048066423089022595
3823.0,0.004776988145539601
3822.0,0.004783561467720635
3821.0,0.004804765287470607
3820.0,0.004805238629734773
3819.0,0.004777642148400173
3818.0,0.004750282477406933
3817.0,0.0047634705974747525
3816.0,0.004809000074506428
3815.0,0.0048433774753370885
3814.0,0.004852619425261632
3813.0,0.004859643242298064
3812.0,0.004881602209160129
3811.0,0.004905883742466038
3810.0,0.004909011285139937
3809.0,0.004895861956854914
3808.0,0.00489303491327993
3807.0,0.004903036049885564
3806.0,0.004900366453311957
3805.0,0.004868684342773235
3804.0,0.004828748783201612
3803.0,0.0048271536838117406
3802.0,0.004866515096059478
3801.0,0.004891774150369416
3800.0,0.004874460417597603
3799.0,0.004838761440294189
3798.0,0.004823550020664766
3797.0,0.004843466001664704
3796.0,0.004876522343933197
3795.0,0.004896625701275468
3794.0,0.0049028440133864915
3793.0,0.004910287723947082
3792.0,0.004926224176644404
3791.0,0.004944756282410525
3790.0,0.004957608278765801
3789.0,0.0049616784952797675
3788.0,0.004957461394336036
3787.0,0.004947934041085889
3786.0,0.004938638813118316
3785.0,0.004933304326588254
3784.0,0.0049279562448256604
3783.0,0.004917253849276942
3782.0,0.00490586409886676
3781.0,0.004907073286712745
3780.0,0.004923346981994321
3779.0,0.004939744795980368
3778.0,0.004945371275731587
3777.0,0.004945814391395893
3776.0,0.004954561670683857
3775.0,0.004974341707419654
3774.0,0.004989877953383525
3773.0,0.004986810098731205
3772.0,0.004970907246390044
3771.0,0.004955352238007348
3770.0,0.004939485912802808
3769.0,0.004918658365379389
3768.0,0.004900204819425229
3767.0,0.004899352106894192
3766.0,0.004920404634789134
3765.0,0.004945584986897612
3764.0,0.004952349132699815
3763.0,0.0049397247977398355
3762.0,0.004930432533285714
3761.0,0.004941402310899127
3760.0,0.004958455912971723
3759.0,0.004960589683441759
3758.0,0.004953039274359777
3757.0,0.004950208894239288
3756.0,0.0049508561764273346
3755.0,0.004950147406171862
3754.0,0.0049535945049350195
3753.0,0.004964683378803349
3752.0,0.004964315237764935
3751.0,0.004939228751235756
3750.0,0.004917437772229954
3749.0,0.0049143467652723
3748.0,0.0049003980916883065
3747.0,0.004862307293565715
3746.0,0.004850428402447293
3745.0,0.004896487890045948
3744.0,0.004946215038268028
3743.0,0.0049537919758022835
3742.0,0.004936354397674425
3741.0,0.0049284566509331645
3740.0,0.004939038237041811
3739.0,0.004947939643843026
3738.0,0.00494611586290172
3737.0,0.004943361831637388
3736.0,0.004936036138607085
3735.0,0.004918189081293947
3734.0,0.004910717644823679
3733.0,0.004938474213850005
3732.0,0.004993628701483689
3731.0,0.0050438769704605774
3730.0,0.005065682075792622
3729.0,0.005064380022970404
3728.0,0.005065133421885621
3727.0,0.0050800715231393324
3726.0,0.005096435739285634
3725.0,0.0051033398059062915
3724.0,0.005106061680463054
3723.0,0.005113647093065089
3722.0,0.005127504453390858
3721.0,0.005147232722044329
3720.0,0.005175908199295294
3719.0,0.005215774414933644
3718.0,0.005262245423607618
3717.0,0.005299249805565247
3716.0,0.0053129407792260035
3715.0,0.005309767506380833
3714.0,0.005312811180647669
3713.0,0.00533668150772286
3712.0,0.005370396533939595
3711.0,0.005401800017296713
3710.0,0.005441767101550475
3709.0,0.0055042758916729
3708.0,0.005591431643919488
3707.0,0.005695665729544363
3706.0,0.005805950401963425
3705.0,0.005917090356394324
3704.0,0.0060322982120593616
3703.0,0.006155442969667578
3702.0,0.006279092592448637
3701.0,0.006390368876735313
3700.0,0.006482368221364981
3699.0,0.0065576986758352305
3698.0,0.0066230369431392235
3697.0,0.006675965944505667
3696.0,0.00670258257705131
3695.0,0.006697056263059987
3694.0,0.00667118505655113
3693.0,0.006637682803354694
3692.0,0.006595997185086883
3691.0,0.0065345552198905355
3690.0,0.006448190758199824
3689.0,0.006353164780782922
3688.0,0.006279359761745606
3687.0,0.0062386288721962505
3686.0,0.006223368856113284
3685.0,0.006228175213138003
3684.0,0.006246262298854659
3683.0,0.006262201834517625
3682.0,0.006267168361685151
3681.0,0.006268636025055851
3680.0,0.006271103011822611
3679.0,0.006263091898724741
3678.0,0.006241636621814846
3677.0,0.006233513484912695
3676.0,0.006243133800102869
3675.0,0.006247146858961938
3674.0,0.006243670536205765
3673.0,0.0062398646494866185
3672.0,0.006259821193949548
3671.0,0.006322197219471512
3670.0,0.00639082678892643
3669.0,0.006430192186178145
3668.0,0.006456646566815903
3667.0,0.00649534189734232
3666.0,0.006553493127754044
3665.0,0.006622551753747687
3664.0,0.006686830102582059
3663.0,0.006737016976455779
3662.0,0.006776672051551986
3661.0,0.006812832062738857
3660.0,0.006846752831181992
3659.0,0.006879212508226798
3658.0,0.006916878516208315
3657.0,0.00696217639778964
3656.0,0.007002215396770298
3655.0,0.00702628104265004
3654.0,0.007036128351698345
3653.0,0.007045180881649913
3652.0,0.007070840225713405
3651.0,0.007101085392510469
3650.0,0.007091809390684562
3649.0,0.007043171656203724
3648.0,0.007019164434207033
3647.0,0.007054240045713998
3646.0,0.007128196857359298
3645.0,0.00721334215513466
3644.0,0.007297668885990705
3643.0,0.007377010687590802
3642.0,0.007444527663392911
3641.0,0.007493924517201838
3640.0,0.007529293484270989
3639.0,0.007562221938305219
3638.0,0.007598046261790489
3637.0,0.007633697769739819
3636.0,0.0076684758033817215
3635.0,0.007708345998211415
3634.0,0.007752576605136875
3633.0,0.007789681648664058
3632.0,0.00781325584893813
3631.0,0.007840465338242744
3630.0,0.0078846779868787
3629.0,0.007914155653304016
3628.0,0.007923027115657599
3627.0,0.007955101436242333
3626.0,0.00803204249279395
3625.0,0.008145795058349288
3624.0,0.008270232501717448
3623.0,0.0083751486023285
3622.0,0.008450432428276198
3621.0,0.008505618556224203
3620.0,0.00854363485731114
3619.0,0.008556106493962469
3618.0,0.008548504774620212
3617.0,0.008535801771777133
3616.0,0.008527224735775269
3615.0,0.008528813137982132
3614.0,0.008541542845578095
3613.0,0.00855973063881954
3612.0,0.00857800126855331
3611.0,0.008596206324447403
3610.0,0.008615892714357302
3609.0,0.008633318649103687
3608.0,0.008642867115709293
3607.0,0.008651692416106591
3606.0,0.008675183668685589
3605.0,0.00871906692376397
3604.0,0.008776729719476965
3603.0,0.008836473761591667
3602.0,0.008888090866262799
3601.0,0.00892638820186834
3600.0,0.008952025322635414
3599.0,0.008972598106388115
3598.0,0.008997661486127078
3597.0,0.009029654470162754
3596.0,0.009062351701169357
3595.0,0.00909020380201799
3594.0,0.009116364649672335
3593.0,0.009149662868751712
3592.0,0.009192134908620418
3591.0,0.009237232924934544
3590.0,0.009279953043141677
3589.0,0.009313677209042064
3588.0,0.00932548850554656
3587.0,0.009322178386368087
3586.0,0.009335209028632574
3585.0,0.009380401934067412
3584.0,0.009446429386394643
3583.0,0.009515487261207536
3582.0,0.009577098535754437
3581.0,0.009630748333378406
3580.0,0.009680464696725085
3579.0,0.009729000733976978
3578.0,0.009776339124698896
3577.0,0.009821849103012538
3576.0,0.009865264091735677
3575.0,0.009906320904290916
3574.0,0.009945203284796197
3573.0,0.009982712412652651
3572.0,0.010019372798917963
3571.0,0.010054083972825761
3570.0,0.010086687751563968
3569.0,0.010115637950505971
3568.0,0.01012890438595443
3567.0,0.01012132106637585
3566.0,0.010119681858534757
3565.0,0.010153238166766386
3564.0,0.010221308717587535
3563.0,0.010306540946638586
3562.0,0.010393279474701976
3561.0,0.010473095623832234
3560.0,0.01054438601791457
3559.0,0.010609419593526122
3558.0,0.010670065946066466
3557.0,0.010725601472733659
3556.0,0.01077496892596484
3555.0,0.010819795189859071
3554.0,0.010863510955480282
3553.0,0.010906118913966282
3552.0,0.010944127782745077
3551.0,0.010976729161181519
3550.0,0.011008822268495937
3549.0,0.011047258780929816
3548.0,0.011093371567234462
3547.0,0.011140735028775965
3546.0,0.011183716226426227
3545.0,0.01122549427672546
3544.0,0.011273622892117951
3543.0,0.01133136936648472
3542.0,0.011396866270488153
3541.0,0.01146550617682302
3540.0,0.01153180030389439
3539.0,0.011591620468507298
3538.0,0.011643573464823687
3537.0,0.011688122004200836
3536.0,0.011728215629177084
3535.0,0.011770764533255065
3534.0,0.011823184059121849
3533.0,0.011887038999377406
3532.0,0.011954666796191348
3531.0,0.012014673141201372
3530.0,0.012061059393364151
3529.0,0.012096066518931487
3528.0,0.01212553697777223
3527.0,0.012154679634902334
3526.0,0.012188021858115275
3525.0,0.012228583996187944
3524.0,0.012275564876932448
3523.0,0.012325865019065832
3522.0,0.012378366474189306
3521.0,0.012433718880318727
3520.0,0.012491018885237046
3519.0,0.012546806880870839
3518.0,0.012597600765321954
3517.0,0.012642911034250463
3516.0,0.012685451579792945
3515.0,0.01272871720429973
3514.0,0.012773777490948376
3513.0,0.012818913982523222
3512.0,0.012861672566792765
3511.0,0.012900952999143418
3510.0,0.012937832291980048
3509.0,0.012975115568765884
3508.0,0.013016070238600238
3507.0,0.013062815058933794
3506.0,0.013114454250640239
3505.0,0.01316533148441772
3504.0,0.013207114353945577
3503.0,0.013238287060167442
3502.0,0.013269801897650063
3501.0,0.013314678733234414
3500.0,0.013375249686546895
3499.0,0.01344360975232306
3498.0,0.013509423781344138
3497.0,0.013566011675137282
3496.0,0.013612649728601434
3495.0,0.013653526416272588
3494.0,0.013693880042722064
3493.0,0.013736021735592751
3492.0,0.013779620672716406
3491.0,0.013825226859559555
3490.0,0.013874888999561193
3489.0,0.013928271069026426
3488.0,0.013980849960408399
3487.0,0.01402825243301568
3486.0,0.014070814554441837
3485.0,0.014112013562112048
3484.0,0.014153921618312252
3483.0,0.014195755265325849
3482.0,0.014235739185488656
3481.0,0.014273369530542371
3480.0,0.014310851596455239
3479.0,0.014353377599188474
3478.0,0.014405984519947176
3477.0,0.01446813064586554
3476.0,0.01453234179874251
3475.0,0.014590112149355076
3474.0,0.014638720537956909
3473.0,0.014680777433228424
3472.0,0.014719526774543298
3471.0,0.01475735511625657
3470.0,0.014796547325763156
3469.0,0.014837753648110498
3468.0,0.014878299100936462
3467.0,0.014914935397668857
3466.0,0.01494863987008686
3465.0,0.014984526623228335
3464.0,0.015026650714987926
3463.0,0.015073924703247421
3462.0,0.015121255266803652
3461.0,0.015164226640665142
3460.0,0.015202708208169092
3459.0,0.015240452997706325
3458.0,0.01528130620219851
3457.0,0.015325700845851557
3456.0,0.015371035373383083
3455.0,0.015414704957801645
3454.0,0.01545550963421664
3453.0,0.015493037477659673
3452.0,0.015527814380112984
3451.0,0.015562624331674015
3450.0,0.015600701671007328
3449.0,0.015640963017645407
3448.0,0.015677714339870627
3447.0,0.01570877787745122
3446.0,0.01574067732600283
3445.0,0.01577992615174742
3444.0,0.015823400391700795
3443.0,0.015862324312177538
3442.0,0.01589282594231263
3441.0,0.01591881435307186
3440.0,0.015945750853902617
3439.0,0.015976340139412258
3438.0,0.016012602425233464
3437.0,0.01605635849592479
3436.0,0.01610530420357833
3435.0,0.016152400792651865
3434.0,0.016191339556159087
3433.0,0.016220975133021474
3432.0,0.01624387436827854
3431.0,0.016264088059730373
3430.0,0.016286894701906966
3429.0,0.01631651793135328
3428.0,0.01635207929887686
3427.0,0.01638829771025419
3426.0,0.016421685573697095
3425.0,0.01645343034162661
3424.0,0.016485317510405745
3423.0,0.016515360408520655
3422.0,0.0165393312791251
3421.0,0.01655589726363059
3420.0,0.016568804742769408
3419.0,0.016584127627681036
3418.0,0.016606024541070193
3417.0,0.016634600395503712
3416.0,0.016667147771969464
3415.0,0.016701466027076832
3414.0,0.01673714309302995
3413.0,0.016772840296906913
3412.0,0.01680447822737278
3411.0,0.016828740158210464
3410.0,0.016847451403747417
3409.0,0.016865953056217693
3408.0,0.01688774807600621
3407.0,0.016912986423112127
3406.0,0.01694089887515436
3405.0,0.016970115391739655
3404.0,0.01699699608420023
3403.0,0.017017357683006173
3402.0,0.017030850662031635
3401.0,0.01704161586561433
3400.0,0.017054033919090054
3399.0,0.017069727855974347
3398.0,0.017088572763517718
3397.0,0.01711030431049262
3396.0,0.017134415049261786
3395.0,0.01715949231775517
3394.0,0.017183062071108025
3393.0,0.017202052977036832
3392.0,0.01721493180437836
3391.0,0.01722449665938023
3390.0,0.01723711310874512
3389.0,0.017257293929877432
3388.0,0.017283305279331352
3387.0,0.017309170500314542
3386.0,0.01733057533459125
3385.0,0.01734789495287278
3384.0,0.017364449657267567
3383.0,0.017383353339682907
3382.0,0.01740499973979556
3381.0,0.017426053447792595
3380.0,0.017441984098968664
3379.0,0.017452526622505127
3378.0,0.01746325196594997
3377.0,0.01747940842781406
3376.0,0.017499351584615106
3375.0,0.017516571639745352
3374.0,0.017527371566416525
3373.0,0.01753383066083212
3372.0,0.017539895962242084
3371.0,0.017547334907561416
3370.0,0.017555599579892476
3369.0,0.017563207743129326
3368.0,0.01756873499055643
3367.0,0.01757252814491413
3366.0,0.017578082108486975
3365.0,0.017589620194840675
3364.0,0.017607269715031935
3363.0,0.017626059418303665
3362.0,0.017640385475326977
3361.0,0.017648477068307227
3360.0,0.01765228971715279
3359.0,0.017654611747673427
3358.0,0.017657223693271124
3357.0,0.017660775785066928
3356.0,0.01766521178029214
3355.0,0.017670514324014164
3354.0,0.017677267376268846
3353.0,0.017685911603735793
3352.0,0.01769540156311919
3351.0,0.017703412840612717
3350.0,0.017708450109811747
3349.0,0.017711329621164864
3348.0,0.017714246444210824
3347.0,0.01771859969832936
3346.0,0.017723863128655353
3345.0,0.017728402293547166
3344.0,0.017731371693578902
3343.0,0.017733898810989263
3342.0,0.01773787587729615
3341.0,0.017743387924383788
3340.0,0.017747881815180645
3339.0,0.01774832681234203
3338.0,0.017744015121685715
3337.0,0.017737138628258577
3336.0,0.017731170678453787
3335.0,0.01772877061311374
3334.0,0.017730412284445742
3333.0,0.01773433575552849
3332.0,0.01773791192099055
3331.0,0.01773910905807641
3330.0,0.017736579211910772
3329.0,0.017729418151708604
3328.0,0.017718687071771176
3327.0,0.017709034658033692
3326.0,0.017706277346768662
3325.0,0.017712001569211537
3324.0,0.01772209086469254
3323.0,0.017731440344541227
3322.0,0.01773807616830892
3321.0,0.017741654259880484
3320.0,0.017740805892991866
3319.0,0.017734937639150336
3318.0,0.01772738642001886
3317.0,0.01772368977396347
3316.0,0.017726473774287762
3315.0,0.017733574975264392
3314.0,0.017740632645649672
3313.0,0.017743931960523877
3312.0,0.01774142120914861
3311.0,0.017733208947447846
3310.0,0.017721754852178723
3309.0,0.017710528286684867
3308.0,0.01770208640845756
3307.0,0.017697575091555486
3306.0,0.017696986959500352
3305.0,0.017698638975967764
3304.0,0.017699353983913365
3303.0,0.017696964817983947
3302.0,0.017692443194314605
3301.0,0.017688314069843735
3300.0,0.01768553648780538
3299.0,0.017683290898199262
3298.0,0.017680825680431545
3297.0,0.017677505286114364
3296.0,0.017671597859656277
3295.0,0.017661404986226304
3294.0,0.01764785925640254
3293.0,0.017634210092274213
3292.0,0.017622687837157695
3291.0,0.017612798618395285
3290.0,0.017603188634338636
3289.0,0.01759357552984456
3288.0,0.017584040199716156
3287.0,0.017573620108321482
3286.0,0.017560537674845614
3285.0,0.017543534370513147
3284.0,0.017523086060883188
3283.0,0.017501748501947183
3282.0,0.017482586172149338
3281.0,0.01746608294446065
3280.0,0.017448899363502288
3279.0,0.01742670046090666
3278.0,0.017398154507540054
3277.0,0.017365438604211296
3276.0,0.017331402921134414
3275.0,0.017297746765061118
3274.0,0.017265708079031414
3273.0,0.017236545860924254
3272.0,0.01721046764980139
3271.0,0.017186069423593027
3270.0,0.017161359195836827
3269.0,0.017134568965215747
3268.0,0.017103879871518457
3267.0,0.01706786604515925
3266.0,0.0170271848896755
3265.0,0.016985137879904362
3264.0,0.016945547226855928
3263.0,0.016909623953389876
3262.0,0.01687489820200286
3261.0,0.016837630183339797
3260.0,0.016796875548276337
3259.0,0.016755905879658105
3258.0,0.01671872130364558
3257.0,0.016684694077931623
3256.0,0.01664753072676263
3255.0,0.016600972701057343
3254.0,0.016545805332237772
3253.0,0.016490508773771416
3252.0,0.016444667289066985
3251.0,0.016411821088588185
3250.0,0.016387759653572004
3249.0,0.01636450712889371
3248.0,0.016336038083813672
3247.0,0.016301267443632722
3246.0,0.016262532541291255
3245.0,0.01622193196041101
3244.0,0.016179859896665455
3243.0,0.01613672760795805
3242.0,0.016094406337190368
3241.0,0.01605491918088837
3240.0,0.016018384619468046
3239.0,0.01598318310451916
3238.0,0.015947871344072686
3237.0,0.015911828711631274
3236.0,0.015873978688943222
3235.0,0.01583227777105991
3234.0,0.015785731235354237
3233.0,0.015736919262137897
3232.0,0.015691576765049398
3231.0,0.01565454365907806
3230.0,0.015625536101274425
3229.0,0.015599354914353752
3228.0,0.0155706143360357
3227.0,0.015537766658065146
3226.0,0.015502243755321374
3225.0,0.015465050655545584
3224.0,0.015426177271294608
3223.0,0.015386790288133046
3222.0,0.015349185968224387
3221.0,0.015313891596181566
3220.0,0.015279249124881017
3219.0,0.015244951425819785
3218.0,0.01521346544855411
3217.0,0.0151859068941738
3216.0,0.01515846595110876
3215.0,0.015125723818314538
3214.0,0.015087062479761847
3213.0,0.015047141364772833
3212.0,0.01500986817588994
3211.0,0.014974647661542502
3210.0,0.014939098776657844
3209.0,0.014902758235488634
3208.0,0.014866598816771402
3207.0,0.01483071974568842
3206.0,0.014794367582369777
3205.0,0.014757277650895618
3204.0,0.014719404129419786
3203.0,0.014679862040737943
3202.0,0.01463755982913922
3201.0,0.01459270225303454
3200.0,0.01454657770927327
3199.0,0.014499962882755384
3198.0,0.014452944592045405
3197.0,0.014406511240337025
3196.0,0.014363057078059675
3195.0,0.01432429614668385
3194.0,0.014288774850355821
3193.0,0.014251964046918739
3192.0,0.014209391345854742
3191.0,0.014160573785106111
3190.0,0.014110206127200292
3189.0,0.014064778355815218
3188.0,0.01402703400078465
3187.0,0.01399342538509155
3186.0,0.01395726569468353
3185.0,0.013914406220798092
3184.0,0.013865651843734596
3183.0,0.01381418568593969
3182.0,0.013762089507724524
3181.0,0.013709692036105378
3180.0,0.013656910384675543
3179.0,0.013604259280902656
3178.0,0.013553027174676449
3177.0,0.013504881526663057
3176.0,0.013460642532135397
3175.0,0.01341914619230739
3174.0,0.013378289696839069
3173.0,0.01333790462724954
3172.0,0.013300582913529434
3171.0,0.013268398897258591
3170.0,0.013239486906033548
3169.0,0.013209555645561609
3168.0,0.01317660867614965
3167.0,0.013142366660812909
3166.0,0.013108897028193832
3165.0,0.013075656751407616
3164.0,0.013040208644331091
3163.0,0.013000116270801654
3162.0,0.012953701899813017
3161.0,0.012900813295100172
3160.0,0.012844030651928564
3159.0,0.012787634275845899
3158.0,0.0127338524955255
3157.0,0.012681215741327021
3156.0,0.012628024136857059
3155.0,0.012576133717723465
3154.0,0.012529133438766335
3153.0,0.012487390570494162
3152.0,0.012447053100833253
3151.0,0.012404044099813204
3150.0,0.01235746091481319
3149.0,0.012309026530504976
3148.0,0.012261256573465768
3147.0,0.012216736151576273
3146.0,0.01217698275232175
3145.0,0.012140479086938815
3144.0,0.012102959095320076
3143.0,0.012060890793874509
3142.0,0.012014107774155063
3141.0,0.011964690719914284
3140.0,0.011914736688089272
3139.0,0.011866184527331462
3138.0,0.011821229903264532
3137.0,0.011780831907507136
3136.0,0.011743045931616543
3135.0,0.011704363353746035
3134.0,0.01166319469892896
3133.0,0.011621689065247283
3132.0,0.011583851475901468
3131.0,0.011551872176165531
3130.0,0.011524283626211506
3129.0,0.01149733642035163
3128.0,0.011467868452114236
3127.0,0.011435003932496631
3126.0,0.011399635006675247
3125.0,0.011363101739767352
3124.0,0.011326908695693872
3123.0,0.011293287372717781
3122.0,0.011264792446246286
3121.0,0.011242727044362522
3120.0,0.011226798955581502
3119.0,0.011216475434606398
3118.0,0.011211616281574015
3117.0,0.011212037114596592
3116.0,0.011218167594908948
3115.0,0.011232715936641727
3114.0,0.011260093831844413
3113.0,0.011302774101554624
3112.0,0.01135938553032169
3111.0,0.01142775938685204
3110.0,0.01150838168976137
3109.0,0.011602464759003988
3108.0,0.011705979575385049
3107.0,0.011807262096480108
3106.0,0.01189164281258551
3105.0,0.011947839154722324
3104.0,0.011970760086302705
3103.0,0.011961237268026637
3102.0,0.011925220159904777
3101.0,0.011872303687365523
3100.0,0.011812542019403252
3099.0,0.011753131993519269
3098.0,0.01169841826385631
3097.0,0.011653489429716514
3096.0,0.01162752037462526
3095.0,0.011633284278478588
3094.0,0.011683064356179352
3093.0,0.011785078605025617
3092.0,0.01194340303551917
3091.0,0.012159560429278607
3090.0,0.012432395582798073
3089.0,0.012756031504059382
3088.0,0.013118170777521863
3087.0,0.013499807084891784
3086.0,0.013874878312900633
3085.0,0.014210237167067555
3084.0,0.014469450323848259
3083.0,0.014621282161638133
3082.0,0.014649185631400816
3081.0,0.014556400175893908
3080.0,0.014365529629482971
3079.0,0.014114066110003758
3078.0,0.013845534748422081
3077.0,0.013597913127351677
3076.0,0.013394964295541587
3075.0,0.013245879798178702
3074.0,0.013151685371360956
3073.0,0.013111706155402175
3072.0,0.013126206612853311
3071.0,0.013196779160336292
3070.0,0.013326273101361075
3069.0,0.013517477650650575
3068.0,0.013770587928616039
3067.0,0.014081362962946691
3066.0,0.014440529472512953
3065.0,0.014832780742495343
3064.0,0.015234982103981234
3063.0,0.015615419904767933
3062.0,0.015936188859456555
3061.0,0.01615931357737904
3060.0,0.016255528204202185
3059.0,0.016212321826953695
3058.0,0.01603640386065892
3057.0,0.015750305732075583
3056.0,0.015386998352095522
3055.0,0.014983671775899498
3054.0,0.01457388294919263
3053.0,0.014180516669954672
3052.0,0.013814438759323547
3051.0,0.013479895502065376
3050.0,0.013181390523270236
3049.0,0.012925301321853669
3048.0,0.012716025854826507
3047.0,0.012553487929329001
3046.0,0.012435702678405706
3045.0,0.012362594097999747
3044.0,0.012336331320451546
3043.0,0.012358879864945839
3042.0,0.012431018310422091
3041.0,0.012553931091081067
3040.0,0.012731201428071146
3039.0,0.012969481247857163
3038.0,0.013278061856908187
3037.0,0.01366782990043209
3036.0,0.014149602868516954
3035.0,0.01473251277342363
3034.0,0.015422861366486795
3033.0,0.01622220842878103
3032.0,0.017122760308243334
3031.0,0.018100723573483787
3030.0,0.01911130603319699
3029.0,0.02008906776413472
3028.0,0.020953119875970056
3027.0,0.02161609564789154
3026.0,0.021998830949588877
3025.0,0.022047111260604643
3024.0,0.021744390780835305
3023.0,0.02111784966399464
3022.0,0.020236334661014897
3021.0,0.019197429807843436
3020.0,0.018102089983552744
3019.0,0.017031006127397212
3018.0,0.016037918913707254
3017.0,0.015154776706555434
3016.0,0.01439655082756425
3015.0,0.013762965556890244
3014.0,0.013243010052882198
3013.0,0.012822895274185786
3012.0,0.01249141305407918
3011.0,0.012240305409009345
3010.0,0.01206270946366352
3009.0,0.011952810681417405
3008.0,0.011905645073533175
3007.0,0.011914778095127306
3006.0,0.011968656419891074
3005.0,0.012048894963095564
3004.0,0.012132360893531622
3003.0,0.012194680529692328
3002.0,0.012212418203267352
3001.0,0.01216589419374735
3000.0,0.01204491212521075
2999.0,0.01185399305289586
2998.0,0.011611269054541584
2997.0,0.011341078135615754
2996.0,0.011067400474831244
2995.0,0.01081118185837076
2994.0,0.010588210109593934
2993.0,0.010405690168588756
2992.0,0.010261282958299561
2991.0,0.010147784948784272
2990.0,0.010058736342428242
2989.0,0.009989467307868255
2988.0,0.00993559672709745
2987.0,0.009893830060519113
2986.0,0.009863478942238425
2985.0,0.009844606844183527
2984.0,0.009835188034040673
2983.0,0.009832364973499838
2982.0,0.009836395796114958
2981.0,0.009850576945959193
2980.0,0.009876458881922236
2979.0,0.00991121129352088
2978.0,0.009950549441468882
2977.0,0.009992422935638873
2976.0,0.01003656346152066
2975.0,0.010082416479430565
2974.0,0.010129795237335494
2973.0,0.0101810193884069
2972.0,0.01024019951762194
2971.0,0.010309538348385239
2970.0,0.010387533340241553
2969.0,0.01047166402238085
2968.0,0.010562284595646218
2967.0,0.010662284716130233
2966.0,0.010772257691349343
2965.0,0.010887765725778294
2964.0,0.011003355476547974
2963.0,0.011118634847648386
2962.0,0.01123822230091023
2961.0,0.011365837448102172
2960.0,0.011501181482629345
2959.0,0.011642954183699
2958.0,0.011791377034109875
2957.0,0.01194571629332222
2956.0,0.012102701820717683
2955.0,0.012260824656238194
2954.0,0.01242415107080346
2953.0,0.012598092173276
2952.0,0.012783571993846846
2951.0,0.012979902264296786
2950.0,0.013192757064321273
2949.0,0.01343330946674551
2948.0,0.013707576953229135
2947.0,0.014011830923324822
2946.0,0.014341194020600672
2945.0,0.014698933764563406
2944.0,0.015092505684128593
2943.0,0.015523330434062833
2942.0,0.015985952964920738
2941.0,0.016477158348658788
2940.0,0.01700008352439922
2939.0,0.0175575618535597
2938.0,0.01814623195852704
2937.0,0.018760451116423486
2936.0,0.019397518423558316
2935.0,0.020053422363280234
2934.0,0.0207157383565457
2933.0,0.021367739364737837
2932.0,0.022000890913050436
2931.0,0.022615953863823226
2930.0,0.023209219466744115
2929.0,0.023763406354214315
2928.0,0.024257298847497014
2927.0,0.02468046289680693
2926.0,0.02503284644345217
2925.0,0.025313334920472524
2924.0,0.025516101579853033
2923.0,0.025638756678479105
2922.0,0.025687153150404766
2921.0,0.025669398202588525
2920.0,0.02558871787866817
2919.0,0.025444924099366214
2918.0,0.025240582098544292
2917.0,0.024982421436607387
2916.0,0.024678534472106443
2915.0,0.024337568036452085
2914.0,0.02397014679249169
2913.0,0.023587250031006254
2912.0,0.02319473997070459
2911.0,0.02279197641656624
2910.0,0.022377918929491637
2909.0,0.021956551887354042
2908.0,0.02153364018091909
2907.0,0.021110068205009325
2906.0,0.020682866136797685
2905.0,0.020252106483194206
2904.0,0.019822591179119112
2903.0,0.01939687792212715
2902.0,0.018971920913094017
2901.0,0.018545784801295952
2900.0,0.01812380855676285
2899.0,0.017715263611028
2898.0,0.017325085296610896
2897.0,0.016953805885308888
2896.0,0.016604228100982936
2895.0,0.01628263382433389
2894.0,0.015991768527222974
2893.0,0.0157262163873117
2892.0,0.015477764206571976
2891.0,0.015242779847400925
2890.0,0.015020971972459583
2889.0,0.014809516665582032
2888.0,0.014603675125013895
2887.0,0.01440403393270041
2886.0,0.01421789527740662
2885.0,0.014049718701086625
2884.0,0.013893658968367445
2883.0,0.013739325013121115
2882.0,0.013583707738422435
2881.0,0.01343295450807294
2880.0,0.01329251745300312
2879.0,0.013161384492785685
2878.0,0.013037308307921379
2877.0,0.012923305321224874
2876.0,0.012824543875327473
2875.0,0.01274052394451939
2874.0,0.012665064353934852
2873.0,0.0125937570975854
2872.0,0.012528449062709862
2871.0,0.012474078091573729
2870.0,0.012434391404566867
2869.0,0.01241239111167909
2868.0,0.012411755831623537
2867.0,0.012435080313510437
2866.0,0.012482376233146708
2865.0,0.012554454296648096
2864.0,0.012656720342019668
2863.0,0.012796127327485547
2862.0,0.01297386673775413
2861.0,0.013184162091727408
2860.0,0.01342141505808243
2859.0,0.013683611067085594
2858.0,0.013965415143953969
2857.0,0.014251955837842369
2856.0,0.014525205967907899
2855.0,0.014775782354510034
2854.0,0.015003196340522672
2853.0,0.015203793583097615
2852.0,0.015364093836294949
2851.0,0.015467661270878438
2850.0,0.015503546676080976
2849.0,0.015466306816725492
2848.0,0.015352693615465821
2847.0,0.015164351744686274
2846.0,0.014910687302209378
2845.0,0.014603134226012303
2844.0,0.014246579288571752
2843.0,0.013841740933367482
2842.0,0.013397151666952364
2841.0,0.012933433795309831
2840.0,0.012473015187814516
2839.0,0.01202922097219633
2838.0,0.011608270993144328
2837.0,0.0112179372955994
2836.0,0.010867237869228417
2835.0,0.01055870250598694
2834.0,0.010286954004120493
2833.0,0.010046540482906334
2832.0,0.00983722633320834
2831.0,0.00965935478886363
2830.0,0.009507608876807164
2829.0,0.009373078877512896
2828.0,0.009250860661524097
2827.0,0.009142320625370348
2826.0,0.009049619357927594
2825.0,0.008970966483569194
2824.0,0.008902115787090718
2823.0,0.008840029756133908
2822.0,0.008782814224853379
2821.0,0.00872733911963582
2820.0,0.00867051145187958
2819.0,0.008613331861184636
2818.0,0.008560674794090884
2817.0,0.00851527240502163
2816.0,0.008474231275079808
2815.0,0.008433566801952619
2814.0,0.008393756114840336
2813.0,0.008357593520478263
2812.0,0.008323997668029652
2811.0,0.008288256877160739
2810.0,0.008248868874609606
2809.0,0.008210180432564074
2808.0,0.008176471519399509
2807.0,0.008146397509599494
2806.0,0.008115784670746529
2805.0,0.008083553104685082
2804.0,0.008051543845609736
2803.0,0.008019999070530628
2802.0,0.007987045541581722
2801.0,0.007952587083228867
2800.0,0.007919192512969448
2799.0,0.00788806426601745
2798.0,0.007857177881532819
2797.0,0.007825220340856866
2796.0,0.007794828152625418
2795.0,0.00776909851598004
2794.0,0.007746348653925589
2793.0,0.007721732345427739
2792.0,0.007693754632460274
2791.0,0.007665810943373619
2790.0,0.007640675762402712
2789.0,0.007617073565541501
2788.0,0.00759381268510108
2787.0,0.00757372589547042
2786.0,0.007559565235869085
2785.0,0.007548002413013483
2784.0,0.007532307322991219
2783.0,0.00751054224475693
2782.0,0.007486471123256736
2781.0,0.007462279890186139
2780.0,0.0074358769772934555
2779.0,0.007407386329052345
2778.0,0.007383020793280865
2777.0,0.0073679444297381404
2776.0,0.007358445484591823
2775.0,0.007345945208133352
2774.0,0.007327123622900488
2773.0,0.00730566992232437
2772.0,0.007284837061701159
2771.0,0.0072632127360535165
2770.0,0.007238865066516996
2769.0,0.007213660445167035
2768.0,0.007191210346127845
2767.0,0.007172612382096575
2766.0,0.007156059630787337
2765.0,0.007139537860671473
2764.0,0.00712272639478051
2763.0,0.007106689166181006
2762.0,0.007092250762578143
2761.0,0.007078547189518608
2760.0,0.0070634734751149255
2759.0,0.007046239501744874
2758.0,0.00702879446568754
2757.0,0.007013745089565388
2756.0,0.007001595601376871
2755.0,0.0069908651221588965
2754.0,0.006979751486220298
2753.0,0.006966432965399897
2752.0,0.006949361287561335
2751.0,0.0069295971581265995
2750.0,0.00691161104082319
2749.0,0.006898941201989157
2748.0,0.0068895948708807345
2747.0,0.006878524004885304
2746.0,0.006864441294249289
2745.0,0.006851004267478301
2744.0,0.006841306776810689
2743.0,0.006834440564169186
2742.0,0.006828035161768935
2741.0,0.00682104895663092
2740.0,0.006812866349235938
2739.0,0.006802663944790245
2738.0,0.006791482821580269
2737.0,0.006782619357199832
2736.0,0.006777874423496644
2735.0,0.006774849360516819
2734.0,0.0067698135834544215
2733.0,0.006761974282148076
2732.0,0.006753408369440196
2731.0,0.006745850787567082
2730.0,0.0067391322067324524
2729.0,0.006732203183452318
2728.0,0.0067242201833475936
2727.0,0.006714846644370786
2726.0,0.006704492321583041
2725.0,0.00669425503235564
2724.0,0.006685119725466902
2723.0,0.006677163359809151
2722.0,0.006669445827517054
2721.0,0.006660352585951159
2720.0,0.006648598838052631
2719.0,0.006634873693765357
2718.0,0.006622176141186561
2717.0,0.006613235294929869
2716.0,0.006607633204936989
2715.0,0.006602427765329448
2714.0,0.006595223463205947
2713.0,0.006585320998184527
2712.0,0.0065725903953981046
2711.0,0.006557498549642573
2710.0,0.00654233856606686
2709.0,0.006530112092210341
2708.0,0.006521500773213581
2707.0,0.006514727767555099
2706.0,0.006508747259765
2705.0,0.006504224763865489
2704.0,0.006500386993005352
2703.0,0.006493594749776141
2702.0,0.0064812734374635455
2701.0,0.0064658368990356836
2700.0,0.006452504046679667
2699.0,0.006443808568374133
2698.0,0.006437963086454421
2697.0,0.006432092320866792
2696.0,0.006425230667927486
2695.0,0.00641814230777327
2694.0,0.0064116088517701
2693.0,0.006405502796225182
2692.0,0.006398901116780103
2691.0,0.006390948876296407
2690.0,0.006382058009640883
2689.0,0.0063742782357445755
2688.0,0.006369829242183281
2687.0,0.006368646373298354
2686.0,0.006367433016960564
2685.0,0.006361860568872805
2684.0,0.0063505719739679126
2683.0,0.006336983921874385
2682.0,0.006326114056412839
2681.0,0.006319401491257163
2680.0,0.006313806691974709
2679.0,0.006306564789854776
2678.0,0.006299068088615161
2677.0,0.006294352978415806
2676.0,0.00629214278727331
2675.0,0.006288961425655086
2674.0,0.0062828728075143446
2673.0,0.00627561787263818
2672.0,0.006269524373300058
2671.0,0.0062644297988465915
2670.0,0.006258806662692257
2669.0,0.006252558874821664
2668.0,0.006247582731246504
2667.0,0.00624625444237706
2666.0,0.006250071243977692
2665.0,0.006259236818765698
2664.0,0.0062730600245694094
2663.0,0.006290920069363213
2662.0,0.006312441068021557
2661.0,0.006336176620470769
2660.0,0.00635889933765372
2659.0,0.006377671611895399
2658.0,0.0063926956085959726
2657.0,0.006406846721313732
2656.0,0.006422183642968758
2655.0,0.00643781918221574
2654.0,0.006451015902843785
2653.0,0.006459450831349068
2652.0,0.006462910091265345
2651.0,0.006464198843789884
2650.0,0.006468108356099431
2649.0,0.00647769983080999
2648.0,0.006491148126562691
2647.0,0.00650348137290622
2646.0,0.0065112044993946554
2645.0,0.006514301993911415
2644.0,0.006514675388390033
2643.0,0.006514938044559325
2642.0,0.006518492200892212
2641.0,0.0065277635740744674
2640.0,0.006541366933874535
2639.0,0.006554878328114999
2638.0,0.006565405480381051
2637.0,0.006573857837451357
2636.0,0.006582381638777069
2635.0,0.006591652926160327
2634.0,0.006601387442004364
2633.0,0.006611323886926158
2632.0,0.006620163201745329
2631.0,0.006625174967564247
2630.0,0.0066245496379823375
2629.0,0.006619451876978523
2628.0,0.006612747539302244
2627.0,0.006606299404657689
2626.0,0.006600028894575723
2625.0,0.006592822769806959
2624.0,0.006583990997755236
2623.0,0.006574652329534589
2622.0,0.006567580789211295
2621.0,0.0065645263659771785
2620.0,0.006563765014917471
2619.0,0.006561862506899113
2618.0,0.006557670615337236
2617.0,0.006552917904393831
2616.0,0.006549312911429324
2615.0,0.006547434143160467
2614.0,0.006548475777746907
2613.0,0.006554007194418756
2612.0,0.006562963405605695
2611.0,0.006571472800262448
2610.0,0.006577035091528991
2609.0,0.006581014374348158
2608.0,0.006585923779953399
2607.0,0.006592232978809313
2606.0,0.006599070295760427
2605.0,0.006605802252620009
2604.0,0.006611191917195242
2603.0,0.006612755592722246
2602.0,0.006608861410904008
2601.0,0.006600586183364806
2600.0,0.006590147574424939
2599.0,0.0065785259773044336
2598.0,0.006565787821133477
2597.0,0.006552637351679857
2596.0,0.006540329663971559
2595.0,0.006529784117423498
2594.0,0.006521698725937837
2593.0,0.0065167278024084885
2592.0,0.006514701011034355
2591.0,0.006514311210602185
2590.0,0.006514113283671586
2589.0,0.006513298986937855
2588.0,0.006511629851325038
2587.0,0.006509748881091432
2586.0,0.00650938786663873
2585.0,0.006511736535156704
2584.0,0.0065154919533516945
2583.0,0.006517820808731064
2582.0,0.006517017684888195
2581.0,0.006512577236615913
2580.0,0.006503236086360083
2579.0,0.006487850458405749
2578.0,0.006468833498955017
2577.0,0.006452084775815903
2576.0,0.006441923520000457
2575.0,0.006437499002461827
2574.0,0.006434982577104938
2573.0,0.006431607006226444
2572.0,0.006426810492549036
2571.0,0.006421173105880784
2570.0,0.006415405545259814
2569.0,0.006409567508162707
2568.0,0.00640288970636727
2567.0,0.0063953305238056025
2566.0,0.006389004685993735
2565.0,0.006386178219960354
2564.0,0.006385834507765077
2563.0,0.006384311668251987
2562.0,0.006379600987503687
2561.0,0.006373036473861214
2560.0,0.006366516464943953
2559.0,0.006360349165565437
2558.0,0.006354542820045965
2557.0,0.006349956539681443
2556.0,0.00634701737848398
2555.0,0.0063448593380589354
2554.0,0.0063425457013090445
2553.0,0.006339883247297579
2552.0,0.006336791615155528
2551.0,0.006333434578721886
2550.0,0.006330963714058985
2549.0,0.0063301589666321075
2548.0,0.006329325351985153
2547.0,0.006325882355110661
2546.0,0.006320231596999117
2545.0,0.006315371537483596
2544.0,0.00631210223701814
2543.0,0.0063075315943174354
2542.0,0.0062996988756539255
2541.0,0.006291059746492147
2540.0,0.0062851608501669235
2539.0,0.006281579151698083
2538.0,0.006276456364792278
2537.0,0.006267260584703104
2536.0,0.006255367939111201
2535.0,0.006244295488215344
2534.0,0.006236507289990074
2533.0,0.0062318979567230655
2532.0,0.006228848767765884
2531.0,0.006226622457999873
2530.0,0.006226389020612449
2529.0,0.00622937331438031
2528.0,0.006234360862153584
2527.0,0.00623796103005261
2526.0,0.00623748288485448
2525.0,0.006233284190341361
2524.0,0.006228524347554934
2523.0,0.006226424493699703
2522.0,0.0062267712802775675
2521.0,0.006225377237138707
2520.0,0.006218974226452585
2519.0,0.006210673059735392
2518.0,0.006207398512054868
2517.0,0.0062107302238561335
2516.0,0.006213963633793943
2515.0,0.006210598025839988
2514.0,0.006201841900491418
2513.0,0.006192312488727169
2512.0,0.006182494271226914
2511.0,0.006170871443758591
2510.0,0.006160536942999274
2509.0,0.006156782261293932
2508.0,0.006158575740897726
2507.0,0.006158719258625208
2506.0,0.0061531440649734825
2505.0,0.0061445319347135695
2504.0,0.0061358839842889125
2503.0,0.006126344163437275
2502.0,0.006115355055570802
2501.0,0.006105467189682719
2500.0,0.006097878736119854
2499.0,0.00608947498817756
2498.0,0.006077862913791466
2497.0,0.00606624508013123
2496.0,0.0060598001483940945
2495.0,0.006059305743414915
2494.0,0.006061308926542408
2493.0,0.006062712842443652
2492.0,0.006062061618175564
2491.0,0.006057582754881943
2490.0,0.006047534859969496
2489.0,0.006033109016229103
2488.0,0.006018933655068539
2487.0,0.006009573238247259
2486.0,0.00600586687482727
2485.0,0.0060048028967417824
2484.0,0.0060025143558588125
2483.0,0.005996997130969026
2482.0,0.00598802625967738
2481.0,0.005975743688572226
2480.0,0.0059611271101785695
2479.0,0.005947398006998686
2478.0,0.005938039736748733
2477.0,0.005932377282292958
2476.0,0.005926036452310481
2475.0,0.005917575015332513
2474.0,0.005911369949918483
2473.0,0.005910906726761833
2472.0,0.005912277218531996
2471.0,0.005908667256115867
2470.0,0.00589929571298262
2469.0,0.005889243502988866
2468.0,0.005881655423249217
2467.0,0.0058750744773266445
2466.0,0.005868220440493764
2465.0,0.005862463461979257
2464.0,0.005858752251439409
2463.0,0.005856186610975251
2462.0,0.005854741369582084
2461.0,0.005856099915346461
2460.0,0.005860963461661242
2459.0,0.005868474084385765
2458.0,0.0058785165371686675
2457.0,0.00589103351581793
2456.0,0.0059024180078788785
2455.0,0.005906377497663743
2454.0,0.005900208773012348
2453.0,0.005887849086612296
2452.0,0.005875398743903799
2451.0,0.005865601534032879
2450.0,0.005857693228467806
2449.0,0.005850605244566056
2448.0,0.005844805677221518
2447.0,0.005841564071076906
2446.0,0.005840595901731181
2445.0,0.005838357128247654
2444.0,0.005830493030210383
2443.0,0.005817393540203139
2442.0,0.00580499166637812
2441.0,0.005797569784413674
2440.0,0.005792175097257812
2439.0,0.005783547938555597
2438.0,0.005772129572253266
2437.0,0.005762561148494219
2436.0,0.005755916930345193
2435.0,0.005748776909053911
2434.0,0.005739438992876817
2433.0,0.005729658310768405
2432.0,0.005719883423945994
2431.0,0.005707965126051963
2430.0,0.005693849821300968
2429.0,0.005681082248474418
2428.0,0.005671987962544106
2427.0,0.0056648768492739855
2426.0,0.005657336886713439
2425.0,0.00564914902799298
2424.0,0.005640912943398795
2423.0,0.0056327652891987835
2422.0,0.005625361307203079
2421.0,0.00561935568411918
2420.0,0.005613251567080681
2419.0,0.005604384391397752
2418.0,0.005592434792440735
2417.0,0.005579643976965151
2416.0,0.005567829548260527
2415.0,0.005557813440873225
2414.0,0.0055512826879061585
2413.0,0.005550057567558779
2412.0,0.005553464752034911
2411.0,0.005558720243574456
2410.0,0.0055628691353447205
2409.0,0.005561788865134592
2408.0,0.005549771238025915
2407.0,0.00552506861396063
2406.0,0.005494812132496257
2405.0,0.005469378803339543
2404.0,0.005452308079972322
2403.0,0.005440189554817536
2402.0,0.005430864921774011
2401.0,0.005425462340031894
2400.0,0.005422485165738643
2399.0,0.00541682726470863
2398.0,0.005406789344964765
2397.0,0.005396738402780554
2396.0,0.005390454770502542
2395.0,0.005386493743043981
2394.0,0.0053822364093770595
2393.0,0.005377788406711074
2392.0,0.005373388030969575
2391.0,0.0053672088668765975
2390.0,0.005358781016359074
2389.0,0.005351336237036784
2388.0,0.005347750746842554
2387.0,0.005346602406350821
2386.0,0.005344865905941576
2385.0,0.005342263940583578
2384.0,0.005340395504110194
2383.0,0.005339185753608894
2382.0,0.005336631804335455
2381.0,0.005331692836122696
2380.0,0.00532561625469136
2379.0,0.005320447646070863
2378.0,0.005316994106744165
2377.0,0.005312844067990834
2376.0,0.005304282736386863
2375.0,0.005292098962312308
2374.0,0.005283791585760247
2373.0,0.005286076314561758
2372.0,0.005294572013799002
2371.0,0.0052988229389552026
2370.0,0.005298385433409429
2369.0,0.005302677357488292
2368.0,0.005311046213958439
2367.0,0.005310181312308519
2366.0,0.005300264772344885
2365.0,0.0052981776787725835
2364.0,0.005304398331580367
2363.0,0.005305206158161229
2362.0,0.005300263256919477
2361.0,0.0053045649277427
2360.0,0.0053216745530057
2359.0,0.005324089839056363
2358.0,0.005298770435433013
2357.0,0.005267044818160444
2356.0,0.005245570876194936
2355.0,0.005229567186468638
2354.0,0.0052133095478515065
2353.0,0.005221834700910328
2352.0,0.005267126196593739
2351.0,0.00532283336007766
2350.0,0.005356816526230515
2349.0,0.005358662619820859
2348.0,0.0053569475513221484
2347.0,0.005373326384518582
2346.0,0.0054016837374869925
2345.0,0.005424605484961863
2344.0,0.005435555672704775
2343.0,0.005449905502737013
2342.0,0.005463082658351887
2341.0,0.00546970026720546
2340.0,0.005468940748985634
2339.0,0.005466486559930467
2338.0,0.005467987411935067
2337.0,0.005475065936189071
2336.0,0.0054850024369654604
2335.0,0.005490960240904842
2334.0,0.00548794862760726
2333.0,0.005474662686792265
2332.0,0.005449022888731425
2331.0,0.00540513225311037
2330.0,0.005364476977238897
2329.0,0.005349363254230983
2328.0,0.005391521693793766
2327.0,0.005491929686966789
2326.0,0.005638056313089029
2325.0,0.005791893009533411
2324.0,0.005898775302880829
2323.0,0.005923641121217473
2322.0,0.0058757951864246835
2321.0,0.005808695702693474
2320.0,0.005762836236483413
2319.0,0.005742845881609015
2318.0,0.005734418079379882
2317.0,0.0057284523813523
2316.0,0.0057281872563064535
2315.0,0.005730718222145708
2314.0,0.005736012352843356
2313.0,0.0057406927779934825
2312.0,0.00574892393862834
2311.0,0.005754834487355128
2310.0,0.005756903555870914
2309.0,0.005752911513007542
2308.0,0.005750813705247201
2307.0,0.005753791246780483
2306.0,0.00576324018138539
2305.0,0.00577225788768632
2304.0,0.005776038096559676
2303.0,0.005773708847729383
2302.0,0.005774371103497591
2301.0,0.005783171503892559
2300.0,0.005798485231412043
2299.0,0.005811675141577389
2298.0,0.005824434017416137
2297.0,0.005843015071207218
2296.0,0.005871698604399064
2295.0,0.005903387324809762
2294.0,0.005933573985880448
2293.0,0.005964118217241158
2292.0,0.005999987833102362
2291.0,0.006040412399451875
2290.0,0.0060827754606943155
2289.0,0.00612623363651379
2288.0,0.00616809996427005
2287.0,0.006200963428813525
2286.0,0.006218762893957314
2285.0,0.006224122225437406
2284.0,0.006223038610435203
2283.0,0.006216856117504584
2282.0,0.006203057401031319
2281.0,0.00618432121775195
2280.0,0.006168750430064095
2279.0,0.006162686399106626
2278.0,0.00616545683250493
2277.0,0.0061722548236388276
2276.0,0.00617824591390367
2275.0,0.006179944646687099
2274.0,0.00617700615376023
2273.0,0.006172242194780362
2272.0,0.006169940280897532
2271.0,0.006172626513572689
2270.0,0.0061796074711187214
2269.0,0.006185811548646717
2268.0,0.006183364727630742
2267.0,0.006168677574210845
2266.0,0.006149235662769395
2265.0,0.006138345215451195
2264.0,0.006142897168835589
2263.0,0.00615991731453689
2262.0,0.00618546849424952
2261.0,0.006219153795827779
2260.0,0.006256552950398275
2259.0,0.006285838668861394
2258.0,0.006296198180431817
2257.0,0.0062873873350971525
2256.0,0.006267068436045225
2255.0,0.006243891285501
2254.0,0.006226044955551066
2253.0,0.006220158722601333
2252.0,0.006226103803854161
2251.0,0.006235151510387709
2250.0,0.006239017167920899
2249.0,0.006237140797050403
2248.0,0.0062338923567447765
2247.0,0.00623171644491837
2246.0,0.006232405299151981
2245.0,0.0062407528716381016
2244.0,0.006261140677031488
2243.0,0.006289837692544941
2242.0,0.006314411936457894
2241.0,0.006322722357618773
2240.0,0.006314792870947688
2239.0,0.0063051062059457826
2238.0,0.006309545831081166
2237.0,0.006327160924265897
2236.0,0.0063401044456879935
2235.0,0.006336849919976593
2234.0,0.006328333800756393
2233.0,0.006331962422642797
2232.0,0.006345528159004511
2231.0,0.006352569068630827
2230.0,0.0063503953226642686
2229.0,0.006353745153066198
2228.0,0.006367597232327374
2227.0,0.0063751360390678375
2226.0,0.006362615564692481
2225.0,0.006340870921009161
2224.0,0.006329548010198615
2223.0,0.006331459896564034
2222.0,0.006336113124547095
2221.0,0.006339619664662999
2220.0,0.006346548446393192
2219.0,0.006356813118223937
2218.0,0.00636494228899637
2217.0,0.006370965341036567
2216.0,0.006380190124713423
2215.0,0.006391422725806444
2214.0,0.006395622311115389
2213.0,0.006389103717205527
2212.0,0.006380468142180664
2211.0,0.006379808802267051
2210.0,0.006385127681965511
2209.0,0.006385047885389208
2208.0,0.006375433681706149
2207.0,0.006368118627242049
2206.0,0.0063771585217420905
2205.0,0.006398400637765632
2204.0,0.006411948537045726
2203.0,0.006407916738082103
2202.0,0.006399096487836997
2201.0,0.0064003671990416336
2200.0,0.006407766714032472
2199.0,0.006412312873120392
2198.0,0.006423134113762341
2197.0,0.006456077395835312
2196.0,0.0065039545379275724
2195.0,0.006542380672363378
2194.0,0.006566224417447865
2193.0,0.006595873648501256
2192.0,0.006641349176920955
2191.0,0.006683982198284186
2190.0,0.006705641633505895
2189.0,0.006715638445578856
2188.0,0.0067325021252615195
2187.0,0.0067548902043719095
2186.0,0.006768304925662456
2185.0,0.006766785717786726
2184.0,0.0067497156273766115
2183.0,0.006709826532781908
2182.0,0.006648630352698882
2181.0,0.006596828731522871
2180.0,0.006590910118892502
2179.0,0.006625179140177694
2178.0,0.006649039303419444
2177.0,0.006620709574692852
2176.0,0.006553237514930954
2175.0,0.006499595321872687
2174.0,0.006499553461187489
2173.0,0.006550875465050661
2172.0,0.006627868601651404
2171.0,0.006714288257438465
2170.0,0.006809759419199286
2169.0,0.006912109679938186
2168.0,0.007008970278677628
2167.0,0.007088717013614123
2166.0,0.007150395331096366
2165.0,0.007200857864090401
2164.0,0.007249378291687033
2163.0,0.007298604466316708
2162.0,0.007316392999896346
2161.0,0.00721566787745005
2160.0,0.0069098663015860476
2159.0,0.006434042891786722
2158.0,0.005974369685064143
2157.0,0.005708156736513352
2156.0,0.005643695991280778
2155.0,0.005671308978305563
2154.0,0.005716315566142766
2153.0,0.005778390266005129
2152.0,0.0058609976887526675
2151.0,0.005930572164408994
2150.0,0.005954213435090947
2149.0,0.005935173813870522
2148.0,0.0058948430197030555
2147.0,0.005846570192876242
2146.0,0.005802005726048674
2145.0,0.005777266494594406
2144.0,0.005773893094730008
2143.0,0.005772287442089872
2142.0,0.0057578448296356005
2141.0,0.0057388112006524356
2140.0,0.005728367645864606
2139.0,0.005722488989238631
2138.0,0.0057038759433982065
2137.0,0.005656117739871713
2136.0,0.005571688072353415
2135.0,0.005460855569650817
2134.0,0.005358088377701965
2133.0,0.0053018203319150125
2132.0,0.0053010996344718935
2131.0,0.00533291487099736
2130.0,0.00537333701124407
2129.0,0.005413808300794415
2128.0,0.005449236070298962
2127.0,0.005471119187450165
2126.0,0.005480832181179527
2125.0,0.0054934217184509845
2124.0,0.005518549356945817
2123.0,0.00554891687891493
2122.0,0.005575400135665256
2121.0,0.005600903770781943
2120.0,0.005631127633937246
2119.0,0.0056635213274764985
2118.0,0.005695135067182391
2117.0,0.005730527488088788
2116.0,0.005771091777563773
2115.0,0.005805589007944453
2114.0,0.005822681620005466
2113.0,0.005826236881307387
2112.0,0.005827851713365546
2111.0,0.005829971545203733
2110.0,0.005827550854563492
2109.0,0.005821534978063036
2108.0,0.00581917047596254
2107.0,0.005822697936704851
2106.0,0.005826835650228504
2105.0,0.005827092701917136
2104.0,0.005824408190156261
2103.0,0.005822861035533471
2102.0,0.005826713099920578
2101.0,0.005836750384799906
2100.0,0.005845846038011108
2099.0,0.005842204382639051
2098.0,0.005818777061786199
2097.0,0.005776862374814311
2096.0,0.005721116857672522
2095.0,0.005660033982639636
2094.0,0.005612181645394673
2093.0,0.005598075527052452
2092.0,0.005619723149152509
2091.0,0.005657385196677157
2090.0,0.005690969377434571
2089.0,0.005716439895435497
2088.0,0.005738304337861143
2087.0,0.005758370925984496
2086.0,0.005779134597195341
2085.0,0.005807631211815883
2084.0,0.005845522411605352
2083.0,0.0058819098754308
2082.0,0.005905004160557365
2081.0,0.005915865414536632
2080.0,0.005923811017359239
2079.0,0.005933877631856149
2078.0,0.005945808631888526
2077.0,0.0059592113360954335
2076.0,0.005970775047368271
2075.0,0.005971810496048049
2074.0,0.005958049524829689
2073.0,0.005937731191598962
2072.0,0.005924540602939962
2071.0,0.005924665728440632
2070.0,0.005935378683227319
2069.0,0.005950650789106447
2068.0,0.005963712113662921
2067.0,0.005969685881136897
2066.0,0.005969473778904228
2065.0,0.005966633347510647
2064.0,0.005959508948262164
2063.0,0.005944611165320038
2062.0,0.005928279346258506
2061.0,0.00592386863446516
2060.0,0.005935951032192679
2059.0,0.005958329404849182
2058.0,0.0059873358248060315
2057.0,0.006021532557890481
2056.0,0.00605009154388472
2055.0,0.0060656169991962884
2054.0,0.006094145534125722
2053.0,0.006180816495390032
2052.0,0.006327133424903862
2051.0,0.006464127575591241
2050.0,0.006511329894029335
2049.0,0.006458868911036179
2048.0,0.006372376218813792
2047.0,0.0063139766003846715
2046.0,0.00629026873914849
2045.0,0.006281856587909997
2044.0,0.006284955122394598
2043.0,0.006307641588254234
2042.0,0.00634842771008692
2041.0,0.006395993704714675
2040.0,0.00644252572139021
2039.0,0.006486658442825569
2038.0,0.006524979800906964
2037.0,0.006546766459729702
2036.0,0.006539328361922391
2035.0,0.006500488382607843
2034.0,0.006446138688946422
2033.0,0.006400415046566576
2032.0,0.006374793824890187
2031.0,0.006363840174406948
2030.0,0.0063612747535357365
2029.0,0.006364746449686389
2028.0,0.0063649160023081155
2027.0,0.006347938691267883
2026.0,0.006317947937485725
2025.0,0.00629664876394673
2024.0,0.00629237883075312
2023.0,0.006286999987856016
2022.0,0.006265050584498122
2021.0,0.0062374840670812465
2020.0,0.006221404203766656
2019.0,0.0062128883775970836
2018.0,0.006198426294845719
2017.0,0.006180894406520291
2016.0,0.006173744178852446
2015.0,0.006177165911047461
2014.0,0.006181210875343497
2013.0,0.006186648763761012
2012.0,0.006205383126864618
2011.0,0.006238159383767176
2010.0,0.006260497616998318
2009.0,0.006235258936102584
2008.0,0.006145439795420609
2007.0,0.006018412549053548
2006.0,0.005912534518358853
2005.0,0.005866896134234105
2004.0,0.005868850613894334
2003.0,0.005882601177261666
2002.0,0.005896967702872992
2001.0,0.00592710478475174
2000.0,0.005973415188579918
1999.0,0.006013269053333743
1998.0,0.006034539094574533
1997.0,0.0060500853515944066
1996.0,0.006071903301652495
1995.0,0.006094870358253257
1994.0,0.006114411525371879
1993.0,0.006138244087985623
1992.0,0.006168612167647546
1991.0,0.006193114494355645
1990.0,0.00620887452727741
1989.0,0.006234072267134647
1988.0,0.006281284279049024
1987.0,0.0063379559645871915
1986.0,0.0063871775057713015
1985.0,0.0064326743110524505
1984.0,0.006490336761790123
1983.0,0.0065693570276633
1982.0,0.006668688834800432
1981.0,0.006772844903246706
1980.0,0.006833653170537983
1979.0,0.006786506923633741
1978.0,0.006614992311666139
1977.0,0.006392160811827357
1976.0,0.006221208906030376
1975.0,0.006141665974728763
1974.0,0.006122805203849214
1973.0,0.006123883192713511
1972.0,0.006129074071936318
1971.0,0.006139295979674616
1970.0,0.006158170939631579
1969.0,0.006186629211593948
1968.0,0.0062198249072139096
1967.0,0.006251005989312765
1966.0,0.006282151572674577
1965.0,0.006320200929539415
1964.0,0.006360117019664381
1963.0,0.006384505069085003
1962.0,0.00638299056161245
1961.0,0.006361058837488058
1960.0,0.0063293139178392036
1959.0,0.006299906036012358
1958.0,0.006294653616386263
1957.0,0.00633353338459857
1956.0,0.00640676216111307
1955.0,0.006477906071039144
1954.0,0.006524465193816263
1953.0,0.006556400585106549
1952.0,0.006591264550880684
1951.0,0.0066278970937193185
1950.0,0.0066605306279406504
1949.0,0.006700176187778444
1948.0,0.006759886529336256
1947.0,0.006832165186784843
1946.0,0.006899325314672839
1945.0,0.006954760631107861
1944.0,0.006995922164937881
1943.0,0.0070059155008817655
1942.0,0.006968767773534532
1941.0,0.006898728895794993
1940.0,0.006825642934416642
1939.0,0.006761323794011219
1938.0,0.00669858308918153
1937.0,0.00662964688939972
1936.0,0.00655299903908107
1935.0,0.00646775407277812
1934.0,0.006374037314222777
1933.0,0.0062752915378551065
1932.0,0.006176159279106699
1931.0,0.006076332432243679
1930.0,0.005978431080235872
1929.0,0.005894873205851935
1928.0,0.005831713915653628
1927.0,0.005784167141506123
1926.0,0.00574355139880112
1925.0,0.005709755938441981
1924.0,0.005682903068321547
1923.0,0.005654050109299315
1922.0,0.005619622672539795
1921.0,0.005591426234488741
1920.0,0.005576776096097861
1919.0,0.005562735928146439
1918.0,0.005527401578829246
1917.0,0.005472420691561092
1916.0,0.005418850861119854
1915.0,0.005378283956359867
1914.0,0.005350897528543397
1913.0,0.005334387654569377
1912.0,0.005325472130681145
1911.0,0.00531642056408713
1910.0,0.005301511812668006
1909.0,0.005284721227683152
1908.0,0.00527112378859776
1907.0,0.005263418926374225
1906.0,0.005260211957995527
1905.0,0.00526212157722811
1904.0,0.005267882783633011
1903.0,0.005271050120137554
1902.0,0.00527176190070639
1901.0,0.005279855393447014
1900.0,0.005297110682550442
1899.0,0.0053143454668803025
1898.0,0.005325199862306952
1897.0,0.005338439124432837
1896.0,0.0053665241318515315
1895.0,0.005406773252911064
1894.0,0.005447260553238871
1893.0,0.005484604178819814
1892.0,0.005523347712141152
1891.0,0.005565401659024849
1890.0,0.005606769425088241
1889.0,0.0056422623732149055
1888.0,0.0056686515662758286
1887.0,0.005685319481877767
1886.0,0.005698774291131649
1885.0,0.005720106445881851
1884.0,0.005752572467759759
1883.0,0.005784376805415266
1882.0,0.005803970188367925
1881.0,0.005815230560295453
1880.0,0.005828503286922134
1879.0,0.005848047877582337
1878.0,0.00587142155441445
1877.0,0.005896365094974347
1876.0,0.005924587578770706
1875.0,0.005955047114408085
1874.0,0.005981778697163298
1873.0,0.006002597192355625
1872.0,0.0060211294426082765
1871.0,0.0060389596334879826
1870.0,0.0060500273007421
1869.0,0.006044460577645906
1868.0,0.0060190907900632565
1867.0,0.005980054452285218
1866.0,0.0059363776992363846
1865.0,0.005894693269160625
1864.0,0.005853340938768575
1863.0,0.005803048234512992
1862.0,0.005738252943968625
1861.0,0.005664476833430349
1860.0,0.0055894624428621175
1859.0,0.005514239601243804
1858.0,0.00543908990860434
1857.0,0.005369988473507947
1856.0,0.005310131097379756
1855.0,0.005254149831137482
1854.0,0.005198083248634408
1853.0,0.005151488296817103
1852.0,0.005117612270146222
1851.0,0.005090713356960109
1850.0,0.005066620373736749
1849.0,0.005045055622202816
1848.0,0.0050223471779564524
1847.0,0.0049941087218109935
1846.0,0.004969837654782976
1845.0,0.004963342939363255
1844.0,0.004963276004089346
1843.0,0.004942484481324943
1842.0,0.00489790107839576
1841.0,0.004852829095998841
1840.0,0.004825434078136851
1839.0,0.004813242904144134
1838.0,0.004802619944891062
1837.0,0.004793807912438821
1836.0,0.004794241483680169
1835.0,0.0047992690945656245
1834.0,0.00479997360133165
1833.0,0.004798356531533582
1832.0,0.004801603839361558
1831.0,0.004820281596847522
1830.0,0.004855214214755633
1829.0,0.004892546990741116
1828.0,0.004921844202866609
1827.0,0.004945332848957946
1826.0,0.0049722269385612415
1825.0,0.0050009640887918125
1824.0,0.005018998639171886
1823.0,0.005022535048241268
1822.0,0.005025375625074645
1821.0,0.005041621047487362
1820.0,0.005066136106933121
1819.0,0.005082026931012338
1818.0,0.005080227308375959
1817.0,0.005074659263341666
1816.0,0.005086753100873783
1815.0,0.005119649989614982
1814.0,0.005164759566337831
1813.0,0.005213875656165374
1812.0,0.005266496976467649
1811.0,0.005320758647014691
1810.0,0.005367979552286592
1809.0,0.005407565149817943
1808.0,0.005447146647358339
1807.0,0.005489880144688948
1806.0,0.005535054432751112
1805.0,0.005584042312608021
1804.0,0.0056357590027425125
1803.0,0.005674755558591579
1802.0,0.005686079876755513
1801.0,0.005666358356886939
1800.0,0.005630814414095686
1799.0,0.005594314095869861
1798.0,0.005556127684166345
1797.0,0.005509601973935116
1796.0,0.00545422794455843
1795.0,0.005396470144677741
1794.0,0.0053475207766559285
1793.0,0.0053052019542031625
1792.0,0.005252113718089433
1791.0,0.005175391909611234
1790.0,0.005084547321768195
1789.0,0.005005794636619348
1788.0,0.004958786056327368
1787.0,0.00493724383378479
1786.0,0.004917699148833019
1785.0,0.004886368378229141
1784.0,0.004847708886090555
1783.0,0.004806200190929831
1782.0,0.004776064850825282
1781.0,0.004764541156467357
1780.0,0.004762973306367958
1779.0,0.004757229546399439
1778.0,0.004744938138927044
1777.0,0.004731839041958755
1776.0,0.004710348855766439
1775.0,0.004674307288041137
1774.0,0.004647314008932061
1773.0,0.004663842788677553
1772.0,0.00471528578382778
1771.0,0.004762286376855606
1770.0,0.004783996801777252
1769.0,0.004788841247681262
1768.0,0.004788575198829195
1767.0,0.00477769668789799
1766.0,0.004757605669884798
1765.0,0.004746869854677925
1764.0,0.004767198761365667
1763.0,0.004818055381808803
1762.0,0.004876969263332668
1761.0,0.0049196597134196045
1760.0,0.004948414942674336
1759.0,0.004976690060407254
1758.0,0.005022688645459395
1757.0,0.005091579303340998
1756.0,0.0051564801622434875
1755.0,0.0051985316943425185
1754.0,0.0052373365161286
1753.0,0.005309322841554672
1752.0,0.005414993530734045
1751.0,0.00551169658108497
1750.0,0.005568214768910347
1749.0,0.005606919551302636
1748.0,0.005650129212871413
1747.0,0.005689520897889451
1746.0,0.005722713071922886
1745.0,0.005754183298194183
1744.0,0.005779802295242202
1743.0,0.005785922992984063
1742.0,0.005774939006715977
1741.0,0.005772458000511163
1740.0,0.00579279650508467
1739.0,0.005804550822199467
1738.0,0.005779695018193509
1737.0,0.005733500213054194
1736.0,0.005712996193125907
1735.0,0.005737263809340572
1734.0,0.005752514997801512
1733.0,0.005731387841683481
1732.0,0.005700826764084313
1731.0,0.005667682884073273
1730.0,0.0056363908277860955
1729.0,0.00561520419611267
1728.0,0.005600115490843286
1727.0,0.005584313719266232
1726.0,0.005573305855913469
1725.0,0.005571411142776021
1724.0,0.0055797658174856195
1723.0,0.0055893476915415494
1722.0,0.005587491504171533
1721.0,0.005573167183891302
1720.0,0.005559580529163133
1719.0,0.005570694354415429
1718.0,0.00561107368890938
1717.0,0.0056627799904370646
1716.0,0.005717820637197303
1715.0,0.005756680729182785
1714.0,0.005764363457373091
1713.0,0.005759847541978007
1712.0,0.005768977978647183
1711.0,0.005794618687002749
1710.0,0.005828004637808171
1709.0,0.005867234208314925
1708.0,0.005913735651904371
1707.0,0.005978126801398693
1706.0,0.006069238947878017
1705.0,0.006170706703901356
1704.0,0.00625190824014409
1703.0,0.006307664726317324
1702.0,0.006397494966584828
1701.0,0.006563043142483109
1700.0,0.0067375557686376614
1699.0,0.006792269311453495
1698.0,0.006894321672974872
1697.0,0.0070325256184013835
1696.0,0.007139672707866728
1695.0,0.007308852973396266
1694.0,0.007452893165347413
1693.0,0.007542100099353336
1692.0,0.007645309702069855
1691.0,0.007791338931826559
1690.0,0.007955318739596299
1689.0,0.008090825954573506
1688.0,0.00817193240510834
1687.0,0.008227936085363147
1686.0,0.008339759091630379
1685.0,0.008595327666820142
1684.0,0.008929504747368203
1683.0,0.009161079600479523
1682.0,0.009278508554796255
1681.0,0.00937705677458319
1680.0,0.009502812933274837
1679.0,0.009638119633826693
1678.0,0.009769792702904909
1677.0,0.009927003332681577
1676.0,0.010126761199629485
1675.0,0.0103114847973231
1674.0,0.010431526538367411
1673.0,0.010510852991322237
1672.0,0.010600796929331609
1671.0,0.010727220830631072
1670.0,0.010881152329733926
1669.0,0.011036720093456737
1668.0,0.011171135216298552
1667.0,0.011275457580332396
1666.0,0.011363963836138151
1665.0,0.011463182004149563
1664.0,0.011588943892569026
1663.0,0.011713821575045793
1662.0,0.011807406638468191
1661.0,0.011882813453036304
1660.0,0.01195835408725158
1659.0,0.012035721417261098
1658.0,0.012105170475789353
1657.0,0.012153065698167952
1656.0,0.012166605444378979
1655.0,0.01216741258056994
1654.0,0.012175674075482947
1653.0,0.01214301246544337
1652.0,0.0121227058411125
1651.0,0.012149432871340734
1650.0,0.012157380525580576
1649.0,0.012135580001468643
1648.0,0.012109767151224991
1647.0,0.012074043653513063
1646.0,0.01201784697549803
1645.0,0.011975743838590484
1644.0,0.011957686604102274
1643.0,0.011936595914199736
1642.0,0.011901040826060982
1641.0,0.01185751050421584
1640.0,0.011805911173856723
1639.0,0.011737559883500236
1638.0,0.011650014516249259
1637.0,0.011562625225873795
1636.0,0.011477288751339841
1635.0,0.01138430010645653
1634.0,0.011296703655046827
1633.0,0.011217724192451158
1632.0,0.011143651109235427
1631.0,0.011067367065439825
1630.0,0.01097586610648696
1629.0,0.010864523974899018
1628.0,0.01074354108302485
1627.0,0.010623264736202419
1626.0,0.010508944553291742
1625.0,0.0103979448801646
1624.0,0.0102815973654758
1623.0,0.010149406008358102
1622.0,0.010011542365599682
1621.0,0.009881457386397945
1620.0,0.009747588200219228
1619.0,0.009606134648860298
1618.0,0.00947800421108883
1617.0,0.009388141755827084
1616.0,0.00933816174491071
1615.0,0.009311964943106063
1614.0,0.009291859281509668
1613.0,0.009285454597873818
1612.0,0.009320061410255593
1611.0,0.00941690806926135
1610.0,0.009603625498577626
1609.0,0.009923616585373584
1608.0,0.010409630481450943
1607.0,0.011049080017790824
1606.0,0.011803897676885085
1605.0,0.012636552735038185
1604.0,0.013486504613832195
1603.0,0.014229940446039287
1602.0,0.014708947304681657
1601.0,0.014828297895433142
1600.0,0.014584907501791816
1599.0,0.014035845369685745
1598.0,0.013292332533326352
1597.0,0.0124955556410692
1596.0,0.011753730936368195
1595.0,0.011113387458447435
1594.0,0.010585683393889387
1593.0,0.010165981717904133
1592.0,0.009833062506662535
1591.0,0.009563612041172908
1590.0,0.009359655252500557
1589.0,0.009248957890208732
1588.0,0.009256666615359996
1587.0,0.009384574350076759
1586.0,0.009604740894345484
1585.0,0.00986103826231204
1584.0,0.010062687348503787
1583.0,0.010116806044082147
1582.0,0.009984952093853357
1581.0,0.0097089340620435
1580.0,0.009364003085409201
1579.0,0.009007765058309844
1578.0,0.008684761480224776
1577.0,0.00843778728372896
1576.0,0.008285946922774585
1575.0,0.008206325007822004
1574.0,0.008154232332085056
1573.0,0.008095323235879567
1572.0,0.00803170158181467
1571.0,0.007980089767627685
1570.0,0.00794541444428034
1569.0,0.007922895886326161
1568.0,0.007899530698055358
1567.0,0.00787406810403691
1566.0,0.007857915124479456
1565.0,0.007861550082716613
1564.0,0.007867057951686799
1563.0,0.007859918046397213
1562.0,0.007848874054268219
1561.0,0.0078699665091564
1560.0,0.007942176933721432
1559.0,0.008072607547872503
1558.0,0.008171297510037883
1557.0,0.008222954968671604
1556.0,0.00826504586704461
1555.0,0.008322720360124247
1554.0,0.008402541730069978
1553.0,0.008484520305592462
1552.0,0.008561274023337636
1551.0,0.008640498720029822
1550.0,0.00871739020443401
1549.0,0.008780843439181334
1548.0,0.008837497746385635
1547.0,0.008902833942840091
1546.0,0.00897231392207841
1545.0,0.009016618223087351
1544.0,0.009008417962338304
1543.0,0.008948956231996303
1542.0,0.008857747306934307
1541.0,0.008777356281011325
1540.0,0.008743111511435682
1539.0,0.008732826137363803
1538.0,0.00872311326082725
1537.0,0.008700979725768929
1536.0,0.008663059436172025
1535.0,0.008612427841465377
1534.0,0.00853962853272132
1533.0,0.008435355136563868
1532.0,0.008324562431343153
1531.0,0.008231707213800805
1530.0,0.008158683018987284
1529.0,0.00810136554808013
1528.0,0.008051296436371558
1527.0,0.007991594673106435
1526.0,0.007908994047729165
1525.0,0.0078113444046117465
1524.0,0.00772235754132122
1523.0,0.007667738272350798
1522.0,0.007652461252058235
1521.0,0.00764863631400503
1520.0,0.007634136204209105
1519.0,0.007602473668323017
1518.0,0.007559490076837492
1517.0,0.007517636393789354
1516.0,0.007475632198956172
1515.0,0.007423778609756242
1514.0,0.007364629963068255
1513.0,0.007309478970636614
1512.0,0.0072644791183601445
1511.0,0.007216240645239907
1510.0,0.007138924915216428
1509.0,0.00702494487611077
1508.0,0.006921784939743515
1507.0,0.006905176185958963
1506.0,0.006939650350603149
1505.0,0.006981878290928519
1504.0,0.007045179028985695
1503.0,0.007148767477737612
1502.0,0.007329716420656547
1501.0,0.007649737850022518
1500.0,0.008190602093884176
1499.0,0.009094770345228823
1498.0,0.010651764938088185
1497.0,0.01319550931847453
1496.0,0.01653637022916651
1495.0,0.019802030557845275
1494.0,0.022251421806631887
1493.0,0.02358282332281582
1492.0,0.023569990929343386
1491.0,0.022010899721839016
1490.0,0.019272288826280213
1489.0,0.0164553095602145
1488.0,0.014338736544845106
1487.0,0.012873393065970054
1486.0,0.011791557041458178
1485.0,0.010961294737327957
1484.0,0.01031158727243533
1483.0,0.009776381965275353
1482.0,0.009319487115026082
1481.0,0.008954895893188973
1480.0,0.008699153921302188
1479.0,0.008531097342860476
1478.0,0.00841508180078113
1477.0,0.008326328482133905
1476.0,0.008253125239806789
1475.0,0.008187434056687797
1474.0,0.008142371947986345
1473.0,0.008139884398655537
1472.0,0.008162219808717805
1471.0,0.008175102981737138
1470.0,0.008185968478418775
1469.0,0.008221008081991934
1468.0,0.008282784600132518
1467.0,0.008350367352743034
1466.0,0.008416563910875906
1465.0,0.008495310513494923
1464.0,0.008582756794349217
1463.0,0.008667522738203563
1462.0,0.008780825166546663
1461.0,0.008963269013473246
1460.0,0.009271442690812459
1459.0,0.009869324532666686
1458.0,0.011275774740532991
1457.0,0.013922935083897086
1456.0,0.01704724714915807
1455.0,0.019669726178523802
1454.0,0.021725558774961223
1453.0,0.023243197628992834
1452.0,0.023971847692019748
1451.0,0.02378015011659728
1450.0,0.022895297859862447
1449.0,0.021661330583195252
1448.0,0.020340414391878454
1447.0,0.019160739371805652
1446.0,0.01823481938633763
1445.0,0.017481939373170323
1444.0,0.016762758146995314
1443.0,0.016036179821933224
1442.0,0.015355337314016528
1441.0,0.014772711315925629
1440.0,0.014288134187887064
1439.0,0.013865619566226143
1438.0,0.013416931682508734
1437.0,0.012826525021383928
1436.0,0.012142157043525592
1435.0,0.011563737082084954
1434.0,0.011151774916083776
1433.0,0.010824255095780798
1432.0,0.010510646632642819
1431.0,0.01020063331377678
1430.0,0.009920766429786872
1429.0,0.009683015095127088
1428.0,0.009491357136844038
1427.0,0.009349003246838674
1426.0,0.009247152578313777
1425.0,0.00915639037894973
1424.0,0.009055893085311397
1423.0,0.008968245624742943
1422.0,0.008922205845905426
1421.0,0.008911519469175838
1420.0,0.008894575365850501
1419.0,0.008840865172556006
1418.0,0.008760964156729795
1417.0,0.008669429371452781
1416.0,0.008574988601736173
1415.0,0.008496353750352622
1414.0,0.008442141140808962
1413.0,0.008396388794861107
1412.0,0.00834031471098849
1411.0,0.008276396970752583
1410.0,0.008215797963807099
1409.0,0.008157525400333718
1408.0,0.008099597390290977
1407.0,0.008044230617922282
1406.0,0.007990614443735354
1405.0,0.007928581488254703
1404.0,0.00785518440350466
1403.0,0.0077911599820979244
1402.0,0.0077536485719092805
1401.0,0.007735443832666961
1400.0,0.007717102139581678
1399.0,0.00769192126668304
1398.0,0.0076671979823635114
1397.0,0.0076464326533471376
1396.0,0.00763076500257553
1395.0,0.007622930865119708
1394.0,0.007622307044018452
1393.0,0.007624944558194879
1392.0,0.0076377093057155305
1391.0,0.007676636331038794
1390.0,0.007747741016105933
1389.0,0.00784012874291072
1388.0,0.00793777161960119
1387.0,0.008029124179654065
1386.0,0.008107471338828193
1385.0,0.00817479429235548
1384.0,0.008242930584808161
1383.0,0.008323693221298053
1382.0,0.00841631045247997
1381.0,0.008513270572055896
1380.0,0.008611642089072486
1379.0,0.008711015975666299
1378.0,0.008806913070063831
1377.0,0.008892873141620636
1376.0,0.008964612875523859
1375.0,0.009015365658832354
1374.0,0.009035488216240012
1373.0,0.009022418170991838
1372.0,0.00898912198158332
1371.0,0.008951388672538125
1370.0,0.008914247581307608
1369.0,0.008872523003761568
1368.0,0.008824181703812306
1367.0,0.008780277518667261
1366.0,0.00875261109688352
1365.0,0.008736816827453874
1364.0,0.008712175678542034
1363.0,0.008659243002898633
1362.0,0.008577417714116064
1361.0,0.008481995894588859
1360.0,0.008388324160155761
1359.0,0.008304530914520384
1358.0,0.008232698511457899
1357.0,0.008170837001871283
1356.0,0.00811679139045234
1355.0,0.008071458722602719
1354.0,0.008036687338371542
1353.0,0.008010813145802768
1352.0,0.007991635470744293
1351.0,0.00797683581836938
1350.0,0.007963320463896953
1349.0,0.007945596148357725
1348.0,0.00791854285813051
1347.0,0.007881924700060683
1346.0,0.007838046908685937
1345.0,0.0077894314158059984
1344.0,0.007741210408781734
1343.0,0.007701180769404494
1342.0,0.007671436284289481
1341.0,0.007643097276498246
1340.0,0.007605372561494646
1339.0,0.007560525353052146
1338.0,0.007522775507454718
1337.0,0.007503854617991002
1336.0,0.007508099490618613
1335.0,0.007535870030513613
1334.0,0.007584030129533871
1333.0,0.007645258838268832
1332.0,0.007710465621953838
1331.0,0.007771433179003329
1330.0,0.007820511291998181
1329.0,0.00784985984237459
1328.0,0.00785501777754135
1327.0,0.007838381003116138
1326.0,0.007807366416627479
1325.0,0.007768426696049947
1324.0,0.007725800961780293
1323.0,0.0076855009403576525
1322.0,0.007654397981432778
1321.0,0.007635208710824422
1320.0,0.00762639671942179
1319.0,0.007627223109059934
1318.0,0.0076387769611178345
1317.0,0.007660280628429492
1316.0,0.007687866210806059
1315.0,0.0077165794719068195
1314.0,0.00774082633707978
1313.0,0.007754511457948291
1312.0,0.0077542387151642595
1311.0,0.007741455745150736
1310.0,0.007719212711102348
1309.0,0.007687927961940444
1308.0,0.007647375082887292
1307.0,0.007600113926143143
1306.0,0.007550440036063717
1305.0,0.007500507969811991
1304.0,0.007450420880861488
1303.0,0.00740101967709483
1302.0,0.0073531093608207925
1301.0,0.007306027642947506
1300.0,0.007260249774908874
1299.0,0.007219851919598201
1298.0,0.007188603632441195
1297.0,0.0071655647128796305
1296.0,0.0071475995895990295
1295.0,0.007134115401734489
1294.0,0.007125586540707745
1293.0,0.007119502849720529
1292.0,0.007112190795159618
1291.0,0.007103199332734725
1290.0,0.007094062421174986
1289.0,0.007084176067375686
1288.0,0.007072193675609717
1287.0,0.00706063750192838
1286.0,0.007054808701160044
1285.0,0.0070572124725500635
1284.0,0.007066058126195091
1283.0,0.007078148903972087
1282.0,0.007090002859749819
1281.0,0.007097646357380301
1280.0,0.007098384509431755
1279.0,0.0070928854843713834
1278.0,0.007083425033285519
1277.0,0.007070915488933393
1276.0,0.007056032323331741
1275.0,0.007041634898733426
1274.0,0.00703087727249652
1273.0,0.00702383979574988
1272.0,0.007019168709087167
1271.0,0.0070178243471969645
1270.0,0.007021731981873612
1269.0,0.007029807125104463
1268.0,0.0070390210046867244
1267.0,0.007049118403884699
1266.0,0.007063047430307757
1265.0,0.007083178692073909
1264.0,0.007110031423755151
1263.0,0.007143902353879258
1262.0,0.007184506520051864
1261.0,0.007229757360387898
1260.0,0.007277631096709445
1259.0,0.007329142140250475
1258.0,0.007386924904280904
1257.0,0.007451246233894076
1256.0,0.007520096571726706
1255.0,0.0075924901662280725
1254.0,0.007668784568595229
1253.0,0.007747876122368378
1252.0,0.00782704545757713
1251.0,0.007905237750676966
1250.0,0.007983800904273558
1249.0,0.008062926532455722
1248.0,0.00813978663814801
1247.0,0.00821187991380586
1246.0,0.00828010855647732
1245.0,0.008346793882150294
1244.0,0.008412528043568889
1243.0,0.008476512045687286
1242.0,0.00853825350696076
1241.0,0.008597168541211753
1240.0,0.008652035726343717
1239.0,0.008702539635530483
1238.0,0.008750063097780298
1237.0,0.008795622253764568
1236.0,0.00883875529778248
1235.0,0.008879823152942569
1234.0,0.008921148572098296
1233.0,0.00896387207017038
1232.0,0.00900575181856114
1231.0,0.009044401729786529
1230.0,0.00908077642330345
1229.0,0.009117013568501942
1228.0,0.009152636789280131
1227.0,0.009185342710799203
1226.0,0.00921394418410507
1225.0,0.00923817334546245
1224.0,0.009257237680028688
1223.0,0.009271183495455828
1222.0,0.009282248074549426
1221.0,0.00929249628288527
1220.0,0.009301655402821069
1219.0,0.009309442906808671
1218.0,0.009317961260910494
1217.0,0.009329201145527946
1216.0,0.009342237528321928
1215.0,0.009355618785723116
1214.0,0.009370698361719037
1213.0,0.009389829984315371
1212.0,0.009413110203656124
1211.0,0.009439735415129163
1210.0,0.009470882221187598
1209.0,0.00950837331601693
1208.0,0.009551893517687005
1207.0,0.009600119577788144
1206.0,0.009652977940466595
1205.0,0.009710174912208373
1204.0,0.009769182713259638
1203.0,0.009827704592936085
1202.0,0.0098866187032259
1201.0,0.009947196652457361
1200.0,0.010006715241658724
1199.0,0.010060260043187077
1198.0,0.010105914840022611
1197.0,0.010144953395296002
1196.0,0.010178255527289572
1195.0,0.010206206222898345
1194.0,0.010231116120319643
1193.0,0.010256185275213435
1192.0,0.010283089937370067
1191.0,0.010313807219832629
1190.0,0.010353404811294176
1189.0,0.010407972715030972
1188.0,0.010481672362825888
1187.0,0.010578798676712221
1186.0,0.010705506119548956
1185.0,0.010863264348342378
1184.0,0.011039679741377019
1183.0,0.011208529542547859
1182.0,0.011339419085726145
1181.0,0.0114070459838267
1180.0,0.011396424947079742
1179.0,0.011309567026453804
1178.0,0.011169120866847189
1177.0,0.011008721010628131
1176.0,0.010857587444411787
1175.0,0.010734118921230038
1174.0,0.010646508607124957
1173.0,0.010592370271818741
1172.0,0.010560960148786923
1171.0,0.010542091967416817
1170.0,0.010532992239286717
1169.0,0.010534541947732023
1168.0,0.010544515206280441
1167.0,0.010559301466796933
1166.0,0.01057974932670033
1165.0,0.010610213375102661
1164.0,0.010653870731020398
1163.0,0.010714167854397027
1162.0,0.01079916698315105
1161.0,0.010918852689615025
1160.0,0.011077953017770216
1159.0,0.0112737039510685
1158.0,0.01149677673722803
1157.0,0.011727599907965982
1156.0,0.011932420869007625
1155.0,0.012071816870358557
1154.0,0.012118945479656177
1153.0,0.012069334725050807
1152.0,0.01193779200592573
1151.0,0.011754177882348203
1150.0,0.01155778910133055
1149.0,0.011382110528859575
1148.0,0.011241070295272826
1147.0,0.011132459469228008
1146.0,0.011050411267827975
1145.0,0.010989640856215828
1144.0,0.010942780484408218
1143.0,0.010902983151679476
1142.0,0.010869613371591357
1141.0,0.010845873337306104
1140.0,0.010831580692125677
1139.0,0.010823292786022646
1138.0,0.010819897345526132
1137.0,0.010822605951764515
1136.0,0.010830825447886182
1135.0,0.010843288231708732
1134.0,0.01086160641561672
1133.0,0.010887341280297592
1132.0,0.010917320015921382
1131.0,0.010947298450477209
1130.0,0.010978422600626363
1129.0,0.011014382006910949
1128.0,0.011054299085576473
1127.0,0.011095125734756189
1126.0,0.011139543897650095
1125.0,0.011194339204266372
1124.0,0.011261643384509695
1123.0,0.011338482843245453
1122.0,0.011424164026078562
1121.0,0.01152107682716012
1120.0,0.011628380527614926
1119.0,0.011741518814320976
1118.0,0.011857844796622049
1117.0,0.011976405905498309
1116.0,0.012092878922660397
1115.0,0.012201807125126977
1114.0,0.012303197542359165
1113.0,0.012399228312239377
1112.0,0.012485660134737623
1111.0,0.012555635250472671
1110.0,0.012611497362730392
1109.0,0.012662801254947845
1108.0,0.012713303198793133
1107.0,0.012760362071505146
1106.0,0.012806279891963474
1105.0,0.01285874118671125
1104.0,0.012918969308572227
1103.0,0.012980302960043329
1102.0,0.01304020246462456
1101.0,0.013103891374894322
1100.0,0.013174402110359047
1099.0,0.01324840548305829
1098.0,0.013323390642155175
1097.0,0.013399603049065654
1096.0,0.013473673423674812
1095.0,0.013540203988236148
1094.0,0.013601230738838696
1093.0,0.013664652481547255
1092.0,0.013732363741205882
1091.0,0.013799358858047632
1090.0,0.013864708351257235
1089.0,0.013933381081915308
1088.0,0.014007119306500792
1087.0,0.01408416357296408
1086.0,0.014168053290364082
1085.0,0.014264938264396817
1084.0,0.01437120834095245
1083.0,0.014475306517448732
1082.0,0.014572784963507264
1081.0,0.014668172779028137
1080.0,0.014762274627768931
1079.0,0.014851726316203278
1078.0,0.0149427140387064
1077.0,0.015050766382659406
1076.0,0.015183180603235211
1075.0,0.015332821354129642
1074.0,0.015490230226571651
1073.0,0.0156482852257314
1072.0,0.01579269098785045
1071.0,0.01590307690369452
1070.0,0.015968853630803453
1069.0,0.015991751188740147
1068.0,0.015970840273977178
1067.0,0.015900029071677434
1066.0,0.015782850259436775
1065.0,0.015634952057578522
1064.0,0.015469372177627798
1063.0,0.01529200726814912
1062.0,0.015111643919304212
1061.0,0.014940414674107633
1060.0,0.014782207179483718
1059.0,0.014631831302265372
1058.0,0.014486731449062425
1057.0,0.014349426877507263
1056.0,0.014218500991406806
1055.0,0.01408776764411985
1054.0,0.0139554099533211
1053.0,0.01382528695777323
1052.0,0.013699127830641707
1051.0,0.013576477662722877
1050.0,0.013461640419651592
1049.0,0.01335986016749369
1048.0,0.013267783984413842
1047.0,0.013178324876488658
1046.0,0.013092048461966887
1045.0,0.013014074302453084
1044.0,0.012943788609583319
1043.0,0.012877298657905371
1042.0,0.012817858542698285
1041.0,0.012776135904527875
1040.0,0.012762982059353667
1039.0,0.012790717752504224
1038.0,0.012880375319355057
1037.0,0.013059614310278246
1036.0,0.013351581126574523
1035.0,0.013766370135334051
1034.0,0.01429520356605484
1033.0,0.014902302400120283
1032.0,0.01552303399778343
1031.0,0.01608132601102566
1030.0,0.016514791728217456
1029.0,0.016778295437779454
1028.0,0.016832802744333727
1027.0,0.01665831649432647
1026.0,0.016285062645089332
1025.0,0.015790965496824138
1024.0,0.01525941927403562
1023.0,0.014747111734307723
1022.0,0.014283137275554114
1021.0,0.0138768879078654
1020.0,0.013522119891644447
1019.0,0.013206260586388055
1018.0,0.01292281334103098
1017.0,0.012671921436799365
1016.0,0.012451595827400708
1015.0,0.01225643647895532
1014.0,0.012084066530741462
1013.0,0.011935152689148954
1012.0,0.011807212195322127
1011.0,0.011695226135435256
1010.0,0.011598613119672377
1009.0,0.011522063117001862
1008.0,0.011469780178495235
1007.0,0.011443204336134582
1006.0,0.011440706125892553
1005.0,0.011450040182968926
1004.0,0.011440556206141988
1003.0,0.011373053851861305
1002.0,0.011224768707245588
1001.0,0.011004108531750458
1000.0,0.010742554034479823
999.0,0.010477263183146561
998.0,0.010237451745969692
997.0,0.010036325976231835
996.0,0.009871051497537146
995.0,0.00973193531697803
994.0,0.00961233478422546
993.0,0.009509991646874726
992.0,0.009423055494327343
991.0,0.009349868863356746
990.0,0.009291621178578877
989.0,0.009250769909576257
988.0,0.009226670349722323
987.0,0.009215473473253095
986.0,0.009213437849627424
985.0,0.009217199637215116
984.0,0.009221516872462074
983.0,0.00922025256622431
982.0,0.009209532749388776
981.0,0.009187045238226842
980.0,0.009148980220168941
979.0,0.009091446380688446
978.0,0.00901487588077732
977.0,0.008923916452302562
976.0,0.008823941432849975
975.0,0.008721450187259262
974.0,0.008627011131803105
973.0,0.008553393526401285
972.0,0.008509541622763347
971.0,0.008497346024049732
970.0,0.008512798495618371
969.0,0.008547888588497162
968.0,0.00859198119679117
967.0,0.008634015166646535
966.0,0.008664417769360201
965.0,0.0086743730947889
964.0,0.008654737716542222
963.0,0.00859869995649719
962.0,0.008505760192403065
961.0,0.008381729795595573
960.0,0.008236346212106673
959.0,0.008082585076625806
958.0,0.007934926487144691
957.0,0.00780397612494566
956.0,0.007693150264677195
955.0,0.0076016520373634235
954.0,0.00752842825561159
953.0,0.0074720135369556765
952.0,0.007429691848346986
951.0,0.00739962346169454
950.0,0.007382214635311479
949.0,0.007377518695979349
948.0,0.007382928610058715
947.0,0.007394838356185059
946.0,0.007410226867405555
945.0,0.0074245205939016835
944.0,0.007430203305398498
943.0,0.007420581574457776
942.0,0.0073939078480596806
941.0,0.007351730750445736
940.0,0.007295107673465898
939.0,0.007225193602703677
938.0,0.007145524233127785
937.0,0.0070602342247231605
936.0,0.006971145599477152
935.0,0.006879289925032318
934.0,0.006787951855473312
933.0,0.006701694524702506
932.0,0.006623554508108274
931.0,0.006555074809762955
930.0,0.006497490145767507
929.0,0.006450896224350268
928.0,0.006413596446577236
927.0,0.006384097578384942
926.0,0.006362939638785641
925.0,0.006351608798965002
924.0,0.006350938779392605
923.0,0.006361380118258274
922.0,0.006383193696005197
921.0,0.006415631860136242
920.0,0.0064581202181106575
919.0,0.006513804363676682
918.0,0.006590303552611281
917.0,0.006695414466284825
916.0,0.006833190465884534
915.0,0.007004653292755186
914.0,0.007209357932040634
913.0,0.00744322301269928
912.0,0.0076954836732925575
911.0,0.00795018220588117
910.0,0.008190397446508086
909.0,0.00839871149362359
908.0,0.008555033843551737
907.0,0.008639926321671107
906.0,0.008642555600474397
905.0,0.0085626480203482
904.0,0.008405687432005782
903.0,0.008181439106777447
902.0,0.007906220844945001
901.0,0.007600628443956471
900.0,0.007284808988608979
899.0,0.006978087401778082
898.0,0.006698763687913973
897.0,0.006458576178460157
896.0,0.0062584553761160285
895.0,0.006092622208243487
894.0,0.00595504506983386
893.0,0.005840582637299706
892.0,0.005743615564053574
891.0,0.005659578718842267
890.0,0.005586798918457953
889.0,0.005524395686199361
888.0,0.005469543339366449
887.0,0.005418952794762109
886.0,0.005372052760061352
885.0,0.005330961079991731
884.0,0.005298410960069566
883.0,0.005276934424223868
882.0,0.005268015488339278
881.0,0.0052696953428474705
880.0,0.005276019068290939
879.0,0.005280655532834651
878.0,0.005280364484154429
877.0,0.005274010935098183
876.0,0.005260360742961657
875.0,0.0052389101998413165
874.0,0.005210547980232494
873.0,0.005174618744681233
872.0,0.005127567532523906
871.0,0.005068018176863633
870.0,0.005002040776427168
869.0,0.004940400753687415
868.0,0.00489112446934444
867.0,0.004856023004788773
866.0,0.004832162801432836
865.0,0.004814309479250293
864.0,0.004797352362147641
863.0,0.004779014471460344
862.0,0.004760452673175395
861.0,0.004743388813790107
860.0,0.004727705528449592
859.0,0.004712926507775456
858.0,0.004700388777704336
857.0,0.00469191638663682
856.0,0.004687316044762178
855.0,0.0046854020959773875
854.0,0.004687617459689771
853.0,0.00469961500136781
852.0,0.0047294500413031315
851.0,0.004784169840152931
850.0,0.004866002436984662
849.0,0.004969946266303434
848.0,0.00508571540466024
847.0,0.005203642204489154
846.0,0.005318652099854897
845.0,0.005427595070991416
844.0,0.005524217753441518
843.0,0.005599824640641143
842.0,0.005648760480993606
841.0,0.005670068673883743
840.0,0.005663578930719976
839.0,0.005628078039514601
838.0,0.005564332633704771
837.0,0.005477080430705711
836.0,0.00537367439775531
835.0,0.0052633082425528645
834.0,0.005156796857316889
833.0,0.005063172819431262
832.0,0.004985404210726305
831.0,0.0049212268373921555
830.0,0.004868300193685542
829.0,0.004826925390057308
828.0,0.004797848505508803
827.0,0.004779542096106619
826.0,0.00476837201749849
825.0,0.0047600157964070204
824.0,0.004750487546036453
823.0,0.004737865824793263
822.0,0.004723765131987033
821.0,0.004711601637147249
820.0,0.004703283440045583
819.0,0.004698501986637377
818.0,0.004696396676024389
817.0,0.004696613712122033
816.0,0.004699239496148688
815.0,0.004704679851346975
814.0,0.004712927646505944
813.0,0.0047218785735918265
812.0,0.0047273998722251005
811.0,0.004726972140271095
810.0,0.004722822600534108
809.0,0.004719549057232902
808.0,0.004718892397398347
807.0,0.004718653880965004
806.0,0.004716600456402507
805.0,0.004713630976535263
804.0,0.004713045752298598
803.0,0.004718284723286754
802.0,0.004731233408965217
801.0,0.0047509936148473
800.0,0.00477410983171416
799.0,0.004797241553799404
798.0,0.004819705736430155
797.0,0.004842732031488921
796.0,0.004867478814207392
795.0,0.004895761653691463
794.0,0.004931608970266606
793.0,0.004979099458222879
792.0,0.00503843094380558
791.0,0.00510610821018048
790.0,0.005178809350691217
789.0,0.005255057270962031
788.0,0.005333815524060782
787.0,0.005414777115108646
786.0,0.0055006862612128555
785.0,0.0055968349303237115
784.0,0.005707971461433244
783.0,0.005838115973351855
782.0,0.005993017508385447
781.0,0.006179071348616207
780.0,0.006399021817265215
779.0,0.006652161799304403
778.0,0.006939612355335615
777.0,0.007265599851019882
776.0,0.007632328789308298
775.0,0.00803809378250415
774.0,0.008482801925303641
773.0,0.008970667256062005
772.0,0.009503716876293153
771.0,0.010076116196475759
770.0,0.010677165182404913
769.0,0.011294436534616053
768.0,0.011911337017776078
767.0,0.012510609633155381
766.0,0.013087911645510828
765.0,0.013655728927932853
764.0,0.01422803062065153
763.0,0.014807646989353412
762.0,0.015391416779910107
761.0,0.015975260484064373
760.0,0.016545106619788613
759.0,0.01707145768718137
758.0,0.01752149313708307
757.0,0.017870980867701315
756.0,0.018104184415926587
755.0,0.01821957298523307
754.0,0.018244204238379344
753.0,0.018227425472774447
752.0,0.01821037925316814
751.0,0.01820892499223634
750.0,0.0182221850521012
749.0,0.018234876379185437
748.0,0.018202507985493555
747.0,0.018053701442860642
746.0,0.017726010289386036
745.0,0.017198997598276144
744.0,0.016494156919254783
743.0,0.015659486042059755
742.0,0.014759151645008893
741.0,0.013858175636020122
740.0,0.012999007434987777
739.0,0.012191808565049722
738.0,0.011427675504906799
737.0,0.010695400621440147
736.0,0.00998661075867985
735.0,0.009297544606544462
734.0,0.008635073674095696
733.0,0.008017673438462764
732.0,0.007464918397878165
731.0,0.006986205218470937
730.0,0.006580302851884377
729.0,0.006241466405227929
728.0,0.005961341524107304
727.0,0.005727167617252641
726.0,0.005523982389622283
725.0,0.0053407541542699515
724.0,0.005173336995738358
723.0,0.005021731291338997
722.0,0.004886233025636793
721.0,0.004766424632972275
720.0,0.0046630557577416794
719.0,0.004580794429543569
718.0,0.004528646864650606
717.0,0.004517441087205083
716.0,0.004558217540841441
715.0,0.004664063854410353
714.0,0.0048530840383740545
713.0,0.00514923377562719
712.0,0.005582633133228691
711.0,0.00619216852467483
710.0,0.007024854301806511
709.0,0.008124235674723755
708.0,0.00951454220974858
707.0,0.011199357298359629
706.0,0.013177039721703173
705.0,0.015447034599332058
704.0,0.017994757956854138
703.0,0.020785279501567798
702.0,0.02378447964256488
701.0,0.026969397761642908
700.0,0.030298066317120866
699.0,0.033673808720576355
698.0,0.03692580481733781
697.0,0.03976646523811333
696.0,0.04174562286292795
695.0,0.04233886445837714
694.0,0.04122480165455364
693.0,0.03854464354423126
692.0,0.03487554439316978
691.0,0.0309328632416032
690.0,0.02727067328851822
689.0,0.024169518684733108
688.0,0.021682340478592924
687.0,0.019734736446258772
686.0,0.018212856636926775
685.0,0.017010818698416575
684.0,0.016041699402758187
683.0,0.015238838954836426
682.0,0.014559000827348557
681.0,0.013976650250223599
680.0,0.013470438366485066
679.0,0.013020668988556468
678.0,0.012618023760745433
677.0,0.01226379675023556
676.0,0.011954721129736097
675.0,0.011676287152061739
674.0,0.011422940802872051
673.0,0.011205497701216387
672.0,0.011034504405923006
671.0,0.010894109196522846
670.0,0.0107458635442805
669.0,0.01052353532069464
668.0,0.010212430646805151
667.0,0.009936746802179675
666.0,0.009758714955109318
665.0,0.009619844608413364
664.0,0.009474055304498238
663.0,0.00930812864645046
662.0,0.00913434122747751
661.0,0.008970971857472518
660.0,0.00882074284621059
659.0,0.008675454372118141
658.0,0.008530192779053748
657.0,0.00838671368966261
656.0,0.008245291146892637
655.0,0.008103093819204358
654.0,0.007961980678326177
653.0,0.007829074511897911
652.0,0.0077116523202419174
651.0,0.007614166863413803
650.0,0.007534602494494433
649.0,0.007461129271386481
648.0,0.007378619754976319
647.0,0.007283253600044811
646.0,0.007186271505426292
645.0,0.00709903981056337
644.0,0.0070209335250554505
643.0,0.006946174129806602
642.0,0.006875150092759826
641.0,0.0068120836919322615
640.0,0.006756984012587324
639.0,0.006709318341371956
638.0,0.006675955245484965
637.0,0.006664231626226924
636.0,0.006666925621119028
635.0,0.006663385001042781
634.0,0.006640026400001426
633.0,0.00660203408201397
632.0,0.006561533624074026
631.0,0.006527143088688328
630.0,0.006506469755266562
629.0,0.006503383697895659
628.0,0.00650641300303989
627.0,0.006489738990147527
626.0,0.006437260505845223
625.0,0.006361038904008104
624.0,0.006287250730585661
623.0,0.0062331737981033315
622.0,0.006199692775340292
621.0,0.006172145938006503
620.0,0.006124515570015506
619.0,0.00603592951190075
618.0,0.005916141355158282
617.0,0.0058019407819996675
616.0,0.005718935726190883
615.0,0.005662534233459025
614.0,0.005615462705342666
613.0,0.0055666564388737825
612.0,0.005513427779726821
611.0,0.005461729826092588
610.0,0.005425579239070773
609.0,0.005413965630784048
608.0,0.005419236550468134
607.0,0.005427434408458352
606.0,0.005439314104463085
605.0,0.005467705537408573
604.0,0.005511988688836957
603.0,0.005552117416217072
602.0,0.0055727645581956815
601.0,0.005574707157701953
600.0,0.005557256624578183
599.0,0.005514471948224684
598.0,0.00545791553649823
597.0,0.005417447603343241
596.0,0.005405383646713883
595.0,0.00539600311796656
594.0,0.005355757285698109
593.0,0.005284465946552855
592.0,0.00521078416124803
591.0,0.0051574609996806325
590.0,0.00512305737080703
589.0,0.005091983927405514
588.0,0.0050506890191946725
587.0,0.004993310767553164
586.0,0.004922913263085106
585.0,0.004849085731697436
584.0,0.004782090238580634
583.0,0.004733103342425861
582.0,0.004710739087776521
581.0,0.004707527842870424
580.0,0.004698919642834955
579.0,0.004671983793750247
578.0,0.004649985041659548
577.0,0.004662975452365866
576.0,0.004697919296818
575.0,0.004703571448879562
574.0,0.004659168616020073
573.0,0.004605811946458376
572.0,0.004589270774382341
571.0,0.0046097219825921
570.0,0.00464042770632143
569.0,0.0046741119731848624
568.0,0.00472232863791639
567.0,0.004780795174535185
566.0,0.004833473631819252
565.0,0.004878618385251222
564.0,0.004915016561957963
563.0,0.004927357505279488
562.0,0.004917207668645877
561.0,0.004910252399944864
560.0,0.004909058897233944
559.0,0.004882813184530845
558.0,0.004825022389567516
557.0,0.004773784990801855
556.0,0.00474979784514341
555.0,0.004729607512363178
554.0,0.004705010551329799
553.0,0.00471041739079087
552.0,0.004759349505883897
551.0,0.004808018088361165
550.0,0.004820422025767173
