cm-1,A
4000.0,0.002820653713838356
3999.0,0.002823760065190608
3998.0,0.002824228179772647
3997.0,0.0028246991780587188
3996.0,0.002826828022078459
3995.0,0.0028295471768862773
3994.0,0.002830021760845191
3993.0,0.002826933964590263
3992.0,0.0028227023056249098
3991.0,0.0028217204607513926
3990.0,0.0028261226294092586
3989.0,0.002832896567792665
3988.0,0.002836187117827381
3987.0,0.0028324960962552836
3986.0,0.002823606140006695
3985.0,0.0028147181854273314
3984.0,0.0028094393600209345
3983.0,0.002807792128310383
3982.0,0.002808214851807627
3981.0,0.002810003326235151
3980.0,0.002813499703965025
3979.0,0.0028182958717240057
3978.0,0.002822766927696555
3977.0,0.002825547114905975
3976.0,0.0028264092477529174
3975.0,0.002825470421867285
3974.0,0.0028223818917271883
3973.0,0.002817188943709876
3972.0,0.002811723447664554
3971.0,0.0028090756182240946
3970.0,0.002810987922084905
3969.0,0.0028159501338439552
3968.0,0.0028204606214130012
3967.0,0.0028220177109209562
3966.0,0.0028211064348422094
3965.0,0.0028202630083171594
3964.0,0.0028216706426634946
3963.0,0.0028256825426297974
3962.0,0.0028305989728342907
3961.0,0.002833838436555455
3960.0,0.002833386585312468
3959.0,0.0028291336576185266
3958.0,0.0028232084604346763
3957.0,0.00281839815818741
3956.0,0.0028161377927489583
3955.0,0.0028154373508689316
3954.0,0.0028143282014554483
3953.0,0.0028121798779370136
3952.0,0.0028099772938510546
3951.0,0.0028092334136043473
3950.0,0.002810945516712793
3949.0,0.002815673287356631
3948.0,0.002823893839591087
3947.0,0.0028352068066702547
3946.0,0.0028473659850571575
3945.0,0.002856540105320768
3944.0,0.002859410115788959
3943.0,0.0028554417941355804
3942.0,0.002847482972021298
3941.0,0.0028394722065133524
3940.0,0.0028334498606487155
3939.0,0.002829082023809538
3938.0,0.0028254453144104285
3937.0,0.002822560718148491
3936.0,0.0028216481319463596
3935.0,0.0028243201739599965
3934.0,0.002831358512553797
3933.0,0.0028415023973252934
3932.0,0.002851614157851623
3931.0,0.0028598273251015938
3930.0,0.002866268277976463
3929.0,0.002870367073668418
3928.0,0.0028697255456610303
3927.0,0.0028628897598985403
3926.0,0.0028532740743753204
3925.0,0.0028476515722494784
3924.0,0.0028490886776506037
3923.0,0.0028530121202480505
3922.0,0.0028526241041286152
3921.0,0.002846527886906697
3920.0,0.0028398791078583447
3919.0,0.0028388526296019836
3918.0,0.0028437749952870076
3917.0,0.0028488584415618193
3916.0,0.002849091705522189
3915.0,0.0028437014988610633
3914.0,0.0028339541722296547
3913.0,0.00282164678133462
3912.0,0.002809843968028902
3911.0,0.002802980843374929
3910.0,0.0028040293924021156
3909.0,0.0028114585772668742
3908.0,0.0028205899490632647
3907.0,0.002826896845745214
3906.0,0.002829329959529541
3905.0,0.002830267772437495
3904.0,0.0028319295682931985
3903.0,0.002834096289016155
3902.0,0.0028350407880145204
3901.0,0.002834036917113843
3900.0,0.0028331833433591913
3899.0,0.0028364411718797113
3898.0,0.002845710817884232
3897.0,0.0028580871367153704
3896.0,0.0028671645575023717
3895.0,0.002867634482538916
3894.0,0.0028591205948158335
3893.0,0.002845893796948493
3892.0,0.002834294431143685
3891.0,0.002829438841735618
3890.0,0.0028327696302735943
3889.0,0.0028393337100363477
3888.0,0.002840507271675406
3887.0,0.0028335776205986657
3886.0,0.0028259958898163295
3885.0,0.0028271760071572867
3884.0,0.0028371255363389388
3883.0,0.0028450515114391353
3882.0,0.002840198154150395
3881.0,0.0028238682999410097
3880.0,0.0028085992664271652
3879.0,0.0028058728912940065
3878.0,0.002816233998932679
3877.0,0.0028306501010445916
3876.0,0.002841266887001712
3875.0,0.002848311601350406
3874.0,0.002855322459319907
3873.0,0.0028618759480270265
3872.0,0.0028635381840308137
3871.0,0.0028580032526796953
3870.0,0.0028502709550245362
3869.0,0.0028483804612602463
3868.0,0.002854015646019251
3867.0,0.0028599962420397477
3866.0,0.002859936963453452
3865.0,0.002856019794038999
3864.0,0.0028529070521222458
3863.0,0.00285014049888293
3862.0,0.0028454096688113
3861.0,0.0028399773619542327
3860.0,0.002837218852394397
3859.0,0.0028366133488254737
3858.0,0.0028322715667982697
3857.0,0.0028178942219551483
3856.0,0.0027944208048207523
3855.0,0.002775886581516746
3854.0,0.002782346284566844
3853.0,0.0028134399933273987
3852.0,0.002850556805412201
3851.0,0.0028768476699494354
3850.0,0.0028805160447540525
3849.0,0.0028643189010935915
3848.0,0.0028421263806285265
3847.0,0.0028258571882013575
3846.0,0.0028187978066736173
3845.0,0.0028182765781846475
3844.0,0.0028217936098097907
3843.0,0.002829555096459801
3842.0,0.002843898883544891
3841.0,0.0028659403674782613
3840.0,0.0028915004870120314
3839.0,0.002911159499375867
3838.0,0.002917412237367991
3837.0,0.002910897884960225
3836.0,0.002896606761598303
3835.0,0.0028770461970771474
3834.0,0.0028540185878841526
3833.0,0.0028323798629934973
3832.0,0.0028180248145209166
3831.0,0.002813222855167428
3830.0,0.0028152227961356583
3829.0,0.0028190255220338816
3828.0,0.002821940391104773
3827.0,0.0028261095028311095
3826.0,0.002834874605073461
3825.0,0.002847139818095243
3824.0,0.002857502363734568
3823.0,0.002862367513593967
3822.0,0.0028640465714289184
3821.0,0.002865483921397299
3820.0,0.002867807835370104
3819.0,0.0028699837826884067
3818.0,0.002866532447505784
3817.0,0.002856804566233654
3816.0,0.0028473997714485973
3815.0,0.002842541997582007
3814.0,0.0028401299667289766
3813.0,0.002834341339358608
3812.0,0.0028227473119224016
3811.0,0.00280941575307366
3810.0,0.002799688150090924
3809.0,0.002796294691015019
3808.0,0.002802245609181797
3807.0,0.0028211697951045127
3806.0,0.002851103894564044
3805.0,0.0028815537108267068
3804.0,0.0028988042932444596
3803.0,0.0028988067889367877
3802.0,0.002893575870622506
3801.0,0.002896802133894822
3800.0,0.002908145738683851
3799.0,0.0029136859918059413
3798.0,0.0029006802143628687
3797.0,0.0028724303358686996
3796.0,0.0028438481239365645
3795.0,0.002825184091618066
3794.0,0.002815474286983034
3793.0,0.0028094823711928597
3792.0,0.0028054816118625123
3791.0,0.002805710765015461
3790.0,0.002811033274124469
3789.0,0.0028184598239453006
3788.0,0.0028237201394357885
3787.0,0.002824813916306868
3786.0,0.002822901952773774
3785.0,0.0028212423136052362
3784.0,0.002822812340343787
3783.0,0.002828267137130573
3782.0,0.0028352992578241027
3781.0,0.0028400709950760763
3780.0,0.0028401111000479796
3779.0,0.0028368633691201253
3778.0,0.002834796931841654
3777.0,0.002835998624798229
3776.0,0.0028384398040483833
3775.0,0.0028406141091062292
3774.0,0.0028452019667195207
3773.0,0.0028556875639776345
3772.0,0.002871638576073729
3771.0,0.002887677455075905
3770.0,0.0028977111810476568
3769.0,0.0029004526330919534
3768.0,0.002899489924224196
3767.0,0.0028980600487159072
3766.0,0.002898892013777853
3765.0,0.0029048043356525157
3764.0,0.002915604139707242
3763.0,0.002927134483089425
3762.0,0.0029347306169177417
3761.0,0.0029379052738699504
3760.0,0.0029399885902799258
3759.0,0.00294361491102099
3758.0,0.0029498192232017767
3757.0,0.00295865447504605
3756.0,0.002968946786628011
3755.0,0.002979159832303395
3754.0,0.0029898337026624316
3753.0,0.003004785644709576
3752.0,0.0030268900155497862
3751.0,0.003051965757886489
3750.0,0.0030722499685510996
3749.0,0.0030836412422018573
3748.0,0.0030811762058887363
3747.0,0.0030579178376779932
3746.0,0.003019301533814963
3745.0,0.0029902222288719377
3744.0,0.0029916012610373332
3743.0,0.0030213971554689497
3742.0,0.003059926316944671
3741.0,0.0030860077526504636
3740.0,0.003098267427013664
3739.0,0.003112013311597362
3738.0,0.0031392211248675705
3737.0,0.0031758812092904706
3736.0,0.0032012708633182164
3735.0,0.0031957121758191074
3734.0,0.0031632426309446716
3733.0,0.0031250466990390344
3732.0,0.00309666296654457
3731.0,0.003081852477167521
3730.0,0.0030772697862584165
3729.0,0.00307801431412241
3728.0,0.003081836507066546
3727.0,0.0030903837746960724
3726.0,0.0031055336330049485
3725.0,0.003124531554389078
3724.0,0.0031410697675911745
3723.0,0.0031509719188894643
3722.0,0.0031560912370609652
3721.0,0.0031619353758904857
3720.0,0.00317340149013962
3719.0,0.003190843463502042
3718.0,0.003208455611023916
3717.0,0.0032204121153690413
3716.0,0.0032280547358526316
3715.0,0.0032468294757341375
3714.0,0.003298966071841869
3713.0,0.0033977130062054347
3712.0,0.0035272129300561858
3711.0,0.0036440133241610433
3710.0,0.0037223474039605707
3709.0,0.0037736437047414762
3708.0,0.003824853155118885
3707.0,0.0038910279284507998
3706.0,0.003975352893865282
3705.0,0.0040732143584346755
3704.0,0.004177221546215882
3703.0,0.0042832061816873036
3702.0,0.00438892946074633
3701.0,0.004492979240086288
3700.0,0.00459027164164825
3699.0,0.004673609425608629
3698.0,0.0047323008964676
3697.0,0.004760582570371379
3696.0,0.004759774484288208
3695.0,0.004739541974814707
3694.0,0.00470872313973021
3693.0,0.0046725013654416
3692.0,0.004632533563250055
3691.0,0.004587523466301197
3690.0,0.004536621636807026
3689.0,0.004483044271514641
3688.0,0.004440288397838982
3687.0,0.004415377961111347
3686.0,0.00440316844288595
3685.0,0.004393342486620168
3684.0,0.004384980165993338
3683.0,0.004385185011522487
3682.0,0.004399616712681355
3681.0,0.004428398815951162
3680.0,0.004465444498634361
3679.0,0.004505136270134146
3678.0,0.004543266294614747
3677.0,0.0045787493401291054
3676.0,0.004609243089139549
3675.0,0.004638046399323076
3674.0,0.004678116631842515
3673.0,0.0047334455295165315
3672.0,0.004792527009899278
3671.0,0.0048451692952672844
3670.0,0.004888044869624238
3669.0,0.004922565728959739
3668.0,0.004954687317777992
3667.0,0.0049877702341016425
3666.0,0.0050233607419584506
3665.0,0.005065548425379347
3664.0,0.005118813044966006
3663.0,0.005183298976201792
3662.0,0.005254584834655421
3661.0,0.00532567793957381
3660.0,0.0053906655082312975
3659.0,0.005448122432576601
3658.0,0.005504586184649891
3657.0,0.005571419153487176
3656.0,0.0056538445579605735
3655.0,0.005746237703087385
3654.0,0.005838556423413542
3653.0,0.005924344612917591
3652.0,0.006006834965762539
3651.0,0.006095529798764336
3650.0,0.006187497447085172
3649.0,0.006262539535216644
3648.0,0.006314352091730573
3647.0,0.006362606928931938
3646.0,0.00642638874998645
3645.0,0.0065075013039001366
3644.0,0.006595745132146334
3643.0,0.006681099612049829
3642.0,0.0067614418241574315
3641.0,0.006840608101539273
3640.0,0.006921855190241109
3639.0,0.00700594857979072
3638.0,0.0070952576383706435
3637.0,0.00719404924726273
3636.0,0.007304114261377342
3635.0,0.007422122540481441
3634.0,0.0075428468397051186
3633.0,0.007662495191132223
3632.0,0.007779001442759675
3631.0,0.007894646929936373
3630.0,0.008015039536075836
3629.0,0.008137672081320312
3628.0,0.008256354699708365
3627.0,0.008379648032567365
3626.0,0.00851485190507104
3625.0,0.00865836517780541
3624.0,0.008805696154318237
3623.0,0.008954143511075058
3622.0,0.00910143208037991
3621.0,0.00924163931624764
3620.0,0.009359709822974642
3619.0,0.009439121589554608
3618.0,0.00948667108727465
3617.0,0.009527983731618348
3616.0,0.009577780756177795
3615.0,0.00963496090638142
3614.0,0.00969623097724868
3613.0,0.00976511442752802
3612.0,0.009847263400216607
3611.0,0.009943708082451676
3610.0,0.010049145010634489
3609.0,0.010154162590603436
3608.0,0.010251721288257042
3607.0,0.010340686540059065
3606.0,0.010427191197841605
3605.0,0.01051871265193175
3604.0,0.010620476264435618
3603.0,0.010733616412781033
3602.0,0.010852081209208633
3601.0,0.010965958104071347
3600.0,0.01106714120256087
3599.0,0.011158448086360597
3598.0,0.011250750495067978
3597.0,0.011353206312471439
3596.0,0.011463433376935867
3595.0,0.011571377061633002
3594.0,0.011669841491586168
3593.0,0.011761569037375458
3592.0,0.011853905188735588
3591.0,0.011950924224058353
3590.0,0.012053517319828686
3589.0,0.01215709972917209
3588.0,0.012251992600028789
3587.0,0.012332920425677628
3586.0,0.012412451957691861
3585.0,0.012505915054010996
3584.0,0.012615726909741234
3583.0,0.012733862398036918
3582.0,0.012851318658423753
3581.0,0.012964048807914115
3580.0,0.01307123989811055
3579.0,0.01317521576288884
3578.0,0.013277578410980368
3577.0,0.013378465220846758
3576.0,0.013476475137377457
3575.0,0.01357291348212457
3574.0,0.013672691534137252
3573.0,0.013779825729392427
3572.0,0.013894432144287473
3571.0,0.014014142417674867
3570.0,0.014137167350854577
3569.0,0.014257614556866367
3568.0,0.01436069573326244
3567.0,0.014434848982047922
3566.0,0.01449367879628942
3565.0,0.014562646637636772
3564.0,0.014650620496296552
3563.0,0.014749690198069914
3562.0,0.014850973990030027
3561.0,0.014952074912062858
3560.0,0.015053464246179173
3559.0,0.01515361882851243
3558.0,0.015249567289865887
3557.0,0.015340149357340342
3556.0,0.015428137993149637
3555.0,0.015519064417956516
3554.0,0.015617039924830739
3553.0,0.015719738199524335
3552.0,0.015820553510907817
3551.0,0.01591764209483467
3550.0,0.016016788073351183
3549.0,0.016122789008180986
3548.0,0.01623162613435526
3547.0,0.016332965002021936
3546.0,0.016420317419259704
3545.0,0.01649583054642842
3544.0,0.016565351721594252
3543.0,0.01663360023771832
3542.0,0.01670517931646029
3541.0,0.016784789043938854
3540.0,0.01687394608213124
3539.0,0.01696921270121004
3538.0,0.017064234215610388
3537.0,0.017153464969481072
3536.0,0.017236347352043834
3535.0,0.017318747118581883
3534.0,0.017408216199615814
3533.0,0.01750671344389279
3532.0,0.01760867091768737
3531.0,0.017706704332741154
3530.0,0.017797767939630806
3529.0,0.017882666958192135
3528.0,0.017962579065797478
3527.0,0.01803907024378321
3526.0,0.018114951361772064
3525.0,0.01819118920977524
3524.0,0.018265026660835074
3523.0,0.018334959675957215
3522.0,0.018405087768616032
3521.0,0.01848034878287573
3520.0,0.018560216988375112
3519.0,0.018641212488720534
3518.0,0.018723501300061035
3517.0,0.01881048668725943
3516.0,0.01890230073234546
3515.0,0.018994162391892368
3514.0,0.019081304362297276
3513.0,0.019162364731211336
3512.0,0.019237556048959013
3511.0,0.01930706944958542
3510.0,0.019372830861302752
3509.0,0.01944000211749913
3508.0,0.01951495468635196
3507.0,0.019601620021690205
3506.0,0.019698478415721195
3505.0,0.01979731663796158
3504.0,0.019886395288412448
3503.0,0.01995951104990301
3502.0,0.02002232020335607
3501.0,0.020086497090972044
3500.0,0.020159688642968174
3499.0,0.020243123361063625
3498.0,0.020333535529465215
3497.0,0.020423764079669234
3496.0,0.02050542291392401
3495.0,0.020575673453856993
3494.0,0.02064075075732853
3493.0,0.020710510906865102
3492.0,0.020790977541691055
3491.0,0.02088276777819491
3490.0,0.020982000364039674
3489.0,0.021078835515894304
3488.0,0.021160281649564478
3487.0,0.021221630861144147
3486.0,0.021273257994702727
3485.0,0.021330829728497376
3484.0,0.021399794968941264
3483.0,0.021472885240243312
3482.0,0.021541795744053925
3481.0,0.021606585845510107
3480.0,0.021672450364977943
3479.0,0.021742114284959067
3478.0,0.021814017122253143
3477.0,0.02188544263947931
3476.0,0.021955600933004495
3475.0,0.022026447145276892
3474.0,0.022100580943689094
3473.0,0.022177715609897126
3472.0,0.02225435992062589
3471.0,0.022327727448179666
3470.0,0.022398200284674492
3469.0,0.022466787187964816
3468.0,0.022532780692800278
3467.0,0.022596411962404615
3466.0,0.02266136169582254
3465.0,0.022731034775827268
3464.0,0.022803739838011435
3463.0,0.022874801323485662
3462.0,0.022942626332587358
3461.0,0.023009681781564904
3460.0,0.023077861649075604
3459.0,0.023145923310126423
3458.0,0.02321163805622647
3457.0,0.023274577080365
3456.0,0.0233367806402956
3455.0,0.02340157960068732
3454.0,0.02347127862898652
3453.0,0.023545716134738583
3452.0,0.023624370661198074
3451.0,0.023709233240974868
3450.0,0.023801844004769233
3449.0,0.023896548030890485
3448.0,0.023981219611037052
3447.0,0.02404914704050545
3446.0,0.024106680714906684
3445.0,0.02416382629021813
3444.0,0.02422189314238295
3443.0,0.024275765414195228
3442.0,0.024323847629995017
3441.0,0.024370049701620967
3440.0,0.024417712037287643
3439.0,0.02446714160772693
3438.0,0.02451899956861544
3437.0,0.02457521185321376
3436.0,0.024635488378891877
3435.0,0.024695800829680835
3434.0,0.024750838494776564
3433.0,0.02479684885914802
3432.0,0.02483354242373835
3431.0,0.024865683894919402
3430.0,0.02490166823621508
3429.0,0.0249478041692582
3428.0,0.025004123420665634
3427.0,0.025066536602667763
3426.0,0.025130775257145452
3425.0,0.02519258664907251
3424.0,0.02524739891394887
3423.0,0.025293532633325927
3422.0,0.025334653984604442
3421.0,0.02537647524670018
3420.0,0.025422113693566974
3419.0,0.025472420043178314
3418.0,0.02552765853483845
3417.0,0.025585260176459505
3416.0,0.02563856352275697
3415.0,0.025682441164840475
3414.0,0.02571972115538085
3413.0,0.02575849230487793
3412.0,0.02580344928443883
3411.0,0.025852408283847522
3410.0,0.025899947739496325
3409.0,0.025941771439183522
3408.0,0.025976816448307138
3407.0,0.026008126521722436
3406.0,0.026041004362697365
3405.0,0.02607780648162227
3404.0,0.026115330628354295
3403.0,0.02614958152491393
3402.0,0.026181878343285957
3401.0,0.026217243451240515
3400.0,0.026257491868882297
3399.0,0.02629884241048768
3398.0,0.02633586615371506
3397.0,0.026365534317690037
3396.0,0.026388320762778653
3395.0,0.026407763261602744
3394.0,0.026428479902101225
3393.0,0.026452717016099157
3392.0,0.026479243290535106
3391.0,0.026506749387559835
3390.0,0.02653643328783759
3389.0,0.026569430657857544
3388.0,0.026603927742858243
3387.0,0.026637371151059536
3386.0,0.026670040705768155
3385.0,0.02670365075216252
3384.0,0.026737470766517082
3383.0,0.026768860429171683
3382.0,0.026797173829979787
3381.0,0.026824831536811096
3380.0,0.026854961932238644
3379.0,0.026889083284334644
3378.0,0.026925691421678596
3377.0,0.026959982332732904
3376.0,0.026987263901366906
3375.0,0.027008624990036492
3374.0,0.027030957697229123
3373.0,0.027059159085502108
3372.0,0.02709066059644447
3371.0,0.027120055715906484
3370.0,0.02714648419310754
3369.0,0.027172871146980374
3368.0,0.02719964942789014
3367.0,0.027223659890441152
3366.0,0.027242983323834218
3365.0,0.027259214006223505
3364.0,0.0272749796786256
3363.0,0.02729225124490693
3362.0,0.02731293482491576
3361.0,0.027338210435832292
3360.0,0.02736671989860466
3359.0,0.027395118636504838
3358.0,0.027420521193322302
3357.0,0.027441543732601537
3356.0,0.027458335072733528
3355.0,0.027473470700943182
3354.0,0.027491508438928256
3353.0,0.027515242573547184
3352.0,0.02754265084384305
3351.0,0.027568846577236836
3350.0,0.027590452850939536
3349.0,0.02760729315036958
3348.0,0.027621520749699518
3347.0,0.02763659049394839
3346.0,0.02765517631567814
3345.0,0.02767581421191603
3344.0,0.02769289143158067
3343.0,0.027701918858536494
3342.0,0.027703671450416637
3341.0,0.027701956066755767
3340.0,0.027699355183430623
3339.0,0.027696787053405284
3338.0,0.02769450346433147
3337.0,0.027690419483453806
3336.0,0.027679567194547956
3335.0,0.027658971688637516
3334.0,0.027632104672403488
3333.0,0.02760547517615667
3332.0,0.027581977750263453
3331.0,0.027560403343344718
3330.0,0.027539934826147677
3329.0,0.02752142456289987
3328.0,0.027504547762940007
3327.0,0.02748702670237171
3326.0,0.027467468428504904
3325.0,0.027446973017389298
3324.0,0.02742744590797906
3323.0,0.027409669120801592
3322.0,0.027392898245139016
3321.0,0.027375316769181948
3320.0,0.02735577866982221
3319.0,0.027336361776000392
3318.0,0.027321584060755272
3317.0,0.0273129446337855
3316.0,0.02730567771323251
3315.0,0.027293568749843955
3314.0,0.027276200378384557
3313.0,0.027259089051354494
3312.0,0.02724738265496167
3311.0,0.027241951421726685
3310.0,0.027241043494629517
3309.0,0.027242500217736748
3308.0,0.02724382686474455
3307.0,0.027242853877544878
3306.0,0.02723968082505589
3305.0,0.02723668044329177
3304.0,0.02723591266812441
3303.0,0.02723732176991381
3302.0,0.027239412742874163
3301.0,0.027240514858983
3300.0,0.027239209878411098
3299.0,0.027234527962210986
3298.0,0.0272261681963757
3297.0,0.02721447179051203
3296.0,0.0272006711524771
3295.0,0.027187290920431668
3294.0,0.02717704077340514
3293.0,0.027170294655490538
3292.0,0.02716436833980031
3291.0,0.027156113632393036
3290.0,0.02714458713333286
3289.0,0.027130873496130612
3288.0,0.027116724012266644
3287.0,0.02710411405590872
3286.0,0.027094523854803494
3285.0,0.02708734602025625
3284.0,0.027080051637096817
3283.0,0.027070881335881678
3282.0,0.027060236022168935
3281.0,0.02704881032365517
3280.0,0.02703629959845533
3279.0,0.027023167694123246
3278.0,0.027011574039745575
3277.0,0.027002464343473392
3276.0,0.026993141635069003
3275.0,0.026979824050811393
3274.0,0.026961712288865843
3273.0,0.02694093099184454
3272.0,0.026919741733742314
3271.0,0.02689962327047426
3270.0,0.0268816716352881
3269.0,0.02686548060067576
3268.0,0.026848113299993825
3267.0,0.026826042160068023
3266.0,0.026797949821336965
3265.0,0.026764787894800544
3264.0,0.026728358116572006
3263.0,0.02669131779392101
3262.0,0.026657065814066305
3261.0,0.026627131921296815
3260.0,0.02659908547745441
3259.0,0.026569022811476477
3258.0,0.026535922007735507
3257.0,0.026501894967679407
3256.0,0.026468575546797712
3255.0,0.026435134329170176
3254.0,0.026399865224538046
3253.0,0.026362133614063674
3252.0,0.02632265817363061
3251.0,0.026283407643880534
3250.0,0.026247555723975996
3249.0,0.026217999575295633
3248.0,0.026194527089322194
3247.0,0.02617236445593077
3246.0,0.026144336395037698
3245.0,0.026105977632572896
3244.0,0.026059874448018525
3243.0,0.026014651273818797
3242.0,0.0259783888506827
3241.0,0.025952586847643913
3240.0,0.0259326295314142
3239.0,0.025913180718800038
3238.0,0.025891558058540536
3237.0,0.025866438290272766
3236.0,0.02583633016125973
3235.0,0.02580088592139513
3234.0,0.025762048353567827
3233.0,0.025722490529060494
3232.0,0.025683977314070325
3231.0,0.02564788699888996
3230.0,0.025615624503290493
3229.0,0.025587351490412042
3228.0,0.02556158524576938
3227.0,0.02553691669283839
3226.0,0.025512678864437588
3225.0,0.02548724297783025
3224.0,0.025457757776897284
3223.0,0.02542306684540801
3222.0,0.025385297156948424
3221.0,0.02534719951774218
3220.0,0.025309545128417568
3219.0,0.02527254399743189
3218.0,0.02523766696269647
3217.0,0.025205533377788834
3216.0,0.02517324744348776
3215.0,0.0251364911135933
3214.0,0.025094210438165503
3213.0,0.025049493355956028
3212.0,0.02500610256779889
3211.0,0.024965891625991145
3210.0,0.024929260340059052
3209.0,0.024895987644745203
3208.0,0.024864825871562187
3207.0,0.024833131865033053
3206.0,0.024797546712883155
3205.0,0.024755458600747897
3204.0,0.02470681224515807
3203.0,0.024654966922390064
3202.0,0.02460476397456208
3201.0,0.024558810876068968
3200.0,0.024516005938780925
3199.0,0.02447381733893006
3198.0,0.024430870022180053
3197.0,0.02438663034075399
3196.0,0.024339753535739108
3195.0,0.024288166868460307
3194.0,0.024230906577835484
3193.0,0.02416980112952364
3192.0,0.024109626101041105
3191.0,0.024055697166998364
3190.0,0.02400937109708902
3189.0,0.023965649115186113
3188.0,0.023916928243828885
3187.0,0.023859847211005238
3186.0,0.023797375020265292
3185.0,0.023734329043317633
3184.0,0.02367301649039934
3183.0,0.023613667054173303
3182.0,0.023556317102756553
3181.0,0.02350048054922038
3180.0,0.023444887622192805
3179.0,0.023389244665507705
3178.0,0.023334718130053136
3177.0,0.023281261867580814
3176.0,0.02322615277896888
3175.0,0.023166822304352592
3174.0,0.023103618988172932
3173.0,0.02303816278791029
3172.0,0.022970738697654886
3171.0,0.022901682575918906
3170.0,0.022834150617194234
3169.0,0.022772656528575887
3168.0,0.022718692555498844
3167.0,0.022669463300114445
3166.0,0.02262064776636883
3165.0,0.022568954913160334
3164.0,0.022512727491936342
3163.0,0.022452226646007524
3162.0,0.02238972943418144
3161.0,0.022328026829915408
3160.0,0.022268340201730005
3159.0,0.02221021560561612
3158.0,0.02215312873104069
3157.0,0.02209732347782865
3156.0,0.022043309292780956
3155.0,0.021991152749634816
3154.0,0.02193984916703974
3153.0,0.021887114679243876
3152.0,0.02183091431498992
3151.0,0.021772027348789854
3150.0,0.021713971833958935
3149.0,0.021658943613871856
3148.0,0.02160459020679672
3147.0,0.021546510310229146
3146.0,0.021483739613385695
3145.0,0.021420386230353562
3144.0,0.021361569883495003
3143.0,0.021308226149533045
3142.0,0.0212557099164177
3141.0,0.02119719595725574
3140.0,0.021129370103335203
3139.0,0.02105607260601495
3138.0,0.020985887029150697
3137.0,0.02092470683518599
3136.0,0.020870409591235765
3135.0,0.02081529692330044
3134.0,0.020753511034169003
3133.0,0.020685719096133932
3132.0,0.020617047513999478
3131.0,0.02055153051466762
3130.0,0.020488863892970853
3129.0,0.020425437036304988
3128.0,0.020357660791834542
3127.0,0.020284848095506847
3126.0,0.02020994905697323
3125.0,0.020138072982692337
3124.0,0.020073701106696016
3123.0,0.02001762168633183
3122.0,0.019965627643390035
3121.0,0.0199113297865791
3120.0,0.019851567943052272
3119.0,0.019788481545104507
3118.0,0.019725465308605493
3117.0,0.0196625092118071
3116.0,0.019597588830533443
3115.0,0.019531806407969463
3114.0,0.019469994625874204
3113.0,0.0194153580427366
3112.0,0.019366153388545387
3111.0,0.01931861340914797
3110.0,0.019270636814803562
3109.0,0.0192213113272551
3108.0,0.01916882308630881
3107.0,0.019111264223131218
3106.0,0.01904909304122425
3105.0,0.018985256295609595
3104.0,0.01892297750466026
3103.0,0.018863638993978867
3102.0,0.01880595241762712
3101.0,0.018747010069607085
3100.0,0.018685480314025726
3099.0,0.01862410048540901
3098.0,0.018567119984973214
3097.0,0.018514814192168688
3096.0,0.018462426398151207
3095.0,0.018405618597074902
3094.0,0.018345528103672407
3093.0,0.018286755534257033
3092.0,0.01823200074055932
3091.0,0.018180582842272322
3090.0,0.018130876297939687
3089.0,0.018082326720378007
3088.0,0.01803539639599869
3087.0,0.017990665000667448
3086.0,0.017947500415934816
3085.0,0.0179029074692132
3084.0,0.017852876740123466
3083.0,0.01779606126766214
3082.0,0.017735404395840763
3081.0,0.01767474981498678
3080.0,0.01761462019210057
3079.0,0.017552917725008207
3078.0,0.01748903872291711
3077.0,0.017425578853422174
3076.0,0.01736574130825856
3075.0,0.0173099605411525
3074.0,0.0172554836241159
3073.0,0.0171993771443945
3072.0,0.017142308018860766
3071.0,0.017089063860492595
3070.0,0.01704392647527405
3069.0,0.017005233739096997
3068.0,0.01696644113428715
3067.0,0.016923010205630935
3066.0,0.016876566679626132
3065.0,0.016831359301036106
3064.0,0.0167884169960354
3063.0,0.016745120219856628
3062.0,0.016698586651690127
3061.0,0.016647368580970455
3060.0,0.0165911496978435
3059.0,0.01653096998274874
3058.0,0.01646928981731997
3057.0,0.016408038290163664
3056.0,0.01634696465524941
3055.0,0.01628507683251542
3054.0,0.01622316781981882
3053.0,0.016163370850504
3052.0,0.016106730859289316
3051.0,0.016052445487627347
3050.0,0.01599891899062631
3049.0,0.01594462675378212
3048.0,0.015888685408413112
3047.0,0.015831753999273192
3046.0,0.015775706810658704
3045.0,0.01572150416557502
3044.0,0.015668246102158473
3043.0,0.015615556821913658
3042.0,0.015565458320457554
3041.0,0.015520061928785165
3040.0,0.01547810000395701
3039.0,0.01543584047158253
3038.0,0.015391553920437149
3037.0,0.015347502820466822
3036.0,0.015307771711755885
3035.0,0.015275368824506887
3034.0,0.01525102850989582
3033.0,0.015232958757435171
3032.0,0.015217229182019527
3031.0,0.015199705858510253
3030.0,0.015178560876598034
3029.0,0.015154513594783672
3028.0,0.0151288241786489
3027.0,0.015101558330735568
3026.0,0.015071025640346639
3025.0,0.01503393819725165
3024.0,0.014986800903258234
3023.0,0.014929015632851393
3022.0,0.014865397941237264
3021.0,0.014804752667708958
3020.0,0.014754561160427842
3019.0,0.014716399937883083
3018.0,0.014685713361814495
3017.0,0.014656007406841006
3016.0,0.014624105574525368
3015.0,0.014591920424496686
3014.0,0.014563882460030033
3013.0,0.014542996450288061
3012.0,0.01452955747435958
3011.0,0.014522088368775372
3010.0,0.014517800621457185
3009.0,0.01451331189048434
3008.0,0.014507676099553784
3007.0,0.014504975043840268
3006.0,0.014511591783766478
3005.0,0.014529754304941923
3004.0,0.01455541956267875
3003.0,0.014583296512018815
3002.0,0.01461168629177423
3001.0,0.014642021933996788
3000.0,0.014676513864549587
2999.0,0.014718320921334543
2998.0,0.01477151882605621
2997.0,0.014838139118367712
2996.0,0.014916568635372319
2995.0,0.015004949197126093
2994.0,0.015105208195695684
2993.0,0.015221989050727962
2992.0,0.01535867079766079
2991.0,0.015516935351282308
2990.0,0.015699479138609338
2989.0,0.01591062194890299
2988.0,0.01615393997626254
2987.0,0.016431167794618562
2986.0,0.016744103039356348
2985.0,0.01709697963714971
2984.0,0.017497230735441245
2983.0,0.017954743458462024
2982.0,0.01847975091365326
2981.0,0.019081116708619675
2980.0,0.019768126278082217
2979.0,0.020554899289003503
2978.0,0.021461720572595683
2977.0,0.022511359579021555
2976.0,0.023725741939876026
2975.0,0.02512636844503268
2974.0,0.026736590810730085
2973.0,0.028581331975317748
2972.0,0.030682677883406277
2971.0,0.03305446263650811
2970.0,0.03569898469746139
2969.0,0.038607797631986324
2968.0,0.04176525786959949
2967.0,0.04514628431731401
2966.0,0.04870161980052659
2965.0,0.05233302648497245
2964.0,0.05588119075604126
2963.0,0.0591405832207351
2962.0,0.06190067917252759
2961.0,0.06401492268985605
2960.0,0.06546440877316896
2959.0,0.06638052112737
2958.0,0.06701135435768182
2957.0,0.06765220264153413
2956.0,0.06856698494363435
2955.0,0.06990929814629633
2954.0,0.0716608983146583
2953.0,0.07360957797254877
2952.0,0.07537954126097163
2951.0,0.07652449496355088
2950.0,0.07664688920168299
2949.0,0.07550619578135377
2948.0,0.07309218330215989
2947.0,0.06962095794377976
2946.0,0.06547366453993403
2945.0,0.06109952630491724
2944.0,0.05692429511368101
2943.0,0.053280605498245974
2942.0,0.05037154985548105
2941.0,0.04828043800763294
2940.0,0.046998932111205476
2939.0,0.04646854197530775
2938.0,0.04661515904891987
2937.0,0.047366864862670964
2936.0,0.04866547770522121
2935.0,0.05046650506558203
2934.0,0.05272984891657154
2933.0,0.055412184917236235
2932.0,0.05846371507935879
2931.0,0.061822995630078134
2930.0,0.0654075807198994
2929.0,0.06911297432303154
2928.0,0.07283251489983948
2927.0,0.07648639153570784
2926.0,0.08003565357178774
2925.0,0.08348217830220363
2924.0,0.08685874246277822
2923.0,0.09019732861635198
2922.0,0.09347640197760852
2921.0,0.09656977531339628
2920.0,0.09923516360163194
2919.0,0.10114618270211889
2918.0,0.10197783130686225
2917.0,0.1015249750611227
2916.0,0.09980749942161889
2915.0,0.0970853643661771
2914.0,0.09376222901371618
2913.0,0.09026058050428976
2912.0,0.08691599879325593
2911.0,0.0839227869096668
2910.0,0.08133176241073325
2909.0,0.07908606347101471
2908.0,0.07707099848471245
2907.0,0.07515957545862582
2906.0,0.07324703958640365
2905.0,0.07127117418808063
2904.0,0.06921756555821676
2903.0,0.0671026105725018
2902.0,0.06495417753413706
2901.0,0.06280291377605902
2900.0,0.06068331943319022
2899.0,0.058632984318623765
2898.0,0.05668599915144888
2897.0,0.054871258838207065
2896.0,0.05321474019066295
2895.0,0.051739969162379114
2894.0,0.05046403141792027
2893.0,0.049393725554188674
2892.0,0.04852468944322478
2891.0,0.04784269156116675
2890.0,0.047327465175421364
2889.0,0.046957040758699414
2888.0,0.04671203427767333
2887.0,0.046578997888561575
2886.0,0.04655281962128062
2885.0,0.046637961219118486
2884.0,0.046843680804665375
2883.0,0.04717209716644426
2882.0,0.04760383641859784
2881.0,0.04808788124417596
2880.0,0.04854250701930214
2879.0,0.04886808877491152
2878.0,0.04897923032236273
2877.0,0.048846953137110245
2876.0,0.04852813331581982
2875.0,0.04815300720176961
2874.0,0.04787463530760366
2873.0,0.047813784244914705
2872.0,0.04802313777459892
2871.0,0.048478618026852986
2870.0,0.049087053169392485
2869.0,0.04969232577519061
2868.0,0.05008611851833633
2867.0,0.05003631850539122
2866.0,0.049345869728893044
2865.0,0.047935548079793895
2864.0,0.04589990256787017
2863.0,0.04349072811400513
2862.0,0.041032604195064375
2861.0,0.038825063496741946
2860.0,0.03707464884814411
2859.0,0.03587478385960566
2858.0,0.03522942285252895
2857.0,0.03509278784637927
2856.0,0.03540391776599331
2855.0,0.036095528587092994
2854.0,0.03707937775370312
2853.0,0.038226139677972205
2852.0,0.03935943703817742
2851.0,0.040287545159348556
2850.0,0.040870729696800584
2849.0,0.041103222909294475
2848.0,0.04114003752563248
2847.0,0.04123827922210015
2846.0,0.04163785421035774
2845.0,0.042472125979321824
2844.0,0.043745032002306554
2843.0,0.045350344148492754
2842.0,0.04710393749223091
2841.0,0.048768867987715646
2840.0,0.05008534891288206
2839.0,0.050803617089717916
2838.0,0.050719665991640024
2837.0,0.049715661751316864
2836.0,0.04780216714485346
2835.0,0.04513380259295635
2834.0,0.041980439365075894
2833.0,0.03865925398169133
2832.0,0.035453021834195415
2831.0,0.03255443964598329
2830.0,0.03005082269508003
2829.0,0.027945242313284758
2828.0,0.02619430264933307
2827.0,0.024737617676599172
2826.0,0.023517283327202806
2825.0,0.022484021313743163
2824.0,0.02159743887305661
2823.0,0.020825814095193657
2822.0,0.020145576738669402
2821.0,0.019539553199429006
2820.0,0.018994962675689522
2819.0,0.018503045973495176
2818.0,0.01805949518246904
2817.0,0.017662102528907223
2816.0,0.017306614927802652
2815.0,0.01698527221217819
2814.0,0.016689361740655863
2813.0,0.016412265815048573
2812.0,0.016149385601278748
2811.0,0.015895804625031228
2810.0,0.015645025424055988
2809.0,0.015390254127591558
2808.0,0.015127112444430026
2807.0,0.014855395578193433
2806.0,0.01457828499848105
2805.0,0.014300141421329361
2804.0,0.014025676723578092
2803.0,0.013760676500276832
2802.0,0.013511874706820814
2801.0,0.013284717653015405
2800.0,0.013081809112159564
2799.0,0.012903453184606133
2798.0,0.012748012551141505
2797.0,0.012610470892053431
2796.0,0.012481670642829892
2795.0,0.01235129099716348
2794.0,0.012211779969552156
2793.0,0.012059962738228154
2792.0,0.011896507293787119
2791.0,0.01172507181786903
2790.0,0.011550868304340713
2789.0,0.01137795621763886
2788.0,0.011208123005770329
2787.0,0.011042668726057926
2786.0,0.010883870740914592
2785.0,0.010733578834292474
2784.0,0.010591624330706439
2783.0,0.010457098908828545
2782.0,0.010330001583699922
2781.0,0.0102102446577289
2780.0,0.010096350957071015
2779.0,0.009986926680739581
2778.0,0.009882489827243249
2777.0,0.009784162001479933
2776.0,0.009691768848950275
2775.0,0.009604995797297358
2774.0,0.009525156302549026
2773.0,0.009453565987431165
2772.0,0.009388626343384335
2771.0,0.009326521884060177
2770.0,0.009264466164239657
2769.0,0.009201761401656483
2768.0,0.009138759584257321
2767.0,0.009076660981788102
2766.0,0.009017556674815326
2765.0,0.008962585646595356
2764.0,0.008910060005648297
2763.0,0.008856757421797567
2762.0,0.008800932834078816
2761.0,0.008743323115382055
2760.0,0.008686368047433212
2759.0,0.008633522141504679
2758.0,0.00858767698845078
2757.0,0.008548250981919036
2756.0,0.008510919670324479
2755.0,0.008471872951714738
2754.0,0.00843119533034148
2753.0,0.008390848978774774
2752.0,0.008351366561373044
2751.0,0.008312532705946988
2750.0,0.008275740478374857
2749.0,0.00824334223124893
2748.0,0.008216873230452854
2747.0,0.008197817230460756
2746.0,0.008187992254366035
2745.0,0.008186459771200407
2744.0,0.008187969117829633
2743.0,0.00818793463691632
2742.0,0.008187960717691463
2741.0,0.008193366501989936
2740.0,0.008206129703787583
2739.0,0.008223389538381374
2738.0,0.008242015107571745
2737.0,0.008261242372955526
2736.0,0.008280870445057395
2735.0,0.008300305173248616
2734.0,0.00832018927641232
2733.0,0.008342731577036605
2732.0,0.008370162945643944
2731.0,0.008404776035145523
2730.0,0.008449986649379503
2729.0,0.008508503154792353
2728.0,0.00857895584255439
2727.0,0.008655435674382097
2726.0,0.008729440128619908
2725.0,0.008790473437955816
2724.0,0.008826137870973309
2723.0,0.008825669241526531
2722.0,0.0087854578525156
2721.0,0.008710474591475018
2720.0,0.008610505384780337
2719.0,0.008496082672922057
2718.0,0.008376398607733893
2717.0,0.008257550985343831
2716.0,0.008142162232670122
2715.0,0.008031544324804272
2714.0,0.007927712890258409
2713.0,0.007832296058010049
2712.0,0.0077447888154635255
2711.0,0.007664110551402077
2710.0,0.0075905526001025184
2709.0,0.007523607492128614
2708.0,0.007459447295437386
2707.0,0.0073941691029074125
2706.0,0.007328737994150913
2705.0,0.007267229334888327
2704.0,0.0072105318994685145
2703.0,0.007155604391719365
2702.0,0.007101212392028081
2701.0,0.007050511641611994
2700.0,0.0070068165030718
2699.0,0.006969902238956426
2698.0,0.006937954348847817
2697.0,0.006910529095377569
2696.0,0.006887838053535243
2695.0,0.00686892325538087
2694.0,0.006851969683362772
2693.0,0.0068354134204942265
2692.0,0.006818182931525284
2691.0,0.0068001006877808625
2690.0,0.006782297635348002
2689.0,0.006765849369601186
2688.0,0.006749798028572051
2687.0,0.006731884086234296
2686.0,0.006711333381041
2685.0,0.006689690708225474
2684.0,0.006669169389891771
2683.0,0.006651562479386526
2682.0,0.006638318585368285
2681.0,0.006629598550839926
2680.0,0.006622877681048
2679.0,0.006614015139667174
2678.0,0.006600077008858485
2677.0,0.006580622858497236
2676.0,0.0065570529241770915
2675.0,0.00653183060288545
2674.0,0.006507445403127875
2673.0,0.00648429400817132
2672.0,0.006460314400202844
2671.0,0.006434413966885057
2670.0,0.006409536998170826
2669.0,0.006390566895440755
2668.0,0.006379583275257074
2667.0,0.00637490920548737
2666.0,0.006373956840623736
2665.0,0.006375019172869349
2664.0,0.006376998478815794
2663.0,0.006379439535115295
2662.0,0.00638255923748378
2661.0,0.006385533097780704
2660.0,0.00638539080933654
2659.0,0.006379288810310588
2658.0,0.006367184014040586
2657.0,0.006350589627306019
2656.0,0.006329860567467935
2655.0,0.006304943748047969
2654.0,0.006277645390825442
2653.0,0.006250556892718251
2652.0,0.0062242376051219826
2651.0,0.006197905289404633
2650.0,0.006172356015323679
2649.0,0.006149712558511982
2648.0,0.0061305846823446735
2647.0,0.00611348406665473
2646.0,0.006096445085798236
2645.0,0.006077594164536653
2644.0,0.006055590165673191
2643.0,0.006031604329155012
2642.0,0.006009043931310063
2641.0,0.005988692414036267
2640.0,0.005966384789618924
2639.0,0.00593927597534608
2638.0,0.00591228745403642
2637.0,0.005893669055545292
2636.0,0.005885315532203836
2635.0,0.005881993343972807
2634.0,0.005879387199924835
2633.0,0.005877538042510574
2632.0,0.0058764461701491955
2631.0,0.005873935669879993
2630.0,0.00586922604842843
2629.0,0.005864326366814627
2628.0,0.005860336497081546
2627.0,0.005856068760985388
2626.0,0.005851404219448009
2625.0,0.005848381902665768
2624.0,0.005847660516491234
2623.0,0.0058472354103090655
2622.0,0.00584596846415913
2621.0,0.005845478193179225
2620.0,0.005847341132551927
2619.0,0.005850652943358673
2618.0,0.005852784157440449
2617.0,0.005850291211611154
2616.0,0.005839706846271404
2615.0,0.005820731768934677
2614.0,0.005798403685349162
2613.0,0.005778338416325366
2612.0,0.005759545420257946
2611.0,0.005735693273590185
2610.0,0.005703761444774382
2609.0,0.005667777112818103
2608.0,0.0056334329332520345
2607.0,0.005602593283584092
2606.0,0.005573946265966723
2605.0,0.005545419165387453
2604.0,0.005515141976714757
2603.0,0.005483393236418165
2602.0,0.0054543914669099025
2601.0,0.005433156176531974
2600.0,0.005419894344396839
2599.0,0.005410404339666804
2598.0,0.00540209614290413
2597.0,0.005396281033429875
2596.0,0.00539453171076876
2595.0,0.005396421618347389
2594.0,0.0054013967749034315
2593.0,0.005409405467328938
2592.0,0.0054190940267874336
2591.0,0.005428687041740977
2590.0,0.005439234348759663
2589.0,0.005454056802873141
2588.0,0.005474504684105208
2587.0,0.005498646422397952
2586.0,0.0055236722451904785
2585.0,0.005546815446734961
2584.0,0.005564642962475258
2583.0,0.005574645979975978
2582.0,0.005576904432950038
2581.0,0.00557121612907349
2580.0,0.005554250612083832
2579.0,0.0055236052606028275
2578.0,0.005483392686555015
2577.0,0.005441276593410454
2576.0,0.005400658203532508
2575.0,0.005360293451150936
2574.0,0.005320565437466147
2573.0,0.005284382821212902
2572.0,0.005251782695041883
2571.0,0.00521938880548966
2570.0,0.005186345993038084
2569.0,0.005155883734208432
2568.0,0.0051297651628185075
2567.0,0.005105519667518071
2566.0,0.00508041665964329
2565.0,0.005054449062539625
2564.0,0.00502854209539163
2563.0,0.005003593716828723
2562.0,0.0049820034000025775
2561.0,0.0049663491953898745
2560.0,0.004955759176501562
2559.0,0.004946699869946245
2558.0,0.00493719303250481
2557.0,0.004926894323769015
2556.0,0.004914092481450697
2555.0,0.0048974820838453255
2554.0,0.004880714780219053
2553.0,0.004869708659964722
2552.0,0.004864284487531305
2551.0,0.004857024695032982
2550.0,0.004841617373751894
2549.0,0.0048187031075228775
2548.0,0.004792885672520992
2547.0,0.004767946654968006
2546.0,0.004746075752785541
2545.0,0.004728021447858391
2544.0,0.0047123576232387
2543.0,0.004697036460545373
2542.0,0.0046821305462574755
2541.0,0.004668781445594574
2540.0,0.004656258597509305
2539.0,0.0046433831144047175
2538.0,0.004631996178030401
2537.0,0.00462505308345137
2536.0,0.004621621274949236
2535.0,0.004617493678427986
2534.0,0.00461048832606876
2533.0,0.004601672530835667
2532.0,0.004592108620515867
2531.0,0.004582336919470541
2530.0,0.004574194557492555
2529.0,0.00456856324648619
2528.0,0.004561602148609648
2527.0,0.004547842021620114
2526.0,0.004527540017401096
2525.0,0.0045071616815754185
2524.0,0.004492219230441845
2523.0,0.004482890704658465
2522.0,0.004476227810024803
2521.0,0.004468841341566408
2520.0,0.004457709086675164
2519.0,0.004442188890199906
2518.0,0.004425446014464599
2517.0,0.004411095623297583
2516.0,0.004399097872322961
2515.0,0.004387582922201709
2514.0,0.0043767633595819255
2513.0,0.0043673337832896625
2512.0,0.004357138488720057
2511.0,0.004343978846751752
2510.0,0.004330047931139322
2509.0,0.004318823466592071
2508.0,0.004309000631986183
2507.0,0.004296638758675125
2506.0,0.0042823381530020695
2505.0,0.004271014202415702
2504.0,0.004264952232194132
2503.0,0.004261856581766474
2502.0,0.004259224793054736
2501.0,0.0042560192502554
2500.0,0.004250848935464804
2499.0,0.004243300232202694
2498.0,0.004236377328364126
2497.0,0.0042328423481664814
2496.0,0.0042299057113040755
2495.0,0.004222465387395759
2494.0,0.004210780308497159
2493.0,0.004199774057587053
2492.0,0.004191346308555893
2491.0,0.0041829273475436106
2490.0,0.004173558311729103
2489.0,0.004165815413990788
2488.0,0.004161014524633339
2487.0,0.0041572532304414945
2486.0,0.004152876486962436
2485.0,0.004147902754558673
2484.0,0.00414203776687264
2483.0,0.004135203899518453
2482.0,0.004129508829922465
2481.0,0.004126426164488212
2480.0,0.004122668706333708
2479.0,0.004113604511163399
2478.0,0.004100574903898042
2477.0,0.004090111827053298
2476.0,0.004085585614460607
2475.0,0.004083736496100362
2474.0,0.0040795945435168875
2473.0,0.004071055259254403
2472.0,0.004058973699147472
2471.0,0.004046687364245861
2470.0,0.004039039353277802
2469.0,0.004037906969744559
2468.0,0.0040389899128993375
2467.0,0.004036601958939885
2466.0,0.004030909212940566
2465.0,0.004026907436066317
2464.0,0.004027424475419132
2463.0,0.0040309606970552496
2462.0,0.004035150443594209
2461.0,0.00403826644435996
2460.0,0.004038543274469539
2459.0,0.004036133289347422
2458.0,0.0040345836317385
2457.0,0.00403663839527424
2456.0,0.004040249857986768
2455.0,0.004042517261517142
2454.0,0.004045072927456522
2453.0,0.004050755441229856
2452.0,0.00405722209776102
2451.0,0.004059283408814148
2450.0,0.0040558961851744155
2449.0,0.004049670338723813
2448.0,0.004041418346358068
2447.0,0.004030848050750469
2446.0,0.004020807894744375
2445.0,0.0040147250259378285
2444.0,0.004011161634194055
2443.0,0.004006795831341083
2442.0,0.004003280381743558
2441.0,0.004004861778214117
2440.0,0.00401051789787688
2439.0,0.004015134845969682
2438.0,0.004017624147637888
2437.0,0.004021045498213962
2436.0,0.004025105351001022
2435.0,0.00402560243745957
2434.0,0.004021858586591565
2433.0,0.00401819782123883
2432.0,0.0040169586526853955
2431.0,0.0040157676714775
2430.0,0.004012827470984883
2429.0,0.004009595454213783
2428.0,0.004007094786451706
2427.0,0.0040042734055685085
2426.0,0.004000866293441333
2425.0,0.0039976045289286544
2424.0,0.003993160680030191
2423.0,0.003985097373343851
2422.0,0.003974100670716499
2421.0,0.003963324655051817
2420.0,0.003953785920886404
2419.0,0.003944391241770558
2418.0,0.003935720469814865
2417.0,0.003929301114905274
2416.0,0.003923861157331318
2415.0,0.003916973741902319
2414.0,0.0039100097429282605
2413.0,0.00390692461317895
2412.0,0.0039082836241971786
2411.0,0.0039104295179307295
2410.0,0.003909891972163026
2409.0,0.0039047815373094786
2408.0,0.0038934002848061925
2407.0,0.0038765107391925168
2406.0,0.003859987398328056
2405.0,0.0038499674731975663
2404.0,0.0038458565031251153
2403.0,0.0038426636005985037
2402.0,0.003839065402283801
2401.0,0.003838084212069784
2400.0,0.0038405552625544433
2399.0,0.0038431977793764796
2398.0,0.0038431701587070093
2397.0,0.003840093291323612
2396.0,0.0038336510978666727
2395.0,0.0038238120900927547
2394.0,0.0038132960525848955
2393.0,0.0038052075021273715
2392.0,0.0037988781434787518
2391.0,0.0037917237678662735
2390.0,0.003784434837614107
2389.0,0.0037804570212409657
2388.0,0.003780836877405938
2387.0,0.003783879602773918
2386.0,0.003789225286680154
2385.0,0.003797716016597553
2384.0,0.0038072068525774987
2383.0,0.0038127285597774887
2382.0,0.0038105059136021007
2381.0,0.0037984907219236717
2380.0,0.0037743457639939663
2379.0,0.0037376506553949097
2378.0,0.0036974084595722953
2377.0,0.0036680019395886297
2376.0,0.003656330330510431
2375.0,0.003660944771228067
2374.0,0.0036780946159154764
2373.0,0.003705188610705107
2372.0,0.0037318845251040345
2371.0,0.003740440283946124
2370.0,0.0037275851957795795
2369.0,0.0037089700823424434
2368.0,0.0036920717249350294
2367.0,0.003668173393802726
2366.0,0.0036446484737693696
2365.0,0.0036419830043050152
2364.0,0.0036357913516747963
2363.0,0.003596599451966856
2362.0,0.00354979762444752
2361.0,0.0035165049388806917
2360.0,0.003508217563273348
2359.0,0.003505798613589936
2358.0,0.0034884927732664155
2357.0,0.0034840409927101405
2356.0,0.003483873356654716
2355.0,0.0034897828820862737
2354.0,0.0035023691952926817
2353.0,0.0034916724447371286
2352.0,0.0033746070251869293
2351.0,0.00306402668686318
2350.0,0.0027053272202685968
2349.0,0.002546270702586915
2348.0,0.002737817318286643
2347.0,0.003192548483961892
2346.0,0.0036145267222020315
2345.0,0.0038120891757690255
2344.0,0.0037657388909207177
2343.0,0.003642032959110644
2342.0,0.0035513468607747917
2341.0,0.003479332724225386
2340.0,0.003432606383197885
2339.0,0.0034049639647940923
2338.0,0.0034120275742388568
2337.0,0.0034374637534908678
2336.0,0.0034649180269143306
2335.0,0.0034831941128016268
2334.0,0.0035021675044940833
2333.0,0.003531043475054811
2332.0,0.0035786470633107064
2331.0,0.003607446964574112
2330.0,0.003636038829922573
2329.0,0.0036599703918058146
2328.0,0.0036860396694982514
2327.0,0.0037527977756283545
2326.0,0.003857146843234038
2325.0,0.00401347232612968
2324.0,0.004126304111776508
2323.0,0.004156677816229761
2322.0,0.004107661134223322
2321.0,0.004036482950989248
2320.0,0.003989332199354853
2319.0,0.003951601167788102
2318.0,0.003928829230539211
2317.0,0.003914776050205872
2316.0,0.0039234458441220815
2315.0,0.003937155475032278
2314.0,0.003949466003196119
2313.0,0.003956550399399261
2312.0,0.003961882151758189
2311.0,0.003968208343668929
2310.0,0.00397272351456559
2309.0,0.003982297978640682
2308.0,0.003987609721321845
2307.0,0.003988518314675867
2306.0,0.003979295193433396
2305.0,0.003972520929440819
2304.0,0.003967926199397619
2303.0,0.003965303248093465
2302.0,0.0039616300516258016
2301.0,0.0039590542535872415
2300.0,0.003958405953505448
2299.0,0.003960414861865367
2298.0,0.0039653177923989575
2297.0,0.003974162596940251
2296.0,0.003980305855307847
2295.0,0.003982856664167698
2294.0,0.003981900747668767
2293.0,0.003987021807716237
2292.0,0.003994149751488202
2291.0,0.004001906380238043
2290.0,0.004008645759561611
2289.0,0.004021464627820717
2288.0,0.004036449114671823
2287.0,0.004045155424221843
2286.0,0.004041153628568055
2285.0,0.004027865962666868
2284.0,0.0040106883012209155
2283.0,0.00399460837104771
2282.0,0.003985073854950961
2281.0,0.003983274368170568
2280.0,0.003983260201745536
2279.0,0.003977786063157371
2278.0,0.003970325125888387
2277.0,0.0039668788681495
2276.0,0.003967019106690349
2275.0,0.003963403109481052
2274.0,0.0039566039541047236
2273.0,0.003952671310810212
2272.0,0.0039514814222120975
2271.0,0.003948965266341704
2270.0,0.0039473793884492745
2269.0,0.003953191313384654
2268.0,0.003961832822654364
2267.0,0.003960827471676958
2266.0,0.0039483694298382225
2265.0,0.003934899101331027
2264.0,0.003926864607906938
2263.0,0.0039220616733111205
2262.0,0.003920107993909778
2261.0,0.003927596605540907
2260.0,0.003942959778402814
2259.0,0.0039555322929729995
2258.0,0.003958319433788883
2257.0,0.003953252601876131
2256.0,0.003942982431872947
2255.0,0.003925839397269317
2254.0,0.003906423482385884
2253.0,0.0038936234456854657
2252.0,0.003890244050725837
2251.0,0.003889341978901318
2250.0,0.00388598329743281
2249.0,0.0038820301251765556
2248.0,0.0038787153882618016
2247.0,0.003875139119778507
2246.0,0.0038724875740891555
2245.0,0.003872913799128565
2244.0,0.0038729477779430657
2243.0,0.003868702199280168
2242.0,0.003863632662086579
2241.0,0.0038631630869732907
2240.0,0.00386440189417862
2239.0,0.0038625029538926665
2238.0,0.003861423026234591
2237.0,0.0038666206931248963
2236.0,0.003872444612865393
2235.0,0.0038707998723118984
2234.0,0.0038669568939391323
2233.0,0.003871456430199681
2232.0,0.0038817072451741604
2231.0,0.0038880452180346803
2230.0,0.0038927404757496354
2229.0,0.0039037893058157143
2228.0,0.003914917382593306
2227.0,0.003911772402933794
2226.0,0.0038959913909551126
2225.0,0.003883351687534048
2224.0,0.0038794575120732035
2223.0,0.0038766309260991946
2222.0,0.0038732038414570963
2221.0,0.003875014199114922
2220.0,0.003877977909822767
2219.0,0.0038702789338077104
2218.0,0.0038530640709211316
2217.0,0.0038391677771768907
2216.0,0.0038303476713457806
2215.0,0.0038160666594757595
2214.0,0.0037964449046978977
2213.0,0.0037869870356578112
2212.0,0.0037972281449979994
2211.0,0.0038214605608661856
2210.0,0.0038511492935105578
2209.0,0.0038793966134150802
2208.0,0.003895395631914522
2207.0,0.0038932630419885404
2206.0,0.0038850690904564398
2205.0,0.0038869985545533572
2204.0,0.003894791715131499
2203.0,0.003892551247425973
2202.0,0.0038815669092356325
2201.0,0.0038772442620355835
2200.0,0.003880828171399206
2199.0,0.0038791775431094256
2198.0,0.0038721305682179585
2197.0,0.003875063820283198
2196.0,0.0038922751204094495
2195.0,0.0039112827503780655
2194.0,0.003925106908741346
2193.0,0.003937318520299314
2192.0,0.003944778919873103
2191.0,0.0039401337707885035
2190.0,0.003932985481988745
2189.0,0.003943202887930213
2188.0,0.003969815719856691
2187.0,0.00399036849957633
2186.0,0.0039937968506937125
2185.0,0.003989108802152782
2184.0,0.003978608118979063
2183.0,0.003950587730903228
2182.0,0.003906716324699541
2181.0,0.003871229801163064
2180.0,0.0038617310297765616
2179.0,0.0038699760072880406
2178.0,0.0038775427673675067
2177.0,0.003872420033845668
2176.0,0.003850145874315556
2175.0,0.0038189078837833597
2174.0,0.003803192777421802
2173.0,0.003822069559713652
2172.0,0.0038646230210773753
2171.0,0.003905766394835716
2170.0,0.003940474621957772
2169.0,0.003981518634665586
2168.0,0.004030890013945451
2167.0,0.004078125778330481
2166.0,0.004123656681111034
2165.0,0.004178376515751483
2164.0,0.004239831755168754
2163.0,0.004288865200365623
2162.0,0.004300517459223846
2161.0,0.004235299153950964
2160.0,0.0040435207882335246
2159.0,0.0037297651338850336
2158.0,0.0034011669237355973
2157.0,0.003186541841315212
2156.0,0.0031154217066975353
2155.0,0.0031300322771446887
2154.0,0.003181168456877451
2153.0,0.0032532690228789804
2152.0,0.0033257857776188464
2151.0,0.0033695377387701155
2150.0,0.003381095582345278
2149.0,0.003381432908662001
2148.0,0.0033776339230001838
2147.0,0.003358226422816842
2146.0,0.0033259812131103787
2145.0,0.0033022456666453232
2144.0,0.0032951108508952006
2143.0,0.003292582094261024
2142.0,0.0032896233672840597
2141.0,0.003294471830610227
2140.0,0.0033066669656405196
2139.0,0.003313727321023984
2138.0,0.0033103502974564615
2137.0,0.003298438495180212
2136.0,0.0032699656292046525
2135.0,0.0032150901859059004
2134.0,0.003148266952712686
2133.0,0.0031025602039622267
2132.0,0.0030951879035274253
2131.0,0.003117149060722315
2130.0,0.0031542926204528904
2129.0,0.0031980011045889484
2128.0,0.003238278525034418
2127.0,0.003266340236655813
2126.0,0.0032849964763416975
2125.0,0.0033021046983200825
2124.0,0.0033155068268088225
2123.0,0.003318625768619544
2122.0,0.003317087497867006
2121.0,0.0033233739864558473
2120.0,0.0033373646235739115
2119.0,0.0033489775971951743
2118.0,0.003357780284983275
2117.0,0.0033730966489097258
2116.0,0.003395681751855594
2115.0,0.003415764902820183
2114.0,0.0034289242518028467
2113.0,0.003438670990688368
2112.0,0.00344468110243362
2111.0,0.003443643634689587
2110.0,0.003439786668434042
2109.0,0.003438889839609063
2108.0,0.0034347457424770563
2107.0,0.003418540843193403
2106.0,0.0033980741530530312
2105.0,0.003388903396130784
2104.0,0.0033896645674377974
2103.0,0.0033860495672342213
2102.0,0.003376523622167312
2101.0,0.0033723480599373804
2100.0,0.003373463058400433
2099.0,0.0033661361005772558
2098.0,0.003344721019790162
2097.0,0.0033158789590885273
2096.0,0.00328240779338427
2095.0,0.0032448252277616843
2094.0,0.0032176743167786704
2093.0,0.0032192415818724125
2092.0,0.0032438417884012995
2091.0,0.00326658295245631
2090.0,0.0032763628619826377
2089.0,0.0032835704798046717
2088.0,0.0032952275798507204
2087.0,0.0033057867267477594
2086.0,0.0033147606660612985
2085.0,0.0033300536658809983
2084.0,0.0033486230395126503
2083.0,0.0033547154026970193
2082.0,0.0033437248412564575
2081.0,0.003329528825233892
2080.0,0.003322541999904697
2079.0,0.003318581263013612
2078.0,0.0033148182512653503
2077.0,0.0033175767450933794
2076.0,0.0033279901927498394
2075.0,0.003336854482086575
2074.0,0.003338967072684335
2073.0,0.0033371669882704892
2072.0,0.003330616690589785
2071.0,0.0033160572112521545
2070.0,0.0033010015422936406
2069.0,0.0032971653620200926
2068.0,0.0033001749608202254
2067.0,0.0032953712920446776
2066.0,0.003282894412439237
2065.0,0.003276398189246389
2064.0,0.0032778067896751797
2063.0,0.003275929947975825
2062.0,0.00326896092266912
2061.0,0.003264159514444134
2060.0,0.0032585906773525495
2059.0,0.003245309942653698
2058.0,0.003234480238380991
2057.0,0.0032409696420370926
2056.0,0.0032553957935414703
2055.0,0.0032600211382102294
2054.0,0.00327121713244957
2053.0,0.003326256602473486
2052.0,0.003421954737169938
2051.0,0.0035030387350113816
2050.0,0.003522231116463734
2049.0,0.0034869760783958234
2048.0,0.003436376098462547
2047.0,0.003396066447425781
2046.0,0.0033720823678946616
2045.0,0.003362244605111101
2044.0,0.00335452734286907
2043.0,0.003337340013329473
2042.0,0.0033221540782041466
2041.0,0.0033324514182894345
2040.0,0.0033651425028153287
2039.0,0.003392844600017761
2038.0,0.003405705031359158
2037.0,0.00341487960564344
2036.0,0.003414861515036808
2035.0,0.003382160956278919
2034.0,0.0033190541533580464
2033.0,0.00326034484779908
2032.0,0.003225822240149845
2031.0,0.0032045532514714398
2030.0,0.0031918236221445684
2029.0,0.0031972414592663983
2028.0,0.0032093616102734056
2027.0,0.003196340069249173
2026.0,0.0031529172338115976
2025.0,0.00310992741667515
2024.0,0.0030908964423276256
2023.0,0.0030947031545712034
2022.0,0.0031210214963836233
2021.0,0.0031705200879260558
2020.0,0.0032173921969725554
2019.0,0.003223717919389943
2018.0,0.0031885855829904075
2017.0,0.0031497954267091914
2016.0,0.003131444500119038
2015.0,0.00312648781586866
2014.0,0.0031315495985618862
2013.0,0.003153337032825044
2012.0,0.003179343342360472
2011.0,0.0031835412996821777
2010.0,0.0031629563781043484
2009.0,0.0031336645780744485
2008.0,0.0030949906299204705
2007.0,0.003037306557961068
2006.0,0.0029789990606609207
2005.0,0.0029488582593419684
2004.0,0.0029374305773536506
2003.0,0.0029142459097223614
2002.0,0.0028863068984043574
2001.0,0.0028922179069935023
2000.0,0.0029395848494667004
1999.0,0.002994927664917522
1998.0,0.0030382200847860028
1997.0,0.003080343105628111
1996.0,0.0031228371653361764
1995.0,0.003145002130160556
1994.0,0.0031388906748968186
1993.0,0.0031219845548834694
1992.0,0.00310681924628299
1991.0,0.0030906627256520837
1990.0,0.00308275306628848
1989.0,0.003102988653371942
1988.0,0.0031464028864013004
1987.0,0.0031856956309857685
1986.0,0.0032136495655044305
1985.0,0.0032482351348203787
1984.0,0.003293567795085696
1983.0,0.0033341530246010997
1982.0,0.0033685949805932146
1981.0,0.0034062699385139614
1980.0,0.0034256273167878864
1979.0,0.0033828253812753072
1978.0,0.00327801518674619
1977.0,0.003168142756394698
1976.0,0.0030933837096788637
1975.0,0.003040972877348884
1974.0,0.0029968297400010135
1973.0,0.0029732174158958124
1972.0,0.0029721525633821517
1971.0,0.002975262122352675
1970.0,0.002980932217073989
1969.0,0.003005474289744314
1968.0,0.0030379977466256118
1967.0,0.003039858133660826
1966.0,0.003003114876403753
1965.0,0.0029620142243129365
1964.0,0.0029373413592174743
1963.0,0.002917552988709865
1962.0,0.002896482500813332
1961.0,0.002885728913212153
1960.0,0.0028842243481967205
1959.0,0.0028750899336592124
1958.0,0.0028596550519213236
1957.0,0.002857308293726397
1956.0,0.0028684611899990158
1955.0,0.002872660786047229
1954.0,0.0028654897233234594
1953.0,0.0028632012880488787
1952.0,0.002869313727870028
1951.0,0.002869471673601059
1950.0,0.002860398448769383
1949.0,0.0028535957787054348
1948.0,0.002849524594207702
1947.0,0.002839185541755334
1946.0,0.0028316561445439247
1945.0,0.0028469190675088386
1944.0,0.0028788235937429827
1943.0,0.002896162456060968
1942.0,0.0028888098483694346
1941.0,0.0028778578568412613
1940.0,0.002873269111257917
1939.0,0.0028640886094184422
1938.0,0.0028493943095048856
1937.0,0.002842833252991498
1936.0,0.002846476618930382
1935.0,0.0028476414555758784
1934.0,0.0028443766358617357
1933.0,0.0028456805684538788
1932.0,0.002846491416107796
1931.0,0.0028322999736481013
1930.0,0.0028093192102054444
1929.0,0.002801520333539494
1928.0,0.0028130787127559308
1927.0,0.0028236890886857943
1926.0,0.002823761467679127
1925.0,0.002825945997870788
1924.0,0.002837712043215159
1923.0,0.0028467064954961793
1922.0,0.002844086298630945
1921.0,0.0028372253118782594
1920.0,0.00283144109657324
1919.0,0.0028237661012058424
1918.0,0.0028189193337053156
1917.0,0.0028272136393459953
1916.0,0.002840968917958272
1915.0,0.0028418429253186414
1914.0,0.002830639319995912
1913.0,0.0028240176291346192
1912.0,0.002826527422716396
1911.0,0.0028269378243320747
1910.0,0.0028240534915454974
1909.0,0.0028315213214858675
1908.0,0.0028496245865076535
1907.0,0.0028612489962000593
1906.0,0.00286060787604884
1905.0,0.002859742817435464
1904.0,0.0028636444043451045
1903.0,0.0028616590857488927
1902.0,0.0028501981223629266
1901.0,0.002842033855951521
1900.0,0.002844434021001335
1899.0,0.0028495301698419863
1898.0,0.0028523072195214476
1897.0,0.0028581621135915516
1896.0,0.002867747532389514
1895.0,0.002872089880685686
1894.0,0.002870484667644997
1893.0,0.0028737753454410033
1892.0,0.0028850650904557575
1891.0,0.002894877176272488
1890.0,0.0028968273070996246
1889.0,0.0028941208344104886
1888.0,0.002886458604118497
1887.0,0.0028685454443134278
1886.0,0.0028460529949094803
1885.0,0.002832601644276061
1884.0,0.0028290364807715945
1883.0,0.002824110529238428
1882.0,0.0028173194934732106
1881.0,0.0028204545246393246
1880.0,0.0028331737210930408
1879.0,0.00283978946835511
1878.0,0.0028339082281269765
1877.0,0.0028252462572739305
1876.0,0.002819836693525713
1875.0,0.00281315970050746
1874.0,0.0028056065065114994
1873.0,0.00280495596420424
1872.0,0.0028110325825115782
1871.0,0.002815472343724307
1870.0,0.002818951093708368
1869.0,0.0028312607785814254
1868.0,0.0028471690691881696
1867.0,0.002848720064913143
1866.0,0.0028358127465900325
1865.0,0.0028242999421502994
1864.0,0.002819140544810296
1863.0,0.002812062892472814
1862.0,0.002802583128762075
1861.0,0.0028020167445433025
1860.0,0.002812051813864598
1859.0,0.002820092804528109
1858.0,0.0028211147943514167
1857.0,0.0028233386577407996
1856.0,0.002828442164395811
1855.0,0.002827176499772308
1854.0,0.0028183608335421396
1853.0,0.0028131355334502254
1852.0,0.002814662703945261
1851.0,0.0028144381423662094
1850.0,0.002812937586045472
1849.0,0.0028206810194533155
1848.0,0.0028352514809506266
1847.0,0.002840100757450416
1846.0,0.0028322210189457627
1845.0,0.002829998212996257
1844.0,0.00284187173317715
1843.0,0.002850611928429021
1842.0,0.002843646328681796
1841.0,0.0028294593426816013
1840.0,0.002818492442226804
1839.0,0.0028113226053791272
1838.0,0.002807440711459006
1837.0,0.0028112692161669016
1836.0,0.0028213467762175895
1835.0,0.0028279242212480515
1834.0,0.0028284601108604654
1833.0,0.002830196940112498
1832.0,0.002835668265679428
1831.0,0.002838482537271149
1830.0,0.002837464208134412
1829.0,0.0028419395564051636
1828.0,0.002852416154845346
1827.0,0.0028588281181794136
1826.0,0.0028621714954895124
1825.0,0.0028715365110005093
1824.0,0.0028820157741961234
1823.0,0.002879140572590626
1822.0,0.0028640298100203023
1821.0,0.002850394276893163
1820.0,0.0028397497191228705
1819.0,0.0028213019844011557
1818.0,0.002796165838540093
1817.0,0.002781996570553907
1816.0,0.002786894254790391
1815.0,0.002799349375974025
1814.0,0.002810905966327224
1813.0,0.002824919462415038
1812.0,0.002839651641176368
1811.0,0.002843989757438587
1810.0,0.0028372539728317918
1809.0,0.0028344464139503805
1808.0,0.0028425674812597606
1807.0,0.0028525553993687313
1806.0,0.0028594050901596143
1805.0,0.002870479217231718
1804.0,0.0028900179325034433
1803.0,0.00290937832484123
1802.0,0.002920714561578977
1801.0,0.0029267101558584736
1800.0,0.0029298027766823083
1799.0,0.0029284182342511735
1798.0,0.0029278517936066244
1797.0,0.0029361177495524867
1796.0,0.0029467691049917533
1795.0,0.002944599459852789
1794.0,0.0029315902357676072
1793.0,0.0029313685665582337
1792.0,0.002954809062692112
1791.0,0.002980036812000024
1790.0,0.002986619604163318
1789.0,0.0029791100383025075
1788.0,0.0029694035037667508
1787.0,0.0029630391554146276
1786.0,0.0029643105661174545
1785.0,0.002978144332933571
1784.0,0.002997781074871151
1783.0,0.0030069194002190105
1782.0,0.003004786556589062
1781.0,0.003006574360631124
1780.0,0.003016079286257156
1779.0,0.0030205639470549596
1778.0,0.003015395736368476
1777.0,0.0030123366039657836
1776.0,0.003016579731254746
1775.0,0.0030188170852653074
1774.0,0.0030167749236671123
1773.0,0.003025007736839338
1772.0,0.0030480605376806734
1771.0,0.0030721204089769593
1770.0,0.003094910160470604
1769.0,0.003128408460982073
1768.0,0.0031719796668437127
1767.0,0.003204991083070401
1766.0,0.003216783931478486
1765.0,0.0032230301247705324
1764.0,0.0032439715174818924
1763.0,0.0032845320055448313
1762.0,0.0033391654500204812
1761.0,0.0034016838065531263
1760.0,0.0034624566912782044
1759.0,0.0035149040207239643
1758.0,0.003572048400951469
1757.0,0.0036554383528890908
1756.0,0.003755997406943143
1755.0,0.003841718844266242
1754.0,0.003910541363354963
1753.0,0.003995947299529827
1752.0,0.004120778530657923
1751.0,0.004261838130599068
1750.0,0.004381591951345312
1749.0,0.004480429835013937
1748.0,0.004570981184136808
1747.0,0.004647015862914111
1746.0,0.004710250349523515
1745.0,0.0047763463939268355
1744.0,0.004844318594463554
1743.0,0.004890890980314068
1742.0,0.004907238786056415
1741.0,0.004916333511020546
1740.0,0.00493782496805051
1739.0,0.0049606428119955285
1738.0,0.00497040433570036
1737.0,0.0049733963931824715
1736.0,0.0049861973860793165
1735.0,0.005014419502337212
1734.0,0.005050307984815984
1733.0,0.00509267506109413
1732.0,0.005130556819785837
1731.0,0.005148829207825206
1730.0,0.005161873928236089
1729.0,0.005192749538429047
1728.0,0.005239161176491099
1727.0,0.0052823020795279025
1726.0,0.005320002750877161
1725.0,0.005365401106834465
1724.0,0.005417071354707018
1723.0,0.0054545915062325576
1722.0,0.005469304334930655
1721.0,0.005478723754479357
1720.0,0.005505250199782859
1719.0,0.005559634166904929
1718.0,0.005643132494154812
1717.0,0.005749363549942474
1716.0,0.0058524976187500615
1715.0,0.005923662320221614
1714.0,0.0059685863251407005
1713.0,0.006014965006104676
1712.0,0.0060726286679435824
1711.0,0.006130798015063166
1710.0,0.006184748866272069
1709.0,0.006243230990737918
1708.0,0.006309613403499309
1707.0,0.006378428617726108
1706.0,0.006452513528046431
1705.0,0.006538915900659945
1704.0,0.006620240801705572
1703.0,0.006676145318426179
1702.0,0.006729130139876519
1701.0,0.0068504855713360895
1700.0,0.007041367371687085
1699.0,0.00719165787620146
1698.0,0.007267895652480946
1697.0,0.007349885147624552
1696.0,0.007498871971208099
1695.0,0.007678130326330333
1694.0,0.007824384804374127
1693.0,0.007940165587143258
1692.0,0.00805945563315264
1691.0,0.008201046434108397
1690.0,0.00835917820159132
1689.0,0.008515832403285798
1688.0,0.008643669348957057
1687.0,0.008733120787977637
1686.0,0.008817661479492115
1685.0,0.00898815771121753
1684.0,0.009262932689975183
1683.0,0.009508977355146771
1682.0,0.009673071381282407
1681.0,0.009814141902400481
1680.0,0.00996099112073283
1679.0,0.010094504259183436
1678.0,0.010201513367752747
1677.0,0.01031735993392462
1676.0,0.010483914967555227
1675.0,0.010678481887060205
1674.0,0.010840278363976174
1673.0,0.010960198456829568
1672.0,0.011069833758115244
1671.0,0.011193206818356132
1670.0,0.011339990269278798
1669.0,0.011507159068438416
1668.0,0.011669425663387656
1667.0,0.011794817799867276
1666.0,0.011883842442915862
1665.0,0.011967115358715799
1664.0,0.012071692632213422
1663.0,0.012190095102337779
1662.0,0.012297844435315522
1661.0,0.012394309067521416
1660.0,0.0124858515085654
1659.0,0.012565353769460679
1658.0,0.012627205132728846
1657.0,0.012676123401612354
1656.0,0.012717175946882266
1655.0,0.012752432082677671
1654.0,0.01278803615898405
1653.0,0.01284440679014026
1652.0,0.012931853893106653
1651.0,0.013000463646095332
1650.0,0.013017576407222717
1649.0,0.01301916088899295
1648.0,0.013037181742133521
1647.0,0.013052305962464377
1646.0,0.013043624991153205
1645.0,0.013035867519462804
1644.0,0.01303512751443118
1643.0,0.013020366585249944
1642.0,0.012987523008255756
1641.0,0.012948973577850473
1640.0,0.012912226465790232
1639.0,0.012867731833789465
1638.0,0.012802068116419714
1637.0,0.012710698402643848
1636.0,0.012593998387931151
1635.0,0.012478330944347868
1634.0,0.012398668263941887
1633.0,0.012345790992309372
1632.0,0.012294136629667664
1631.0,0.012229005056880212
1630.0,0.01214265761991707
1629.0,0.012037933500816955
1628.0,0.011923389929513655
1627.0,0.011805570550567055
1626.0,0.011687075152578944
1625.0,0.011567053448511687
1624.0,0.011437999113022158
1623.0,0.0112967223052359
1622.0,0.011163080562525973
1621.0,0.011054420015814699
1620.0,0.010956969989153829
1619.0,0.010845135066187684
1618.0,0.010698776246733488
1617.0,0.010520965046598404
1616.0,0.010353870882587128
1615.0,0.01022727728440248
1614.0,0.010123910795205715
1613.0,0.010022805855350182
1612.0,0.009916900900582051
1611.0,0.009800986013637457
1610.0,0.009674973838064501
1609.0,0.009546459951208617
1608.0,0.00942233932709985
1607.0,0.009303792014674465
1606.0,0.009193030529842727
1605.0,0.009092201712538417
1604.0,0.008994484609606506
1603.0,0.008887785812994603
1602.0,0.008768100458479944
1601.0,0.008641535790406284
1600.0,0.00851253493274649
1599.0,0.008380663720946218
1598.0,0.00824817648699965
1597.0,0.00811943702719581
1596.0,0.007994053845081292
1595.0,0.007869514309695212
1594.0,0.007749690476103259
1593.0,0.0076409430483095064
1592.0,0.0075416681067472825
1591.0,0.007445521698403091
1590.0,0.007352433801068486
1589.0,0.007267780859562442
1588.0,0.007192453131061765
1587.0,0.007122870288809641
1586.0,0.007058201598503596
1585.0,0.006999810505647712
1584.0,0.006943079664477162
1583.0,0.006880943949680907
1582.0,0.006815675109855285
1581.0,0.00675528420748356
1580.0,0.006700703096661539
1579.0,0.006646014427309289
1578.0,0.006588377542091742
1577.0,0.006525044065901631
1576.0,0.00645434566555622
1575.0,0.006390380287508529
1574.0,0.0063421229806792994
1573.0,0.006297581835040729
1572.0,0.006245706169471728
1571.0,0.0061824621046633246
1570.0,0.0061145166133294605
1569.0,0.0060640216747680385
1568.0,0.006037515396761547
1567.0,0.006016181472542462
1566.0,0.005986749648004304
1565.0,0.00595196251619829
1564.0,0.00591467999873171
1563.0,0.005875444415011492
1562.0,0.005840287311376427
1561.0,0.005820421754016709
1560.0,0.0058180591325548104
1559.0,0.005779107545716492
1558.0,0.005717220129384013
1557.0,0.00570394070493037
1556.0,0.005704635629252213
1555.0,0.005687964090742494
1554.0,0.005666501221360264
1553.0,0.005650462063276756
1552.0,0.005638355839731071
1551.0,0.005618654670817593
1550.0,0.005588782224135541
1549.0,0.0055525528905546444
1548.0,0.005514435736292116
1547.0,0.005477601719478109
1546.0,0.005450559013051069
1545.0,0.0054362587956654305
1544.0,0.005420171540893489
1543.0,0.005383018361975319
1542.0,0.005324648271676694
1541.0,0.005246453182027817
1540.0,0.005135971589814778
1539.0,0.005037326562131252
1538.0,0.004998888820357734
1537.0,0.004986981257050399
1536.0,0.004963424496136894
1535.0,0.004916743672273668
1534.0,0.0048507247868796715
1533.0,0.00478900048657973
1532.0,0.00474443755110867
1531.0,0.004704771309323861
1530.0,0.00466382103772506
1529.0,0.004630442154236656
1528.0,0.004605787707572784
1527.0,0.0045795430310150926
1526.0,0.004551231715579053
1525.0,0.004528166911709158
1524.0,0.0045033410025390455
1523.0,0.004465292630960312
1522.0,0.004423622996790599
1521.0,0.0044057097452257915
1520.0,0.004407781923741636
1519.0,0.004399772020030438
1518.0,0.004385469267983512
1517.0,0.004386809525805258
1516.0,0.004395598971551107
1515.0,0.004391148022670686
1514.0,0.004380043195349468
1513.0,0.004382865687110465
1512.0,0.004397851990324148
1511.0,0.0044066226081960974
1510.0,0.0044085647431916725
1509.0,0.004424087097070136
1508.0,0.0044483125748314345
1507.0,0.004424756187405832
1506.0,0.004379618313614626
1505.0,0.0043921419303513615
1504.0,0.004429986364455615
1503.0,0.004450630391436357
1502.0,0.004467065297446716
1501.0,0.004500612694342764
1500.0,0.004549162562325029
1499.0,0.004594616184208781
1498.0,0.004659234131096774
1497.0,0.004790616650397727
1496.0,0.004962280950860027
1495.0,0.005091850837546749
1494.0,0.0051654663563906866
1493.0,0.005219666913002738
1492.0,0.005262035300586931
1491.0,0.0052745649582279395
1490.0,0.005278750354859288
1489.0,0.005323187792252681
1488.0,0.005393573525145202
1487.0,0.0054581472254298085
1486.0,0.005541060072750377
1485.0,0.005670298484802631
1484.0,0.005828680742868964
1483.0,0.00599647797240826
1482.0,0.006197351977506864
1481.0,0.006451624826586958
1480.0,0.006725517951106038
1479.0,0.006999518330274859
1478.0,0.007347892165729994
1477.0,0.007869155528993038
1476.0,0.008559685038809835
1475.0,0.009360453094082778
1474.0,0.010347645935496837
1473.0,0.011634145969325653
1472.0,0.013011655465192088
1471.0,0.014198104384515905
1470.0,0.015273319334660064
1469.0,0.016417542159927922
1468.0,0.01768132868339907
1467.0,0.019097513811429233
1466.0,0.020784454217072954
1465.0,0.022720460263602266
1464.0,0.024472887883243546
1463.0,0.02566062510287888
1462.0,0.02636933157481491
1461.0,0.0268220778884627
1460.0,0.027130088812730664
1459.0,0.027362022527247655
1458.0,0.027671908105324234
1457.0,0.02809933668214712
1456.0,0.028386657455466546
1455.0,0.02843092155924986
1454.0,0.028354416467358565
1453.0,0.028176893270838034
1452.0,0.02782053397722728
1451.0,0.027234013980310636
1450.0,0.02638464242334543
1449.0,0.02516277216484748
1448.0,0.02352630344138954
1447.0,0.021721413794924
1446.0,0.020055494927740895
1445.0,0.01859591840570923
1444.0,0.017293874998250542
1443.0,0.016170941385118442
1442.0,0.015285675839200812
1441.0,0.014638770794293973
1440.0,0.014192950573815248
1439.0,0.013935264256997006
1438.0,0.013856202876652846
1437.0,0.013840459111978648
1436.0,0.013662303145455112
1435.0,0.013218215465059439
1434.0,0.0125674760688605
1433.0,0.011774798342103746
1432.0,0.010919717999704292
1431.0,0.010128245588603885
1430.0,0.009486091619619547
1429.0,0.008988961641897225
1428.0,0.008618535526357045
1427.0,0.008366401085688422
1426.0,0.008186059757503923
1425.0,0.008012180296951112
1424.0,0.007834125244208684
1423.0,0.007693811230534716
1422.0,0.007594895850974693
1421.0,0.007494989368091056
1420.0,0.007377499165471318
1419.0,0.007272063524691771
1418.0,0.007184028796930149
1417.0,0.007077167944376083
1416.0,0.006955207375238588
1415.0,0.006852332084850496
1414.0,0.006766651805247145
1413.0,0.006668798122538103
1412.0,0.00655698307145763
1411.0,0.006457996087153283
1410.0,0.006370624802231979
1409.0,0.006267928259594383
1408.0,0.006155599644593333
1407.0,0.006066260609502883
1406.0,0.005997674806422651
1405.0,0.005912957833019032
1404.0,0.005815071126163855
1403.0,0.005744401183378319
1402.0,0.005699248043282778
1401.0,0.0056445006784768045
1400.0,0.005582042252653069
1399.0,0.005549809760246066
1398.0,0.005544785879544565
1397.0,0.005524948608668329
1396.0,0.005496053194587058
1395.0,0.005502800251405213
1394.0,0.005539932129458615
1393.0,0.005566657148688476
1392.0,0.005595061174500736
1391.0,0.00567190655940605
1390.0,0.005813345230172044
1389.0,0.006024449035465965
1388.0,0.00636841173866577
1387.0,0.006931210580562931
1386.0,0.007718853360402808
1385.0,0.008741424438286856
1384.0,0.01014787078292257
1383.0,0.012138482268116658
1382.0,0.014818041091602487
1381.0,0.018239810520430704
1380.0,0.022469769250990826
1379.0,0.027315428276652523
1378.0,0.03202246293925476
1377.0,0.03550551186305393
1376.0,0.03679581468428522
1375.0,0.03531626399765159
1374.0,0.03147444411469773
1373.0,0.026775843013237762
1372.0,0.022520813680915946
1371.0,0.01902715603480295
1370.0,0.01617466389385359
1369.0,0.013914998089396547
1368.0,0.012276158786791816
1367.0,0.011206230759817573
1366.0,0.010570799584620117
1365.0,0.010255634035327693
1364.0,0.010199766148504607
1363.0,0.010363258554841335
1362.0,0.010678292685422811
1361.0,0.011032047696136442
1360.0,0.011296837158992896
1359.0,0.011365829637442324
1358.0,0.01117945300878291
1357.0,0.010741987925191529
1356.0,0.010113671058056566
1355.0,0.009389865862101098
1354.0,0.008677422639296623
1353.0,0.008054177018413345
1352.0,0.007538027429693247
1351.0,0.007106185524950964
1350.0,0.006738378613885787
1349.0,0.006429627770307443
1348.0,0.006173895027697258
1347.0,0.0059585290495521095
1346.0,0.005775354047890435
1345.0,0.00562371905409083
1344.0,0.005502561831908328
1343.0,0.005408538480843829
1342.0,0.005340234075448279
1341.0,0.005296219298657745
1340.0,0.005269948888852891
1339.0,0.005254375598756564
1338.0,0.005250422051070033
1337.0,0.0052633266388465725
1336.0,0.005295239417154648
1335.0,0.005347345528694865
1334.0,0.00542351723564885
1333.0,0.005524693342069639
1332.0,0.005639681528625488
1331.0,0.005746394937648447
1330.0,0.005825049385840653
1329.0,0.005868212345496554
1328.0,0.005878750639346805
1327.0,0.005863411475388469
1326.0,0.005830032095461932
1325.0,0.005786055150512021
1324.0,0.005737687078455506
1323.0,0.0056913180497315235
1322.0,0.005653093879383366
1321.0,0.005624205910467795
1320.0,0.005597546558587978
1319.0,0.005561452745015417
1318.0,0.005507404550380141
1317.0,0.005433561126558647
1316.0,0.005342184333419233
1315.0,0.005236895890075147
1314.0,0.005122585396986172
1313.0,0.005006289710979754
1312.0,0.004898413839597674
1311.0,0.004813673687295314
1310.0,0.004770889271049782
1309.0,0.004790327392529429
1308.0,0.004884635641558442
1307.0,0.005041498132730927
1306.0,0.005211789890319396
1305.0,0.005323928779763218
1304.0,0.005323242654921231
1303.0,0.005207543054924482
1302.0,0.005027386123255118
1301.0,0.00484857132276812
1300.0,0.004712738258732019
1299.0,0.0046271777882972275
1298.0,0.004577181621910396
1297.0,0.0045411401751764705
1296.0,0.004500119208861179
1295.0,0.004443075475460937
1294.0,0.004368265321528321
1293.0,0.0042805014793852545
1292.0,0.004187651659039524
1291.0,0.004098310402400878
1290.0,0.004019188256743568
1289.0,0.003953016117081719
1288.0,0.003899384359999575
1287.0,0.0038568902154003442
1286.0,0.003823680963334521
1285.0,0.0037976648221957404
1284.0,0.003777874386286859
1283.0,0.003764474565730167
1282.0,0.0037562735964181398
1281.0,0.003749900333357499
1280.0,0.003742864857684005
1279.0,0.0037359704059882724
1278.0,0.003731152170760972
1277.0,0.0037284746081177973
1276.0,0.0037269575761440035
1275.0,0.0037271372921174745
1274.0,0.0037311435288000594
1273.0,0.003741018435773881
1272.0,0.003758085111316631
1271.0,0.0037828602399203066
1270.0,0.00381450803273069
1269.0,0.003851706984977615
1268.0,0.0038951087185675557
1267.0,0.003947866353802799
1266.0,0.004012990310015077
1265.0,0.004091438655610194
1264.0,0.0041836387665444156
1263.0,0.004291720446705298
1262.0,0.004419897785581542
1261.0,0.004574207360136494
1260.0,0.004761322047938828
1259.0,0.004982982197600613
1258.0,0.005226320244485116
1257.0,0.005458335267269899
1256.0,0.005634026033838467
1255.0,0.005719782044082385
1254.0,0.005717167576017037
1253.0,0.005663052940369125
1252.0,0.005604236615336771
1251.0,0.005571960736011626
1250.0,0.005575298388220906
1249.0,0.005609690402781111
1248.0,0.005667156696668719
1247.0,0.005740968053687163
1246.0,0.0058263655196912935
1245.0,0.005919883840376573
1244.0,0.006018128485665368
1243.0,0.006117874918939864
1242.0,0.0062181514372814314
1241.0,0.0063208021208755166
1240.0,0.006427585857985196
1239.0,0.006537979573218038
1238.0,0.006650898883793532
1237.0,0.006766576476039558
1236.0,0.006885011069685455
1235.0,0.007004690546711748
1234.0,0.0071251295298959665
1233.0,0.007248847566447482
1232.0,0.007378659533527851
1231.0,0.007514836714623937
1230.0,0.007656961306372657
1229.0,0.007806527748612822
1228.0,0.00796563122926577
1227.0,0.008135258494030415
1226.0,0.008316789500687738
1225.0,0.008512440039779511
1224.0,0.008721772113725403
1223.0,0.008940301247236238
1222.0,0.009163570491939952
1221.0,0.00938931713924873
1220.0,0.009613832387702867
1219.0,0.009831191966517345
1218.0,0.01003939543976825
1217.0,0.010242703866447421
1216.0,0.010445271399252491
1215.0,0.010648098772329948
1214.0,0.01085480472437495
1213.0,0.01107333772356787
1212.0,0.011307792667359243
1211.0,0.011554538523670705
1210.0,0.011809986194972184
1209.0,0.012075162903876932
1208.0,0.01234886665781008
1207.0,0.012624593030632823
1206.0,0.012899170157152706
1205.0,0.013176429618287522
1204.0,0.01345777255916078
1203.0,0.013738087223322051
1202.0,0.014015556743907785
1201.0,0.01429549103788931
1200.0,0.014579563329828755
1199.0,0.014861899344310852
1198.0,0.015140883159842532
1197.0,0.015423353309880691
1196.0,0.015711494244953193
1195.0,0.01599767979583819
1194.0,0.016278386443000985
1193.0,0.01656087814488731
1192.0,0.016849890987699883
1191.0,0.017140775742403146
1190.0,0.017432214978540375
1189.0,0.01773198537587024
1188.0,0.018043134004650213
1187.0,0.018358053916458245
1186.0,0.01867279994045259
1185.0,0.01899319565611196
1184.0,0.01932097422163623
1183.0,0.0196499627736223
1182.0,0.019982471288767706
1181.0,0.020332478169893455
1180.0,0.020705466811587053
1179.0,0.021093721464205017
1178.0,0.02150043014530412
1177.0,0.02194980587236787
1176.0,0.022465555414776194
1175.0,0.02305944336171675
1174.0,0.023748978185376697
1173.0,0.02456127853289912
1172.0,0.025500264336532862
1171.0,0.026520739451158053
1170.0,0.027542069708832148
1169.0,0.02847149693726564
1168.0,0.029213685147007055
1167.0,0.02970080198769838
1166.0,0.029941336353486267
1165.0,0.030015909917204736
1164.0,0.030009349261688682
1163.0,0.029970673431459073
1162.0,0.029935278284596294
1161.0,0.02993763836625704
1160.0,0.02998614277981309
1159.0,0.030060678270852396
1158.0,0.03015089279406913
1157.0,0.03026851175075356
1156.0,0.030413759738201394
1155.0,0.030563903799889318
1154.0,0.030705597467250677
1153.0,0.030843811937740447
1152.0,0.03096820745773235
1151.0,0.031048249687302618
1150.0,0.031075801749707838
1149.0,0.031077450453703526
1148.0,0.031073085840134566
1147.0,0.031057791856822684
1146.0,0.031033417065633173
1145.0,0.031019247337978534
1144.0,0.031018959707806694
1143.0,0.031013096442545907
1142.0,0.030996736781223194
1141.0,0.030990216454701597
1140.0,0.03100168663332798
1139.0,0.031014904858637005
1138.0,0.031025233102387674
1137.0,0.031051163228513166
1136.0,0.031098028017722747
1135.0,0.031146106834652437
1134.0,0.03118668469354323
1133.0,0.031234419521273336
1132.0,0.03129313988144794
1131.0,0.03134579597386041
1130.0,0.031389713857590394
1129.0,0.03144553293390349
1128.0,0.031519253652228914
1127.0,0.03159138563839085
1126.0,0.031655156328631695
1125.0,0.0317282657492762
1124.0,0.03181535186014128
1123.0,0.031897566123516095
1122.0,0.0319716341882922
1121.0,0.03206022035575084
1120.0,0.032171250478361335
1119.0,0.0322860592823264
1118.0,0.032399459629452766
1117.0,0.03253156515738493
1116.0,0.03268709579579903
1115.0,0.03284264314356823
1114.0,0.03298738838951296
1113.0,0.033136086217053926
1112.0,0.03328895872712127
1111.0,0.03342246134004424
1110.0,0.033534766996343585
1109.0,0.033656357674990346
1108.0,0.033800152589169914
1107.0,0.033944021452575586
1106.0,0.03407493360255621
1105.0,0.03420387650423818
1104.0,0.0343220153925776
1103.0,0.034388782681940136
1102.0,0.03438159104385579
1101.0,0.03431584868492126
1100.0,0.03420378537497927
1099.0,0.03403951483604845
1098.0,0.033836287610150714
1097.0,0.033629152731750135
1096.0,0.03342625780787896
1095.0,0.033202267773677206
1094.0,0.03295001320329253
1093.0,0.032692831814623936
1092.0,0.03243725400574796
1091.0,0.03216114205800566
1090.0,0.03185869019019868
1089.0,0.031551248890623
1088.0,0.031243602310411255
1087.0,0.030914918094650003
1086.0,0.0305631332100924
1085.0,0.030212560580199256
1084.0,0.029866581518688783
1083.0,0.029497494321392717
1082.0,0.0290943471413991
1081.0,0.028678312429952182
1080.0,0.028260939580767724
1079.0,0.027829246972468136
1078.0,0.02738178709478965
1077.0,0.026938984083409636
1076.0,0.02650729107304275
1075.0,0.02607026680016379
1074.0,0.025624805155092054
1073.0,0.025191408847994666
1072.0,0.024780378870120835
1071.0,0.024381205622097335
1070.0,0.023992356645836967
1069.0,0.02362921289872401
1068.0,0.02329562158698743
1067.0,0.022978244922041723
1066.0,0.022675722401530103
1065.0,0.022404850730801895
1064.0,0.022171494028475704
1063.0,0.02196199442393308
1062.0,0.02176933707482807
1061.0,0.021602457515515816
1060.0,0.02146319417563924
1059.0,0.021338982462783453
1058.0,0.021225711707843875
1057.0,0.021134361398749538
1056.0,0.02106814614793845
1055.0,0.02101577292282892
1054.0,0.020974377868986305
1053.0,0.0209572424753941
1052.0,0.020970042391677865
1051.0,0.021001362102286404
1050.0,0.021046452489605808
1049.0,0.021114901589865065
1048.0,0.021203802561991423
1047.0,0.021289436109282755
1046.0,0.0213521666371167
1045.0,0.021384588111369885
1044.0,0.021374535190358725
1043.0,0.021308820375177687
1042.0,0.021198387991011737
1041.0,0.021074780308149917
1040.0,0.02095593766906509
1039.0,0.02083596671562943
1038.0,0.020709115526658065
1037.0,0.020579321166258813
1036.0,0.02044245354441237
1035.0,0.020283212501638594
1034.0,0.020096333044215178
1033.0,0.019890626564544087
1032.0,0.01966783306211971
1031.0,0.01941833634343926
1030.0,0.01914166774709974
1029.0,0.018850592551147727
1028.0,0.018551399153904555
1027.0,0.018239961657116263
1026.0,0.017920143864547634
1025.0,0.017606901497429977
1024.0,0.017308232024616513
1023.0,0.01702149435971987
1022.0,0.016749594568469132
1021.0,0.01650322191424544
1020.0,0.016283459677381953
1019.0,0.016078422477548544
1018.0,0.015881299716262672
1017.0,0.015697211454847475
1016.0,0.015529116681657594
1015.0,0.0153720253224272
1014.0,0.015225230746037106
1013.0,0.01509643016420199
1012.0,0.01498923232164942
1011.0,0.014898601961915805
1010.0,0.014822162144405508
1009.0,0.014764600083870892
1008.0,0.014728221532229947
1007.0,0.014711924059888637
1006.0,0.014725006698763275
1005.0,0.014793064641936665
1004.0,0.014948818751038838
1003.0,0.015227312015935524
1002.0,0.01566361421429364
1001.0,0.016262446033147058
1000.0,0.016941932780571253
999.0,0.017513502835762796
998.0,0.01775095611898711
997.0,0.01751085710561141
996.0,0.01680894341435745
995.0,0.015804443192845696
994.0,0.014712511090873095
993.0,0.013702420427109705
992.0,0.012848301692008141
991.0,0.012151693678867006
990.0,0.011588690852439892
989.0,0.011134004174697646
988.0,0.01076354558782478
987.0,0.010458682374134309
986.0,0.010212992977808482
985.0,0.01002856001940278
984.0,0.009907030109971467
983.0,0.009851223227057069
982.0,0.009874504071182044
981.0,0.010001537350787638
980.0,0.01025844123699696
979.0,0.0106651332653018
978.0,0.011232976980518979
977.0,0.01195580270772241
976.0,0.012787925989094603
975.0,0.013622970594068903
974.0,0.014297225833426568
973.0,0.014630838389820374
972.0,0.014502586608272715
971.0,0.013928512261104128
970.0,0.01307764615295147
969.0,0.012183937519420728
968.0,0.011423421562135008
967.0,0.01086220134237346
966.0,0.01048827591330445
965.0,0.01026340559541124
964.0,0.010148994826687461
963.0,0.010112300772666952
962.0,0.010131034121009925
961.0,0.010193427625292854
960.0,0.010290201130857655
959.0,0.010410775916535796
958.0,0.01054921588481141
957.0,0.010706407340987148
956.0,0.010882407777587986
955.0,0.011072701387182589
954.0,0.01127432109941744
953.0,0.011487958216570785
952.0,0.011711100243988477
951.0,0.011937542828185141
950.0,0.012167141584739784
949.0,0.012407180246548216
948.0,0.012660534874986279
947.0,0.012921771154297119
946.0,0.013188153183023535
945.0,0.013463681165219153
944.0,0.013747337375019274
943.0,0.014027407284525329
942.0,0.014291847184174988
941.0,0.014533528290876223
940.0,0.014741380470486131
939.0,0.014900387008117449
938.0,0.01500847161465707
937.0,0.015082642652548162
936.0,0.015142249128069097
935.0,0.015196132480319556
934.0,0.015248336840641263
933.0,0.015301933437419344
932.0,0.015351766076507789
931.0,0.015386579255922888
930.0,0.015404484930210967
929.0,0.015414947626676456
928.0,0.0154214174084412
927.0,0.015415209471417144
926.0,0.015391504791163989
925.0,0.015357840827291
924.0,0.01532058598739696
923.0,0.015275522717846213
922.0,0.015217790780883474
921.0,0.015149648039532285
920.0,0.015073171579098276
919.0,0.014986342768370738
918.0,0.014890666795993174
917.0,0.014791619938364562
916.0,0.014687887467248938
915.0,0.014571054566675963
914.0,0.01443861657170964
913.0,0.014295454179149389
912.0,0.014139988665036726
911.0,0.013962284589739374
910.0,0.013760087651073564
909.0,0.013544588150231865
908.0,0.013327319127843441
907.0,0.013114947071885683
906.0,0.01292096780632777
905.0,0.012768868036144465
904.0,0.01267603250578134
903.0,0.012639602044503945
902.0,0.012635750238404738
901.0,0.012619908918695279
900.0,0.012527561159509579
899.0,0.012296027915298095
898.0,0.011902953026566708
897.0,0.011381041641127906
896.0,0.010793230384879823
895.0,0.010200522524492252
894.0,0.009646764579407281
893.0,0.009153237579862899
892.0,0.008718382798207323
891.0,0.00832867648658931
890.0,0.007974144559673045
889.0,0.007652057749917189
888.0,0.007359348636754776
887.0,0.007090157841520308
886.0,0.0068416468271595785
885.0,0.006614898595493853
884.0,0.006408566363402373
883.0,0.006218321131320769
882.0,0.006044619510928757
881.0,0.005894525003798386
880.0,0.005772350469585904
879.0,0.005672700177014515
878.0,0.005584612100414995
877.0,0.005497800796624444
876.0,0.005402980439588827
875.0,0.005291975026898307
874.0,0.005160827553667402
873.0,0.005008372818134122
872.0,0.004831014213396297
871.0,0.004626397491476666
870.0,0.004404893174046104
869.0,0.00418995921725338
868.0,0.0040021925983456524
867.0,0.0038464897150656888
866.0,0.0037164909820904066
865.0,0.00360629826378449
864.0,0.0035134041759597202
863.0,0.003434117420093384
862.0,0.0033633228408162085
861.0,0.003299087990567391
860.0,0.003242579045700897
859.0,0.0031928954472756257
858.0,0.003146404527333266
857.0,0.0031018343077661506
856.0,0.003061433493144467
855.0,0.0030259590881154003
854.0,0.0029936414934186393
853.0,0.0029665463021658657
852.0,0.002953345977457722
851.0,0.002962841354194161
850.0,0.0029990514123758357
849.0,0.0030664932454318432
848.0,0.0031786819301886145
847.0,0.0033647443728226575
846.0,0.0036788566757907457
845.0,0.004197048928320313
844.0,0.00496145598590784
843.0,0.005877752125630603
842.0,0.006670267821014467
841.0,0.007005903126290559
840.0,0.006728153667117175
839.0,0.005984291191872857
838.0,0.005108136543519815
837.0,0.004377028400463022
836.0,0.00388012738545241
835.0,0.0035696094135799546
834.0,0.0033717561373404325
833.0,0.003238489412831839
832.0,0.003140416300449679
831.0,0.003058261984534596
830.0,0.0029866539153329697
829.0,0.0029284481871462553
828.0,0.0028817455166539312
827.0,0.0028410818415624053
826.0,0.0028078136476012584
825.0,0.0027872171349151266
824.0,0.002777583268077339
823.0,0.002773365542127852
822.0,0.0027754738272434895
821.0,0.002787870888277918
820.0,0.0028093332604761725
819.0,0.0028386984338008483
818.0,0.0028837982249901566
817.0,0.0029574241508000376
816.0,0.003068474036144908
815.0,0.0032232400457036046
814.0,0.0034290153755436002
813.0,0.0036843421134312732
812.0,0.0039646385809224815
811.0,0.0042258049305969585
810.0,0.004424990128286444
809.0,0.00453428716127848
808.0,0.0045398421281094056
807.0,0.0044441735404751135
806.0,0.0042740583016484535
805.0,0.0040737045368757045
804.0,0.0038828533002031457
803.0,0.0037234939269103744
802.0,0.003602822972720795
801.0,0.003518438839651288
800.0,0.0034598629791626288
799.0,0.0034136821870190057
798.0,0.0033716515252609075
797.0,0.003331724313980884
796.0,0.003292969634131176
795.0,0.003255150804020928
794.0,0.003221685244831506
793.0,0.003195873657628299
792.0,0.0031745463372978705
791.0,0.0031516332274421095
790.0,0.0031269530397746454
789.0,0.003104864008140737
788.0,0.0030856129916605295
787.0,0.0030657107844856233
786.0,0.0030463221691198177
785.0,0.003033203467664218
784.0,0.0030277580343548056
783.0,0.0030255299698411457
782.0,0.0030240608631997325
781.0,0.0030248828122313044
780.0,0.0030272337980960986
779.0,0.0030279120210542944
778.0,0.003028972655360394
777.0,0.003037818695272183
776.0,0.003057364980727074
775.0,0.003082949402644983
774.0,0.0031112031628579267
773.0,0.0031454814252640517
772.0,0.0031898197183037047
771.0,0.003243347610064163
770.0,0.00330331010927659
769.0,0.003368534088931712
768.0,0.003437721192406963
767.0,0.003509045151329774
766.0,0.003583019846361401
765.0,0.0036610361633664865
764.0,0.0037404402328876356
763.0,0.0038163634316209748
762.0,0.003888579343766685
761.0,0.003960574824088143
760.0,0.00403178010074628
759.0,0.00409741099016434
758.0,0.004155918602273996
757.0,0.00420922344098568
756.0,0.004255761724241108
755.0,0.004291817793808628
754.0,0.004320372920130969
753.0,0.004349695706221127
752.0,0.004382041063385855
751.0,0.004412298711564344
750.0,0.004438070892530191
749.0,0.004461616047460553
748.0,0.00448097446594113
747.0,0.004489214549843315
746.0,0.004484921381499106
745.0,0.004474360767608848
744.0,0.004461147143857348
743.0,0.004442922743520166
742.0,0.004420150258373796
741.0,0.0043986144911634315
740.0,0.004380912158974615
739.0,0.004364651192365163
738.0,0.0043509939504780965
737.0,0.004346839731055919
736.0,0.0043597482986537164
735.0,0.0044018394050460985
734.0,0.004495691270591887
733.0,0.004655540693370236
732.0,0.004852385493603232
731.0,0.00501202420249912
730.0,0.005065687506971398
729.0,0.005004010362051302
728.0,0.004877760558604904
727.0,0.004753673623804083
726.0,0.004675954789725547
725.0,0.004660211451517847
724.0,0.004708707689718447
723.0,0.0048232328691312585
722.0,0.004996173835345697
721.0,0.0051827659657793165
720.0,0.005296479620928463
719.0,0.005266568634593974
718.0,0.005103948882033627
717.0,0.004886114843133706
716.0,0.004686868618856591
715.0,0.0045357330503487375
714.0,0.004427456761267021
713.0,0.00434650386253344
712.0,0.004279106585551574
711.0,0.004219397493153669
710.0,0.004177446756992163
709.0,0.004174853146289258
708.0,0.004225102945935271
707.0,0.004324402455935591
706.0,0.004464756479238701
705.0,0.004646450368523536
704.0,0.004870557949817321
703.0,0.005126448017914769
702.0,0.005393211583110508
701.0,0.005644603949507738
700.0,0.0058448827861057265
699.0,0.0059511762908693155
698.0,0.005931687110340519
697.0,0.005780656061835993
696.0,0.00551763591274953
695.0,0.00518342825269349
694.0,0.004837917268170086
693.0,0.004541951065072094
692.0,0.004325904364035836
691.0,0.004180590997479878
690.0,0.00408057896611758
689.0,0.004007212757458958
688.0,0.003947759033763737
687.0,0.003890261099373866
686.0,0.0038331010892057402
685.0,0.0037869393096701693
684.0,0.0037572875243803427
683.0,0.003736613507289571
682.0,0.0037181744949833506
681.0,0.003704701306030022
680.0,0.0036975708106251337
679.0,0.003690489800921154
678.0,0.0036814743168476372
677.0,0.003681622290975522
676.0,0.003690225963681057
675.0,0.003701386986792829
674.0,0.0037134936590896145
673.0,0.003721312910772826
672.0,0.003714772624341337
671.0,0.003694121963539526
670.0,0.0036717837790518366
669.0,0.0036435496250152473
668.0,0.003595867513971635
667.0,0.0035604691334106507
666.0,0.0035495390960996274
665.0,0.0035521001714451366
664.0,0.0035629573278690117
663.0,0.003556507207866221
662.0,0.003518033773434154
661.0,0.0034689641796296963
660.0,0.003432059480127529
659.0,0.003404194373408274
658.0,0.003378021836775713
657.0,0.003362740639106408
656.0,0.0033542249071929625
655.0,0.0033365003716174114
654.0,0.003308688593558132
653.0,0.0032879119594111904
652.0,0.003282435653850259
651.0,0.0032799196242697063
650.0,0.0032718223653585756
649.0,0.0032662092149532557
648.0,0.003264681609565079
647.0,0.003252421208510879
646.0,0.0032254084121870353
645.0,0.00320201937460491
644.0,0.003194218130477827
643.0,0.003190787962172396
642.0,0.0031812897290185663
641.0,0.0031736531911429385
640.0,0.003173185757591587
639.0,0.0031683695347088647
638.0,0.003154192394290439
637.0,0.003144933175002732
636.0,0.0031465293415268783
635.0,0.0031431465945967827
634.0,0.003128795597268901
633.0,0.0031221688105462376
632.0,0.0031310759516714297
631.0,0.0031342579537286495
630.0,0.003116630623687805
629.0,0.003092542807062785
628.0,0.0030739457864217487
627.0,0.003047354518352665
626.0,0.0030042690209174227
625.0,0.0029643576465435487
624.0,0.002940334079175679
623.0,0.002911468681851626
622.0,0.002862303072463993
621.0,0.0028141430172600145
620.0,0.002789099814977776
619.0,0.0027806307793124645
618.0,0.002784422773461916
617.0,0.002818744286766329
616.0,0.0028832970345025397
615.0,0.002942837907994225
614.0,0.002982065826894871
613.0,0.0030273986911299785
612.0,0.003092402327186987
611.0,0.003154791858347137
610.0,0.003209834457095346
609.0,0.003291278948256258
608.0,0.0034105247447715065
607.0,0.0035322151182642283
606.0,0.003637475536181125
605.0,0.003752202355667542
604.0,0.0038804825360506737
603.0,0.003981615317898484
602.0,0.004046464135363777
601.0,0.004122582312965785
600.0,0.00422950929236445
599.0,0.004320366990059584
598.0,0.0043619278274231385
597.0,0.004382786038097695
596.0,0.00440577331737051
595.0,0.004412976095812007
594.0,0.004411741205227866
593.0,0.004451609452384731
592.0,0.004529805781164681
591.0,0.004564345462263513
590.0,0.0045233544358105875
589.0,0.0044795374380676885
588.0,0.004475234705112623
587.0,0.00445311187410021
586.0,0.004371188176925417
585.0,0.004284897228612318
584.0,0.004240420515190687
583.0,0.004189055697202744
582.0,0.004089040927790078
581.0,0.003992065401907474
580.0,0.003936347124518357
579.0,0.0038613027926660756
578.0,0.0037242940729637925
577.0,0.0035941236004367067
576.0,0.0035352246367184956
575.0,0.003506611726708981
574.0,0.0034601190874124256
573.0,0.003435683604915949
572.0,0.0034646244597582847
571.0,0.003494138425134548
570.0,0.003486310116270798
569.0,0.0034913866351170848
568.0,0.0035364341411845256
567.0,0.003558234952980145
566.0,0.003527467618970199
565.0,0.003513654560874307
564.0,0.00354946561334067
563.0,0.003564885635465786
562.0,0.003520327679528236
561.0,0.0034804431131723722
560.0,0.0034823521548674376
559.0,0.003468727943066777
558.0,0.0034169296158385112
557.0,0.003399159051495319
556.0,0.003433327637867257
555.0,0.003415859563149208
554.0,0.0032912211532514068
553.0,0.00314553363475243
552.0,0.0030329989228440636
551.0,0.002877721423899979
550.0,0.002633864774882139
