cm-1,A
4000.0,0.001899889394643972
3999.0,0.0019067328691262917
3998.0,0.0019135620103402683
3997.0,0.0019178338021787087
3996.0,0.0019185575036972094
3995.0,0.0019166258375636455
3994.0,0.0019141840699215744
3993.0,0.0019134861220401439
3992.0,0.0019157429024356464
3991.0,0.0019206369841737675
3990.0,0.0019263885281577725
3989.0,0.0019303002740671993
3988.0,0.0019297133656561182
3987.0,0.0019234608352921255
3986.0,0.0019134150635453364
3985.0,0.001904259835378978
3984.0,0.0019000015979840153
3983.0,0.0019007138284274114
3982.0,0.001902792280599992
3981.0,0.0019028128276362259
3980.0,0.0019009967014238659
3979.0,0.001899758663231126
3978.0,0.001900259827619574
3977.0,0.001901327522611448
3976.0,0.0019017018088748078
3975.0,0.0019023475446647954
3974.0,0.0019050121754092698
3973.0,0.0019089248248993378
3972.0,0.0019105366781867958
3971.0,0.0019070379136100018
3970.0,0.001899744795285721
3969.0,0.0018934197952452728
3968.0,0.001891590182812391
3967.0,0.0018934979609397376
3966.0,0.0018957887259252906
3965.0,0.0018965834600723499
3964.0,0.0018975853096120559
3963.0,0.001901577130126939
3962.0,0.001908707518242481
3961.0,0.0019159604653360297
3960.0,0.0019198251777559107
3959.0,0.0019192542910099713
3958.0,0.0019154323098241688
3957.0,0.0019099459179412743
3956.0,0.0019041021746160126
3955.0,0.001899106422880934
3954.0,0.001896248075271304
3953.0,0.0018965335763183972
3952.0,0.001899922858249249
3951.0,0.0019049580845899188
3950.0,0.0019092096229102991
3949.0,0.0019100725935636597
3948.0,0.001906433418028681
3947.0,0.001899942196770929
3946.0,0.001894535866902389
3945.0,0.0018943738933206188
3944.0,0.0019007074824672707
3943.0,0.0019104698057142541
3942.0,0.0019180495978688167
3941.0,0.0019201348028453748
3940.0,0.001918059020560534
3939.0,0.0019143966467463176
3938.0,0.0019106860601578362
3937.0,0.0019079236909628258
3936.0,0.0019073064038530045
3935.0,0.0019099451905680398
3934.0,0.0019155116406527964
3933.0,0.001922177923703043
3932.0,0.0019277510307107145
3931.0,0.0019312082198570273
3930.0,0.0019327986028716908
3929.0,0.0019327988341690293
3928.0,0.0019314580721087422
3927.0,0.0019302078085906027
3926.0,0.001931322171743952
3925.0,0.0019352781855137237
3924.0,0.0019400942938507548
3923.0,0.0019441509864024406
3922.0,0.0019475679773686963
3921.0,0.0019499459719368104
3920.0,0.001950157395163432
3919.0,0.001948983191201663
3918.0,0.0019486276311454225
3917.0,0.0019493169402468136
3916.0,0.0019482768769041618
3915.0,0.001942876619192803
3914.0,0.0019337110171574411
3913.0,0.00192408128653376
3912.0,0.001917905273791107
3911.0,0.0019175866515885086
3910.0,0.0019212183407126666
3909.0,0.001923364389105192
3908.0,0.0019190873392394094
3907.0,0.0019081280081613135
3906.0,0.0018956631106963498
3905.0,0.0018889023454207667
3904.0,0.0018897998501856807
3903.0,0.0018938867066526587
3902.0,0.0018977837161063276
3901.0,0.0019019691590341599
3900.0,0.0019076504336300705
3899.0,0.0019151047242717957
3898.0,0.0019247703296850498
3897.0,0.0019370909686854411
3896.0,0.0019495734854323528
3895.0,0.001957552931952603
3894.0,0.0019593038297752363
3893.0,0.0019568190899437337
3892.0,0.0019502579995392868
3891.0,0.0019367986987710991
3890.0,0.00191870193976715
3889.0,0.001906113461304296
3888.0,0.0019057365226469052
3887.0,0.0019159861111421317
3886.0,0.001929724183373603
3885.0,0.0019365761692994848
3884.0,0.0019333617776339067
3883.0,0.0019283298983120965
3882.0,0.001928104364674955
3881.0,0.0019330407715217176
3880.0,0.0019397565484883614
3879.0,0.001943835634149587
3878.0,0.0019462156402260756
3877.0,0.0019487665608999153
3876.0,0.0019493904140840085
3875.0,0.0019479426225178093
3874.0,0.0019459478095280838
3873.0,0.0019440146424113628
3872.0,0.0019441266593656316
3871.0,0.0019478575532246717
3870.0,0.0019522923678673473
3869.0,0.001951056132310019
3868.0,0.00194357481870625
3867.0,0.0019336932087737194
3866.0,0.0019192214975557978
3865.0,0.0019013813939080556
3864.0,0.001891149223859843
3863.0,0.0018961235862781653
3862.0,0.0019125042337723884
3861.0,0.0019293189735823777
3860.0,0.0019370265392673613
3859.0,0.0019328428565675987
3858.0,0.0019184618338628405
3857.0,0.0018982003378073668
3856.0,0.0018787525334597699
3855.0,0.001870931655111124
3854.0,0.0018814068512883046
3853.0,0.0018950693187070352
3852.0,0.001901736003523117
3851.0,0.0019185432644189858
3850.0,0.0019453103311032143
3849.0,0.0019602640325504317
3848.0,0.0019565598768011487
3847.0,0.001944602035097805
3846.0,0.0019352247716289891
3845.0,0.0019320330346782547
3844.0,0.0019332747033333837
3843.0,0.0019352955107637998
3842.0,0.0019359915214027038
3841.0,0.0019352511010610005
3840.0,0.0019320015184374848
3839.0,0.0019248024383887456
3838.0,0.0019156065475515664
3837.0,0.0019096826202354158
3836.0,0.0019092243958585744
3835.0,0.0019104252881801628
3834.0,0.0019073284621504679
3833.0,0.0018992224356385343
3832.0,0.0018916029338043273
3831.0,0.001889837918178172
3830.0,0.0018956237979897645
3829.0,0.0019076382662893071
3828.0,0.0019216531910201187
3827.0,0.0019318292142509628
3826.0,0.0019334986474560415
3825.0,0.0019268608844792505
3824.0,0.00191635680885122
3823.0,0.0019065545020526607
3822.0,0.001900814347808955
3821.0,0.0018972462024617201
3820.0,0.0018905868374385014
3819.0,0.0018877453110302854
3818.0,0.0018943228839068587
3817.0,0.0019018103254588754
3816.0,0.0019044844221179037
3815.0,0.0019064564100192837
3814.0,0.0019168806381089187
3813.0,0.0019381607400790796
3812.0,0.001957728431642618
3811.0,0.001963188575517048
3810.0,0.001956320061506725
3809.0,0.0019455086592684214
3808.0,0.001934726787218598
3807.0,0.0019212510019521764
3806.0,0.0019040718152641654
3805.0,0.0018918785641945006
3804.0,0.0018927667034488761
3803.0,0.0019043395863616026
3802.0,0.0019188079667120449
3801.0,0.0019238071327310354
3800.0,0.001916474747939967
3799.0,0.0019115666518367876
3798.0,0.0019149771691009732
3797.0,0.0019193494089873187
3796.0,0.001920826799189914
3795.0,0.0019214133654917422
3794.0,0.0019242883667047353
3793.0,0.001929002594685321
3792.0,0.0019320609115268364
3791.0,0.0019329180811812167
3790.0,0.0019347572919439903
3789.0,0.0019390567665057575
3788.0,0.0019444068947135772
3787.0,0.0019504756866496197
3786.0,0.0019588762106503574
3785.0,0.0019688375278840036
3784.0,0.0019753928948114657
3783.0,0.00197421734814334
3782.0,0.0019659401738127695
3781.0,0.0019542535260987062
3780.0,0.0019435464113874324
3779.0,0.0019374956142729433
3778.0,0.0019388847892343754
3777.0,0.0019496659891550354
3776.0,0.0019668079662640598
3775.0,0.0019825017769130983
3774.0,0.001991509703373577
3773.0,0.0019951055902133964
3772.0,0.0019967947709929796
3771.0,0.0019969216414051
3770.0,0.0019932536283449494
3769.0,0.0019871046644486944
3768.0,0.0019853632107411927
3767.0,0.0019917283236618333
3766.0,0.0020001941252874643
3765.0,0.0020027253991021375
3764.0,0.0019997501217949155
3763.0,0.0019995012506416904
3762.0,0.0020071776977042093
3761.0,0.002018665282522496
3760.0,0.0020255322720855685
3759.0,0.002023424705373276
3758.0,0.002016163190686775
3757.0,0.002010096900347093
3756.0,0.0020059110628853675
3755.0,0.0020006010895858043
3754.0,0.0019929907976971783
3753.0,0.001986343137877317
3752.0,0.0019856738275039598
3751.0,0.001989273143973766
3750.0,0.0019896860838037045
3749.0,0.0019868010281677414
3748.0,0.001986731103291593
3747.0,0.0019909016186948126
3746.0,0.0019975750739734312
3745.0,0.002006213724469335
3744.0,0.002007493718470801
3743.0,0.0019991305503563954
3742.0,0.002000655486436616
3741.0,0.0020138788764763045
3740.0,0.002018967062854664
3739.0,0.002010555094694247
3738.0,0.001999776035762815
3737.0,0.0019972062869038467
3736.0,0.002001439020018685
3735.0,0.0020016206781358335
3734.0,0.0019931817000519605
3733.0,0.0019827027029757703
3732.0,0.0019763040926888717
3731.0,0.0019759682381403944
3730.0,0.0019832866037312793
3729.0,0.0019964073566323937
3728.0,0.0020089986677828183
3727.0,0.0020171776376542525
3726.0,0.0020239705195696867
3725.0,0.0020359357015133418
3724.0,0.0020557340311454964
3723.0,0.0020780287000973334
3722.0,0.0020960305240069984
3721.0,0.0021098164883600404
3720.0,0.002125466040179076
3719.0,0.0021480097716667264
3718.0,0.002177609236339245
3717.0,0.0022111338297274327
3716.0,0.002245103837640735
3715.0,0.0022779747545231795
3714.0,0.0023114304916992756
3713.0,0.002351357703574307
3712.0,0.002402481287450727
3711.0,0.002460186275242959
3710.0,0.0025194958073881135
3709.0,0.0025851352437768734
3708.0,0.0026619389877898325
3707.0,0.002747370951877593
3706.0,0.002835185322322412
3705.0,0.002922376689669567
3704.0,0.0030125795851832305
3703.0,0.003113218378869894
3702.0,0.0032238725902911025
3701.0,0.003329384346162186
3700.0,0.003414232045289312
3699.0,0.0034761152932590344
3698.0,0.00351856603901614
3697.0,0.0035417019831360044
3696.0,0.00354367373065005
3695.0,0.003525762151149068
3694.0,0.0034926281154492008
3693.0,0.0034477342940252365
3692.0,0.003391772872132919
3691.0,0.003325020523052746
3690.0,0.003250105366094735
3689.0,0.0031753547348246213
3688.0,0.00311394060415629
3687.0,0.0030768086514630704
3686.0,0.0030637049496667406
3685.0,0.0030622859181575895
3684.0,0.003059424813903722
3683.0,0.003052583345561013
3682.0,0.0030491781010537093
3681.0,0.0030576270664116533
3680.0,0.003078614039599841
3679.0,0.0031059544625037924
3678.0,0.003134337730456637
3677.0,0.0031600835791522047
3676.0,0.0031738641836716692
3675.0,0.003164549377596912
3674.0,0.003144878923140958
3673.0,0.003143251559004266
3672.0,0.003165422305566195
3671.0,0.0032016618231049928
3670.0,0.003244183611614335
3669.0,0.003281267587520075
3668.0,0.0033100760304598815
3667.0,0.0033378028921756744
3666.0,0.003364466541063698
3665.0,0.003388391885283581
3664.0,0.0034136303836410998
3663.0,0.0034450500384827732
3662.0,0.003482900433554167
3661.0,0.00352291459065232
3660.0,0.003560640226979327
3659.0,0.0035953464118133023
3658.0,0.0036297288878893424
3657.0,0.003664731606608038
3656.0,0.0036957219230835375
3655.0,0.0037199431183194964
3654.0,0.0037437799982605767
3653.0,0.0037733569919949136
3652.0,0.0038101570485023625
3651.0,0.0038570744878208465
3650.0,0.003910690044948631
3649.0,0.003955814330773887
3648.0,0.003988561785151426
3647.0,0.004022653926360597
3646.0,0.0040667378240129915
3645.0,0.004118906227679272
3644.0,0.004174791960911583
3643.0,0.004230739633661203
3642.0,0.004283018592887401
3641.0,0.004328061997134973
3640.0,0.004364962102732066
3639.0,0.004396958802668589
3638.0,0.004429793253273782
3637.0,0.004469857952613431
3636.0,0.00452219524340265
3635.0,0.004586316338961091
3634.0,0.00465411740362121
3633.0,0.0047158821190308306
3632.0,0.004770784590296339
3631.0,0.004829337189921138
3630.0,0.004905704844711598
3629.0,0.004994700866102437
3628.0,0.0050713145468520345
3627.0,0.005138694583526499
3626.0,0.0052207515766023675
3625.0,0.0053176243653187405
3624.0,0.005415125854467226
3623.0,0.005505284763626321
3622.0,0.005586393413239767
3621.0,0.005655193800112701
3620.0,0.005703084292071431
3619.0,0.0057239567786209625
3618.0,0.0057255495577019505
3617.0,0.0057232421948226605
3616.0,0.005723474588693723
3615.0,0.005724298345253308
3614.0,0.005727004976587189
3613.0,0.005737046670642625
3612.0,0.005756524703796898
3611.0,0.005783973678214847
3610.0,0.005819067432672561
3609.0,0.00586188594187492
3608.0,0.005908024623917065
3607.0,0.005949918941921447
3606.0,0.005985375718788089
3605.0,0.006018117919216331
3604.0,0.006051936078348534
3603.0,0.00608980330549707
3602.0,0.006133961147030691
3601.0,0.006182865955905195
3600.0,0.006230329982762494
3599.0,0.006270832056255034
3598.0,0.006304716239747387
3597.0,0.006336960800698778
3596.0,0.0063729400896169065
3595.0,0.006414453655398765
3594.0,0.006458240511468844
3593.0,0.006498945732815445
3592.0,0.006533880585753376
3591.0,0.006564224563940074
3590.0,0.006594525616579084
3589.0,0.006631131703644656
3588.0,0.0066768330963593555
3587.0,0.00672735654231664
3586.0,0.00677886129763927
3585.0,0.006831583690899097
3584.0,0.006883068232962352
3583.0,0.006928849031639605
3582.0,0.006968925819274328
3581.0,0.007006680974320828
3580.0,0.007043583209322815
3579.0,0.007078916543270808
3578.0,0.007113649840583497
3577.0,0.007150476028786367
3576.0,0.007190808644117875
3575.0,0.0072343100452151275
3574.0,0.007281059686849925
3573.0,0.007331443395334217
3572.0,0.007384347998346707
3571.0,0.007437995150390139
3570.0,0.007492569275160744
3569.0,0.007549936350610541
3568.0,0.007608200467064008
3567.0,0.0076586820503906
3566.0,0.00769582764254835
3565.0,0.007725696193152757
3564.0,0.007757294403301357
3563.0,0.007794944097422657
3562.0,0.007839750192905018
3561.0,0.007889160799290761
3560.0,0.007935728476837756
3559.0,0.007973101790529083
3558.0,0.008003534435619877
3557.0,0.008035196279999822
3556.0,0.008073437666629747
3555.0,0.008117986036318883
3554.0,0.008166745815700755
3553.0,0.00821831438690098
3552.0,0.008270121721165547
3551.0,0.008318763470009864
3550.0,0.008363374797567973
3549.0,0.008405919782035632
3548.0,0.0084482688203712
3547.0,0.008490568582013542
3546.0,0.00853236592147981
3545.0,0.008574502677414199
3544.0,0.008618864995649232
3543.0,0.008666170621529176
3542.0,0.00871475389363228
3541.0,0.00876169934857739
3540.0,0.008805331767082465
3539.0,0.008847009200103085
3538.0,0.008890074823402856
3537.0,0.00893653562638624
3536.0,0.008985176463442638
3535.0,0.00903363384427291
3534.0,0.009080751925785816
3533.0,0.009126199186288849
3532.0,0.009170315925375698
3531.0,0.0092155147466438
3530.0,0.009265533305874785
3529.0,0.009320711740724802
3528.0,0.00937598445175772
3527.0,0.00942604259250536
3526.0,0.009470702395534545
3525.0,0.00951298326112909
3524.0,0.009554591570776353
3523.0,0.00959565537506568
3522.0,0.009636686151563656
3521.0,0.009678122652398213
3520.0,0.009719382957108865
3519.0,0.009760434098844006
3518.0,0.00980254490753312
3517.0,0.009845458154794758
3516.0,0.009885902544863667
3515.0,0.009921651574258684
3514.0,0.009955528068661042
3513.0,0.00999293458633723
3512.0,0.010036190700095886
3511.0,0.010082987385323991
3510.0,0.010129308467932445
3509.0,0.010172063564383115
3508.0,0.010210587509905316
3507.0,0.010247811200171729
3506.0,0.010288516731760436
3505.0,0.010334290874560238
3504.0,0.010380893495777152
3503.0,0.010422775435828676
3502.0,0.01045961358003305
3501.0,0.010495444187533958
3500.0,0.01053314676674863
3499.0,0.010573632950565164
3498.0,0.01061768048870606
3497.0,0.010663944541966805
3496.0,0.01070725852566017
3495.0,0.0107434698754835
3494.0,0.01077504997566551
3493.0,0.010808173918134219
3492.0,0.010845410656017117
3491.0,0.01088479786077257
3490.0,0.01092463562489208
3489.0,0.010964550772571238
3488.0,0.011002276478173333
3487.0,0.011034473924168725
3486.0,0.011062034103321204
3485.0,0.011090931356631993
3484.0,0.01112632149589138
3483.0,0.011167562651644682
3482.0,0.01120956661813476
3481.0,0.011247896945845265
3480.0,0.011282245349248696
3479.0,0.011316013846899937
3478.0,0.011352777065911715
3477.0,0.011392510662622576
3476.0,0.011431694235411398
3475.0,0.01146772463330513
3474.0,0.011501847456892108
3473.0,0.011536117210535997
3472.0,0.011569351341029507
3471.0,0.011598736678130786
3470.0,0.011624229675344057
3469.0,0.011648825735612774
3468.0,0.011675129715138182
3467.0,0.011703556254616988
3466.0,0.011732939185862457
3465.0,0.011760857603515142
3464.0,0.011784660043340372
3463.0,0.011804631213861253
3462.0,0.011824670269033492
3461.0,0.011847474386107833
3460.0,0.01187093173740187
3459.0,0.011891982343276548
3458.0,0.01191183682103747
3457.0,0.011933907696943155
3456.0,0.011958335289124466
3455.0,0.01198228525064498
3454.0,0.01200428110756078
3453.0,0.01202450773347077
3452.0,0.012042138374759344
3451.0,0.012056473918367228
3450.0,0.012070174443816847
3449.0,0.01208742681869571
3448.0,0.01210886706935678
3447.0,0.012131621463805585
3446.0,0.012154187751520263
3445.0,0.01217686665238757
3444.0,0.012197360571224903
3443.0,0.012211329896742194
3442.0,0.012218664098788998
3441.0,0.012225008064699172
3440.0,0.012235354002643948
3439.0,0.012249364764018361
3438.0,0.012264145648581316
3437.0,0.01227802778108542
3436.0,0.01229001685611276
3435.0,0.012298696718516874
3434.0,0.012304127487762367
3433.0,0.012309331327717138
3432.0,0.01231790781955792
3431.0,0.012330565470713708
3430.0,0.012344719113444062
3429.0,0.012356881925158795
3428.0,0.012365375511842996
3427.0,0.012371448100572453
3426.0,0.012377971464117494
3425.0,0.012386675569891276
3424.0,0.012396755863885495
3423.0,0.012406192512539457
3422.0,0.012413523941464246
3421.0,0.012418055728988879
3420.0,0.012419896479980107
3419.0,0.01242076830477648
3418.0,0.012423120681449205
3417.0,0.01242714353492093
3416.0,0.01243016385323827
3415.0,0.012430415756940668
3414.0,0.012430022820435002
3413.0,0.01243259127238427
3412.0,0.012439241089999912
3411.0,0.012448621092611177
3410.0,0.012459216637180609
3409.0,0.012469731155603769
3408.0,0.012478453341426422
3407.0,0.012484228676948284
3406.0,0.01248731881834151
3405.0,0.012488206880270879
3404.0,0.012486988981938955
3403.0,0.01248503782366624
3402.0,0.012485161950440946
3401.0,0.012488379130875173
3400.0,0.012492584848396682
3399.0,0.01249613945183751
3398.0,0.012500147883090021
3397.0,0.012504872948781661
3396.0,0.012506821900006805
3395.0,0.012502997111648304
3394.0,0.012496466939629022
3393.0,0.01249429492283124
3392.0,0.012500615146089987
3391.0,0.012514265689353763
3390.0,0.012531470415157323
3389.0,0.01254728150934684
3388.0,0.012556247666556608
3387.0,0.012556445595067084
3386.0,0.012552883970166163
3385.0,0.012553025095493813
3384.0,0.0125584142362432
3383.0,0.012564028039294992
3382.0,0.012565810277885255
3381.0,0.01256531369692767
3380.0,0.012566712703351005
3379.0,0.012572186154406787
3378.0,0.012580771690662414
3377.0,0.012589378168757296
3376.0,0.01259458393292695
3375.0,0.012595797946234
3374.0,0.01259703574344108
3373.0,0.01260325641511072
3372.0,0.012614361027709034
3371.0,0.012624616850931072
3370.0,0.01262848109067873
3369.0,0.012625662724248712
3368.0,0.01262038902453092
3367.0,0.012617394840952974
3366.0,0.01261870719386828
3365.0,0.01262260905618021
3364.0,0.012625426176519091
3363.0,0.012625558042029498
3362.0,0.01262569215272812
3361.0,0.01262987921121212
3360.0,0.012638902053650578
3359.0,0.01264986334230076
3358.0,0.01265947410499811
3357.0,0.01266574981433595
3356.0,0.012667218114168306
3355.0,0.012663197416922267
3354.0,0.012655355708971118
3353.0,0.012647335507858102
3352.0,0.012642311888977424
3351.0,0.012641304358178404
3350.0,0.012642999213378378
3349.0,0.012644184748716054
3348.0,0.012641577705432151
3347.0,0.012635068210815921
3346.0,0.012628519053931734
3345.0,0.012625767694532209
3344.0,0.012626462133939486
3343.0,0.012627039451001278
3342.0,0.012624417206617219
3341.0,0.012617064453152601
3340.0,0.01260412250377683
3339.0,0.012586333979306275
3338.0,0.012567625920491933
3337.0,0.012553390547266277
3336.0,0.012546658119393542
3335.0,0.012546641096698336
3334.0,0.012549708848012119
3333.0,0.012550196599962777
3332.0,0.012542378350540007
3331.0,0.012525175757970733
3330.0,0.012504604140396319
3329.0,0.012488832699375129
3328.0,0.0124806707716132
3327.0,0.012476525719119448
3326.0,0.012471809510290813
3325.0,0.012464743201040757
3324.0,0.012455401384083067
3323.0,0.012444404379771703
3322.0,0.012433386997883352
3321.0,0.012424362225901351
3320.0,0.012417522382671225
3319.0,0.012410984627370341
3318.0,0.012403121901510869
3317.0,0.012394080793109176
3316.0,0.012385214928151278
3315.0,0.012378179134472556
3314.0,0.01237387132630288
3313.0,0.012370681814143978
3312.0,0.012364582624883875
3311.0,0.012353011122294914
3310.0,0.01233837147951011
3309.0,0.012325832357686958
3308.0,0.012318077840092272
3307.0,0.012314319095007792
3306.0,0.01231402457204792
3305.0,0.012318805102183989
3304.0,0.012329921772426955
3303.0,0.0123457576169813
3302.0,0.012362266405933912
3301.0,0.012374581809200485
3300.0,0.012378235372074942
3299.0,0.012370949790954955
3298.0,0.01235454093610995
3297.0,0.012334490691582762
3296.0,0.012317036160670357
3295.0,0.012306309783749185
3294.0,0.012303028972067219
3293.0,0.012304722842224586
3292.0,0.012307843489048353
3291.0,0.012310717508492535
3290.0,0.01231397342586182
3289.0,0.012317857131137339
3288.0,0.012320902323302555
3287.0,0.012322203594103048
3286.0,0.012322750058518482
3285.0,0.01232251408456893
3284.0,0.012318259052853255
3283.0,0.012307135810125856
3282.0,0.012291312833530351
3281.0,0.012276083579161242
3280.0,0.012264038980276629
3279.0,0.012253925331034136
3278.0,0.012244662147845928
3277.0,0.012237170488462628
3276.0,0.012231759640011148
3275.0,0.012226591921698265
3274.0,0.012219902482840793
3273.0,0.012211881932302328
3272.0,0.012203614689946444
3271.0,0.012195824886916581
3270.0,0.012189227145641393
3269.0,0.012184470014117758
3268.0,0.012180997711727539
3267.0,0.012177159524420207
3266.0,0.012172009565598866
3265.0,0.0121660265784056
3264.0,0.012159660711511075
3263.0,0.012152100886768612
3262.0,0.012142141150302993
3261.0,0.012129982552771193
3260.0,0.012117825722564795
3259.0,0.012108348100219936
3258.0,0.012102055028149929
3257.0,0.012096428503304736
3256.0,0.012089023895521795
3255.0,0.012081477416778905
3254.0,0.01207807761671684
3253.0,0.012078978757911344
3252.0,0.012077170854525946
3251.0,0.01206484794336552
3250.0,0.012041952224720945
3249.0,0.012016432206150755
3248.0,0.011996560416692599
3247.0,0.011984701611237105
3246.0,0.011978057976515332
3245.0,0.011973163938917944
3244.0,0.011968885739831896
3243.0,0.011966033946996602
3242.0,0.011964749399471378
3241.0,0.01196258458804578
3240.0,0.011955984634793238
3239.0,0.011944000304268149
3238.0,0.01192943649822541
3237.0,0.011915781667921154
3236.0,0.011904462252282864
3235.0,0.01189585715779939
3234.0,0.011890759670286926
3233.0,0.011888801507533776
3232.0,0.011887019605137671
3231.0,0.01188248918717263
3230.0,0.011875704439295316
3229.0,0.011869381434051137
3228.0,0.01186469550291021
3227.0,0.01186077450617695
3226.0,0.011857303826479577
3225.0,0.011855282420612092
3224.0,0.01185498502674154
3223.0,0.011854811208069983
3222.0,0.011852570860455219
3221.0,0.011847256012322938
3220.0,0.011839887589287076
3219.0,0.011833191316900795
3218.0,0.011829627571310416
3217.0,0.011828875080124346
3216.0,0.011827856095885004
3215.0,0.011823706614554844
3214.0,0.011815687191351716
3213.0,0.011803907568454168
3212.0,0.011788415418575261
3211.0,0.011771014080565679
3210.0,0.011755674289226787
3209.0,0.011744511226967916
3208.0,0.0117346229393602
3207.0,0.011721474787345702
3206.0,0.011704641263092279
3205.0,0.011687947487940472
3204.0,0.011674621316276683
3203.0,0.01166446644186582
3202.0,0.011655223898471467
3201.0,0.011644317669049229
3200.0,0.011629350370313962
3199.0,0.011609263311874432
3198.0,0.011585836965482574
3197.0,0.011562801774336436
3196.0,0.011542780513566938
3195.0,0.011525268546565794
3194.0,0.011506987534906905
3193.0,0.01148382518259078
3192.0,0.01145378337695727
3191.0,0.011419228536609642
3190.0,0.0113853101491707
3189.0,0.011355130983656868
3188.0,0.011327515496833347
3187.0,0.011300303761137642
3186.0,0.011273934312181976
3185.0,0.011249837120565579
3184.0,0.01122657790137623
3183.0,0.011199905579689853
3182.0,0.01116646506310287
3181.0,0.011126529128002799
3180.0,0.01108428970314428
3179.0,0.011046404789006477
3178.0,0.011018009437813168
3177.0,0.01099788981292406
3176.0,0.010978675797061934
3175.0,0.01095345382424764
3174.0,0.010921264805964578
3173.0,0.010885504919016145
3172.0,0.01084942419926074
3171.0,0.010815151031380747
3170.0,0.010784579240830115
3169.0,0.010757732710448819
3168.0,0.010731563158603801
3167.0,0.010703826753066978
3166.0,0.010677272895646652
3165.0,0.010656442711860122
3164.0,0.010640457437159188
3163.0,0.010622175753536446
3162.0,0.010595405075157485
3161.0,0.010561029285899685
3160.0,0.01052567957448515
3159.0,0.010496319665530454
3158.0,0.010476023736726927
3157.0,0.01046214962365952
3156.0,0.010447501161066351
3155.0,0.010425414203326874
3154.0,0.0103954271921077
3153.0,0.010363611557566973
3152.0,0.010336911633046768
3151.0,0.010317340303579057
3150.0,0.010301310337694191
3149.0,0.010283666623253602
3148.0,0.01026202098169774
3147.0,0.01023765088607068
3146.0,0.01021266122188795
3145.0,0.010186894666727389
3144.0,0.010158449454079276
3143.0,0.010126728309684311
3142.0,0.010093284294143053
3141.0,0.010059610250814815
3140.0,0.010026000634152037
3139.0,0.009993068557124585
3138.0,0.009962081683550438
3137.0,0.009932567853866894
3136.0,0.009901865286240073
3135.0,0.00986860246279501
3134.0,0.00983479163187908
3133.0,0.009803011128916257
3132.0,0.009773145919684548
3131.0,0.009743425737125808
3130.0,0.009712700740500752
3129.0,0.009679737420869665
3128.0,0.00964260334071614
3127.0,0.009601488343225743
3126.0,0.009560499835850566
3125.0,0.009524291853902675
3124.0,0.00949398613990131
3123.0,0.00946786686803104
3122.0,0.009444134172860948
3121.0,0.009420580101401869
3120.0,0.009393857574987114
3119.0,0.009362703371798531
3118.0,0.009330742145733272
3117.0,0.009302923059845404
3116.0,0.009279578412709887
3115.0,0.009256524876935497
3114.0,0.009230645482471022
3113.0,0.009202733063856513
3112.0,0.009175231932250744
3111.0,0.00914986959465241
3110.0,0.009127307256626017
3109.0,0.009107113408548412
3108.0,0.009088022439211649
3107.0,0.009069203349130063
3106.0,0.009050356128833119
3105.0,0.009029615364071972
3104.0,0.009003914912862222
3103.0,0.008973678329745357
3102.0,0.008944848742477116
3101.0,0.008923021148184197
3100.0,0.008906567665586068
3099.0,0.008889096117390801
3098.0,0.008867550697550908
3097.0,0.008844162793192271
3096.0,0.008821635013928651
3095.0,0.008800001734554776
3094.0,0.008778636619829788
3093.0,0.008758388726718393
3092.0,0.008740720350285405
3091.0,0.00872679964467249
3090.0,0.008717208696616352
3089.0,0.008710480605344607
3088.0,0.008702157449419374
3087.0,0.00868774859403973
3086.0,0.008667182293266417
3085.0,0.008644455081665128
3084.0,0.008623057585031799
3083.0,0.008603112033150614
3082.0,0.008582218906524232
3081.0,0.008557312461776443
3080.0,0.008526240268033227
3079.0,0.008489825444782098
3078.0,0.008452236012468398
3077.0,0.0084177326366335
3076.0,0.008387371338971036
3075.0,0.008360146757940019
3074.0,0.008336081190397382
3073.0,0.00831607787513565
3072.0,0.008299928406258912
3071.0,0.008286534217718461
3070.0,0.008275312251564007
3069.0,0.008265354367341791
3068.0,0.008254467014352142
3067.0,0.008241539211414283
3066.0,0.008228710769203921
3065.0,0.008218591448030298
3064.0,0.008210105307834807
3063.0,0.008200142977316173
3062.0,0.008188147564853433
3061.0,0.008175694524087703
3060.0,0.008162002609315794
3059.0,0.00814294793653979
3058.0,0.008115373849772034
3057.0,0.008080207790787242
3056.0,0.008041322147077474
3055.0,0.008003240573343333
3054.0,0.00796953992926764
3053.0,0.007941221116955806
3052.0,0.007916329527522829
3051.0,0.007892352088956967
3050.0,0.007868394133702314
3049.0,0.007843748574553158
3048.0,0.007816409550404845
3047.0,0.0077862048780939115
3046.0,0.007757832817531148
3045.0,0.007737284620071384
3044.0,0.007725136794339794
3043.0,0.007716535117816337
3042.0,0.007707633183572704
3041.0,0.00769883221518744
3040.0,0.007692019244812106
3039.0,0.007687928958880371
3038.0,0.007687109910599179
3037.0,0.007690421389474041
3036.0,0.007697650057250462
3035.0,0.007708131403063718
3034.0,0.007723258375795605
3033.0,0.007745509477691065
3032.0,0.0077740726014744604
3031.0,0.007803836279164689
3030.0,0.007830083623581705
3029.0,0.007852065077204765
3028.0,0.007870675967044874
3027.0,0.007884888663295163
3026.0,0.007891763653824232
3025.0,0.007889105726361686
3024.0,0.007877441417192562
3023.0,0.007860215582735745
3022.0,0.007842150448438888
3021.0,0.007826227549661101
3020.0,0.007812699818951697
3019.0,0.0078019380248632204
3018.0,0.00779689373007759
3017.0,0.007800303651521111
3016.0,0.0078105546460745055
3015.0,0.007823652095289206
3014.0,0.007839072057255321
3013.0,0.007860756385617855
3012.0,0.007891767070204505
3011.0,0.00793096653681297
3010.0,0.00797563263415574
3009.0,0.00802510790725212
3008.0,0.008081109332956398
3007.0,0.008145876312622159
3006.0,0.008220163364507184
3005.0,0.008300990023661158
3004.0,0.00838232758123236
3003.0,0.008460799649583763
3002.0,0.008540829102644984
3001.0,0.008631323522806711
3000.0,0.008736645846277036
2999.0,0.008854023025058305
2998.0,0.008980176488633581
2997.0,0.009117680436520913
2996.0,0.009272802591570631
2995.0,0.009449409822037631
2994.0,0.009647432828426051
2993.0,0.009865909527665011
2992.0,0.010105620611861344
2991.0,0.01036935324889462
2990.0,0.010661712228308626
2989.0,0.010988436542501874
2988.0,0.011354743820515415
2987.0,0.011764708145354932
2986.0,0.012223279637659679
2985.0,0.01273886212609642
2984.0,0.013323342190753146
2983.0,0.013990002573779036
2982.0,0.014751630918042146
2981.0,0.015620371604305874
2980.0,0.016609291561391935
2979.0,0.017734427548597064
2978.0,0.019016133215264235
2977.0,0.020479992337068674
2976.0,0.022157321320347992
2975.0,0.024082533256636587
2974.0,0.02628830279905115
2973.0,0.0288028009133255
2972.0,0.03164899749961353
2971.0,0.03484254960228072
2970.0,0.03838517842224968
2969.0,0.04225867582944658
2968.0,0.04642546837534228
2967.0,0.050829309981821794
2966.0,0.055383835318397794
2965.0,0.05994341021772561
2964.0,0.06428818053053809
2963.0,0.06815022796797274
2962.0,0.07128854312289062
2961.0,0.07359795942363223
2960.0,0.07518345543544029
2959.0,0.07635215862829786
2958.0,0.07752655006697474
2957.0,0.07913419026769429
2956.0,0.08150784114230313
2955.0,0.08478912971577299
2954.0,0.08884941697588428
2953.0,0.09325938893387956
2952.0,0.09733084785610406
2951.0,0.10025995745297478
2950.0,0.10132808822029722
2949.0,0.10010663146492334
2948.0,0.09660182722293097
2947.0,0.09124021208631539
2946.0,0.08472749797715687
2945.0,0.07784778018225168
2944.0,0.07130196697347892
2943.0,0.0656094546055162
2942.0,0.06106982559887959
2941.0,0.05779184252590228
2940.0,0.055743768663514534
2939.0,0.05482352923484833
2938.0,0.054914565615438726
2937.0,0.05591030690882111
2936.0,0.05772783578884314
2935.0,0.060306661458538025
2934.0,0.06359689597233009
2933.0,0.06754710856468706
2932.0,0.07209417656380422
2931.0,0.07715350096190614
2930.0,0.08260950218270578
2929.0,0.08831801980578996
2928.0,0.09413027893295779
2927.0,0.09992767022053865
2926.0,0.10564469453816433
2925.0,0.11128546108843261
2924.0,0.11692203593873948
2923.0,0.1226402729463729
2922.0,0.12843609008898127
2921.0,0.13410833231192992
2920.0,0.13921700004670268
2919.0,0.14312275600349952
2918.0,0.14514534709391083
2917.0,0.14481472857858685
2916.0,0.1421067077994425
2915.0,0.1374850872943728
2914.0,0.13170470056803998
2913.0,0.1255560778522549
2912.0,0.11965947643989348
2911.0,0.1143657623340384
2910.0,0.10976093030082261
2909.0,0.10574393457744885
2908.0,0.10212987943082683
2907.0,0.09873191492151906
2906.0,0.0954067304634066
2905.0,0.09207265817368662
2904.0,0.0887124894856011
2903.0,0.0853514067855169
2902.0,0.08203006332361751
2901.0,0.07878787375494566
2900.0,0.0756600042565973
2899.0,0.07267883208419328
2898.0,0.06987520185690438
2897.0,0.06728534208732381
2896.0,0.06495268762602968
2895.0,0.06291696634191897
2894.0,0.061200031152731045
2893.0,0.05980364721561688
2892.0,0.05871656156865819
2891.0,0.057917483053622994
2890.0,0.05737349657399806
2889.0,0.05704330105588293
2888.0,0.05688884767343664
2887.0,0.056885755126648285
2886.0,0.057024948984737873
2885.0,0.05731099558778464
2884.0,0.05775709316339439
2883.0,0.05837094132171162
2882.0,0.05912951870711178
2881.0,0.059956340246433586
2880.0,0.06072077801983275
2879.0,0.061264105693223624
2878.0,0.06145621545802424
2877.0,0.0612627357994846
2876.0,0.060786808781163854
2875.0,0.06024200287592352
2874.0,0.05986608012914761
2873.0,0.059834903774525224
2872.0,0.06021786872947357
2871.0,0.0609774876260436
2870.0,0.06198228813734619
2869.0,0.06300237331159705
2868.0,0.06371058815053154
2867.0,0.06372401610234424
2866.0,0.06270599335282837
2865.0,0.060510975006872206
2864.0,0.05728229851904926
2863.0,0.05342585305387672
2862.0,0.0494659761927991
2861.0,0.045879244427508785
2860.0,0.04298620593501873
2859.0,0.04092988165751617
2858.0,0.03972107810707717
2857.0,0.039298456621337734
2856.0,0.03958168542201197
2855.0,0.04049736462660863
2854.0,0.04196925579963596
2853.0,0.043868081381819295
2852.0,0.04595166897095018
2851.0,0.04786797391029627
2850.0,0.0492699849084519
2849.0,0.05001326975989273
2848.0,0.05027235349204247
2847.0,0.05046806505080326
2846.0,0.05103665017781238
2845.0,0.052235599346589445
2844.0,0.05408299414238604
2843.0,0.05639873375180818
2842.0,0.05888254954653337
2841.0,0.061171593469246985
2840.0,0.06288992420647187
2839.0,0.06369147538171947
2838.0,0.06330632132751049
2837.0,0.061595143669966455
2836.0,0.0586061945390414
2835.0,0.05459104543123472
2834.0,0.04995467766072661
2833.0,0.04515300768729184
2832.0,0.04057847177054163
2831.0,0.03648882093924726
2830.0,0.032992620202682406
2829.0,0.030081851884292514
2828.0,0.027685199272629447
2827.0,0.0257100491644442
2826.0,0.024070233131080015
2825.0,0.022693867135330954
2824.0,0.021522854227337317
2823.0,0.020512969534010293
2822.0,0.019633099134290767
2821.0,0.018860658614209047
2820.0,0.018176480775021854
2819.0,0.01756474426858103
2818.0,0.017016088226622397
2817.0,0.016526098010923685
2816.0,0.016089647918592506
2815.0,0.015697958532677473
2814.0,0.015340183573360418
2813.0,0.015005308737344038
2812.0,0.014682594601302348
2811.0,0.014363188580648143
2810.0,0.014042309622130733
2809.0,0.01371807299185603
2808.0,0.01338825593376976
2807.0,0.013049890527731022
2806.0,0.01270199090913733
2805.0,0.012347611956421933
2804.0,0.011994072170670422
2803.0,0.011652950223970636
2802.0,0.0113387709373167
2801.0,0.01106291610637071
2800.0,0.010827481360381969
2799.0,0.010625615523996823
2798.0,0.010447053573442127
2797.0,0.01028245493146975
2796.0,0.010123730878875475
2795.0,0.009964555995099445
2794.0,0.009801089615820288
2793.0,0.009630515324957012
2792.0,0.00944953441026874
2791.0,0.009256995734862931
2790.0,0.009057490360269762
2789.0,0.008859066833503937
2788.0,0.008667341581090329
2787.0,0.0084836212791572
2786.0,0.008307981033550288
2785.0,0.008140739987639227
2784.0,0.007980831857702687
2783.0,0.007826625761518727
2782.0,0.007679118261633287
2781.0,0.0075412887941441725
2780.0,0.0074136935150421225
2779.0,0.007293652792089677
2778.0,0.007179625652509581
2777.0,0.0070733419959510225
2776.0,0.0069763525724324425
2775.0,0.0068871747602091875
2774.0,0.0068035938870232866
2773.0,0.006725738874729257
2772.0,0.006655257371810491
2771.0,0.006592907232481791
2770.0,0.0065378898324396405
2769.0,0.006488167228439455
2768.0,0.006440640201638819
2767.0,0.006392326847789203
2766.0,0.006342416154353462
2765.0,0.006292334845221872
2764.0,0.006243453362698153
2763.0,0.006195641564079346
2762.0,0.006147851692461429
2761.0,0.006098969005400859
2760.0,0.006048366980470783
2759.0,0.005997018200189204
2758.0,0.0059478544430063675
2757.0,0.005903654130758874
2756.0,0.005864860096955179
2755.0,0.005830367378617928
2754.0,0.005799585371321741
2753.0,0.0057723068690451506
2752.0,0.005747663538241412
2751.0,0.005725245907623594
2750.0,0.005706617381892917
2749.0,0.005693841141269954
2748.0,0.005687146844182031
2747.0,0.005685819914700216
2746.0,0.00569028804528334
2745.0,0.005701186653042481
2744.0,0.005717569655853133
2743.0,0.005738614723946469
2742.0,0.00576619593365752
2741.0,0.005802778678922278
2740.0,0.00584723716827235
2739.0,0.0058956014555961896
2738.0,0.00594562823749103
2737.0,0.005998100301681498
2736.0,0.006053749750157875
2735.0,0.006111710611913563
2734.0,0.006171388435501942
2733.0,0.006233551273988538
2732.0,0.006299629338082627
2731.0,0.00637243835840807
2730.0,0.006457522416816464
2729.0,0.006560412867028041
2728.0,0.00668099568660145
2727.0,0.006811256775477155
2726.0,0.0069382564315905206
2725.0,0.007047681301779708
2724.0,0.007124787633624571
2723.0,0.007155517911150353
2722.0,0.007130559620751995
2721.0,0.007049774020590072
2720.0,0.0069233806935808774
2719.0,0.006768774429904853
2718.0,0.006604156093105651
2717.0,0.006441816274077165
2716.0,0.006286501569829003
2715.0,0.006139422550671078
2714.0,0.0060023416347757975
2713.0,0.0058772603717922485
2712.0,0.005763927084552176
2711.0,0.005660312081432246
2710.0,0.0055648822797474615
2709.0,0.005476659170297879
2708.0,0.005394251098298235
2707.0,0.0053170932292062175
2706.0,0.005246606102731612
2705.0,0.005183773107815171
2704.0,0.005126496302484678
2703.0,0.005071702217262202
2702.0,0.005019150984601914
2701.0,0.004970652216629693
2700.0,0.004926453805854858
2699.0,0.004885488907586677
2698.0,0.004848698294237393
2697.0,0.004818992127490952
2696.0,0.004797756743066707
2695.0,0.004783849045576697
2694.0,0.004775711276833088
2693.0,0.004771679554880733
2692.0,0.004768346655690807
2691.0,0.0047616812344779815
2690.0,0.004750613685333052
2689.0,0.00473764404662505
2688.0,0.004725820274138371
2687.0,0.0047166723271886086
2686.0,0.004710625575437556
2685.0,0.004706949532422077
2684.0,0.004703368669357967
2683.0,0.0046979637759134085
2682.0,0.004691556514851417
2681.0,0.00468648843919982
2680.0,0.00468329834609552
2679.0,0.004680556153945015
2678.0,0.004677310959290842
2677.0,0.004673323792652965
2676.0,0.004667185779217205
2675.0,0.004656674983673112
2674.0,0.004641353538667933
2673.0,0.004623114341582691
2672.0,0.004604307642555764
2671.0,0.0045869335286153135
2670.0,0.0045730751780756395
2669.0,0.004564203445807953
2668.0,0.0045602964327686075
2667.0,0.004561180506184202
2666.0,0.004567777617749392
2665.0,0.004580051477758937
2664.0,0.004594999151311729
2663.0,0.00460910417926369
2662.0,0.0046217384937073565
2661.0,0.00463348021617575
2660.0,0.004642039377039314
2659.0,0.004643091600273493
2658.0,0.004634925887602409
2657.0,0.004619257840209512
2656.0,0.004597650704034299
2655.0,0.004570364414447552
2654.0,0.004538894916629861
2653.0,0.004506613090377981
2652.0,0.004475979434158654
2651.0,0.004447526545847097
2650.0,0.004421949979755022
2649.0,0.004400664593262003
2648.0,0.00438378990602203
2647.0,0.004369759088900067
2646.0,0.0043570928803466314
2645.0,0.004344442688924146
2644.0,0.004329057657983582
2643.0,0.004307996734094029
2642.0,0.004281616691469278
2641.0,0.00425380612376632
2640.0,0.004228519303958459
2639.0,0.004207840037412564
2638.0,0.004192941911237475
2637.0,0.004184332477163295
2636.0,0.0041806763577813145
2635.0,0.00417941628589328
2634.0,0.004178970937779104
2633.0,0.004179137627594579
2632.0,0.00418035597422593
2631.0,0.004184261973592377
2630.0,0.004193364182257415
2629.0,0.0042075507208941525
2628.0,0.004222256372422436
2627.0,0.004233056292942887
2626.0,0.004240692381908093
2625.0,0.004248402374467157
2624.0,0.004256041691381757
2623.0,0.004261192752614682
2622.0,0.004265088874565434
2621.0,0.004272295676821068
2620.0,0.0042836222699846015
2619.0,0.00429340197270848
2618.0,0.004295173253289947
2617.0,0.004287617435895463
2616.0,0.004274645528295676
2615.0,0.004261904521693231
2614.0,0.004252747628816304
2613.0,0.004244621432004052
2612.0,0.004229753877427792
2611.0,0.004202434547378242
2610.0,0.004165202559271578
2609.0,0.004125441059942081
2608.0,0.0040869395669853115
2607.0,0.004048606662950057
2606.0,0.004010735413001953
2605.0,0.0039778523692468575
2604.0,0.003954272610773167
2603.0,0.00393943714570781
2602.0,0.0039280942053234805
2601.0,0.003913557111926011
2600.0,0.00389241431394628
2599.0,0.0038688056321704778
2598.0,0.0038524527772347454
2597.0,0.003849667105108804
2596.0,0.0038578241070582288
2595.0,0.003871167641750356
2594.0,0.0038883191017410655
2593.0,0.00390954607149754
2592.0,0.003931055492468294
2591.0,0.00394939479526396
2590.0,0.003969594531684528
2589.0,0.004001127233087761
2588.0,0.004045430377592474
2587.0,0.0040939396181679764
2586.0,0.00413875837157176
2585.0,0.004178635411804037
2584.0,0.004212897695538863
2583.0,0.004235917372000924
2582.0,0.004240940408486668
2581.0,0.004226160847652904
2580.0,0.004195062860305139
2579.0,0.00415330038929112
2578.0,0.0041061186693346595
2577.0,0.00405615073946501
2576.0,0.0040033894658869475
2575.0,0.003949065566033897
2574.0,0.0038976657945391556
2573.0,0.003851697260641492
2572.0,0.0038067840901031417
2571.0,0.0037573385086752294
2570.0,0.0037059028239280895
2569.0,0.0036610912785351437
2568.0,0.00362669431643752
2567.0,0.0035983021488863896
2566.0,0.0035707926453313324
2565.0,0.0035436074817560372
2564.0,0.003517815390107249
2563.0,0.003493390377926998
2562.0,0.003471146260443804
2561.0,0.0034533441146860694
2560.0,0.003440942270085715
2559.0,0.003432633583721291
2558.0,0.0034261462047205098
2557.0,0.003417809684185535
2556.0,0.0034029076536205628
2555.0,0.0033809668438608553
2554.0,0.0033590256299462218
2553.0,0.0033443003759308708
2552.0,0.0033347483024229593
2551.0,0.003322248934952639
2550.0,0.003303771980261769
2549.0,0.0032834591633959026
2548.0,0.00326441840041879
2547.0,0.0032451299280393396
2546.0,0.003224574051297516
2545.0,0.0032046702723624813
2544.0,0.0031863435268101336
2543.0,0.0031684633541503872
2542.0,0.003151695648124129
2541.0,0.0031383608456119166
2540.0,0.0031274077680395395
2539.0,0.0031145900903214365
2538.0,0.003098957612750768
2537.0,0.0030845816729743853
2536.0,0.0030744310291252208
2535.0,0.003066333981999331
2534.0,0.003056276412922923
2533.0,0.003042734526122049
2532.0,0.00302736102758229
2531.0,0.0030141685606171497
2530.0,0.0030073344285817295
2529.0,0.0030063225277084413
2528.0,0.003004159988802911
2527.0,0.002994500106884354
2526.0,0.002979301769675032
2525.0,0.0029652384099258062
2524.0,0.002954004789875368
2523.0,0.002941444527543342
2522.0,0.0029252303585470844
2521.0,0.002907543771284726
2520.0,0.002890252220762871
2519.0,0.0028730429589859927
2518.0,0.0028569487065891
2517.0,0.002844619638108924
2516.0,0.0028359634129733586
2515.0,0.0028276895021179613
2514.0,0.0028178701011584957
2513.0,0.002807212597335357
2512.0,0.002795879774470944
2511.0,0.0027831914067198236
2510.0,0.0027705931258980385
2509.0,0.0027608202614211735
2508.0,0.002753567644522903
2507.0,0.0027454376507451547
2506.0,0.002734591886638476
2505.0,0.002722743975878613
2504.0,0.0027129053502852403
2503.0,0.0027076551996454887
2502.0,0.002708339888550513
2501.0,0.0027129624440554974
2500.0,0.002716306645283356
2499.0,0.002715113749713606
2498.0,0.002711367148345066
2497.0,0.0027079533944897854
2496.0,0.0027042749673063375
2495.0,0.002699744160976374
2494.0,0.0026977353162585048
2493.0,0.002700763736700435
2492.0,0.0027046728201545723
2491.0,0.0027032382285311954
2490.0,0.00269611917281057
2489.0,0.002686907132547631
2488.0,0.002676304037714153
2487.0,0.002663478653288555
2486.0,0.0026513490361119644
2485.0,0.002643206063266695
2484.0,0.0026358918543742077
2483.0,0.0026239398260427555
2482.0,0.002609725981266463
2481.0,0.0026019873588199413
2480.0,0.002603675709887198
2479.0,0.0026077836047738077
2478.0,0.002606317046623568
2477.0,0.002598186313904522
2476.0,0.0025876892547327997
2475.0,0.0025800728503601643
2474.0,0.002578792807787039
2473.0,0.00258231277404163
2472.0,0.002583369880416728
2471.0,0.0025757591068090403
2470.0,0.0025617385214191514
2469.0,0.0025489711712548472
2468.0,0.0025413316817264027
2467.0,0.0025370958020142905
2466.0,0.002534699512238657
2465.0,0.002535035085707621
2464.0,0.0025387106039250597
2463.0,0.0025456590111482833
2462.0,0.0025566237245906558
2461.0,0.002570906732439386
2460.0,0.0025843396570081846
2459.0,0.002593925915456272
2458.0,0.002602243666417626
2457.0,0.0026123064452718177
2456.0,0.0026207297476840085
2455.0,0.002621928361439277
2454.0,0.0026167900278923108
2453.0,0.0026106941597525022
2452.0,0.002604900520807455
2451.0,0.002597062910645808
2450.0,0.0025888945502306774
2449.0,0.002585337265352288
2448.0,0.0025859311573264198
2447.0,0.0025844929852695013
2446.0,0.002578610555591715
2445.0,0.002573219832863813
2444.0,0.002573525264256941
2443.0,0.002579635566988887
2442.0,0.002588885617409839
2441.0,0.0025983610282899394
2440.0,0.002604598339144071
2439.0,0.002605725446555322
2438.0,0.0026046292069059644
2437.0,0.002606066011079101
2436.0,0.0026108403954279375
2435.0,0.0026166188128418947
2434.0,0.002623058846085066
2433.0,0.002631127471427144
2432.0,0.002638474529769327
2431.0,0.0026411246662294136
2430.0,0.002639562630493096
2429.0,0.00263810400427566
2428.0,0.002638383611744512
2427.0,0.0026380371451353185
2426.0,0.002635363095609571
2425.0,0.002630756759727168
2424.0,0.0026240751632991602
2423.0,0.00261496427500019
2422.0,0.002605184606047536
2421.0,0.0025965822610401457
2420.0,0.0025878263788190682
2419.0,0.0025769073401213883
2418.0,0.002564891158530863
2417.0,0.0025532282325761197
2416.0,0.002540317713595837
2415.0,0.002525882843021278
2414.0,0.002515722601445712
2413.0,0.0025154880821106444
2412.0,0.002521381089525865
2411.0,0.002523529796656814
2410.0,0.002517503483482006
2409.0,0.002506322137290223
2408.0,0.0024925316447969655
2407.0,0.002475985447521048
2406.0,0.0024598736454928332
2405.0,0.0024514209741042362
2404.0,0.0024541001296055297
2403.0,0.0024637281540349685
2402.0,0.0024733683915633465
2401.0,0.002478369727160334
2400.0,0.0024767302918061564
2399.0,0.0024690551694170164
2398.0,0.002459028167389412
2397.0,0.002450587297205386
2396.0,0.0024440793859263
2395.0,0.002437412202991789
2394.0,0.0024297717515077417
2393.0,0.0024212836922665655
2392.0,0.0024108779182442585
2391.0,0.0023981578384379984
2390.0,0.0023858705985026468
2389.0,0.002376901113741992
2388.0,0.0023701765234638065
2387.0,0.002362895346215273
2386.0,0.002354869671669826
2385.0,0.0023468392883039865
2384.0,0.0023364848686867716
2383.0,0.0023204874678484926
2382.0,0.0022993028269838924
2381.0,0.0022759241773254745
2380.0,0.002251307799576674
2379.0,0.002225607147435209
2378.0,0.002202061761066857
2377.0,0.002183257787716278
2376.0,0.002165525594418836
2375.0,0.0021450183813381332
2374.0,0.0021276561635689695
2373.0,0.002122496393369333
2372.0,0.0021264747665492908
2371.0,0.002129072482540677
2370.0,0.0021311984173363607
2369.0,0.0021412603074401387
2368.0,0.0021528275526125407
2367.0,0.002149015267572999
2366.0,0.0021318447798849005
2365.0,0.002122870879578854
2364.0,0.002130310963161869
2363.0,0.002140381986931397
2362.0,0.0021431207591611464
2361.0,0.0021414124719055234
2360.0,0.002134109973516717
2359.0,0.0021190940256937754
2358.0,0.002111344993127122
2357.0,0.0021243340048387018
2356.0,0.002143237749312417
2355.0,0.002143041131789944
2354.0,0.002125089834087136
2353.0,0.0021108005070810164
2352.0,0.0021091522469781
2351.0,0.002114289522653085
2350.0,0.002120713807179145
2349.0,0.0021262193249012152
2348.0,0.0021266356513376713
2347.0,0.0021175232718607826
2346.0,0.0021040943303904454
2345.0,0.002095768137933795
2344.0,0.0020954308627122243
2343.0,0.002100384972662196
2342.0,0.00211543900041013
2341.0,0.002147027221585836
2340.0,0.0021838434310737943
2339.0,0.0022072906831596428
2338.0,0.0022134655894225854
2337.0,0.0022142646625066893
2336.0,0.0022168940184911896
2335.0,0.0022196336405520627
2334.0,0.002219471997067248
2333.0,0.00221666107561127
2332.0,0.0022089558688166994
2331.0,0.002200443739348031
2330.0,0.002202767749979762
2329.0,0.0022268871661811013
2328.0,0.0022740649966158646
2327.0,0.002342264335519137
2326.0,0.0024284617912792286
2325.0,0.002513061838237525
2324.0,0.002560645620356012
2323.0,0.0025503453765674034
2322.0,0.00250290971558417
2321.0,0.0024591800907123543
2320.0,0.0024361927721903267
2319.0,0.002425893326401488
2318.0,0.002419277119012123
2317.0,0.002416046329346134
2316.0,0.0024119344872888357
2315.0,0.0024018647242289256
2314.0,0.0023885782252431355
2313.0,0.0023806921791137896
2312.0,0.002378318515478796
2311.0,0.002376003631094868
2310.0,0.002373725345624168
2309.0,0.002376762898455306
2308.0,0.0023848875168689296
2307.0,0.00239452287942153
2306.0,0.0024061398386126267
2305.0,0.0024216507846221568
2304.0,0.0024364277663478074
2303.0,0.0024454047170864497
2302.0,0.0024515196211828925
2301.0,0.0024606616207915382
2300.0,0.0024699075034802565
2299.0,0.0024730777401015887
2298.0,0.002473198556729006
2297.0,0.002479192229782426
2296.0,0.002491583929171831
2295.0,0.002503440006844621
2294.0,0.0025143176834906164
2293.0,0.0025318016547924405
2292.0,0.002559449910030069
2291.0,0.0025922140645139365
2290.0,0.0026242370356827516
2289.0,0.002651949186782671
2288.0,0.0026711564764636863
2287.0,0.002679713737251972
2286.0,0.0026820731551768055
2285.0,0.0026824053013194318
2284.0,0.0026757019576099618
2283.0,0.0026556790580732864
2282.0,0.0026286005866897463
2281.0,0.0026081537303543952
2280.0,0.002597659174542192
2279.0,0.002589581205929066
2278.0,0.0025803260613052994
2277.0,0.002573087667436666
2276.0,0.0025673638337082995
2275.0,0.0025603106615481345
2274.0,0.002557629534387977
2273.0,0.0025684546443599816
2272.0,0.002589485446175285
2271.0,0.0026078945547231935
2270.0,0.0026194376212323065
2269.0,0.002628640952682205
2268.0,0.0026325883022780016
2267.0,0.0026214681531099284
2266.0,0.0025966618248561926
2265.0,0.002573002594177981
2264.0,0.002560561449032235
2263.0,0.0025580678535496197
2262.0,0.0025647613838422584
2261.0,0.002583505523364945
2260.0,0.00261011239100862
2259.0,0.002632869832854076
2258.0,0.0026441966946821314
2257.0,0.0026418473724828372
2256.0,0.002621939029598335
2255.0,0.0025853801845113406
2254.0,0.002548677560413472
2253.0,0.002531184859731564
2252.0,0.0025319161645183897
2251.0,0.0025338603569583953
2250.0,0.002529697978455314
2249.0,0.00252680508136039
2248.0,0.0025295258372579
2247.0,0.0025338956413800636
2246.0,0.0025400222869075223
2245.0,0.0025518345035959967
2244.0,0.0025646991082820397
2243.0,0.0025693988536983374
2242.0,0.0025677787420612286
2241.0,0.002568290014124362
2240.0,0.0025686372169170246
2239.0,0.0025606912605579376
2238.0,0.0025501413574935436
2237.0,0.0025517455036861056
2236.0,0.002565714235894581
2235.0,0.0025776820024276345
2234.0,0.0025811808794058157
2233.0,0.002580799164390062
2232.0,0.0025756183388980303
2231.0,0.0025611175771219435
2230.0,0.002546596649700908
2229.0,0.002547757078856738
2228.0,0.002561176415209982
2227.0,0.00256801617938193
2226.0,0.002563267852829219
2225.0,0.002558886634854289
2224.0,0.0025573108172766775
2223.0,0.002546860899730622
2222.0,0.0025266039749762257
2221.0,0.0025121349287212384
2220.0,0.0025107092186846956
2219.0,0.0025120309005071807
2218.0,0.002508658532240088
2217.0,0.002505818561791305
2216.0,0.002507221677656615
2215.0,0.002510194256441356
2214.0,0.0025175260057609776
2213.0,0.002535005708206441
2212.0,0.002555927735816425
2211.0,0.0025672308542597643
2210.0,0.0025706261235867904
2209.0,0.0025779324899464664
2208.0,0.0025870814637083345
2207.0,0.002584806304309318
2206.0,0.0025723986611466887
2205.0,0.002565736750437663
2204.0,0.0025692642667236704
2203.0,0.0025728161442609395
2202.0,0.002573542519812612
2201.0,0.0025777200476929493
2200.0,0.002582490508879981
2199.0,0.002580132241277197
2198.0,0.0025789469820900143
2197.0,0.0025940590685722097
2196.0,0.002618178296637951
2195.0,0.002629052899542858
2194.0,0.002626115339376556
2193.0,0.0026316435108841136
2192.0,0.0026544020239228
2191.0,0.0026805117897393317
2190.0,0.002702663572013722
2189.0,0.0027292257759470345
2188.0,0.002760230557163066
2187.0,0.002782199898794051
2186.0,0.002791018255560277
2185.0,0.002792715112715743
2184.0,0.0027787100967067635
2183.0,0.0027315695453029674
2182.0,0.0026631585050407914
2181.0,0.002616340175540397
2180.0,0.002615725200685455
2179.0,0.0026405121578183285
2178.0,0.002653725049410327
2177.0,0.0026367314876006745
2176.0,0.0025947661353804287
2175.0,0.002552069815970655
2174.0,0.0025418930313154935
2173.0,0.0025782027138201843
2172.0,0.002637747052461897
2171.0,0.002691187415227954
2170.0,0.0027432770703208383
2169.0,0.002816238914525106
2168.0,0.0029026587362358937
2167.0,0.0029674267493187065
2166.0,0.0029959401124092714
2165.0,0.00301001111694498
2164.0,0.0030334925853759366
2163.0,0.003066492705380658
2162.0,0.0030858551802107354
2161.0,0.003039484033631792
2160.0,0.0028576244168848595
2159.0,0.00253082731354461
2158.0,0.002174289210624941
2157.0,0.0019427015519158635
2156.0,0.0018795369507171125
2155.0,0.00191031075867243
2154.0,0.0019555574430694736
2153.0,0.001987776336849085
2152.0,0.0020054807839364214
2151.0,0.0020105876157704068
2150.0,0.0020147893622407985
2149.0,0.0020298803398065813
2148.0,0.002044202202676821
2147.0,0.0020363561101244443
2146.0,0.0020106406752312756
2145.0,0.001991956063291563
2144.0,0.0019900685825022845
2143.0,0.0019964640483887907
2142.0,0.002010327692040381
2141.0,0.0020366792604827543
2140.0,0.0020634850526172065
2139.0,0.002069568690617222
2138.0,0.0020523746594658374
2137.0,0.002022939993644919
2136.0,0.001980447556686898
2135.0,0.0019200606341743726
2134.0,0.0018605405925486542
2133.0,0.001832531907905465
2132.0,0.0018412696620715315
2131.0,0.0018666990325817768
2130.0,0.0018967426177278106
2129.0,0.0019337971815756778
2128.0,0.001973331912953292
2127.0,0.002001703846212564
2126.0,0.0020162720363820917
2125.0,0.0020269478079072215
2124.0,0.002037441327288178
2123.0,0.0020431401350774698
2122.0,0.002046511359712053
2121.0,0.002056046282824215
2120.0,0.0020705970914626738
2119.0,0.0020826020510990102
2118.0,0.002095179424071643
2117.0,0.0021184088410955556
2116.0,0.0021503252244081668
2115.0,0.0021790068737014244
2114.0,0.002200965338024056
2113.0,0.0022194385178746566
2112.0,0.0022283529677611293
2111.0,0.0022183862702870537
2110.0,0.002196998896019815
2109.0,0.0021819995831030958
2108.0,0.0021764863793240275
2107.0,0.0021708404021836937
2106.0,0.0021667189326943733
2105.0,0.002175567506585268
2104.0,0.0021936246020276117
2103.0,0.0022021824697613175
2102.0,0.0021949739862494972
2101.0,0.0021837191916503286
2100.0,0.0021755221066813877
2099.0,0.0021642796441127135
2098.0,0.0021449186844101987
2097.0,0.002116457636795702
2096.0,0.002073494628953239
2095.0,0.0020173358265240158
2094.0,0.0019732302160528708
2093.0,0.001970706785729604
2092.0,0.002007047745036461
2091.0,0.0020522927403018513
2090.0,0.0020873576512011566
2089.0,0.002114903351135851
2088.0,0.0021363144864039252
2087.0,0.0021454058182736246
2086.0,0.0021464806071799865
2085.0,0.002153329334252796
2084.0,0.002165985054937266
2083.0,0.002170617120114785
2082.0,0.0021657580240695812
2081.0,0.0021657647751092304
2080.0,0.0021746038965800196
2079.0,0.002178680784547905
2078.0,0.002170827200793062
2077.0,0.002159708008257972
2076.0,0.0021517968702043054
2075.0,0.002144588627772534
2074.0,0.0021400893138678215
2073.0,0.002143341025276385
2072.0,0.002146705495726829
2071.0,0.002137680751556554
2070.0,0.002122389746007903
2069.0,0.0021179773850669064
2068.0,0.002122845911831711
2067.0,0.002120086238380323
2066.0,0.002108862782230585
2065.0,0.0021046518290452347
2064.0,0.0021086934338865933
2063.0,0.0021071505307185137
2062.0,0.0021009992437644774
2061.0,0.0021051285169250778
2060.0,0.002119005526394776
2059.0,0.0021279187185254947
2058.0,0.0021320391755094248
2057.0,0.002142893330950997
2056.0,0.002154936169078827
2055.0,0.0021572944514316266
2054.0,0.002172655904733862
2053.0,0.0022397897824350094
2052.0,0.0023496130959157965
2051.0,0.0024382317924418776
2050.0,0.0024559585243879604
2049.0,0.002415773691260137
2048.0,0.0023623629656937934
2047.0,0.002321345734592162
2046.0,0.0022976909086403667
2045.0,0.002291897863241151
2044.0,0.0022957208889525594
2043.0,0.0022983847367973533
2042.0,0.002307872478221196
2041.0,0.002338227663183519
2040.0,0.0023726318824673596
2039.0,0.002376759862018789
2038.0,0.0023518673321914502
2037.0,0.002334125343292597
2036.0,0.0023378430024282118
2035.0,0.002338838904990443
2034.0,0.002320831236033351
2033.0,0.002295548462736172
2032.0,0.002268876316909465
2031.0,0.002232198602330611
2030.0,0.002194130556758721
2029.0,0.0021766849331117995
2028.0,0.0021750273937195643
2027.0,0.002164626712593247
2026.0,0.002148919115265511
2025.0,0.0021516000213546104
2024.0,0.0021652018853787563
2023.0,0.0021590088200811744
2022.0,0.0021373064673724765
2021.0,0.002135594596164305
2020.0,0.002157551924740001
2019.0,0.0021695441617990653
2018.0,0.002162004062053949
2017.0,0.002162791305821345
2016.0,0.0021804153213313767
2015.0,0.0021895568446246684
2014.0,0.002182664845839547
2013.0,0.002182008300986053
2012.0,0.0021943279616102175
2011.0,0.0021991133872956144
2010.0,0.0021862179676101256
2009.0,0.0021612805209604707
2008.0,0.002114758722561993
2007.0,0.002035443892836899
2006.0,0.0019546841398082634
2005.0,0.0019218130570253
2004.0,0.001934415045797764
2003.0,0.0019470818564241046
2002.0,0.0019475455038125945
2001.0,0.0019689794811293747
2000.0,0.0020243096952183015
1999.0,0.0020811703427411395
1998.0,0.0021115665750846804
1997.0,0.0021225306081888405
1996.0,0.002126265273493369
1995.0,0.0021215166292490846
1994.0,0.002115863590847413
1993.0,0.002129209596607302
1992.0,0.0021595645455306164
1991.0,0.002180186741524114
1990.0,0.002183965956854267
1989.0,0.0021910732544147583
1988.0,0.002209544909344057
1987.0,0.0022274878761974213
1986.0,0.0022448380987099715
1985.0,0.002274914115933957
1984.0,0.0023153667977658782
1983.0,0.002356863923758836
1982.0,0.0024149175635648497
1981.0,0.0025034978216357338
1980.0,0.0025765599078544834
1979.0,0.0025536419456218327
1978.0,0.0024209062707846824
1977.0,0.0022585627136080485
1976.0,0.0021420753122345726
1975.0,0.0020754591364985932
1974.0,0.002040990996796029
1973.0,0.0020389749131737253
1972.0,0.0020558826645411567
1971.0,0.0020583624741814604
1970.0,0.0020417722682491814
1969.0,0.002037753529672623
1968.0,0.0020593222386724
1967.0,0.0020804433267452536
1966.0,0.0020841918046201587
1965.0,0.0020838819440086847
1964.0,0.002084155148022144
1963.0,0.002069490138528042
1962.0,0.0020381050166474054
1961.0,0.0020065880466833977
1960.0,0.0019764365908179217
1959.0,0.0019358418881495793
1958.0,0.0018965429427417852
1957.0,0.0018857358119199845
1956.0,0.0019008095863330254
1955.0,0.001913817402028169
1954.0,0.0019193277119438838
1953.0,0.0019358989956548775
1952.0,0.001961008326566852
1951.0,0.001968428273177202
1950.0,0.0019545396090949628
1949.0,0.001944439059637229
1948.0,0.001948241737218338
1947.0,0.001949343309152531
1946.0,0.0019411791454022338
1945.0,0.0019387821496229382
1944.0,0.0019470792584909556
1943.0,0.0019521013659103052
1942.0,0.0019514952767875889
1941.0,0.001958086423963561
1940.0,0.0019679967221270813
1939.0,0.0019642895746593276
1938.0,0.0019500364789855926
1937.0,0.0019454379528699472
1936.0,0.0019518901251442742
1935.0,0.0019497090139738728
1934.0,0.0019344749424009963
1933.0,0.0019226457826400198
1932.0,0.001917502409645023
1931.0,0.001904085580010665
1930.0,0.0018833970662453581
1929.0,0.001875406932636478
1928.0,0.0018851960649978756
1927.0,0.001895821419131308
1926.0,0.0018996425267526862
1925.0,0.0019094327040467692
1924.0,0.0019304080127284357
1923.0,0.001952320024427071
1922.0,0.001971266682170567
1921.0,0.0019932762891922283
1920.0,0.0020114447886940747
1919.0,0.002008242467477912
1918.0,0.00198624498067762
1917.0,0.001971505585831508
1916.0,0.001972214177828763
1915.0,0.0019712478628300233
1914.0,0.0019620530844568418
1913.0,0.001957501671153508
1912.0,0.0019621405615582173
1911.0,0.0019636727132516323
1910.0,0.001958499497480787
1909.0,0.001958536792780426
1908.0,0.0019657039302598575
1907.0,0.0019663801966781787
1906.0,0.001958042661904592
1905.0,0.0019548853980459364
1904.0,0.0019591299108248964
1903.0,0.001957734602771551
1902.0,0.001947788642694384
1901.0,0.0019420650147877134
1900.0,0.0019456007295066912
1899.0,0.001948876075101707
1898.0,0.001948868049001397
1897.0,0.001955269875208447
1896.0,0.0019691698403798315
1895.0,0.0019795893928973925
1894.0,0.0019846663923232446
1893.0,0.0019927579144203376
1892.0,0.0020002752586867276
1891.0,0.0019932449221012178
1890.0,0.0019737035762049542
1889.0,0.0019616187239773937
1888.0,0.001960658149309748
1887.0,0.001953741826371947
1886.0,0.0019361121146688222
1885.0,0.001922498281451533
1884.0,0.0019201843553561862
1883.0,0.001918971333720699
1882.0,0.0019131208952245858
1881.0,0.0019098360680689433
1880.0,0.0019111571938519656
1879.0,0.0019085536925580627
1878.0,0.001901414130311083
1877.0,0.0019011217805690525
1876.0,0.0019090304377557409
1875.0,0.0019136007954878922
1874.0,0.0019139522629043242
1873.0,0.0019213152568389536
1872.0,0.0019347070050781932
1871.0,0.001938972628214694
1870.0,0.001931939311125651
1869.0,0.0019332536740849574
1868.0,0.0019493085796716213
1867.0,0.0019599112291406717
1866.0,0.001955371858899328
1865.0,0.0019465373623810752
1864.0,0.001939094136976063
1863.0,0.0019277350346823343
1862.0,0.0019145786195236712
1861.0,0.0019117541691427058
1860.0,0.0019196510626343576
1859.0,0.0019233720136820928
1858.0,0.0019169254907209301
1857.0,0.0019102131076451144
1856.0,0.0019076113937158753
1855.0,0.0019012946640057469
1854.0,0.0018910793194491682
1853.0,0.0018877579680512129
1852.0,0.001893010608945872
1851.0,0.0018965542522635557
1850.0,0.001896145529173865
1849.0,0.0019056548788794515
1848.0,0.0019272987789258865
1847.0,0.0019404130250834524
1846.0,0.0019297226014309997
1845.0,0.001909053355173325
1844.0,0.0019014005995074
1843.0,0.0019083489802770093
1842.0,0.0019187855826978983
1841.0,0.0019248162535393293
1840.0,0.0019230130988612038
1839.0,0.0019136720703029086
1838.0,0.0019053303312908233
1837.0,0.001909276198440644
1836.0,0.0019209412224759953
1835.0,0.0019270139405273886
1834.0,0.0019273080390206812
1833.0,0.0019316689615988519
1832.0,0.001939804304306886
1831.0,0.0019411112382528174
1830.0,0.0019368996529208781
1829.0,0.0019447544337776903
1828.0,0.001963639396835563
1827.0,0.0019721346890759117
1826.0,0.00196474970034781
1825.0,0.0019603818374547125
1824.0,0.0019680279711058184
1823.0,0.0019721322251500025
1822.0,0.0019633948843016816
1821.0,0.0019508104119381796
1820.0,0.0019392448924815532
1819.0,0.0019194061334870042
1818.0,0.0018906549423212302
1817.0,0.0018713685668135089
1816.0,0.00187177389616078
1815.0,0.0018816744082910102
1814.0,0.0018912126765252978
1813.0,0.0019035806668718188
1812.0,0.0019208578838507983
1811.0,0.0019339236395939379
1810.0,0.0019407582535554118
1809.0,0.0019506130861746702
1808.0,0.001963838239578722
1807.0,0.0019702467322109084
1806.0,0.001969763126650757
1805.0,0.0019763995305891006
1804.0,0.001997088281818747
1803.0,0.0020221144045620885
1802.0,0.0020409331428425485
1801.0,0.0020545112203012974
1800.0,0.0020649384572308583
1799.0,0.0020676496531020164
1798.0,0.0020689159931873767
1797.0,0.002080800886971396
1796.0,0.0020991755828986642
1795.0,0.0021047978251077107
1794.0,0.00209105526634238
1793.0,0.002078605255063604
1792.0,0.002088546362451672
1791.0,0.002110111046556031
1790.0,0.0021239043662360374
1789.0,0.002126379655327571
1788.0,0.0021213066325217332
1787.0,0.002110914495956603
1786.0,0.002102190486425703
1785.0,0.002106908809819303
1784.0,0.0021244877905196935
1783.0,0.0021406214678761494
1782.0,0.0021488664551799906
1781.0,0.0021580875952135147
1780.0,0.0021734946034965663
1779.0,0.002182087722869376
1778.0,0.0021799680704616946
1777.0,0.00218036273218889
1776.0,0.0021919803608811362
1775.0,0.0022037728916623352
1774.0,0.002204171062849265
1773.0,0.0022087860257536153
1772.0,0.002238742531352427
1771.0,0.002282023134382664
1770.0,0.0023186560873179694
1769.0,0.0023482413769009437
1768.0,0.002373828211663041
1767.0,0.0023916470906731532
1766.0,0.0024032193704888426
1765.0,0.00241790141913288
1764.0,0.0024400249595823414
1763.0,0.002467117375590123
1762.0,0.0025032733184137948
1761.0,0.0025584055256168735
1760.0,0.0026261288449317822
1759.0,0.0026861187675741574
1758.0,0.002738275259875173
1757.0,0.002802368831216369
1756.0,0.0028844463015084898
1755.0,0.0029637796948243506
1754.0,0.0030301811073422374
1753.0,0.003102103450160518
1752.0,0.003201512008978392
1751.0,0.0033215556518015566
1750.0,0.003439613396385044
1749.0,0.0035496903765158266
1748.0,0.0036446055651955258
1747.0,0.0037118731797670676
1746.0,0.0037584172398152727
1745.0,0.003809497257893933
1744.0,0.003871517509056759
1743.0,0.003920096342900611
1742.0,0.003940764880375346
1741.0,0.003950298705631682
1740.0,0.003967449145431525
1739.0,0.003990126006410754
1738.0,0.0040139740434669115
1737.0,0.004036167384579172
1736.0,0.004050104263538789
1735.0,0.004054929741386743
1734.0,0.0040726116738601225
1733.0,0.004132719694414876
1732.0,0.004211771562031826
1731.0,0.004259631273207297
1730.0,0.004275473859823079
1729.0,0.004292331633361017
1728.0,0.004325023174846181
1727.0,0.004362538519666343
1726.0,0.004400136193846259
1725.0,0.004450528590130519
1724.0,0.004512384370525565
1723.0,0.004559103971666029
1722.0,0.00457986424049735
1721.0,0.004590721853128377
1720.0,0.004608373452301557
1719.0,0.0046405524134386445
1718.0,0.004707208838053492
1717.0,0.0048292431481513805
1716.0,0.0049713724220627805
1715.0,0.005075551583652292
1714.0,0.005137297500892109
1713.0,0.005189961244684907
1712.0,0.0052493209086384215
1711.0,0.00530599549746849
1710.0,0.00535514690674975
1709.0,0.005407579756437277
1708.0,0.005470208688712765
1707.0,0.005537071324245139
1706.0,0.005613747493533949
1705.0,0.005716207129462745
1704.0,0.005826091254453161
1703.0,0.005905695271284917
1702.0,0.005956697412025362
1701.0,0.00605182607584521
1700.0,0.006233242183450655
1699.0,0.006421451152429282
1698.0,0.006565548231129793
1697.0,0.006704805035129153
1696.0,0.006884041468102794
1695.0,0.007065634757831964
1694.0,0.007212175512203317
1693.0,0.007337668197108325
1692.0,0.007461073539105102
1691.0,0.0075997585663021075
1690.0,0.007766319420923146
1689.0,0.007954716968913625
1688.0,0.008130899139760004
1687.0,0.008262654318171688
1686.0,0.00836962236041985
1685.0,0.00855481873857082
1684.0,0.00885918506924502
1683.0,0.009132773529406366
1682.0,0.00930889540198273
1681.0,0.009450621829976073
1680.0,0.009594453147222012
1679.0,0.00972626202227961
1678.0,0.009832057130314828
1677.0,0.009942299089899393
1676.0,0.010102779761609934
1675.0,0.010303186765256779
1674.0,0.010486417879925039
1673.0,0.010636219262661957
1672.0,0.010772019872384832
1671.0,0.010913899078799555
1670.0,0.011083772361764629
1669.0,0.011282283806499588
1668.0,0.011471745063856923
1667.0,0.011611378878034801
1666.0,0.01170300193294828
1665.0,0.011786830072039919
1664.0,0.01190502730010406
1663.0,0.01206303038206625
1662.0,0.0122281554521191
1661.0,0.012377674461764934
1660.0,0.012511836054620282
1659.0,0.01262520883681778
1658.0,0.01271831549899941
1657.0,0.01280201454072894
1656.0,0.012884445493732844
1655.0,0.012964769140519406
1654.0,0.013101978282901472
1653.0,0.013353558846815095
1652.0,0.013591704713337172
1651.0,0.013734406856544703
1650.0,0.013800225983760609
1649.0,0.013840952507001758
1648.0,0.013932254745573457
1647.0,0.014081990684120999
1646.0,0.014215174502011301
1645.0,0.014303552392594482
1644.0,0.014367670039491907
1643.0,0.01440746093963184
1642.0,0.014423844867062925
1641.0,0.014434291836977848
1640.0,0.014450031706847659
1639.0,0.0144556823314421
1638.0,0.014435572932098474
1637.0,0.014409988257034892
1636.0,0.014411778779915969
1635.0,0.014420552354931991
1634.0,0.014410576409957758
1633.0,0.014396404964948435
1632.0,0.0143772429709316
1631.0,0.014343701381437316
1630.0,0.014296853660864632
1629.0,0.014254466912261716
1628.0,0.014230059879078615
1627.0,0.014209372711061478
1626.0,0.014174035469518948
1625.0,0.014131681665546562
1624.0,0.014100766336318574
1623.0,0.014076022544942512
1622.0,0.014040936055292795
1621.0,0.013997894582406216
1620.0,0.01394968145817877
1619.0,0.013882787809071156
1618.0,0.013789348235071079
1617.0,0.013691624830535692
1616.0,0.01362013093173216
1615.0,0.013561894924901039
1614.0,0.013482751287735536
1613.0,0.013377136423961149
1612.0,0.013259353656801554
1611.0,0.013135250442098609
1610.0,0.0130005237114643
1609.0,0.012858503426526386
1608.0,0.012715374352939986
1607.0,0.012563717984292296
1606.0,0.01239385303661935
1605.0,0.012210246456420612
1604.0,0.012019427220394374
1603.0,0.011809983565746994
1602.0,0.011569205958963756
1601.0,0.011304040882783863
1600.0,0.011027662580680492
1599.0,0.010741622335631102
1598.0,0.01044445110921718
1597.0,0.01014376910935532
1596.0,0.009848655568128466
1595.0,0.009561973670043501
1594.0,0.009286950664301316
1593.0,0.009029166296785723
1592.0,0.008787681194327577
1591.0,0.008554968929347378
1590.0,0.00832969067030783
1589.0,0.008119804352803078
1588.0,0.007930037616318527
1587.0,0.0077554577303909165
1586.0,0.007590760220173879
1585.0,0.0074354233725240915
1584.0,0.007289003187996846
1583.0,0.00714624227217399
1582.0,0.007002904483332973
1581.0,0.006865828718520157
1580.0,0.006742466988916551
1579.0,0.0066265069339224115
1578.0,0.006501027344480701
1577.0,0.006355877565545677
1576.0,0.0062057848783459236
1575.0,0.0060866246724083735
1574.0,0.006004848807550878
1573.0,0.005929545663748479
1572.0,0.00583585085909154
1571.0,0.00571840507459007
1570.0,0.0055934822627617875
1569.0,0.0054898033771455055
1568.0,0.0054145019056793245
1567.0,0.005346080937887451
1566.0,0.005267846948323288
1565.0,0.005185742288247936
1564.0,0.005112699109452771
1563.0,0.005051876222579866
1562.0,0.004990017433331743
1561.0,0.0049124945753757565
1560.0,0.004808682814350593
1559.0,0.00470523176171597
1558.0,0.004660458966488926
1557.0,0.00466026161870209
1556.0,0.00464606840404302
1555.0,0.004594108514595111
1554.0,0.00452643069654367
1553.0,0.0044727755871070375
1552.0,0.004436197556724324
1551.0,0.004398493536256436
1550.0,0.004354011533967392
1549.0,0.004307401200444874
1548.0,0.00425795405256098
1547.0,0.0042058276822033135
1546.0,0.004160178660917219
1545.0,0.0041324732596636545
1544.0,0.0041125773742248396
1543.0,0.004073833028805725
1542.0,0.00401254180921654
1541.0,0.003951000152525867
1540.0,0.0038905913926870093
1539.0,0.0038312416527759192
1538.0,0.003799626447336945
1537.0,0.0037885187764531737
1536.0,0.0037618281626124296
1535.0,0.003709648796097702
1534.0,0.003654802556616407
1533.0,0.003628931316679588
1532.0,0.0036223831139092647
1531.0,0.0036035762029465066
1530.0,0.003572096002774334
1529.0,0.003547093015958654
1528.0,0.00353436406541084
1527.0,0.0035228702219405215
1526.0,0.0035096394306213547
1525.0,0.0035013899615325608
1524.0,0.00349081315576745
1523.0,0.0034645207706374198
1522.0,0.0034402895080815126
1521.0,0.003449888760302058
1520.0,0.0034764482939291345
1519.0,0.003482724412160202
1518.0,0.0034728824951310395
1517.0,0.0034744359509489486
1516.0,0.0034834442358763294
1515.0,0.0034776821331720907
1514.0,0.003463291360242906
1513.0,0.0034612554865403877
1512.0,0.00347385637339976
1511.0,0.003487927973008959
1510.0,0.0035032001980340975
1509.0,0.0035334653942441802
1508.0,0.0035768330904412523
1507.0,0.003596901678744811
1506.0,0.0035875492919446713
1505.0,0.0035930164295980872
1504.0,0.0036169633629146948
1503.0,0.003628687607021338
1502.0,0.003636484211234253
1501.0,0.00366779513873568
1500.0,0.003724171564853135
1499.0,0.0037870035372080035
1498.0,0.0038794143575405044
1497.0,0.004052298347040956
1496.0,0.004265884872351904
1495.0,0.004422964117007153
1494.0,0.004513226118408249
1493.0,0.00457512156638893
1492.0,0.0046097836853699215
1491.0,0.004602503584472175
1490.0,0.004600291504438203
1489.0,0.004665568389807486
1488.0,0.00475843743692239
1487.0,0.0048262848272645235
1486.0,0.004904800896229051
1485.0,0.005035275966004116
1484.0,0.005202730198858084
1483.0,0.005387568790366843
1482.0,0.005621131737301231
1481.0,0.005931492210663502
1480.0,0.006275764604591765
1479.0,0.006628827473150497
1478.0,0.007086003315362539
1477.0,0.007779295270246992
1476.0,0.008705893677263146
1475.0,0.009777444679354808
1474.0,0.011062689104520542
1473.0,0.01268232669232605
1472.0,0.014387814238411763
1471.0,0.015861833403341803
1470.0,0.017229377500975827
1469.0,0.01871826059501031
1468.0,0.020389956777631425
1467.0,0.022297271139288508
1466.0,0.02461362593217412
1465.0,0.027306314209650264
1464.0,0.029752763643787938
1463.0,0.03138557345543568
1462.0,0.03230259269625055
1461.0,0.0328184753247408
1460.0,0.03309891454770039
1459.0,0.033238888695468746
1458.0,0.033411991206084325
1457.0,0.03367512751546105
1456.0,0.0337954879781501
1455.0,0.03370332080735249
1454.0,0.03350668208770328
1453.0,0.033174639338711176
1452.0,0.032600045225399346
1451.0,0.03173481921521114
1450.0,0.030536375921120094
1449.0,0.028847897191919613
1448.0,0.026626628867897736
1447.0,0.024227140275154935
1446.0,0.022056075392798802
1445.0,0.020183374825013443
1444.0,0.018536145920649175
1443.0,0.017136147284916744
1442.0,0.016053124332600005
1441.0,0.01528433492180158
1440.0,0.014783126708928635
1439.0,0.014533733550405985
1438.0,0.014526892435448397
1437.0,0.01461367276911954
1436.0,0.014473385466611676
1435.0,0.01393599431101313
1434.0,0.013074429810466633
1433.0,0.011988879039090768
1432.0,0.0108082462772758
1431.0,0.009727014403801708
1430.0,0.008871101800878106
1429.0,0.008227846186803547
1428.0,0.007759974335263813
1427.0,0.007450781639780713
1426.0,0.0072351874362186624
1425.0,0.0070279143209798604
1424.0,0.006824822787528782
1423.0,0.006680110368927689
1422.0,0.006585309989263797
1421.0,0.006478131138945799
1420.0,0.006352239425850637
1419.0,0.0062684578014893695
1418.0,0.0062233848184717775
1417.0,0.0061427714687928734
1416.0,0.0060268175927353194
1415.0,0.005927971921857953
1414.0,0.005849571670220045
1413.0,0.0057590976602869244
1412.0,0.005660457372663903
1411.0,0.005589584517102672
1410.0,0.005538761281016783
1409.0,0.005467158806431516
1408.0,0.005380302014096038
1407.0,0.005322884809229263
1406.0,0.0052947988036810036
1405.0,0.005249627456490243
1404.0,0.005190070088619658
1403.0,0.005161375791335175
1402.0,0.005156881126201701
1401.0,0.005134505859744973
1400.0,0.005106459818345987
1399.0,0.0051263392201734165
1398.0,0.005180797498321628
1397.0,0.005206317608820931
1396.0,0.005213817391856481
1395.0,0.005270175487025229
1394.0,0.0053677853156766904
1393.0,0.005447937070926079
1392.0,0.005526188738042745
1391.0,0.005663638215116845
1390.0,0.005880929370110109
1389.0,0.006186946322072701
1388.0,0.006667693735643889
1387.0,0.007433752369585154
1386.0,0.008484265310916405
1385.0,0.009825326974427848
1384.0,0.01165149650626186
1383.0,0.014228329901594033
1382.0,0.017704439530776956
1381.0,0.022180095247059096
1380.0,0.027807113321702652
1379.0,0.03442224172099583
1378.0,0.04107525771432038
1377.0,0.046259591559404
1376.0,0.04851801548499536
1375.0,0.0468754193741685
1374.0,0.04175608472412033
1373.0,0.03523699269915413
1372.0,0.029200917411547192
1371.0,0.024176962311286708
1370.0,0.020065990158208626
1369.0,0.016842234757494003
1368.0,0.014552665651137359
1367.0,0.013103023146585785
1366.0,0.012278647201803336
1365.0,0.011907180003178988
1364.0,0.011904430729059902
1363.0,0.012218273886299771
1362.0,0.012747351704823606
1361.0,0.013318864092719814
1360.0,0.013744274421760114
1359.0,0.013872990675581398
1358.0,0.013626516534947633
1357.0,0.013020794667921682
1356.0,0.01215083913739844
1355.0,0.011155830319892365
1354.0,0.010185442742605669
1353.0,0.009347486484146099
1352.0,0.008666657498338778
1351.0,0.00811196003613747
1350.0,0.007653983638970274
1349.0,0.007280949849937277
1348.0,0.006978660534010783
1347.0,0.006726138814465809
1346.0,0.006513369133283178
1345.0,0.006342125986317759
1344.0,0.006211168133362116
1343.0,0.006115291025100601
1342.0,0.006057122849142602
1341.0,0.0060453548451120595
1340.0,0.006078378262258603
1339.0,0.006139873628031975
1338.0,0.006218275929036765
1337.0,0.006319422945044558
1336.0,0.0064552863436590805
1335.0,0.006634316163261525
1334.0,0.006863145593083323
1333.0,0.007143208820737188
1332.0,0.0074591163941535865
1331.0,0.007777006225938056
1330.0,0.008062860697169745
1329.0,0.008301329818954649
1328.0,0.008494815744009995
1327.0,0.008652858656627339
1326.0,0.008787208921008259
1325.0,0.008908558186972754
1324.0,0.009020982511362829
1323.0,0.0091215661955068
1322.0,0.009205725172899342
1321.0,0.009266487850183825
1320.0,0.009287472900027264
1319.0,0.009245086129755439
1318.0,0.009123984537137149
1317.0,0.008926238602874895
1316.0,0.008663832095851887
1315.0,0.00835120331155993
1314.0,0.008007174295859
1313.0,0.007655503768715122
1312.0,0.007319590041381689
1311.0,0.007019660768034987
1310.0,0.006775721753864698
1309.0,0.006608719018699026
1308.0,0.00653157059246719
1307.0,0.006530913944784803
1306.0,0.006555017081966846
1305.0,0.006529236018920422
1304.0,0.0063976988306958535
1303.0,0.0061604423312833015
1302.0,0.005872448684642059
1301.0,0.0056028801819787075
1300.0,0.005394069519019324
1299.0,0.005251390157143479
1298.0,0.005155014397805972
1297.0,0.00507446676968211
1296.0,0.004980783978133915
1295.0,0.004856695945343115
1294.0,0.004701142313097137
1293.0,0.004525471038343002
1292.0,0.004346310639136691
1291.0,0.004179054523264792
1290.0,0.0040319838486517915
1289.0,0.003904738415209383
1288.0,0.0037937275968019475
1287.0,0.0036974921702806994
1286.0,0.003615371201784943
1285.0,0.0035446300284985334
1284.0,0.003482294876084293
1283.0,0.0034274723367854693
1282.0,0.003379365310502383
1281.0,0.003335406043782468
1280.0,0.0032937496244468635
1279.0,0.0032551898161080036
1278.0,0.0032205664111687885
1277.0,0.003189109546077414
1276.0,0.003161183781559279
1275.0,0.0031394741410314137
1274.0,0.0031252602319394194
1273.0,0.0031166090940941867
1272.0,0.0031121990207509265
1271.0,0.003113652888384941
1270.0,0.0031220246251789157
1269.0,0.0031357900409034363
1268.0,0.003154858109803419
1267.0,0.003182781515832871
1266.0,0.0032224391487312553
1265.0,0.003273092912003577
1264.0,0.003334540187330568
1263.0,0.003411305968368597
1262.0,0.003510616506197309
1261.0,0.003639011031010493
1260.0,0.003801399759414666
1259.0,0.003996763590249198
1258.0,0.004208447090725192
1257.0,0.004399648390140312
1256.0,0.004523987582906566
1255.0,0.004548824812072334
1254.0,0.004476120823454345
1253.0,0.004342495147925766
1252.0,0.0041980464506130724
1251.0,0.004081705263719266
1250.0,0.004008168169633369
1249.0,0.003971199519502326
1248.0,0.003957232075462427
1247.0,0.003956113039743154
1246.0,0.003962873956512299
1245.0,0.003975390673791443
1244.0,0.003992994688583014
1243.0,0.004015426368668573
1242.0,0.004041375465140624
1241.0,0.004068874692210368
1240.0,0.004097215813012383
1239.0,0.0041268725954939425
1238.0,0.0041575027284475805
1237.0,0.004187875299848685
1236.0,0.0042178924994417406
1235.0,0.004248752467363696
1234.0,0.0042808755610364005
1233.0,0.0043134841064875005
1232.0,0.004346417977970221
1231.0,0.004380668645902352
1230.0,0.004417268154082583
1229.0,0.004457583164119781
1228.0,0.004504532334106541
1227.0,0.004561393816398682
1226.0,0.004629265518151739
1225.0,0.004707174786917021
1224.0,0.004793581219767622
1223.0,0.004884947594179386
1222.0,0.004973349159531665
1221.0,0.005048622110442875
1220.0,0.0051036038707251595
1219.0,0.005136145155756036
1218.0,0.0051468864276383525
1217.0,0.005137530795008959
1216.0,0.0051118982054587725
1215.0,0.0050766414086968305
1214.0,0.005039246370321049
1213.0,0.005005827243352146
1212.0,0.004980940753585289
1211.0,0.004967298571015256
1210.0,0.004964393508952113
1209.0,0.004969260881750597
1208.0,0.004979743639323061
1207.0,0.004995628695391862
1206.0,0.005016362364545664
1205.0,0.005039809464530489
1204.0,0.0050641124036993005
1203.0,0.005089184771536969
1202.0,0.005115948791045009
1201.0,0.005145631707778719
1200.0,0.005179846360038059
1199.0,0.005219358187758484
1198.0,0.005262337628196065
1197.0,0.005305688175690329
1196.0,0.005348502879783637
1195.0,0.005392603722737059
1194.0,0.00543955451778307
1193.0,0.005488891171327521
1192.0,0.005539514947966771
1191.0,0.005590978322497184
1190.0,0.005642987337611517
1189.0,0.005695394300068042
1188.0,0.005749419888004881
1187.0,0.005807605381411008
1186.0,0.005871831849552073
1185.0,0.005942241979957656
1184.0,0.006018484597067847
1183.0,0.006101194499723216
1182.0,0.00619218201482207
1181.0,0.006294266571134894
1180.0,0.006411594919177565
1179.0,0.006550301111566466
1178.0,0.006719862937152684
1177.0,0.006934763910138695
1176.0,0.007214559356660122
1175.0,0.007581218331592457
1174.0,0.008055491863585939
1173.0,0.008651319713688533
1172.0,0.009363195264829056
1171.0,0.01014796951172315
1170.0,0.01091822181053308
1169.0,0.011561276398574644
1168.0,0.011976766971980128
1167.0,0.012118227761546986
1166.0,0.012015418533530046
1165.0,0.01175410934429957
1164.0,0.011426824099432922
1163.0,0.011099354458722472
1162.0,0.0108089669035298
1161.0,0.010572722902983589
1160.0,0.010392796667588454
1159.0,0.010262937822576349
1158.0,0.010176907583486864
1157.0,0.010130886672871996
1156.0,0.010118409603670567
1155.0,0.010126431958370848
1154.0,0.01013637260224079
1153.0,0.010126364657855888
1152.0,0.010075088340825536
1151.0,0.009971294600348743
1150.0,0.009822427773634467
1149.0,0.009649158470713664
1148.0,0.009470944651273487
1147.0,0.009299790122792374
1146.0,0.009143287327767983
1145.0,0.009005385223231369
1144.0,0.008883902106047016
1143.0,0.008773456509877263
1142.0,0.008672563731937607
1141.0,0.008584885885867914
1140.0,0.00851390160288676
1139.0,0.008460033663671977
1138.0,0.008422683261464267
1137.0,0.008401062551318925
1136.0,0.008392474245969835
1135.0,0.00839313215343484
1134.0,0.008401539793979416
1133.0,0.00841854179518876
1132.0,0.008444055469852173
1131.0,0.008476839488199097
1130.0,0.0085175086571646
1129.0,0.008568129655056708
1128.0,0.008628061560117199
1127.0,0.008693539531793394
1126.0,0.008762299954283985
1125.0,0.008835462300352037
1124.0,0.008914307033900667
1123.0,0.008998865195224613
1122.0,0.009090078351085416
1121.0,0.0091888738239196
1120.0,0.009292260768830872
1119.0,0.009395112727493101
1118.0,0.009497048182064316
1117.0,0.00960271027855907
1116.0,0.009714146543891064
1115.0,0.009828568662088106
1114.0,0.009945198210514015
1113.0,0.010067913248649156
1112.0,0.01019860285612224
1111.0,0.01033456615841047
1110.0,0.01047602126507187
1109.0,0.010630222293438147
1108.0,0.010804408199209152
1107.0,0.010999181433578836
1106.0,0.011209331007121914
1105.0,0.011422682654893324
1104.0,0.011615053430927016
1103.0,0.011756118863583232
1102.0,0.011828306135232508
1101.0,0.011835726925453057
1100.0,0.011794145022521185
1099.0,0.011721673830731435
1098.0,0.01163973785768834
1097.0,0.011569032650264245
1096.0,0.011517399576274819
1095.0,0.011478988353878984
1094.0,0.011447931030266117
1093.0,0.011425606311640208
1092.0,0.011413095561803241
1091.0,0.011406013180623816
1090.0,0.011400468928936463
1089.0,0.011396721708885376
1088.0,0.011394408047015102
1087.0,0.011391857696492865
1086.0,0.011392037298820398
1085.0,0.011400212280739295
1084.0,0.011413067542088578
1083.0,0.011419156865177508
1082.0,0.011413252008946072
1081.0,0.011401365332224606
1080.0,0.011388688359500559
1079.0,0.01137237514996596
1078.0,0.011350226798753606
1077.0,0.011327175372560193
1076.0,0.01130811360718652
1075.0,0.011291653742543033
1074.0,0.011275053366991509
1073.0,0.011258400846407895
1072.0,0.011240494094784588
1071.0,0.011217666869563705
1070.0,0.011190186636582182
1069.0,0.011163279762052909
1068.0,0.011139085475120313
1067.0,0.011113913293463592
1066.0,0.011085362309022961
1065.0,0.011055599589213759
1064.0,0.011026003496578746
1063.0,0.010995356225324713
1062.0,0.010965027686654926
1061.0,0.010939350443077929
1060.0,0.010919177160242615
1059.0,0.010901251437873396
1058.0,0.010884956977511335
1057.0,0.010873028103128037
1056.0,0.010864905517516326
1055.0,0.010857065913529328
1054.0,0.010851738263713114
1053.0,0.010857795561162502
1052.0,0.010880083599572116
1051.0,0.010915043611439594
1050.0,0.010960155772556768
1049.0,0.011018393463942814
1048.0,0.01108791570649187
1047.0,0.011155829997693654
1046.0,0.011206335855138404
1045.0,0.01122798279196175
1044.0,0.011212989950437829
1043.0,0.01116053241885992
1042.0,0.011083768907614984
1041.0,0.011004458940154858
1040.0,0.010936526175607315
1039.0,0.010879958221609427
1038.0,0.010830623723525017
1037.0,0.010788194769694401
1036.0,0.010752793802679543
1035.0,0.010721707013738365
1034.0,0.010693119240004713
1033.0,0.010667581725361207
1032.0,0.010643181467369926
1031.0,0.010614547952686858
1030.0,0.010578714216727785
1029.0,0.010536628957697497
1028.0,0.010487581273187262
1027.0,0.010428465355904871
1026.0,0.010360502384935718
1025.0,0.010290678916248767
1024.0,0.010224481842053091
1023.0,0.010162297167077314
1022.0,0.010103870764846343
1021.0,0.010050210093527202
1020.0,0.009999083195507541
1019.0,0.009944552071389348
1018.0,0.009884050246283891
1017.0,0.009821430963606851
1016.0,0.009761088091615152
1015.0,0.009704044000985165
1014.0,0.009651878495874736
1013.0,0.009609405172023772
1012.0,0.009580422140883605
1011.0,0.009564527082344235
1010.0,0.009560727706628297
1009.0,0.009571420015724653
1008.0,0.009601508920712062
1007.0,0.009657817437172242
1006.0,0.009752821144467502
1005.0,0.009907895613064231
1004.0,0.010152934273844312
1003.0,0.010524157877496516
1002.0,0.011052897829127897
1001.0,0.011731476058264955
1000.0,0.012466714575863846
999.0,0.013070698664936079
998.0,0.01333178634228707
997.0,0.013130399344611141
996.0,0.012506171044505033
995.0,0.011628488017879097
994.0,0.010701562756935902
993.0,0.00987282228058493
992.0,0.00920045196352606
991.0,0.00867933286808626
990.0,0.008280830381206082
989.0,0.0079756605777212
988.0,0.007741394311586101
987.0,0.007564624749537277
986.0,0.007440420406060171
985.0,0.007369326607006293
984.0,0.00735533258473616
983.0,0.007406680573252436
982.0,0.007537537125615163
981.0,0.00776805610952507
980.0,0.008121134189874181
979.0,0.008615051774002265
978.0,0.009254108129406281
977.0,0.010018675673495403
976.0,0.010850607369694721
975.0,0.011636255474449646
974.0,0.012208646131887439
973.0,0.012391653528629745
972.0,0.012080831397282613
971.0,0.01131722043837825
970.0,0.010286607461561055
969.0,0.009222935168040595
968.0,0.00829424268926195
967.0,0.007560619381326232
966.0,0.007004767001548298
965.0,0.006581288676136839
964.0,0.0062479591186076645
963.0,0.005975989465181681
962.0,0.005748960394379929
961.0,0.005556792518098722
960.0,0.005390252577673161
959.0,0.005240855707204116
958.0,0.005104280616433149
957.0,0.004980721417401828
956.0,0.004870741231408111
955.0,0.00477230220301605
954.0,0.004682841764295459
953.0,0.004602856893824957
952.0,0.004535386661291773
951.0,0.0044817588652247544
950.0,0.004439505914316124
949.0,0.004405589203748699
948.0,0.004380717958942633
947.0,0.00436908789236285
946.0,0.004374311848362663
945.0,0.004396736352042788
944.0,0.004433516253174019
943.0,0.004478064499416722
942.0,0.004518100872363462
941.0,0.004536319937117529
940.0,0.004516316186071911
939.0,0.0044511018337071665
938.0,0.004348011484992899
937.0,0.004225519575334669
936.0,0.0041041018505169535
935.0,0.003997718234731191
934.0,0.00391074637504533
933.0,0.0038409492666044544
932.0,0.0037847661528172555
931.0,0.003739794794832236
930.0,0.0037037904830222543
929.0,0.0036739427435434338
928.0,0.0036482024576229887
927.0,0.003626407784326541
926.0,0.003609674212324601
925.0,0.0035993539131069646
924.0,0.003596349029715693
923.0,0.0036001096823339027
922.0,0.003608151231006591
921.0,0.0036176223534146673
920.0,0.0036273031457252107
919.0,0.0036373163011463264
918.0,0.003647748899676756
917.0,0.00365893242729403
916.0,0.003671999526864824
915.0,0.003686811417019718
914.0,0.003699476125246303
913.0,0.0037041650759653084
912.0,0.0036978572075665383
911.0,0.003681894876726599
910.0,0.0036593983438459234
909.0,0.003634161382932706
908.0,0.00361390902034897
907.0,0.003613606745782075
906.0,0.0036544628073059537
905.0,0.0037595177435175813
904.0,0.0039465295363765845
903.0,0.004215609760874722
902.0,0.004534846879266903
901.0,0.0048365709873653805
900.0,0.005033761709721779
899.0,0.00505436852008702
898.0,0.004877366625465222
897.0,0.004544164156647111
896.0,0.004134963614956963
895.0,0.0037296246828774776
894.0,0.0033792324061529197
893.0,0.0031008110319435175
892.0,0.002889873239485586
891.0,0.002734209113205618
890.0,0.002619792547149006
889.0,0.0025337222724279365
888.0,0.0024681659190648256
887.0,0.0024209852442825365
886.0,0.002391492743827971
885.0,0.002377545434841675
884.0,0.0023770534614936806
883.0,0.002389289997420909
882.0,0.0024137127660532783
881.0,0.002449602240187732
880.0,0.0024964159637676734
879.0,0.0025510504606834523
878.0,0.0026048754551545004
877.0,0.0026472956326000973
876.0,0.0026724198751472373
875.0,0.0026788145027528965
874.0,0.0026629976390131534
873.0,0.0026175884155544542
872.0,0.002537825480539829
871.0,0.002428393797675593
870.0,0.002303588207183873
869.0,0.002182068228322078
868.0,0.002080042892974302
867.0,0.002005075065590357
866.0,0.001954285158066096
865.0,0.001920101017467946
864.0,0.0018975371200908413
863.0,0.0018843644642356824
862.0,0.0018775354075483697
861.0,0.0018746064766784146
860.0,0.001877195264095445
859.0,0.001887778779904323
858.0,0.0019037642470748775
857.0,0.0019193684269109045
856.0,0.0019325411117821784
855.0,0.001946009182900622
854.0,0.00196352806778741
853.0,0.0019897670137073945
852.0,0.0020313881110502197
851.0,0.0020929113418324654
850.0,0.0021742776255018886
849.0,0.0022785695657869436
848.0,0.0024215225813371865
847.0,0.0026343572427197093
846.0,0.0029679125711832
845.0,0.0034898114900127532
844.0,0.0042346549207128974
843.0,0.005106610697136168
842.0,0.005838479750637844
841.0,0.006119057007444395
840.0,0.005821042545840753
839.0,0.005107633489107839
838.0,0.004299918312093065
837.0,0.003645436288565413
836.0,0.0032122847335277777
835.0,0.002950224325118248
834.0,0.0027906434862645683
833.0,0.0026876510870946415
832.0,0.0026134332061745168
831.0,0.0025528365958132062
830.0,0.0025021640422319916
829.0,0.002461074161158228
828.0,0.002426942491809871
827.0,0.002400219233636469
826.0,0.002386378774415104
825.0,0.00238609032387257
824.0,0.0023917112633903923
823.0,0.002399317657372467
822.0,0.002415213091809639
821.0,0.002445697785089339
820.0,0.0024899429569126483
819.0,0.0025474646910120828
818.0,0.0026254794606175138
817.0,0.0027360686060809844
816.0,0.002891375082406409
815.0,0.003102671888204178
814.0,0.0033766281082359016
813.0,0.0037054143242477187
812.0,0.004059447539934763
811.0,0.004391231649046619
810.0,0.0046482888609641155
809.0,0.004787247233024763
808.0,0.004785774133889802
807.0,0.004652904446206786
806.0,0.004429898914859929
805.0,0.004174091477530829
804.0,0.003936818512508783
803.0,0.0037503302109586625
802.0,0.003623532653642068
801.0,0.003544117289677174
800.0,0.003490213832883315
799.0,0.0034462666169077427
798.0,0.003409140354007501
797.0,0.0033809202388216317
796.0,0.0033608972172733936
795.0,0.0033458715237668184
794.0,0.0033330667401320103
793.0,0.003319715868889195
792.0,0.0033032812223510143
791.0,0.0032844074093816775
790.0,0.003266432878949509
789.0,0.0032502551688639997
788.0,0.0032331793965011723
787.0,0.0032141448796271423
786.0,0.003195773604652604
785.0,0.003179560270615899
784.0,0.0031638112552115783
783.0,0.0031486837807476456
782.0,0.0031383176129586993
781.0,0.003134726911560177
780.0,0.003133983270001069
779.0,0.0031319094237508152
778.0,0.0031295732662556157
777.0,0.0031298222870828323
776.0,0.0031323180497516796
775.0,0.0031357184092970624
774.0,0.0031413054335984285
773.0,0.003150589215971408
772.0,0.0031623765270681137
771.0,0.003175829453649995
770.0,0.003193385176665344
769.0,0.003217002172531765
768.0,0.0032442631318457494
767.0,0.003271643858136237
766.0,0.0032988450181891567
765.0,0.0033266432903087846
764.0,0.0033538737700003146
763.0,0.0033802655274719137
762.0,0.0034086913620982743
761.0,0.0034402369861075187
760.0,0.0034701013750917196
759.0,0.0034927626645819727
758.0,0.0035081562254955885
757.0,0.00351834963439932
756.0,0.00352195260792153
755.0,0.0035176778621258953
754.0,0.0035104296751956535
753.0,0.0035074333999124624
752.0,0.00351015737073774
751.0,0.003515208325024618
750.0,0.0035203276492796892
749.0,0.0035238382428624156
748.0,0.0035211147734260833
747.0,0.0035084177535257147
746.0,0.003488958360695892
745.0,0.0034694425141572945
744.0,0.0034522919780540047
743.0,0.0034366276113423893
742.0,0.0034240274564000563
741.0,0.0034167234343502
740.0,0.0034129062627050464
739.0,0.0034111992571631607
738.0,0.003417630423279288
737.0,0.0034422914498516387
736.0,0.0034948216261410803
735.0,0.0035923839669405426
734.0,0.0037628271260480572
733.0,0.004016318307816959
732.0,0.0043049830471971855
731.0,0.004527709771543356
730.0,0.004597326685054316
729.0,0.004509445604208345
728.0,0.004341426411332263
727.0,0.004188063747056343
726.0,0.0041041498773716325
725.0,0.004100231523060487
724.0,0.004175867746518501
723.0,0.004341307397158957
722.0,0.004595119409335832
721.0,0.0048764169493819105
720.0,0.0050595742635979185
719.0,0.005040082525873478
718.0,0.0048295911614743775
717.0,0.004536803295664847
716.0,0.00427029518104153
715.0,0.004077379323821135
714.0,0.003951108687355249
713.0,0.0038676914988073933
712.0,0.0038106519294090774
711.0,0.003774502453410377
710.0,0.003764308975082201
709.0,0.003793619378523792
708.0,0.003874760956555422
707.0,0.004009893984528164
706.0,0.004194653807543822
705.0,0.004426581601832279
704.0,0.004702463465726592
703.0,0.005008252587331504
702.0,0.005316753760776413
701.0,0.005592492856579206
700.0,0.0057938159974369845
699.0,0.005877200857546066
698.0,0.005813551774976781
697.0,0.00560628335157266
696.0,0.005293463297578177
695.0,0.004934069736258699
694.0,0.004589338666730314
693.0,0.004304832854502602
692.0,0.004097797943776316
691.0,0.003958556518675967
690.0,0.0038661223270797266
689.0,0.0038030068575608976
688.0,0.0037577943464808614
687.0,0.003722113571289185
686.0,0.0036915944995083256
685.0,0.0036664448058570777
684.0,0.003646865237243277
683.0,0.0036307525774658764
682.0,0.0036174446390028897
681.0,0.0036090585638264153
680.0,0.0036061203011548207
679.0,0.003605765150652933
678.0,0.003606167366186023
677.0,0.003607596358181608
676.0,0.0036082216408119218
675.0,0.00360586009574856
674.0,0.0036033329304093354
673.0,0.003605360591816236
672.0,0.0036093169275557054
671.0,0.00360699430712813
670.0,0.0035933955373090957
669.0,0.0035755139006759477
668.0,0.0035680753818246114
667.0,0.0035655846626478013
666.0,0.0035520380480600407
665.0,0.00352924517841438
664.0,0.0035070358573655955
663.0,0.0034878414103811668
662.0,0.003468351048431664
661.0,0.0034466139982300623
660.0,0.003423623837097046
659.0,0.003401668659661322
658.0,0.003385102415333043
657.0,0.003377858932119963
656.0,0.003377184360766208
655.0,0.003374994536483212
654.0,0.0033680386636022047
653.0,0.003361435150618394
652.0,0.003358431227991227
651.0,0.0033533007226729666
650.0,0.0033401045221515494
649.0,0.003322753975074401
648.0,0.003309761101967142
647.0,0.00330401358899375
646.0,0.003302550000934869
645.0,0.003301477029705747
644.0,0.003297552211690924
643.0,0.0032898000387292375
642.0,0.003282030654147461
641.0,0.0032771388824817125
640.0,0.0032685069112006037
639.0,0.003247717306067391
638.0,0.0032225034967335196
637.0,0.003211868240827789
636.0,0.003218721219963177
635.0,0.003222734468257927
634.0,0.0032078565504228395
633.0,0.003182255963858973
632.0,0.0031607847087366057
631.0,0.0031442432427971024
630.0,0.0031270460697660936
629.0,0.003111208615602961
628.0,0.0030996087832368185
627.0,0.0030852173893079057
626.0,0.0030586683366323163
625.0,0.00301965197220571
624.0,0.002972434860888093
623.0,0.0029203044290330707
622.0,0.002873095190057077
621.0,0.0028446041124329654
620.0,0.002832248659825655
619.0,0.002812565682538291
618.0,0.002770913105158824
617.0,0.002725064952290796
616.0,0.0027023909804077505
615.0,0.0027071907816410383
614.0,0.002724313833640601
613.0,0.0027418473897238144
612.0,0.002757008038953795
611.0,0.002772601092947265
610.0,0.0027995793254059938
609.0,0.0028489860249841037
608.0,0.002912543546515797
607.0,0.002965523899810105
606.0,0.0029982843631026594
605.0,0.003024182322552765
604.0,0.003044476234202606
603.0,0.003035951861528125
602.0,0.0029902089335552516
601.0,0.0029366291509150978
600.0,0.002909001095357166
599.0,0.0029110703412249077
598.0,0.0029270391418499903
597.0,0.00294707300483693
596.0,0.0029638147821738885
595.0,0.0029610834451242254
594.0,0.0029309180346922866
593.0,0.002889086387492811
592.0,0.002855358684830757
591.0,0.0028331201816075126
590.0,0.0028207949737852874
589.0,0.002824521968550737
588.0,0.002840095159538006
587.0,0.002835727745721584
586.0,0.002779025482695232
585.0,0.0026755204995308514
584.0,0.0025598569970355697
583.0,0.002463954874959009
582.0,0.002400383673771435
581.0,0.0023574373736193746
580.0,0.002305478058069855
579.0,0.002222789478136252
578.0,0.0021239549991622026
577.0,0.0020452968946711335
576.0,0.00200107916614585
575.0,0.0019729855809852495
574.0,0.0019445010953881665
573.0,0.0019230181346909557
572.0,0.001918247891350565
571.0,0.0019222949064006305
570.0,0.0019241760557719596
569.0,0.0019264937710314275
568.0,0.0019288743290986933
567.0,0.0019196247318709484
566.0,0.0019057943477308924
565.0,0.0019203938883997698
564.0,0.0019740204902926302
563.0,0.0020231435485427935
562.0,0.002019101694025056
561.0,0.0019774474101663265
560.0,0.0019576067768446457
559.0,0.0019842846019668724
558.0,0.002020723070108782
557.0,0.0020203076562796338
556.0,0.0019749024666991582
555.0,0.0019121657637787646
554.0,0.0018683277765898579
553.0,0.0018607649153055206
552.0,0.0018812242227597836
551.0,0.0019064655064497974
550.0,0.0019152322429617482
