cm-1,A
4000.0,0.005383517854098477
3999.0,0.005361606146418007
3998.0,0.005340565877355829
3997.0,0.005331440966489687
3996.0,0.005337318304753243
3995.0,0.005352589037986444
3994.0,0.005366711113763364
3993.0,0.005371634404328872
3992.0,0.005366892191388644
3991.0,0.005359011254465186
3990.0,0.005356450875501897
3989.0,0.005362134210204374
3988.0,0.005373877003661874
3987.0,0.005388900886401982
3986.0,0.005406118224907918
3985.0,0.005423209384480765
3984.0,0.005432906685807498
3983.0,0.0054280013529472565
3982.0,0.005410662356119707
3981.0,0.005393403765686929
3980.0,0.005387146038743178
3979.0,0.005390318076926964
3978.0,0.005391082320114491
3977.0,0.005380882603201214
3976.0,0.0053645017951022495
3975.0,0.005353629812471187
3974.0,0.005354669093498209
3973.0,0.005363769082349791
3972.0,0.005372870089081533
3971.0,0.00537884002535116
3970.0,0.005384190487804364
3969.0,0.005393320845204021
3968.0,0.0054065574349837124
3967.0,0.005417997892333886
3966.0,0.005420486180810229
3965.0,0.005411597870341768
3964.0,0.005396210480351707
3963.0,0.005382072577538684
3962.0,0.005375518900734995
3961.0,0.005379097329847161
3960.0,0.005390263507841159
3959.0,0.005405344692274277
3958.0,0.00541935332990694
3957.0,0.005428411678867532
3956.0,0.005433407715091505
3955.0,0.005436395879676211
3954.0,0.005438238447509303
3953.0,0.0054360653527009885
3952.0,0.0054232400283619475
3951.0,0.005397156957131397
3950.0,0.005363498361495876
3949.0,0.005336185282978313
3948.0,0.00532657857905328
3947.0,0.005339481019597812
3946.0,0.005382732379298928
3945.0,0.005448938039232323
3944.0,0.005506943635102573
3943.0,0.005528196038694966
3942.0,0.0055080708689128665
3941.0,0.005472141782192169
3940.0,0.005449846248316234
3939.0,0.005446337362203175
3938.0,0.005445180997655792
3937.0,0.005430877791124658
3936.0,0.005406164034080544
3935.0,0.005380529953645101
3934.0,0.005361141599351559
3933.0,0.005352727980199498
3932.0,0.005366544209967519
3931.0,0.005406602676960886
3930.0,0.005458729063615541
3929.0,0.00551238144994791
3928.0,0.005562893325609925
3927.0,0.005597462604781306
3926.0,0.005585478500217831
3925.0,0.005520104769472572
3924.0,0.005444544459600674
3923.0,0.005400989791599156
3922.0,0.00539090774831142
3921.0,0.005382389368349817
3920.0,0.005353713556084242
3919.0,0.005323228734616137
3918.0,0.005321556262776906
3917.0,0.005355657533081206
3916.0,0.005403098092447918
3915.0,0.005444309739912091
3914.0,0.005477276461724963
3913.0,0.00550071333802131
3912.0,0.005511516985694652
3911.0,0.0055149526345548
3910.0,0.005515794937625985
3909.0,0.005510834574676185
3908.0,0.005490241866490133
3907.0,0.005438066154140831
3906.0,0.005339651666806621
3905.0,0.00520809296809399
3904.0,0.005100836179738794
3903.0,0.005073856050592061
3902.0,0.005130797628815346
3901.0,0.005225716481870795
3900.0,0.005306257971671862
3899.0,0.00534940138658067
3898.0,0.005369757549584983
3897.0,0.005394225481190519
3896.0,0.005419448386115596
3895.0,0.005430382985787105
3894.0,0.00542354265293578
3893.0,0.005405466600062025
3892.0,0.005381886003892061
3891.0,0.005342816517897512
3890.0,0.005293938528748231
3889.0,0.005285857283599135
3888.0,0.005340745632165877
3887.0,0.005394664664521827
3886.0,0.00537846613229018
3885.0,0.005331257312349481
3884.0,0.005343817169927907
3883.0,0.0054470812184643155
3882.0,0.0055796425854147454
3881.0,0.005644567125303154
3880.0,0.005604223654547206
3879.0,0.005514745237205359
3878.0,0.00547582672979267
3877.0,0.0055305951576095245
3876.0,0.005620426678290593
3875.0,0.005638385774483193
3874.0,0.005550347441415702
3873.0,0.005438595688514208
3872.0,0.0053916615664140926
3871.0,0.005402731459459532
3870.0,0.005400489287550454
3869.0,0.005354515543995039
3868.0,0.005319224401581803
3867.0,0.005343553456867437
3866.0,0.00537259193422545
3865.0,0.0053514500622469366
3864.0,0.0053235376002603195
3863.0,0.005341079148881239
3862.0,0.005380993726942996
3861.0,0.005409731997122177
3860.0,0.005417743294927263
3859.0,0.005392182938023321
3858.0,0.005323123756525625
3857.0,0.005236664363949412
3856.0,0.005186121630506426
3855.0,0.005188917984782085
3854.0,0.00516944057849322
3853.0,0.005149080572163697
3852.0,0.005170997220491535
3851.0,0.005225743730826854
3850.0,0.005288690868849292
3849.0,0.005330613312701687
3848.0,0.005353880106010757
3847.0,0.005387539082205507
3846.0,0.005441520038114682
3845.0,0.00550260918265722
3844.0,0.005544628009052498
3843.0,0.005551665835506909
3842.0,0.005535854571334027
3841.0,0.0055237664058718945
3840.0,0.005526974493964314
3839.0,0.00554020938371927
3838.0,0.0055410541371594966
3837.0,0.005505541496606553
3836.0,0.00545229169630706
3835.0,0.0054258470987659044
3834.0,0.00543589989607323
3833.0,0.00545384661828031
3832.0,0.005452427371655152
3831.0,0.005440808886362136
3830.0,0.005453252452425817
3829.0,0.005506896214514281
3828.0,0.005566298514334868
3827.0,0.005564266310478686
3826.0,0.005479018336293326
3825.0,0.005375708697889507
3824.0,0.0053467767026054115
3823.0,0.005403997749608697
3822.0,0.005438306665698461
3821.0,0.005390243821732802
3820.0,0.005328578124303209
3819.0,0.005343618777375869
3818.0,0.005454918978980158
3817.0,0.005566305520163866
3816.0,0.005570848913352292
3815.0,0.005487760420341684
3814.0,0.005425650201157657
3813.0,0.0054297525080729886
3812.0,0.005448245794341127
3811.0,0.005441069138617632
3810.0,0.005437317594469404
3809.0,0.005468001182689668
3808.0,0.005489574389372636
3807.0,0.005444854304741121
3806.0,0.00537480565139039
3805.0,0.0053919469311730864
3804.0,0.0055379126755107965
3803.0,0.0057149735678596065
3802.0,0.0057792897427550146
3801.0,0.005706760248370798
3800.0,0.005593716805481741
3799.0,0.00554492593201697
3798.0,0.005574946521564789
3797.0,0.005618441785937601
3796.0,0.005620814259269032
3795.0,0.00559192120761854
3794.0,0.005571050512868952
3793.0,0.005569177476028463
3792.0,0.005570313899004129
3791.0,0.00557034788428236
3790.0,0.005577020243050649
3789.0,0.005591677310096415
3788.0,0.005609407534918597
3787.0,0.005627072534639779
3786.0,0.005639690908366355
3785.0,0.005641068460930937
3784.0,0.005632261224118736
3783.0,0.005633631657249276
3782.0,0.005667890899691548
3781.0,0.005714261589605182
3780.0,0.005722800813197906
3779.0,0.005680284465128982
3778.0,0.005623948976480627
3777.0,0.005596042668998269
3776.0,0.005595522165886565
3775.0,0.005587468531653324
3774.0,0.005559738414708159
3773.0,0.005539152682522397
3772.0,0.005538395758722538
3771.0,0.005526268161710091
3770.0,0.0054816149101427625
3769.0,0.005439869886993323
3768.0,0.0054489376142023436
3767.0,0.005502128755396251
3766.0,0.005543594018086351
3765.0,0.005538389286896553
3764.0,0.005516997541370106
3763.0,0.005538571521842071
3762.0,0.005606165173813256
3761.0,0.005657655911919793
3760.0,0.0056526614306465685
3759.0,0.005618838183484906
3758.0,0.005583238634402415
3757.0,0.005534158395513067
3756.0,0.00548466943436
3755.0,0.0054597176338234505
3754.0,0.005437560876406184
3753.0,0.005335228190671796
3752.0,0.005125742784157461
3751.0,0.004945103928507318
3750.0,0.004879011334333926
3749.0,0.004849730842089806
3748.0,0.004850309631139621
3747.0,0.004953622516338714
3746.0,0.005146938460492714
3745.0,0.005266985208882948
3744.0,0.005207534055045542
3743.0,0.005122261308446697
3742.0,0.005160892922404067
3741.0,0.005270987655472877
3740.0,0.005352737957519147
3739.0,0.005394717605292151
3738.0,0.005445759666490673
3737.0,0.005502297500185623
3736.0,0.005531352682165214
3735.0,0.00554014971530994
3734.0,0.0055258273663412755
3733.0,0.005476526831409531
3732.0,0.005405544674417392
3731.0,0.005340159594373295
3730.0,0.005310217897059175
3729.0,0.005323889069828815
3728.0,0.0053489793572757275
3727.0,0.005352071172124737
3726.0,0.005351561983788328
3725.0,0.005392897783017247
3724.0,0.005479405080330582
3723.0,0.005572375620430749
3722.0,0.005639766747725754
3721.0,0.005679654488504169
3720.0,0.005703911761989561
3719.0,0.0057155156363847635
3718.0,0.005704118138325348
3717.0,0.005673753759663025
3716.0,0.005662735132071556
3715.0,0.005705888101006095
3714.0,0.005789085942426791
3713.0,0.005854774335936993
3712.0,0.005886025635995901
3711.0,0.0059383353041909835
3710.0,0.006007380374874032
3709.0,0.006054889610550433
3708.0,0.006090864739047989
3707.0,0.006134700579987362
3706.0,0.006199063834858858
3705.0,0.006296203855186202
3704.0,0.006428143783933741
3703.0,0.006577452674690878
3702.0,0.006718587428909914
3701.0,0.006834734269491742
3700.0,0.006930412515267764
3699.0,0.007027057681392711
3698.0,0.007120800694814388
3697.0,0.007178579878428454
3696.0,0.007189106626050325
3695.0,0.007181415976317057
3694.0,0.007186277118845779
3693.0,0.007207008626975544
3692.0,0.0072158599059567235
3691.0,0.007180537844427224
3690.0,0.007107839948179986
3689.0,0.007021941353744163
3688.0,0.006917693035360463
3687.0,0.0068289035487463495
3686.0,0.006810656005272795
3685.0,0.006853211921942101
3684.0,0.006906222334843369
3683.0,0.006949761768697689
3682.0,0.006999432539469052
3681.0,0.007045578956457712
3680.0,0.007051205122289148
3679.0,0.007032286874631474
3678.0,0.007060887227202968
3677.0,0.007162127010586475
3676.0,0.007263204128125263
3675.0,0.0072754413852523505
3674.0,0.007201376009147874
3673.0,0.007171363458088528
3672.0,0.007221853708439222
3671.0,0.007286896595036336
3670.0,0.00735171557052508
3669.0,0.007428619402814213
3668.0,0.007496262935525922
3667.0,0.007566149527974632
3666.0,0.007636927491893988
3665.0,0.007695953521438907
3664.0,0.007745416400791897
3663.0,0.007794933987901886
3662.0,0.007840450246434733
3661.0,0.00786929860061747
3660.0,0.007890440592763297
3659.0,0.007931545484344538
3658.0,0.00800677276282487
3657.0,0.008090409046362369
3656.0,0.008156319719501101
3655.0,0.008223791088390433
3654.0,0.008343887642257183
3653.0,0.00854280115681107
3652.0,0.00876008501383547
3651.0,0.008864072079961963
3650.0,0.008852564708439196
3649.0,0.008960337390301729
3648.0,0.009192696740394317
3647.0,0.009341695317271102
3646.0,0.00937722647015926
3645.0,0.009389217967336685
3644.0,0.009433494289636708
3643.0,0.009517153242557997
3642.0,0.00963234277289403
3641.0,0.009769751916268946
3640.0,0.009915478506049586
3639.0,0.010044467140149789
3638.0,0.010145564913951795
3637.0,0.010240515050031445
3636.0,0.010351933443238448
3635.0,0.010455533398085675
3634.0,0.010499641383823376
3633.0,0.010480140342656138
3632.0,0.01045897934077566
3631.0,0.010502461419601747
3630.0,0.010621207488747453
3629.0,0.010807191826527968
3628.0,0.011029522611278268
3627.0,0.011245115805981937
3626.0,0.011465986176539449
3625.0,0.011673269503117437
3624.0,0.011839101032959189
3623.0,0.011978787133193577
3622.0,0.012141198943727744
3621.0,0.012355450128918932
3620.0,0.012603412832237428
3619.0,0.012827380194098178
3618.0,0.01296801888170921
3617.0,0.013030530211868814
3616.0,0.013066686522709108
3615.0,0.013112168130999398
3614.0,0.013175943799235463
3613.0,0.013243468221738039
3612.0,0.013295539270505963
3611.0,0.013350742294561183
3610.0,0.01346144964303279
3609.0,0.013666984635622707
3608.0,0.013946901031082818
3607.0,0.01421664472939035
3606.0,0.014406147460417013
3605.0,0.014519433953344098
3604.0,0.014600928755825191
3603.0,0.014687604678658069
3602.0,0.014798540873699364
3601.0,0.014932798930872643
3600.0,0.015077075104800844
3599.0,0.015221547569635225
3598.0,0.015370445713825103
3597.0,0.01553274323444128
3596.0,0.01570744523962785
3595.0,0.01587528753150946
3594.0,0.016007803325818595
3593.0,0.016088416373237963
3592.0,0.016128273270854414
3591.0,0.016169189852320704
3590.0,0.016254623360957017
3589.0,0.016405588658689848
3588.0,0.01662819771104676
3587.0,0.01688647040809652
3586.0,0.01709635101232027
3585.0,0.017242233186948282
3584.0,0.017372601128026285
3583.0,0.01751721303158381
3582.0,0.017678296835854677
3581.0,0.017847177392610953
3580.0,0.01801412276220919
3579.0,0.018176537918321273
3578.0,0.018339082528272602
3577.0,0.018506323848657146
3576.0,0.018674454465286885
3575.0,0.018834737589404637
3574.0,0.018979045430778878
3573.0,0.019104942712963632
3572.0,0.01922058102658375
3571.0,0.019350390166261406
3570.0,0.01951994809740423
3569.0,0.01971753757334149
3568.0,0.01991019423747379
3567.0,0.02010970526467468
3566.0,0.020315329209821483
3565.0,0.020481855825921654
3564.0,0.02060566401952572
3563.0,0.020717968155445462
3562.0,0.020845472327610713
3561.0,0.021002053979265592
3560.0,0.021184302979872907
3559.0,0.02137493413649713
3558.0,0.02155678223293759
3557.0,0.02172223868553736
3556.0,0.021873022019055742
3555.0,0.022019074753386013
3554.0,0.02217389767213395
3553.0,0.022343098183262557
3552.0,0.022509336900485927
3551.0,0.022646520777631237
3550.0,0.02275428362798425
3549.0,0.022852729961698678
3548.0,0.022958855228995576
3547.0,0.023090184868026577
3546.0,0.023266967373355235
3545.0,0.023485110929826008
3544.0,0.023706848881308425
3543.0,0.023901930915992735
3542.0,0.02407154498332903
3541.0,0.02423163301231462
3540.0,0.024392682671620217
3539.0,0.024555202313063705
3538.0,0.024719852029715772
3537.0,0.02489215880870504
3536.0,0.025073964495578166
3535.0,0.025255401819409756
3534.0,0.025426831676351083
3533.0,0.02558603516439547
3532.0,0.025733644723243975
3531.0,0.025873082007459403
3530.0,0.02601209543923327
3529.0,0.026158656355264796
3528.0,0.02631238428221789
3527.0,0.026466696129958046
3526.0,0.026621168968444884
3525.0,0.026785337191953668
3524.0,0.02696651698865023
3523.0,0.02715694985766018
3522.0,0.02733936929369807
3521.0,0.027507367015220604
3520.0,0.027671518751280308
3519.0,0.027843600351824788
3518.0,0.028026159356353702
3517.0,0.028213143715402844
3516.0,0.02839702529316211
3515.0,0.028573216656619622
3514.0,0.028740689986630402
3513.0,0.028900093073864052
3512.0,0.029053758702383616
3511.0,0.029209936367045063
3510.0,0.02937910747447086
3509.0,0.02955913709494563
3508.0,0.02973471068589018
3507.0,0.029899150261556637
3506.0,0.03006167654154633
3505.0,0.03023223902091887
3504.0,0.03041367016066058
3503.0,0.030605313784090576
3502.0,0.03080288603942087
3501.0,0.031002911080384957
3500.0,0.031207036154405465
3499.0,0.03141568449795174
3498.0,0.03162658829322125
3497.0,0.03183932919570576
3496.0,0.03205458675904581
3495.0,0.03227034872174592
3494.0,0.03248222594670879
3493.0,0.03268520541893501
3492.0,0.03287548902876
3491.0,0.033054795047155035
3490.0,0.03323390219184234
3489.0,0.03342709467819596
3488.0,0.03363897930123997
3487.0,0.03385974502552609
3486.0,0.0340772201268728
3485.0,0.034287230271761095
3484.0,0.034491445665040574
3483.0,0.03469364677690918
3482.0,0.03489896375909765
3481.0,0.0351105243812334
3480.0,0.035326854934794955
3479.0,0.03554716408627723
3478.0,0.03577506822981396
3477.0,0.036013197584267784
3476.0,0.03625560010630901
3475.0,0.0364892905844648
3474.0,0.03670464167965599
3473.0,0.03690368099907975
3472.0,0.0370983831673079
3471.0,0.037301619182071394
3470.0,0.03751869169236147
3469.0,0.03774484491952406
3468.0,0.03796999444414765
3467.0,0.038188212972987176
3466.0,0.03840338882726171
3465.0,0.03862372563418264
3464.0,0.03885288933277963
3463.0,0.03908805843362979
3462.0,0.0393236970545936
3461.0,0.03955433407422593
3460.0,0.03977718473076176
3459.0,0.039995526303621506
3458.0,0.04021729201995892
3457.0,0.04044598409734309
3456.0,0.04067849708867158
3455.0,0.0409137251355748
3454.0,0.04115695257326308
3453.0,0.041408577324640046
3452.0,0.04165549033288414
3451.0,0.04188492202509683
3450.0,0.0421013035998464
3449.0,0.04232172321533188
3448.0,0.04255814773193255
3447.0,0.04280717179432667
3446.0,0.043055610435445126
3445.0,0.04329726029607594
3444.0,0.0435385020128309
3443.0,0.04378718341673394
3442.0,0.044044109942931606
3441.0,0.04430275349639243
3440.0,0.044556595013308
3439.0,0.04480666575918874
3438.0,0.04505813573968505
3437.0,0.04530891472000288
3436.0,0.04555041897266409
3435.0,0.04578177810639559
3434.0,0.046015321812660284
3433.0,0.046261500964592764
3432.0,0.0465152989755807
3431.0,0.046766059589034605
3430.0,0.04701284018063044
3429.0,0.047262652595317076
3428.0,0.0475178571550827
3427.0,0.04777336648946969
3426.0,0.0480235548859977
3425.0,0.04826584643544839
3424.0,0.04850100884609202
3423.0,0.04873502836409998
3422.0,0.04897752856338125
3421.0,0.04923157758867822
3420.0,0.04948838117258884
3419.0,0.04973869712449384
3418.0,0.0499830507207098
3417.0,0.05022476637010071
3416.0,0.050461163597458024
3415.0,0.050689336327073405
3414.0,0.05091391592890181
3413.0,0.05114079817417962
3412.0,0.051367417605987606
3411.0,0.05158694572601644
3410.0,0.051799185828775775
3409.0,0.05201090975631959
3408.0,0.052226824271790435
3407.0,0.05244508928189672
3406.0,0.0526610689362593
3405.0,0.05287123360585863
3404.0,0.05307521940213046
3403.0,0.053276147600657964
3402.0,0.05347745774613706
3401.0,0.053677752979993186
3400.0,0.05387132118418188
3399.0,0.05405509020413103
3398.0,0.05423080649926813
3397.0,0.05439947498505692
3396.0,0.05455910381291288
3395.0,0.05471185828648576
3394.0,0.054867714317840946
3393.0,0.05503447319850458
3392.0,0.05520662932717576
3391.0,0.055370572582827106
3390.0,0.05551865823597169
3389.0,0.05565109586889307
3388.0,0.05576881682407588
3387.0,0.05587245491412481
3386.0,0.05596704313607309
3385.0,0.05606044075773291
3384.0,0.05615647800422169
3383.0,0.05625290711454253
3382.0,0.05634503464348013
3381.0,0.056427626351652424
3380.0,0.05649610513127909
3379.0,0.056552535366385236
3378.0,0.056608816428208066
3377.0,0.05667766849161392
3376.0,0.05675845290421414
3375.0,0.05683605716398254
3374.0,0.056894619212279826
3373.0,0.056929845210961255
3372.0,0.05694934505057023
3371.0,0.05696582204313972
3370.0,0.056989804028189255
3369.0,0.05702358329255985
3368.0,0.05706033849952286
3367.0,0.05709159314039427
3366.0,0.05711570985283858
3365.0,0.057136515045320496
3364.0,0.05715578759774876
3363.0,0.057171968555330646
3362.0,0.05718528572347503
3361.0,0.05719886582556614
3360.0,0.057213910217065636
3359.0,0.05722773368758653
3358.0,0.05723758990986038
3357.0,0.057243500265883734
3356.0,0.057246412951711956
3355.0,0.05724642955992249
3354.0,0.05724355620542416
3353.0,0.057238221815609086
3352.0,0.05723055149564227
3351.0,0.057220799977103
3350.0,0.05721029592024741
3349.0,0.057200075624079784
3348.0,0.05718921677067194
3347.0,0.05717548169230399
3346.0,0.05715731898584741
3345.0,0.05713429409091109
3344.0,0.05710744057465909
3343.0,0.05708041537760577
3342.0,0.05705769708812584
3341.0,0.05703962578381023
3340.0,0.05702031425112193
3339.0,0.05699217750041634
3338.0,0.05695173950180292
3337.0,0.05690119328713265
3336.0,0.05684748778817608
3335.0,0.05680030397177876
3334.0,0.05676579878912481
3333.0,0.05673899590354547
3332.0,0.05670649422498539
3331.0,0.05666068145189103
3330.0,0.0566080134679234
3329.0,0.056559410866990616
3328.0,0.05651651300919614
3327.0,0.05647227396626537
3326.0,0.0564223833855042
3325.0,0.05636952547882328
3324.0,0.056317323952127636
3323.0,0.056266175423635996
3322.0,0.056215476325194406
3321.0,0.05616495388307189
3320.0,0.05611271462813841
3319.0,0.05605585531831446
3318.0,0.05599438632836289
3317.0,0.05593173544104581
3316.0,0.05587083023813762
3315.0,0.05581211225394507
3314.0,0.05575486547189708
3313.0,0.05569739480931687
3312.0,0.05563621344366944
3311.0,0.05556927008518931
3310.0,0.05550133678450519
3309.0,0.055442155557598474
3308.0,0.05539574208596969
3307.0,0.055353781028200176
3306.0,0.055303595917071124
3305.0,0.055242338180659406
3304.0,0.055180881256922554
3303.0,0.055132133562995796
3302.0,0.055096759735167686
3301.0,0.055062846199938495
3300.0,0.055019831332003576
3299.0,0.054968796556713335
3298.0,0.05491719077977163
3297.0,0.054867673572302225
3296.0,0.0548169668629277
3295.0,0.05476343087366667
3294.0,0.05470897993664776
3293.0,0.05465330502266393
3292.0,0.05459245055547998
3291.0,0.05452550220294979
3290.0,0.0544580001201991
3289.0,0.05439590203150829
3288.0,0.05433993088498907
3287.0,0.054288403336946275
3286.0,0.05424148208158283
3285.0,0.054199423231025966
3284.0,0.054159050055493735
3283.0,0.05411525390942147
3282.0,0.054064768749809484
3281.0,0.05400645809308701
3280.0,0.05393994173515504
3279.0,0.05386655273360342
3278.0,0.05379138336146251
3277.0,0.05372212594706833
3276.0,0.05366470474233784
3275.0,0.05361890304481997
3274.0,0.05357695309310634
3273.0,0.053528114845321946
3272.0,0.053468270342195
3271.0,0.053404769780642146
3270.0,0.05334864766559712
3269.0,0.05330259454547969
3268.0,0.05326004785282614
3267.0,0.05321543564200126
3266.0,0.053169851529353246
3265.0,0.05312603090084759
3264.0,0.05308286070820856
3263.0,0.05303830638768014
3262.0,0.05299424706790488
3261.0,0.052955181877130886
3260.0,0.052924297909977984
3259.0,0.052902858373381934
3258.0,0.05289118128077278
3257.0,0.05288671793610088
3256.0,0.052883266656496855
3255.0,0.05287480985920794
3254.0,0.05285947154308796
3253.0,0.05283824424255583
3252.0,0.052812051534158536
3251.0,0.05278150671247771
3250.0,0.052746538767092434
3249.0,0.052704671306808254
3248.0,0.05265190392651759
3247.0,0.052587513836140846
3246.0,0.05251632071430933
3245.0,0.0524438008203095
3244.0,0.0523696857650029
3243.0,0.052288156849690945
3242.0,0.05219229950233398
3241.0,0.05207725711492112
3240.0,0.051943592078191166
3239.0,0.051801186171645794
3238.0,0.05166570467346105
3237.0,0.05154508095267447
3236.0,0.051430584895101154
3235.0,0.05130531799861228
3234.0,0.051161377921477263
3233.0,0.051005245581059844
3232.0,0.05084794656856772
3231.0,0.050695095973797205
3230.0,0.05054614511843666
3229.0,0.050397865178848346
3228.0,0.05024585983524491
3227.0,0.0500861759315542
3226.0,0.04991870428759427
3225.0,0.049747804898271485
3224.0,0.04957765332260409
3223.0,0.04940813929849201
3222.0,0.04923661006399104
3221.0,0.04906318900729994
3220.0,0.04889210114171465
3219.0,0.04872708974514406
3218.0,0.048566538818532796
3217.0,0.048403621728567145
3216.0,0.04823169271587581
3215.0,0.04805106513855653
3214.0,0.0478708218618584
3213.0,0.04770154847349645
3212.0,0.04754536905983317
3211.0,0.04739406587424332
3210.0,0.0472364633441051
3209.0,0.04706715560229948
3208.0,0.04688828672095392
3207.0,0.0467045482442472
3206.0,0.04651803680323577
3205.0,0.04632882482764965
3204.0,0.04613936556680321
3203.0,0.04595592902719924
3202.0,0.045783122870717265
3201.0,0.04561727647595726
3200.0,0.04544760870257296
3199.0,0.045265257567462636
3198.0,0.045070508244044113
3197.0,0.04487049033845851
3196.0,0.04467214984852
3195.0,0.04447871289499032
3194.0,0.04429008749451107
3193.0,0.044103611022611844
3192.0,0.04391582429553135
3191.0,0.04372616067028872
3190.0,0.043537870522059825
3189.0,0.0433537755087679
3188.0,0.04317133845106786
3187.0,0.04298424938823605
3186.0,0.04278839252278828
3185.0,0.042584856524531256
3184.0,0.04237809858050544
3183.0,0.04217287869519146
3182.0,0.04197194858818302
3181.0,0.041773962444544566
3180.0,0.041574834847659004
3179.0,0.041373389570800535
3178.0,0.041173786366113775
3177.0,0.04097971335671342
3176.0,0.04078845082547984
3175.0,0.04059390080512318
3174.0,0.04039388355990189
3173.0,0.04019165201023031
3172.0,0.03999159601403668
3171.0,0.03979601348029777
3170.0,0.03960458253991141
3169.0,0.03941446105018161
3168.0,0.03922212620027348
3167.0,0.039027959726619495
3166.0,0.038836048162171205
3165.0,0.03864569613434316
3164.0,0.038447063006862105
3163.0,0.038231822262848034
3162.0,0.03800689229062084
3161.0,0.03779007578067859
3160.0,0.03759128392712227
3159.0,0.03740432913415867
3158.0,0.037217935606239816
3157.0,0.037027830413170086
3156.0,0.036835648206234806
3155.0,0.03664227504295598
3154.0,0.036446910896951124
3153.0,0.036249841900946086
3152.0,0.03605307041762997
3151.0,0.03585949020627504
3150.0,0.03567215648056737
3149.0,0.03549163706585952
3148.0,0.035312988433120446
3147.0,0.03512874314334772
3146.0,0.03493702674980511
3145.0,0.03474438475076043
3144.0,0.03455901349523742
3143.0,0.034382392998892584
3142.0,0.0342087603506711
3141.0,0.034031301285845444
3140.0,0.033848035965292046
3139.0,0.033662992620293694
3138.0,0.033482099932311125
3137.0,0.033306559598259344
3136.0,0.03313087724888787
3135.0,0.032950070743739394
3134.0,0.03276806770777471
3133.0,0.03259390222069472
3132.0,0.032428630045921794
3131.0,0.03226258606540449
3130.0,0.03208816817018924
3129.0,0.03190859666449355
3128.0,0.03173091906233018
3127.0,0.03155666141208781
3126.0,0.031384188330079485
3125.0,0.031216219593796782
3124.0,0.03105893998821232
3123.0,0.03091336661092891
3122.0,0.03077126748665699
3121.0,0.03062158557525035
3120.0,0.030460013339691262
3119.0,0.03029220961666027
3118.0,0.030129814409276718
3117.0,0.029982840447012955
3116.0,0.029852979505561553
3115.0,0.029732621602004888
3114.0,0.02961065605524558
3113.0,0.029479799573011084
3112.0,0.029340201213142476
3111.0,0.029197585445655254
3110.0,0.02905753123639805
3109.0,0.0289205975516543
3108.0,0.02878365882462002
3107.0,0.028646239144867733
3106.0,0.028511167817320535
3105.0,0.02837823240784886
3104.0,0.02824276383840687
3103.0,0.028103673749028536
3102.0,0.027967836550253505
3101.0,0.027842057950838998
3100.0,0.02772454353494437
3099.0,0.02761004128188024
3098.0,0.027499138602611176
3097.0,0.027394650082954122
3096.0,0.02729222590994611
3095.0,0.02718167336128747
3094.0,0.027058555149146176
3093.0,0.026928688043827035
3092.0,0.026799848026550582
3091.0,0.026674780044924226
3090.0,0.026553265079214648
3089.0,0.02643605594993029
3088.0,0.0263245191441971
3087.0,0.026218884364072638
3086.0,0.026117042033743227
3085.0,0.026013437000669045
3084.0,0.0259010408720618
3083.0,0.025778639090452315
3082.0,0.02565561125283234
3081.0,0.0255436112304298
3080.0,0.025442460263478735
3079.0,0.025339659117946566
3078.0,0.025225366647596587
3077.0,0.025102665060223142
3076.0,0.02498164488662002
3075.0,0.02486890289802358
3074.0,0.024765915663473092
3073.0,0.024672048423147512
3072.0,0.024583996581755817
3071.0,0.024494636405650055
3070.0,0.02439640035633959
3069.0,0.024286933555569545
3068.0,0.024170576502795634
3067.0,0.024055176074612685
3066.0,0.023947263496000525
3065.0,0.023848093065213155
3064.0,0.023752938200783988
3063.0,0.02365447915286507
3062.0,0.023547407394593604
3061.0,0.02343011872384221
3060.0,0.02330435899762781
3059.0,0.023175324250376553
3058.0,0.023051257785988537
3057.0,0.022938487531688256
3056.0,0.022835244847183345
3055.0,0.022732472294910513
3054.0,0.022622945586962904
3053.0,0.022508534143826205
3052.0,0.022396477609461108
3051.0,0.022290604983933284
3050.0,0.022187530011077865
3049.0,0.02208140557992066
3048.0,0.021970816929241823
3047.0,0.02185884477223036
3046.0,0.02174710026375189
3045.0,0.021632784861379904
3044.0,0.021514126724414075
3043.0,0.02139726695976427
3042.0,0.02129273244026156
3041.0,0.021203332857635156
3040.0,0.021118658221854294
3039.0,0.02102529989063776
3038.0,0.020920291711157384
3037.0,0.020810574215810344
3036.0,0.02070206708661017
3035.0,0.020594607485433507
3034.0,0.02048824684672274
3033.0,0.020387732682533046
3032.0,0.020296594520291106
3031.0,0.020211097344588848
3030.0,0.020124532411632395
3029.0,0.020036011149486957
3028.0,0.019949240834213483
3027.0,0.01986456268389047
3026.0,0.01977734862165851
3025.0,0.019685328986388962
3024.0,0.019594152719512866
3023.0,0.01951272657524897
3022.0,0.019443705652006083
3021.0,0.019380519035403217
3020.0,0.01931504653340926
3019.0,0.019246538559390406
3018.0,0.019180755802850002
3017.0,0.019120137245592507
3016.0,0.019057875698066086
3015.0,0.018984054288107313
3014.0,0.018896080959867403
3013.0,0.018801498041966076
3012.0,0.0187103556928841
3011.0,0.01862655460499277
3010.0,0.018545915297902716
3009.0,0.018460642329115057
3008.0,0.018365679982293836
3007.0,0.018262199602783104
3006.0,0.01815643385688432
3005.0,0.01805489459107688
3004.0,0.017960068651452454
3003.0,0.0178707113223622
3002.0,0.017784294506733887
3001.0,0.01769916410103129
3000.0,0.01761603449009337
2999.0,0.01753873431759646
2998.0,0.017472266786089614
2997.0,0.01741838294988645
2996.0,0.01737431390667033
2995.0,0.017336570102150436
2994.0,0.017304230423349814
2993.0,0.017277081479559683
2992.0,0.017253355858437423
2991.0,0.01723252297603313
2990.0,0.017218711049163157
2989.0,0.01721778582936006
2988.0,0.01723112200543172
2987.0,0.017255270770963806
2986.0,0.01728748062588279
2985.0,0.017328716763334577
2984.0,0.017380840874740823
2983.0,0.01744442090985562
2982.0,0.017520521524981243
2981.0,0.017612095289826497
2980.0,0.01772232758934099
2979.0,0.01785331764128569
2978.0,0.018007439198122154
2977.0,0.01818862014382604
2976.0,0.018401492886673615
2975.0,0.018650325739693406
2974.0,0.01893919459922099
2973.0,0.019271936477441177
2972.0,0.019650566347741732
2971.0,0.020074195016516225
2970.0,0.02054010305317645
2969.0,0.02104613634653777
2968.0,0.02159204795910278
2967.0,0.02217680202816152
2966.0,0.022791887646201422
2965.0,0.023414736496523255
2964.0,0.02401051975605716
2963.0,0.024542643769457657
2962.0,0.02498383626163997
2961.0,0.025322956552630622
2960.0,0.0255670932583147
2959.0,0.025741800385262133
2958.0,0.02588743366618965
2957.0,0.02605079666917848
2956.0,0.02627508650872223
2955.0,0.02659037630778082
2954.0,0.027002890657763453
2953.0,0.027483193905349344
2952.0,0.027962509041660595
2951.0,0.02834829965247968
2950.0,0.028551272649006424
2949.0,0.028507418436620097
2948.0,0.028191871983712993
2947.0,0.027624269144745056
2946.0,0.026867276425865252
2945.0,0.026010750202805938
2944.0,0.02514580143301688
2943.0,0.024345237093917314
2942.0,0.02365951931973969
2941.0,0.023122186526825458
2940.0,0.022749114003988435
2939.0,0.022536787288024624
2938.0,0.02246806148456026
2937.0,0.022523759177620447
2936.0,0.022692023394367808
2935.0,0.022967389952738664
2934.0,0.02334399639498898
2933.0,0.023811396705468377
2932.0,0.02435559648175218
2931.0,0.02496083510859658
2930.0,0.02560789307866785
2929.0,0.026271910839624525
2928.0,0.02692741349248106
2927.0,0.02755926166687359
2926.0,0.028167823119678154
2925.0,0.02876326444372173
2924.0,0.02935587186945973
2923.0,0.0299498971469059
2922.0,0.030539539998029903
2921.0,0.03110288432486859
2920.0,0.031599036753900425
2919.0,0.03197353106261877
2918.0,0.032171565012971484
2917.0,0.03215158290394356
2916.0,0.03189873373988878
2915.0,0.03143577967028573
2914.0,0.030822257626327003
2913.0,0.030137805221966046
2912.0,0.029453505529403443
2911.0,0.02881191148593134
2910.0,0.02822744213065671
2909.0,0.027698396457294317
2908.0,0.027214655956517987
2907.0,0.02675814406804968
2906.0,0.02630592826506302
2905.0,0.025839559999895723
2904.0,0.025355204051495456
2903.0,0.024861078338648118
2902.0,0.024369525961674895
2901.0,0.02388518333784612
2900.0,0.023406362871406575
2899.0,0.022935174115263416
2898.0,0.022481103394886397
2897.0,0.022055437013567793
2896.0,0.021662663248446658
2895.0,0.02130287142539495
2894.0,0.02098060638267792
2893.0,0.02070610457918126
2892.0,0.02048515908908478
2891.0,0.020311824273848148
2890.0,0.020175131229588018
2889.0,0.020069284365585097
2888.0,0.019994053146075642
2887.0,0.019947697034832134
2886.0,0.01992583355230027
2885.0,0.019928638312093457
2884.0,0.019963759758712115
2883.0,0.02003875665932426
2882.0,0.02015173243708799
2881.0,0.0202904570523485
2880.0,0.020438170331035278
2879.0,0.020575407345770336
2878.0,0.020678934561327335
2877.0,0.020726387836727082
2876.0,0.02070911123642966
2875.0,0.0206420263877416
2874.0,0.020559934796924695
2873.0,0.020503742016305837
2872.0,0.020504726583582468
2871.0,0.020574071927129674
2870.0,0.02069828247213519
2869.0,0.020841248477813375
2868.0,0.02095421222726386
2867.0,0.020986598230418
2866.0,0.020892997807708973
2865.0,0.020641374469370935
2864.0,0.020226606469949504
2863.0,0.019681287869436348
2862.0,0.019068361797667407
2861.0,0.01845781893800836
2860.0,0.017903192053506475
2859.0,0.017432822460753974
2858.0,0.017053662792467582
2857.0,0.016758320085129893
2856.0,0.01653398244678088
2855.0,0.016371296165219314
2854.0,0.01626711276984958
2853.0,0.016218270164280388
2852.0,0.016214623478284687
2851.0,0.016239274599820826
2850.0,0.016275177730966633
2849.0,0.016314080281567476
2848.0,0.01636410758652783
2847.0,0.016450775167391945
2846.0,0.016603756620631446
2845.0,0.01683778957409778
2844.0,0.017144260156894398
2843.0,0.017499169454427945
2842.0,0.01787503776906885
2841.0,0.01824197150983155
2840.0,0.01856329341538798
2839.0,0.018795617289852597
2838.0,0.018895066701681486
2837.0,0.018825848119827536
2836.0,0.01857080890400549
2835.0,0.018141946672419407
2834.0,0.017581493770087938
2833.0,0.016948573264220227
2832.0,0.016300243592397182
2831.0,0.015681534323072153
2830.0,0.015123442510291584
2829.0,0.014640996197476238
2828.0,0.014231852137269962
2827.0,0.013881927224158392
2826.0,0.013577550407715123
2825.0,0.013310843743878196
2824.0,0.013075923711379212
2823.0,0.012865154797614239
2822.0,0.012671082084294379
2821.0,0.012489887794862842
2820.0,0.012321620031065164
2819.0,0.012168452909706017
2818.0,0.01203280136185996
2817.0,0.011914584223119043
2816.0,0.011809404534281349
2815.0,0.011710834910024313
2814.0,0.011614493405934425
2813.0,0.011518904468151995
2812.0,0.01142327900556139
2811.0,0.01132658903760657
2810.0,0.01122892655762168
2809.0,0.011131685896988482
2808.0,0.011035941756754028
2807.0,0.010941434624654744
2806.0,0.010846927653934219
2805.0,0.010751276022647057
2804.0,0.010655218884744305
2803.0,0.010562665618012473
2802.0,0.010478371469962817
2801.0,0.010402849033124448
2800.0,0.010331673059288136
2799.0,0.01026132147884523
2798.0,0.010193029231452771
2797.0,0.010129108941583696
2796.0,0.010068241900518584
2795.0,0.010007263417127906
2794.0,0.009945363659239863
2793.0,0.009883378802356457
2792.0,0.009820911489295854
2791.0,0.009757644371624036
2790.0,0.009695949767332254
2789.0,0.009638412291231161
2788.0,0.00958374490621761
2787.0,0.00952849053694572
2786.0,0.009471879176439211
2785.0,0.009416018299426131
2784.0,0.009362038037755071
2783.0,0.009309128185640584
2782.0,0.009257007181921465
2781.0,0.009206479618467914
2780.0,0.00915772465927607
2779.0,0.00911016431986915
2778.0,0.009063512452836665
2777.0,0.009017257155841082
2776.0,0.00897026418015699
2775.0,0.008922676689524307
2774.0,0.008876632674482405
2773.0,0.008833195133187846
2772.0,0.008790639221704774
2771.0,0.008748166839789214
2770.0,0.008709049977477882
2769.0,0.008677008307740566
2768.0,0.008650958324574848
2767.0,0.008626179790702508
2766.0,0.008599215035089203
2765.0,0.008569024277261915
2764.0,0.008535421799144956
2763.0,0.008499431582030662
2762.0,0.008463461557953095
2761.0,0.0084286872737135
2760.0,0.008394156631723831
2759.0,0.008360433549220085
2758.0,0.008330663076618349
2757.0,0.008304785319103792
2756.0,0.008276699564901062
2755.0,0.008241892003196674
2754.0,0.008204684825230566
2753.0,0.008172646195379666
2752.0,0.008146549222305441
2751.0,0.008121364863013769
2750.0,0.008094945327665293
2749.0,0.008069601537282818
2748.0,0.008046271554319348
2747.0,0.008023531862139428
2746.0,0.008002046344813397
2745.0,0.00798409470108018
2744.0,0.007968693579752315
2743.0,0.00795269877933072
2742.0,0.007936850953344596
2741.0,0.00792493648209324
2740.0,0.007916129164941067
2739.0,0.007903879631792524
2738.0,0.007884291619295887
2737.0,0.007861353478731358
2736.0,0.007841875750019723
2735.0,0.007828663555727564
2734.0,0.007820183141575985
2733.0,0.007813607974208712
2732.0,0.007806893555542473
2731.0,0.007800446256841974
2730.0,0.007797543127084374
2729.0,0.007800588470961419
2728.0,0.007806819788080374
2727.0,0.007810635486065288
2726.0,0.007809894463681121
2725.0,0.007806486570502267
2724.0,0.007800747221648909
2723.0,0.007789411052443354
2722.0,0.007770266344315964
2721.0,0.007745078675410759
2720.0,0.0077164136465597225
2719.0,0.0076845803763755
2718.0,0.0076491275366190265
2717.0,0.0076108818365240955
2716.0,0.007571073351443491
2715.0,0.007530385825756687
2714.0,0.0074899319610150575
2713.0,0.0074514647750389285
2712.0,0.007415749389377444
2711.0,0.007382111454456833
2710.0,0.007349847322645977
2709.0,0.007318603628501917
2708.0,0.007287603049832358
2707.0,0.007256292432825381
2706.0,0.007225504782141585
2705.0,0.007196127174210291
2704.0,0.007166977261103178
2703.0,0.00713621218180842
2702.0,0.0071048485214971506
2701.0,0.0070767484871834775
2700.0,0.007054664179750878
2699.0,0.007037380349188194
2698.0,0.007020783930864639
2697.0,0.007001195914813268
2696.0,0.006978681833086463
2695.0,0.006957985214484994
2694.0,0.006944382087860337
2693.0,0.006937139793515406
2692.0,0.006928846452113642
2691.0,0.00691328772903071
2690.0,0.006892328769170399
2689.0,0.006872871116040802
2688.0,0.006858606980334839
2687.0,0.00684692627543119
2686.0,0.006832544755610336
2685.0,0.006812020734474715
2684.0,0.0067862910694898885
2683.0,0.0067609441931659455
2682.0,0.006742523513533032
2681.0,0.00673262264496251
2680.0,0.0067268732118213785
2679.0,0.00672076471265771
2678.0,0.006713541192579279
2677.0,0.0067047953709257115
2676.0,0.0066915351641598985
2675.0,0.00667216605435071
2674.0,0.006650477744271199
2673.0,0.006631739024740407
2672.0,0.006617212963101002
2671.0,0.0066057956826215715
2670.0,0.006597877851440717
2669.0,0.006593372153990963
2668.0,0.006588604379669715
2667.0,0.006580270959513856
2666.0,0.0065707987058124815
2665.0,0.0065654441618507395
2664.0,0.0065656918160977825
2663.0,0.006569592185823948
2662.0,0.006576312946788545
2661.0,0.006585309403405552
2660.0,0.0065927499734947355
2659.0,0.0065941548735991605
2658.0,0.006590182061165779
2657.0,0.0065850948799377786
2656.0,0.006580130950760715
2655.0,0.006572863893220999
2654.0,0.006562032120885541
2653.0,0.006548247591555189
2652.0,0.006530941855206811
2651.0,0.006510177836002082
2650.0,0.0064914111243231645
2649.0,0.006482859805475294
2648.0,0.006486700642339444
2647.0,0.006496655221429659
2646.0,0.0065042266784259275
2645.0,0.006504068435592867
2644.0,0.006494608029970312
2643.0,0.006478464570914611
2642.0,0.006462346680431338
2641.0,0.006451600017313014
2640.0,0.006444521337477475
2639.0,0.0064358436834741125
2638.0,0.006424940099348785
2637.0,0.006415748984297889
2636.0,0.006409404212869743
2635.0,0.006402904774387061
2634.0,0.006395541973589746
2633.0,0.006390785637703973
2632.0,0.006390100601717491
2631.0,0.0063894537033452915
2630.0,0.006384033614324919
2629.0,0.0063736505363831695
2628.0,0.006362693910085053
2627.0,0.006357070543379617
2626.0,0.006360445029621619
2625.0,0.006370218908448516
2624.0,0.006378124131615502
2623.0,0.006378356706794232
2622.0,0.006373737369245394
2621.0,0.006370566723974554
2620.0,0.006369433099479525
2619.0,0.006365656654295122
2618.0,0.006356916243183355
2617.0,0.006345230369944867
2616.0,0.0063331033049631984
2615.0,0.006322792445365169
2614.0,0.0063176712682080525
2613.0,0.0063183779059957056
2612.0,0.006318981764123557
2611.0,0.006312853139611348
2610.0,0.006301124980322864
2609.0,0.006289827401071668
2608.0,0.006280137689267175
2607.0,0.006267946393720398
2606.0,0.006251812475371471
2605.0,0.006234388297759951
2604.0,0.006216636388751122
2603.0,0.006197398244207724
2602.0,0.006178476906399168
2601.0,0.006163458843280199
2600.0,0.006151538541461375
2599.0,0.006139112437240069
2598.0,0.006127256699147393
2597.0,0.006120798206178454
2596.0,0.006119662374499065
2595.0,0.006117970241094769
2594.0,0.006112668496722417
2593.0,0.006106747794456582
2592.0,0.006103341699986564
2591.0,0.006102674060522211
2590.0,0.0061053727330044666
2589.0,0.0061124936560980475
2588.0,0.006120914015407302
2587.0,0.006124645145593947
2586.0,0.006122520628324
2585.0,0.00611993120173823
2584.0,0.006121609084335502
2583.0,0.00612625527833051
2582.0,0.006128364360739452
2581.0,0.006122161288716092
2580.0,0.006104988441118112
2579.0,0.00608086564797944
2578.0,0.006059284704884025
2577.0,0.006045693338384585
2576.0,0.006034726320342763
2575.0,0.006017815252336406
2574.0,0.005995338264660552
2573.0,0.005975505410149165
2572.0,0.00596292400240392
2571.0,0.005954434345810274
2570.0,0.005945450514427552
2569.0,0.005934597678044511
2568.0,0.005922585365511767
2567.0,0.005911442460576034
2566.0,0.005903853953926759
2565.0,0.005899158839743829
2564.0,0.005892200317902747
2563.0,0.005880207896948636
2562.0,0.005867328107563879
2561.0,0.005857508682947079
2560.0,0.005847493425840389
2559.0,0.0058333934066318125
2558.0,0.00581960931914495
2557.0,0.005813175167550013
2556.0,0.005812678225146501
2555.0,0.005810940253266268
2554.0,0.005805852784032621
2553.0,0.0058000807808028096
2552.0,0.005792747140463001
2551.0,0.005780651302917137
2550.0,0.0057659784666976195
2549.0,0.005754016394068938
2548.0,0.005744342333358581
2547.0,0.0057324454202421
2546.0,0.005718800509138491
2545.0,0.005707890498516805
2544.0,0.00569926105662278
2543.0,0.005688035689331355
2542.0,0.005674138126260395
2541.0,0.005663404790430158
2540.0,0.0056593210642433165
2539.0,0.005659862639715221
2538.0,0.00566139383740337
2537.0,0.005659803103397201
2536.0,0.005650624726836592
2535.0,0.005634999083726307
2534.0,0.005622265850020704
2533.0,0.005618718007422973
2532.0,0.005617030611477701
2531.0,0.005605709232068484
2530.0,0.005586016135887232
2529.0,0.005569858565091657
2528.0,0.005562977213969802
2527.0,0.005560072313895294
2526.0,0.005555598779389034
2525.0,0.005549733194446849
2524.0,0.005544002890537391
2523.0,0.005539930571745398
2522.0,0.005541334322946822
2521.0,0.005549283208645057
2520.0,0.0055557937362944905
2519.0,0.005551478504008839
2518.0,0.005538577118274722
2517.0,0.0055275225393339
2516.0,0.0055216946253100795
2515.0,0.005515254940908283
2514.0,0.00550532126215271
2513.0,0.005495723118361778
2512.0,0.0054880216564669295
2511.0,0.005478641417424311
2510.0,0.005466549709414607
2509.0,0.005455458882333351
2508.0,0.0054470400443051474
2507.0,0.005439407822976335
2506.0,0.005432807611046671
2505.0,0.005429001596253066
2504.0,0.005424681177297183
2503.0,0.005413835725370647
2502.0,0.005397854466874003
2501.0,0.0053857038999217755
2500.0,0.005382675889049624
2499.0,0.005385453539588334
2498.0,0.0053889404298383264
2497.0,0.005391551573552211
2496.0,0.005393171229073335
2495.0,0.00539366125667021
2494.0,0.005393636269320769
2493.0,0.005391990778224924
2492.0,0.005384255499968069
2491.0,0.005368886113184144
2490.0,0.005352801394628817
2489.0,0.00534431180649531
2488.0,0.005342808666704054
2487.0,0.005341527201803404
2486.0,0.005336929252710661
2485.0,0.005328288705049952
2484.0,0.005312722503710676
2483.0,0.005290156416403725
2482.0,0.005269975124770103
2481.0,0.005262632725577366
2480.0,0.005266411270358826
2479.0,0.005271684464183316
2478.0,0.0052756353593571455
2477.0,0.005282181520513247
2476.0,0.005289486067067914
2475.0,0.005289734083255516
2474.0,0.0052817263100458575
2473.0,0.0052726693189931425
2472.0,0.005266266012983621
2471.0,0.0052590990346135895
2470.0,0.0052501614947182635
2469.0,0.005244222769634836
2468.0,0.005243700010314808
2467.0,0.005245750721811749
2466.0,0.005249039497136543
2465.0,0.005255147249963147
2464.0,0.005261801665128736
2463.0,0.00526290583531196
2462.0,0.005257406534753036
2461.0,0.005251267740780624
2460.0,0.005249263012794309
2459.0,0.005251125667091678
2458.0,0.005255962331184132
2457.0,0.005263133477134618
2456.0,0.005268213304670668
2455.0,0.005265667824632213
2454.0,0.0052572776770870135
2453.0,0.005251947653894282
2452.0,0.0052558775130252785
2451.0,0.005267306191611131
2450.0,0.0052798248083441475
2449.0,0.005285550580573641
2448.0,0.005277769644644149
2447.0,0.0052581992809053926
2446.0,0.0052401358610667526
2445.0,0.005236373244979492
2444.0,0.005244506680315292
2443.0,0.00525122787293174
2442.0,0.005249549749699158
2441.0,0.005243760125060731
2440.0,0.005238789643445384
2439.0,0.005233841914299655
2438.0,0.005227197584311182
2437.0,0.005219848176368501
2436.0,0.005213674444081181
2435.0,0.005211379054926005
2434.0,0.005216068050186198
2433.0,0.005224143184595199
2432.0,0.005222083642575551
2431.0,0.005200059713666338
2430.0,0.005167506208475402
2429.0,0.005145611712001265
2428.0,0.0051443440822627655
2427.0,0.0051553615780152075
2426.0,0.005166724675688328
2425.0,0.005174470033296201
2424.0,0.005178647422293851
2423.0,0.005177916674429421
2422.0,0.005172134358337457
2421.0,0.005164328971001706
2420.0,0.005157310023308211
2419.0,0.0051518494310298394
2418.0,0.005147956590975318
2417.0,0.005144073942414101
2416.0,0.005136946391966651
2415.0,0.005126843634033613
2414.0,0.005119871993254779
2413.0,0.005119534942202234
2412.0,0.005119614828412406
2411.0,0.005112132834474076
2410.0,0.00509874078166318
2409.0,0.0050866390966986695
2408.0,0.005076829304667597
2407.0,0.005065457495321314
2406.0,0.005054033173670532
2405.0,0.005048445122591304
2404.0,0.005049208334211726
2403.0,0.005051415772992377
2402.0,0.005052835726635467
2401.0,0.005053876886351445
2400.0,0.005051480501934533
2399.0,0.0050419307416638415
2398.0,0.005028762469737708
2397.0,0.005019396369459504
2396.0,0.005014352232626958
2395.0,0.0050075693325011715
2394.0,0.004996520662906538
2393.0,0.00498436248368415
2392.0,0.004973714696202373
2391.0,0.004966109942293167
2390.0,0.0049655562936966454
2389.0,0.00497375105182014
2388.0,0.004982392301064539
2387.0,0.004978919828730509
2386.0,0.0049601855817018895
2385.0,0.004933214258262999
2384.0,0.004903240418831295
2383.0,0.004868925266034226
2382.0,0.004829184340483547
2381.0,0.00478647407452164
2380.0,0.00474209931279128
2379.0,0.00469624450522374
2378.0,0.0046544431193925
2377.0,0.0046247817781996745
2376.0,0.004606181590939469
2375.0,0.004589268841573048
2374.0,0.004570699434592574
2373.0,0.004556084872762218
2372.0,0.00454764882175597
2371.0,0.004543762822269863
2370.0,0.004552364443236325
2369.0,0.004583734434455021
2368.0,0.004625133043774713
2367.0,0.00464641808049414
2366.0,0.004638084511255037
2365.0,0.004620592365115286
2364.0,0.004610327016680262
2363.0,0.004605122185534412
2362.0,0.00460626802452982
2361.0,0.0046214657922066344
2360.0,0.004645368116045284
2359.0,0.004662432474915133
2358.0,0.0046669643510492236
2357.0,0.0046616007258325895
2356.0,0.004641182151297034
2355.0,0.004605175647559182
2354.0,0.004567577060775061
2353.0,0.004540897400420909
2352.0,0.004527763531858456
2351.0,0.00452913625467282
2350.0,0.004550227151122457
2349.0,0.004589120318177174
2348.0,0.004632181430834049
2347.0,0.0046607890220793455
2346.0,0.004661885364952455
2345.0,0.004644432521807014
2344.0,0.004629445882896672
2343.0,0.00462978676055387
2342.0,0.004641869848848001
2341.0,0.0046532025040731196
2340.0,0.004654560702409769
2339.0,0.004646520443034456
2338.0,0.004645645256483742
2337.0,0.004664481415887038
2336.0,0.004694091982989872
2335.0,0.004714850634484097
2334.0,0.0047220674932911865
2333.0,0.004721000544623491
2332.0,0.0047101474981671105
2331.0,0.0046820404833252515
2330.0,0.004649704105077725
2329.0,0.0046424278642960976
2328.0,0.004679002775397465
2327.0,0.00475783989739708
2326.0,0.004862040262181823
2325.0,0.00496676954914934
2324.0,0.005036989628450595
2323.0,0.005052498761641268
2322.0,0.005029895460546513
2321.0,0.005003850474731198
2320.0,0.004988647806222347
2319.0,0.00497399962356058
2318.0,0.004958903682081032
2317.0,0.004955234931791141
2316.0,0.00496669792984521
2315.0,0.004980089368482683
2314.0,0.004985876371610419
2313.0,0.0049883053901249455
2312.0,0.0049943208641189075
2311.0,0.005004248128633078
2310.0,0.005017029528632066
2309.0,0.005032818128786807
2308.0,0.0050471398393928035
2307.0,0.0050558649318755205
2306.0,0.005064961505712858
2305.0,0.005085493737256306
2304.0,0.00511712229307193
2303.0,0.005148740403697047
2302.0,0.005174580672512972
2301.0,0.005198357967608512
2300.0,0.005221626416808613
2299.0,0.00524063503713346
2298.0,0.005257007321772076
2297.0,0.005278903749920632
2296.0,0.005308048045494582
2295.0,0.005336779780259515
2294.0,0.005359842527269835
2293.0,0.005380882067205598
2292.0,0.005403158240081246
2291.0,0.005424365780284361
2290.0,0.0054411838015167545
2289.0,0.005453579784894138
2288.0,0.005463449220807962
2287.0,0.005476623197657242
2286.0,0.0055018323579093704
2285.0,0.005537926183621993
2284.0,0.005565787594264277
2283.0,0.005566668545203211
2282.0,0.005545762634103179
2281.0,0.005524235214260741
2280.0,0.005510659086847904
2279.0,0.005497196543551037
2278.0,0.005482161106942761
2277.0,0.005475494848962758
2276.0,0.005480429841842816
2275.0,0.005488654127834275
2274.0,0.005496950322952551
2273.0,0.005508707087316092
2272.0,0.005516558302643125
2271.0,0.005504738020055547
2270.0,0.005474514930707805
2269.0,0.0054476359910832816
2268.0,0.005438040053703838
2267.0,0.005439126772689715
2266.0,0.005443927149701482
2265.0,0.005456871256403788
2264.0,0.005477213636504016
2263.0,0.0054913409750374466
2262.0,0.005492346612421367
2261.0,0.005491517190983745
2260.0,0.005500586170029604
2259.0,0.005516305965914211
2258.0,0.00552984163995367
2257.0,0.005537100022101435
2256.0,0.005533805429114119
2255.0,0.005514628639743048
2254.0,0.005484397277113495
2253.0,0.005456722678267464
2252.0,0.005437347973097852
2251.0,0.005421654776257006
2250.0,0.005411928416223404
2249.0,0.005417605269250709
2248.0,0.0054351562300740805
2247.0,0.00544402646552242
2246.0,0.005428977232164195
2245.0,0.005396166382569262
2244.0,0.005360967231480249
2243.0,0.0053339276131319675
2242.0,0.005321207729629823
2241.0,0.0053244661207600815
2240.0,0.005335933482071863
2239.0,0.005345934756722133
2238.0,0.005356650238500696
2237.0,0.005376294480055225
2236.0,0.005401116047336135
2235.0,0.005416973214039147
2234.0,0.005416902888586908
2233.0,0.005403711063517104
2232.0,0.005380697580840238
2231.0,0.0053550292051532875
2230.0,0.005342250732417277
2229.0,0.005347366317531431
2228.0,0.005349910170179825
2227.0,0.005331637272262291
2226.0,0.005309948571873337
2225.0,0.005316004842147824
2224.0,0.005345503330197604
2223.0,0.005362183885138259
2222.0,0.005348070624562501
2221.0,0.005319050196871111
2220.0,0.005292249352005255
2219.0,0.005270535031110874
2218.0,0.005261569884558529
2217.0,0.005278234540518682
2216.0,0.005312723038461936
2215.0,0.005339525294423717
2214.0,0.005349925894012966
2213.0,0.005357460928372683
2212.0,0.005365953888583748
2211.0,0.005360970056165718
2210.0,0.005337924300088615
2209.0,0.0053112179363985395
2208.0,0.0052903161026647385
2207.0,0.005271633125472917
2206.0,0.0052571505848100645
2205.0,0.005255495634144375
2204.0,0.005262950222133472
2203.0,0.005268671351791023
2202.0,0.005275887503224946
2201.0,0.005289597434145969
2200.0,0.005290219106423814
2199.0,0.00525457817678223
2198.0,0.005199839931927422
2197.0,0.005168403507834522
2196.0,0.005168610028741915
2195.0,0.0051704064581693165
2194.0,0.005161324275939837
2193.0,0.005163352371592513
2192.0,0.00518789360825714
2191.0,0.005217275234662599
2190.0,0.005242344424154176
2189.0,0.005277536305177409
2188.0,0.005324452460094752
2187.0,0.005357365885515579
2186.0,0.005359373419897731
2185.0,0.005340398730861896
2184.0,0.005308474999500569
2183.0,0.005257636379101829
2182.0,0.00519554931270822
2181.0,0.005147260683789343
2180.0,0.005118883272310036
2179.0,0.005091706059982339
2178.0,0.005060149454427039
2177.0,0.005040013507362078
2176.0,0.0050342300607740245
2175.0,0.005028430304968348
2174.0,0.005026842630453502
2173.0,0.0050529521815714466
2172.0,0.005107033495205749
2171.0,0.005161818772235168
2170.0,0.005205587198100559
2169.0,0.005250933490514015
2168.0,0.0052955978919993155
2167.0,0.005314484947356718
2166.0,0.005303431054098601
2165.0,0.005295835580339404
2164.0,0.00532106057207784
2163.0,0.00537306798210521
2162.0,0.005417314412443243
2161.0,0.005391314502318918
2160.0,0.005216831561159936
2159.0,0.004885971438927723
2158.0,0.004532888005339464
2157.0,0.004328023887849446
2156.0,0.004301085251108903
2155.0,0.0043509086253875826
2154.0,0.004396754992688796
2153.0,0.004434526195392903
2152.0,0.004472717664424669
2151.0,0.004496047949673401
2150.0,0.00450271626708562
2149.0,0.004516423406959734
2148.0,0.004540505765094963
2147.0,0.004546342739190421
2146.0,0.0045213951228185315
2145.0,0.00448813890925965
2144.0,0.004464709910843424
2143.0,0.004446675222891636
2142.0,0.004436144053043959
2141.0,0.004446848471205951
2140.0,0.0044695260049811775
2139.0,0.004469970400662267
2138.0,0.00443303676803922
2137.0,0.00437728503504242
2136.0,0.004319784811165273
2135.0,0.004259825948614544
2134.0,0.0042033332675889806
2133.0,0.004167438905705897
2132.0,0.004152787863537522
2131.0,0.0041437660502314224
2130.0,0.004140731544054199
2129.0,0.004159928795972672
2128.0,0.00419735982065306
2127.0,0.004225628793500553
2126.0,0.004234875718502704
2125.0,0.004247259249310658
2124.0,0.0042792099018272205
2123.0,0.004315241503822411
2122.0,0.004332362005203814
2121.0,0.004328847846853797
2120.0,0.004317032365332973
2119.0,0.004306310230145541
2118.0,0.004304586204853579
2117.0,0.004319132973913064
2116.0,0.004344855984590543
2115.0,0.004365709275634189
2114.0,0.0043751488591226365
2113.0,0.004381631386885644
2112.0,0.004390314208102381
2111.0,0.0043961597742656474
2110.0,0.004398560017196982
2109.0,0.00440399848889409
2108.0,0.004409071555610707
2107.0,0.004399741181355431
2106.0,0.004373775201200729
2105.0,0.004347023646458176
2104.0,0.004332360245509593
2103.0,0.0043284228898637775
2102.0,0.004331368629943598
2101.0,0.004339681348454122
2100.0,0.004345740321291921
2099.0,0.004340336352141463
2098.0,0.004325782264916101
2097.0,0.004307482130066712
2096.0,0.004277333993553083
2095.0,0.004228586455309849
2094.0,0.004181111665774446
2093.0,0.004163345551779637
2092.0,0.004173263808893771
2091.0,0.00418573990136672
2090.0,0.004193645552756161
2089.0,0.004209961239908808
2088.0,0.004231393989580688
2087.0,0.004237072459425442
2086.0,0.004227820374587722
2085.0,0.0042322087807290095
2084.0,0.004264854531512545
2083.0,0.004308058713787501
2082.0,0.004343713835627841
2081.0,0.004373258764243985
2080.0,0.004395912628858803
2079.0,0.004397499134816944
2078.0,0.004375907299017356
2077.0,0.004352908148051138
2076.0,0.0043469853230976505
2075.0,0.004355202117802084
2074.0,0.004368424675211708
2073.0,0.004380012674370715
2072.0,0.004376257289039389
2071.0,0.004347049522373375
2070.0,0.004311211013448034
2069.0,0.0043003631879683386
2068.0,0.0043111933226797515
2067.0,0.004308119131522655
2066.0,0.004280415133224973
2065.0,0.004259405558959951
2064.0,0.004263840801840287
2063.0,0.00427028704234556
2062.0,0.004257470632152764
2061.0,0.004237341097477037
2060.0,0.004227184183385392
2059.0,0.004226322075710723
2058.0,0.004234114598477484
2057.0,0.00425714540601234
2056.0,0.00428419001731132
2055.0,0.004291462571211064
2054.0,0.004289120596310007
2053.0,0.0043227895470777265
2052.0,0.004405976405997636
2051.0,0.0044855043513921
2050.0,0.0044978155567054635
2049.0,0.004436254972837639
2048.0,0.004342808906135744
2047.0,0.004258763108631792
2046.0,0.004211325416407861
2045.0,0.004215575144993133
2044.0,0.004252567660644822
2043.0,0.004274144848191771
2042.0,0.004258378312633805
2041.0,0.004235471233354191
2040.0,0.0042369516958869185
2039.0,0.004253607325121424
2038.0,0.00426509586099735
2037.0,0.0042673712209993974
2036.0,0.004252613724660218
2035.0,0.0042064275906958095
2034.0,0.0041468869842280955
2033.0,0.004122017595140383
2032.0,0.004141844275853513
2031.0,0.004160498039572603
2030.0,0.004147105389792731
2029.0,0.004123772667642126
2028.0,0.004112823289239483
2027.0,0.004099164589954664
2026.0,0.004072318419973915
2025.0,0.004054645047235702
2024.0,0.004058011988499256
2023.0,0.004059424236788954
2022.0,0.004046867044950261
2021.0,0.004042338717603323
2020.0,0.004053897310860289
2019.0,0.004050777994926509
2018.0,0.004015432268328837
2017.0,0.003977786485023954
2016.0,0.003962352491439362
2015.0,0.003950411468563832
2014.0,0.003926243558008334
2013.0,0.003907758970103488
2012.0,0.003908776088681907
2011.0,0.00391404942868861
2010.0,0.003912362862486502
2009.0,0.003914629152545794
2008.0,0.003915812555970594
2007.0,0.003882109266402186
2006.0,0.0038032363423496332
2005.0,0.003721121194356606
2004.0,0.003682912421213844
2003.0,0.003696623619450786
2002.0,0.0037450756454744383
2001.0,0.003805046589799829
2000.0,0.003846244374061808
1999.0,0.0038480858625196497
1998.0,0.0038260842995706053
1997.0,0.003814885530673986
1996.0,0.0038214970152245114
1995.0,0.003824620419598257
1994.0,0.003817516379435492
1993.0,0.003819255521843424
1992.0,0.003834152158659101
1991.0,0.0038366457539279583
1990.0,0.003820310711924245
1989.0,0.0038146642279465385
1988.0,0.0038341597911014714
1987.0,0.0038562440169840734
1986.0,0.0038632016248374267
1985.0,0.0038687080347743277
1984.0,0.003890535888733592
1983.0,0.003932292420355446
1982.0,0.003999439985599251
1981.0,0.0040904687527554915
1980.0,0.004162521474228086
1979.0,0.004150740290772503
1978.0,0.004045685400437751
1977.0,0.003914740173747864
1976.0,0.0038183616746753973
1975.0,0.0037506339103971593
1974.0,0.0036875362650190704
1973.0,0.003636568919530317
1972.0,0.003610836496905182
1971.0,0.003600930022398356
1970.0,0.003595729275465383
1969.0,0.003596147614462518
1968.0,0.0035942134543929974
1967.0,0.0035731219852443374
1966.0,0.003538711600589489
1965.0,0.0035147467468854897
1964.0,0.0035028983969258355
1963.0,0.003481119611956563
1962.0,0.003441170463031043
1961.0,0.003397331123067836
1960.0,0.003356675725379373
1959.0,0.0033171902851953593
1958.0,0.00329694732032582
1957.0,0.003321472690292705
1956.0,0.0033780770255036154
1955.0,0.0034220518197967376
1954.0,0.0034323263949457587
1953.0,0.003425235111596907
1952.0,0.003411334157112227
1951.0,0.003381695321964611
1950.0,0.0033420765749329734
1949.0,0.0033158589163479143
1948.0,0.0033054524660297313
1947.0,0.0032899548119861262
1946.0,0.003266704629400598
1945.0,0.0032565799931334005
1944.0,0.0032604879273872385
1943.0,0.0032533474842522574
1942.0,0.0032326047644031324
1941.0,0.0032203860816633805
1940.0,0.0032190464885566324
1939.0,0.0032115210035935024
1938.0,0.0031928863109354456
1937.0,0.003175606079251092
1936.0,0.003164983087588689
1935.0,0.003152425922372503
1934.0,0.0031408046911546336
1933.0,0.0031456258271914035
1932.0,0.003160560285691045
1931.0,0.0031573980186230693
1930.0,0.0031291683130123256
1929.0,0.0030974644723534453
1928.0,0.0030778836680288293
1927.0,0.0030682524465500014
1926.0,0.003069437249928519
1925.0,0.0030841517094482318
1924.0,0.0030921531882863113
1923.0,0.003069958093932207
1922.0,0.0030304199772258887
1921.0,0.0030012575059088146
1920.0,0.0029864387464474374
1919.0,0.0029697065366258214
1918.0,0.002954397222804717
1917.0,0.0029640598529785418
1916.0,0.0029875666970651973
1915.0,0.0029950680971602126
1914.0,0.0029902103512923655
1913.0,0.0029968009834403435
1912.0,0.003013697115997888
1911.0,0.003013425738980214
1910.0,0.002992960504607152
1909.0,0.002982030928818618
1908.0,0.002988102685704689
1907.0,0.0029851627871967544
1906.0,0.002965546239650247
1905.0,0.0029514008936347893
1904.0,0.0029525223627832557
1903.0,0.0029558644464393016
1902.0,0.0029571842489599038
1901.0,0.0029668128132324043
1900.0,0.0029826062915809413
1899.0,0.002988535660272141
1898.0,0.0029828831600747785
1897.0,0.0029779784329707444
1896.0,0.002968934242963698
1895.0,0.002940662921843045
1894.0,0.0029088468269715096
1893.0,0.0029081025230104744
1892.0,0.0029410448366561114
1891.0,0.0029677087790936332
1890.0,0.002957354229735691
1889.0,0.002930515336703143
1888.0,0.002911414768573784
1887.0,0.0028940727195561396
1886.0,0.0028769564839442505
1885.0,0.00287175943253439
1884.0,0.0028757545055217285
1883.0,0.002869284017568773
1882.0,0.002847397271059793
1881.0,0.0028264270586581754
1880.0,0.0028157266220627166
1879.0,0.0028087501104138734
1878.0,0.002804483956284262
1877.0,0.0028103305544978897
1876.0,0.0028182197247475934
1875.0,0.00280777609990376
1874.0,0.002781322176170085
1873.0,0.0027672448939441738
1872.0,0.0027815531551756696
1871.0,0.0028079337474819347
1870.0,0.0028123903987106614
1869.0,0.0027931774822152976
1868.0,0.002781542364666086
1867.0,0.0027770512605065282
1866.0,0.0027714835762156506
1865.0,0.0027798778988481904
1864.0,0.0028002372792952745
1863.0,0.00280879585827823
1862.0,0.0027971198253901753
1861.0,0.002784321160508969
1860.0,0.0027808812933268826
1859.0,0.0027735140587372593
1858.0,0.0027579272171074053
1857.0,0.0027488358808014997
1856.0,0.002750491221918684
1855.0,0.0027475608128430633
1854.0,0.0027326930392983935
1853.0,0.0027165452400652293
1852.0,0.0027063699677022162
1851.0,0.0026977307263327368
1850.0,0.0026864510338064575
1849.0,0.0026697137424067322
1848.0,0.00263317550572558
1847.0,0.002565998373323244
1846.0,0.0024906408961755315
1845.0,0.0024572570089525865
1844.0,0.0024892847019311205
1843.0,0.002546667615164486
1842.0,0.0025825315715166915
1841.0,0.0025995272692129192
1840.0,0.0026151807636198136
1839.0,0.002621714099766051
1838.0,0.0026083328311547133
1837.0,0.002589236085044501
1836.0,0.0025790105188990267
1835.0,0.002569024764635667
1834.0,0.0025541208086781926
1833.0,0.002551163159966344
1832.0,0.0025760118769881614
1831.0,0.0026013765216755078
1830.0,0.002597724030860767
1829.0,0.002594497711170224
1828.0,0.002606471416995028
1827.0,0.0026108389955596853
1826.0,0.002598039575954026
1825.0,0.002577498699305028
1824.0,0.002563691766789825
1823.0,0.002549429567417639
1822.0,0.002531239871980958
1821.0,0.0025234193584154204
1820.0,0.0025236235929496915
1819.0,0.0025078170839781012
1818.0,0.0024698939111530245
1817.0,0.002440004134814984
1816.0,0.0024383177994493715
1815.0,0.002449228143467083
1814.0,0.002456063590007027
1813.0,0.002464078730007036
1812.0,0.002477458246128635
1811.0,0.002478483842538261
1810.0,0.0024607450211712564
1809.0,0.0024479531928951028
1808.0,0.0024517772175054846
1807.0,0.002457384463541808
1806.0,0.002459511793522447
1805.0,0.0024733160090594304
1804.0,0.0025005258726594976
1803.0,0.002515093766653883
1802.0,0.002498566906097289
1801.0,0.002476655750692514
1800.0,0.002475595950187295
1799.0,0.0024756768816945975
1798.0,0.002458576686770116
1797.0,0.002434154682734015
1796.0,0.002409003470738149
1795.0,0.0023802936755044114
1794.0,0.002354339409256386
1793.0,0.0023490564384255706
1792.0,0.0023755246758623582
1791.0,0.002410418551349103
1790.0,0.0024223846808140025
1789.0,0.0024198372470700495
1788.0,0.002420947197693445
1787.0,0.002420769055579613
1786.0,0.0024137267998072033
1785.0,0.002415409257390943
1784.0,0.0024383234166953055
1783.0,0.0024659289847406038
1782.0,0.002474537705629525
1781.0,0.002460430369592845
1780.0,0.0024389818951293498
1779.0,0.0024199387568004838
1778.0,0.002406862682611859
1777.0,0.0024049616805742954
1776.0,0.002405693746395148
1775.0,0.0023972094344001595
1774.0,0.002379002134334281
1773.0,0.002357406271535441
1772.0,0.002353591237670541
1771.0,0.0023611931795725046
1770.0,0.002350722876824886
1769.0,0.0023443359695816857
1768.0,0.0023678880017450545
1767.0,0.0023967729716126694
1766.0,0.0024044410308820797
1765.0,0.0024010116134380722
1764.0,0.00241197027594747
1763.0,0.0024331245072033523
1762.0,0.0024515741540046794
1761.0,0.00248324401367369
1760.0,0.002528521109995004
1759.0,0.002564446179649174
1758.0,0.0025960372648174625
1757.0,0.002651243349012397
1756.0,0.0027348898308037508
1755.0,0.0028098810257991443
1754.0,0.0028654440573121164
1753.0,0.0029406957982646906
1752.0,0.0030602006907383523
1751.0,0.0031883563924057497
1750.0,0.0032784813799757997
1749.0,0.0033473534916397545
1748.0,0.0034287504942680245
1747.0,0.0035104733965444198
1746.0,0.0035753421176468827
1745.0,0.0036379413541091825
1744.0,0.0037026294022256545
1743.0,0.00373847365884388
1742.0,0.0037307373862549395
1741.0,0.003721061671048711
1740.0,0.0037440609491424122
1739.0,0.0037658147396409866
1738.0,0.003743937097593396
1737.0,0.003700371550270508
1736.0,0.0037066485694317586
1735.0,0.0037658879760343066
1734.0,0.0038268148030963845
1733.0,0.003908423916070521
1732.0,0.003981169346996675
1731.0,0.004003094761323577
1730.0,0.0040055101322424135
1729.0,0.004011412906227115
1728.0,0.0040300348762462
1727.0,0.004049168466400171
1726.0,0.004068562193319513
1725.0,0.004098388028423184
1724.0,0.004142673997022706
1723.0,0.00417630121066117
1722.0,0.004185995573302347
1721.0,0.004211278735845496
1720.0,0.004315937571900459
1719.0,0.00446047450232125
1718.0,0.004487674318597367
1717.0,0.004449758588069007
1716.0,0.0045005369314407555
1715.0,0.004595507097159095
1714.0,0.004692328448690512
1713.0,0.004804376020556909
1712.0,0.004923328561176739
1711.0,0.005028606697913371
1710.0,0.005113464248883709
1709.0,0.005200915015087162
1708.0,0.0053144848600556694
1707.0,0.005450833925974175
1706.0,0.0055924644679567525
1705.0,0.005736476859127633
1704.0,0.005831828196827935
1703.0,0.005840128168678175
1702.0,0.005864623872478616
1701.0,0.0061290635967987134
1700.0,0.006618262736686956
1699.0,0.007021502527552787
1698.0,0.007253922736365783
1697.0,0.007550290397522891
1696.0,0.008041773226168092
1695.0,0.008507065809523574
1694.0,0.008780041001378568
1693.0,0.008975800970024978
1692.0,0.009226923514962444
1691.0,0.009554736662762934
1690.0,0.00990651000984198
1689.0,0.010247039540704463
1688.0,0.01055541882799978
1687.0,0.010846515587238644
1686.0,0.011203228052823836
1685.0,0.011781432442182707
1684.0,0.012503803193948738
1683.0,0.012987149801659143
1682.0,0.013216452486299888
1681.0,0.013463580031710052
1680.0,0.013803488678398557
1679.0,0.014120688414893183
1678.0,0.014359992016162636
1677.0,0.014629122898059897
1676.0,0.015082968516815358
1675.0,0.01566896502556453
1674.0,0.016167473394345426
1673.0,0.01651470408175042
1672.0,0.01683169600351007
1671.0,0.017232505713679402
1670.0,0.017773505316130155
1669.0,0.018403668830674486
1668.0,0.01895673556128262
1667.0,0.019331949772515206
1666.0,0.01958189914134564
1665.0,0.019839961744880695
1664.0,0.02022975399637384
1663.0,0.020753845178490164
1662.0,0.021288479864378148
1661.0,0.02173605862666295
1660.0,0.022113366912925234
1659.0,0.022431169619518257
1658.0,0.022684330786343392
1657.0,0.0228616314146389
1656.0,0.02304233658795255
1655.0,0.023331966601399023
1654.0,0.023851833461314368
1653.0,0.02453395343858524
1652.0,0.02497281455773173
1651.0,0.025061337242063615
1650.0,0.02501233305508307
1649.0,0.02503617483761441
1648.0,0.025225714854507822
1647.0,0.02559069487829863
1646.0,0.025970342677135005
1645.0,0.026224974138287897
1644.0,0.026397245232225804
1643.0,0.026550327412740195
1642.0,0.026692946247808123
1641.0,0.026837109848151477
1640.0,0.026972625376987178
1639.0,0.02707152682613196
1638.0,0.0270993957995856
1637.0,0.027006336808916037
1636.0,0.02673770569444465
1635.0,0.02635308161544697
1634.0,0.02595078222711012
1633.0,0.025558699822862848
1632.0,0.025173502293415095
1631.0,0.024773452823635824
1630.0,0.024331318718223548
1629.0,0.023819034649853407
1628.0,0.023256912499783906
1627.0,0.02271557782473879
1626.0,0.02222879164765392
1625.0,0.021756935068283436
1624.0,0.021221845809735525
1623.0,0.02062790223441448
1622.0,0.02009747925124772
1621.0,0.019684302384013763
1620.0,0.01934504480995605
1619.0,0.019030068737464927
1618.0,0.01865006470465256
1617.0,0.018126037317455327
1616.0,0.017568076897319675
1615.0,0.017121284929805372
1614.0,0.016760637821854704
1613.0,0.01642585274140603
1612.0,0.01608482451873653
1611.0,0.015724648261738663
1610.0,0.01535086111329543
1609.0,0.014970971189186348
1608.0,0.014597335168593305
1607.0,0.014252924380064338
1606.0,0.01394926021880692
1605.0,0.013665834810055708
1604.0,0.013378735296969015
1603.0,0.013093027114297514
1602.0,0.012830204936001998
1601.0,0.012592002014156577
1600.0,0.012366447803388575
1599.0,0.012153134975792918
1598.0,0.011952279608564676
1597.0,0.011750035232304097
1596.0,0.011534711529934127
1595.0,0.011321659098276194
1594.0,0.011135765379215875
1593.0,0.010973992395165813
1592.0,0.010819211310017373
1591.0,0.010673367947511081
1590.0,0.010546447950851969
1589.0,0.010429359579795088
1588.0,0.010308870281289557
1587.0,0.010195069079363598
1586.0,0.010105530885901975
1585.0,0.010034344428735638
1584.0,0.009965831118066381
1583.0,0.009908245172795892
1582.0,0.009875843800843933
1581.0,0.00985582704857383
1580.0,0.009827842005297297
1579.0,0.00980343382989216
1578.0,0.009802463975892128
1577.0,0.009803470162687098
1576.0,0.009789086319841822
1575.0,0.009770557560516249
1574.0,0.009733856075680874
1573.0,0.00967779522372939
1572.0,0.009638645940152303
1571.0,0.009641157893554402
1570.0,0.009683152694297583
1569.0,0.00973523497233066
1568.0,0.009765717593738727
1567.0,0.009778809198706615
1566.0,0.009809254204379711
1565.0,0.009857321569359997
1564.0,0.00988137007605633
1563.0,0.009878086666439728
1562.0,0.009877626327487277
1561.0,0.010010733541903606
1560.0,0.01029362218176596
1559.0,0.01043909328102295
1558.0,0.010478806823387874
1557.0,0.010478758859809928
1556.0,0.010448659522783144
1555.0,0.010519367118757166
1554.0,0.01063950465184936
1553.0,0.01078117115240538
1552.0,0.010887674445211437
1551.0,0.010977557919546185
1550.0,0.011039491535646994
1549.0,0.011060193978042887
1548.0,0.01104032190099316
1547.0,0.011014815797101458
1546.0,0.010991690361059687
1545.0,0.010926964668853878
1544.0,0.010796141969025168
1543.0,0.010669771440801536
1542.0,0.010606561981044812
1541.0,0.010622414785530237
1540.0,0.010721304110031584
1539.0,0.01076364561502864
1538.0,0.010655351957205185
1537.0,0.010475426371629341
1536.0,0.010308601424170817
1535.0,0.01016900863243022
1534.0,0.01002065197659827
1533.0,0.009859673138773797
1532.0,0.00972989219450288
1531.0,0.009611506114586114
1530.0,0.009488385091177852
1529.0,0.009355236521681864
1528.0,0.009189775299530807
1527.0,0.00897611434667388
1526.0,0.00875234025210416
1525.0,0.008578788968664638
1524.0,0.008469716884336655
1523.0,0.008378591518018806
1522.0,0.008261452482034028
1521.0,0.00817893313667158
1520.0,0.00814826810833147
1519.0,0.008102804224423069
1518.0,0.008010308219130893
1517.0,0.007860193699723132
1516.0,0.007682599612356733
1515.0,0.007502223550915737
1514.0,0.007321262433780991
1513.0,0.0071543268086959955
1512.0,0.00700738116978848
1511.0,0.006875470308485636
1510.0,0.006758797915165287
1509.0,0.0066509355283732195
1508.0,0.006455454313517293
1507.0,0.006192043941489803
1506.0,0.0060125074634663185
1505.0,0.00588510873081348
1504.0,0.005772947991933867
1503.0,0.005678322722750719
1502.0,0.0055782331117781485
1501.0,0.005499420894967195
1500.0,0.005439536790131268
1499.0,0.005393568047716591
1498.0,0.00532777069062289
1497.0,0.005262823921000525
1496.0,0.005235411715237115
1495.0,0.0052090428390047655
1494.0,0.005155316519084398
1493.0,0.005109284380563782
1492.0,0.005100647505390973
1491.0,0.0050827538334230395
1490.0,0.005009850323434492
1489.0,0.004956011742797714
1488.0,0.004947401762631841
1487.0,0.004928607810279512
1486.0,0.004903316278550402
1485.0,0.004896256932964842
1484.0,0.004911076900839373
1483.0,0.004938438999769816
1482.0,0.0049776518059285475
1481.0,0.005041174090071174
1480.0,0.005127061354878017
1479.0,0.00522616095643232
1478.0,0.0053517058418812375
1477.0,0.005513854470296476
1476.0,0.005679721086841421
1475.0,0.0058244687710426206
1474.0,0.006024835679339482
1473.0,0.006458262813030432
1472.0,0.007087547765667233
1471.0,0.007631875805287372
1470.0,0.008038016333057707
1469.0,0.008419962895851814
1468.0,0.008829683268789707
1467.0,0.009292246529512561
1466.0,0.009862125530898403
1465.0,0.01055926823529141
1464.0,0.011230757524802064
1463.0,0.01170709024755046
1462.0,0.012018450194255351
1461.0,0.012259380163460775
1460.0,0.012473832471569501
1459.0,0.012651135551436826
1458.0,0.012829971894712569
1457.0,0.013158894336433632
1456.0,0.013523694898710421
1455.0,0.013707772370906273
1454.0,0.013767059509459292
1453.0,0.013790436478412499
1452.0,0.013767287197564477
1451.0,0.01367592632726292
1450.0,0.013500085806793759
1449.0,0.013209539184044414
1448.0,0.01276637197484429
1447.0,0.012234189004704927
1446.0,0.011724586031998304
1445.0,0.011270186017894665
1444.0,0.010851477940129165
1443.0,0.010473856093852995
1442.0,0.010163880053013014
1441.0,0.009920845657214093
1440.0,0.009720301913169537
1439.0,0.009564197906445788
1438.0,0.009486164345332634
1437.0,0.009484404230663268
1436.0,0.009476534559634556
1435.0,0.00937599043906186
1434.0,0.009168723623280191
1433.0,0.008886355703730532
1432.0,0.008570141942895772
1431.0,0.008267900462943305
1430.0,0.00801192291244636
1429.0,0.007809495043891638
1428.0,0.007660989147920239
1427.0,0.007566041367933471
1426.0,0.007508891774175462
1425.0,0.007447354970997021
1424.0,0.0073558653709360515
1423.0,0.007260037555561535
1422.0,0.007187850443402147
1421.0,0.007152383741733522
1420.0,0.0071472181166754994
1419.0,0.007141650444519317
1418.0,0.007126606677299483
1417.0,0.007098123457420388
1416.0,0.007055240366053569
1415.0,0.007015869232943711
1414.0,0.006980507207089661
1413.0,0.006933212004220024
1412.0,0.0068653473128065835
1411.0,0.006787905695624015
1410.0,0.006706608897016283
1409.0,0.006615419594918049
1408.0,0.006514661654874157
1407.0,0.0064059150095394255
1406.0,0.006270238441263209
1405.0,0.006086239884760289
1404.0,0.005883592983906958
1403.0,0.005712620604988149
1402.0,0.005576684723006512
1401.0,0.005444091717355565
1400.0,0.005288651353320596
1399.0,0.005126119724009371
1398.0,0.004985224662421827
1397.0,0.004853703154804936
1396.0,0.004721695393183175
1395.0,0.004618709266975198
1394.0,0.004552590871508792
1393.0,0.004493146262173083
1392.0,0.00443558578125407
1391.0,0.004400372327482798
1390.0,0.004394042511429792
1389.0,0.0044071731592298675
1388.0,0.004451491639560555
1387.0,0.004570841542495494
1386.0,0.004775386526761186
1385.0,0.005052357579298229
1384.0,0.00544827204727591
1383.0,0.006038665710391085
1382.0,0.006857672664506993
1381.0,0.007923620619467841
1380.0,0.009280420371037563
1379.0,0.01089704567438242
1378.0,0.012542613061682384
1377.0,0.013877386307274742
1376.0,0.014599137711694382
1375.0,0.014453033405765765
1374.0,0.013432101788483485
1373.0,0.011975020947738729
1372.0,0.010547737603678307
1371.0,0.009282654072656516
1370.0,0.008153340504881534
1369.0,0.007172824715857414
1368.0,0.006405984614495696
1367.0,0.005879879697670055
1366.0,0.005555969859376065
1365.0,0.005379173720774905
1364.0,0.005300132606326347
1363.0,0.005293758219581202
1362.0,0.005360206693845876
1361.0,0.005470227757533371
1360.0,0.005564975197341927
1359.0,0.005600495684062354
1358.0,0.005552821344404701
1357.0,0.0054132965261907634
1356.0,0.005190507210356752
1355.0,0.00491391481549325
1354.0,0.004630545069169939
1353.0,0.004380677869362944
1352.0,0.004172536580086129
1351.0,0.003993139674885536
1350.0,0.0038357841808573045
1349.0,0.003701340232144186
1348.0,0.0035864701811170662
1347.0,0.0034830400266906807
1346.0,0.0033884571180108165
1345.0,0.0033061260922339717
1344.0,0.003239185826686188
1343.0,0.0031863545135546144
1342.0,0.003138886318201405
1341.0,0.00307803572367087
1340.0,0.002997557839463699
1339.0,0.0029236133992754667
1338.0,0.0028769712496143052
1337.0,0.002848666639581172
1336.0,0.0028260446789698866
1335.0,0.0028076254532880315
1334.0,0.002799292052739468
1333.0,0.002805215073446018
1332.0,0.0028204497656290368
1331.0,0.002834498414889723
1330.0,0.00283904121429023
1329.0,0.002830090245555267
1328.0,0.0028063721519722674
1327.0,0.0027706585019182466
1326.0,0.002728589693230145
1325.0,0.002682913957895918
1324.0,0.002634937877306627
1323.0,0.0025879235721827177
1322.0,0.0025453348571427684
1321.0,0.002506244326389482
1320.0,0.0024675824905618683
1319.0,0.0024303610453802805
1318.0,0.0023980660223907524
1317.0,0.0023698708810904598
1316.0,0.002342525374211214
1315.0,0.0023161016134758284
1314.0,0.0022935289381443825
1313.0,0.002277910566997245
1312.0,0.002270815086895582
1311.0,0.002273179936287984
1310.0,0.002286827941490653
1309.0,0.002314831582080018
1308.0,0.0023603385274538527
1307.0,0.0024222721717402605
1306.0,0.002488616142283964
1305.0,0.0025376503159208422
1304.0,0.0025536927424042836
1303.0,0.0025397442571817677
1302.0,0.0025137083820659335
1301.0,0.0024923763934910355
1300.0,0.002482446870929382
1299.0,0.002483823171653671
1298.0,0.002494693965846022
1297.0,0.002511116177168624
1296.0,0.0025259864105496373
1295.0,0.0025326209265218607
1294.0,0.0025285583529501793
1293.0,0.002515848141222435
1292.0,0.002498754747297214
1291.0,0.002481418683398533
1290.0,0.002466560262199114
1289.0,0.002456044544027781
1288.0,0.0024524962222580585
1287.0,0.0024582497959219204
1286.0,0.0024715938682943303
1285.0,0.002486990800622663
1284.0,0.0025004150425369884
1283.0,0.002512523152698539
1282.0,0.0025262850669159147
1281.0,0.0025427356099352464
1280.0,0.002560921800116627
1279.0,0.0025810085504349304
1278.0,0.0026041799409985793
1277.0,0.0026300549251070645
1276.0,0.00265631523813279
1275.0,0.002681687286280438
1274.0,0.0027072052482067146
1273.0,0.0027348663086462647
1272.0,0.0027667099585804394
1271.0,0.0028046601708800922
1270.0,0.002848726036384632
1269.0,0.0028957563661214146
1268.0,0.0029425741247299025
1267.0,0.0029897827958671685
1266.0,0.003040863132370592
1265.0,0.003098487541721791
1264.0,0.0031630077247207355
1263.0,0.0032346637610796833
1262.0,0.003316108676758159
1261.0,0.0034117096362630585
1260.0,0.0035247194661797918
1259.0,0.0036548746349915734
1258.0,0.003796716343446581
1257.0,0.00393951825926867
1256.0,0.0040690918263689485
1255.0,0.004174017084605661
1254.0,0.00425350463334403
1253.0,0.004317797318309032
1252.0,0.00437973614548284
1251.0,0.0044477659314801285
1250.0,0.004525423164593997
1249.0,0.0046129704422025845
1248.0,0.004707976531357249
1247.0,0.004806583991661606
1246.0,0.004905949864917295
1245.0,0.005005304884429708
1244.0,0.005104144148391883
1243.0,0.005201366720157408
1242.0,0.005296720055101154
1241.0,0.00539052249761769
1240.0,0.0054811037619779054
1239.0,0.00556530231479237
1238.0,0.005642260579195152
1237.0,0.005713743753049637
1236.0,0.005780490291488907
1235.0,0.005841960323455674
1234.0,0.005899567989766448
1233.0,0.005955637742500668
1232.0,0.006009132602627863
1231.0,0.006057270911904948
1230.0,0.006101616251666454
1229.0,0.006147052320110782
1228.0,0.006193933869723704
1227.0,0.006237469387037333
1226.0,0.0062765754946417125
1225.0,0.006317118353848337
1224.0,0.00636374824105777
1223.0,0.0064138824961869545
1222.0,0.006461985476369823
1221.0,0.006504129185239508
1220.0,0.00653625359246622
1219.0,0.006554275666396188
1218.0,0.006559293580828743
1217.0,0.00655778772862326
1216.0,0.006553904284785079
1215.0,0.006546264933971731
1214.0,0.006534115601959094
1213.0,0.006521394869048393
1212.0,0.006512219420082874
1211.0,0.006506708849056167
1210.0,0.006504075915545192
1209.0,0.006505720523102678
1208.0,0.00651279353881609
1207.0,0.0065241672826306905
1206.0,0.006538469549114684
1205.0,0.0065544070118606764
1204.0,0.0065680874100943745
1203.0,0.006574834295138424
1202.0,0.006575419665459541
1201.0,0.006576462427724967
1200.0,0.00658362385591336
1199.0,0.006597825913198035
1198.0,0.006617394225415765
1197.0,0.006639539236148474
1196.0,0.006660000810029883
1195.0,0.006676753273281177
1194.0,0.0066947223740499535
1193.0,0.006721250624780945
1192.0,0.006756443616964433
1191.0,0.006793225514919275
1190.0,0.006827356530393765
1189.0,0.006861759995994282
1188.0,0.006900334961785976
1187.0,0.006943460949295911
1186.0,0.006990696663668495
1185.0,0.007042474493143877
1184.0,0.007098160467907676
1183.0,0.007157844486538184
1182.0,0.007226427985872987
1181.0,0.007309672475306438
1180.0,0.007406005888097082
1179.0,0.007509553089078752
1178.0,0.007621997038643858
1177.0,0.0077536232571109075
1176.0,0.007911770158072361
1175.0,0.008096966216020532
1174.0,0.00831210101456638
1173.0,0.008564995416680961
1172.0,0.008856106183696961
1171.0,0.009169147457562695
1170.0,0.00947708891294588
1169.0,0.009751932498225289
1168.0,0.009968358421646078
1167.0,0.010111561733708056
1166.0,0.010189509580064664
1165.0,0.010228872891471969
1164.0,0.01025372352798703
1163.0,0.0102758582184906
1162.0,0.010304269527489395
1161.0,0.010348346917614269
1160.0,0.010408494755969864
1159.0,0.010477492655845114
1158.0,0.010555610301177156
1157.0,0.01065228285655507
1156.0,0.010769131053614227
1155.0,0.010894026464855922
1154.0,0.011016204045754947
1153.0,0.011134704463616524
1152.0,0.011247924699936766
1151.0,0.011348916591226723
1150.0,0.01143682727855355
1149.0,0.011519986949153013
1148.0,0.01160297681772687
1147.0,0.011683527958237171
1146.0,0.011765363057342541
1145.0,0.01185957197415415
1144.0,0.011969051135981377
1143.0,0.012085473469984787
1142.0,0.012205200660094031
1141.0,0.012334015948194922
1140.0,0.012472955800204029
1139.0,0.012615509729005683
1138.0,0.012762939255257021
1137.0,0.012925386986418999
1136.0,0.01310264511634189
1135.0,0.01328100254760991
1134.0,0.013454975390172257
1133.0,0.01363462317847193
1132.0,0.013825558978239111
1131.0,0.014019929602716814
1130.0,0.014213324586984266
1129.0,0.01441195693562107
1128.0,0.014616068588071716
1127.0,0.01481515040424492
1126.0,0.01500712231624602
1125.0,0.015202728297250378
1124.0,0.015403794493388561
1123.0,0.015597995850093697
1122.0,0.015782536597430084
1121.0,0.01597142630481903
1120.0,0.01617195822217339
1119.0,0.0163762856339006
1118.0,0.01658258827407625
1117.0,0.016800106848385545
1116.0,0.017025395068050595
1115.0,0.017238973754057366
1114.0,0.01743528510807472
1113.0,0.017631059479327534
1112.0,0.017835321533468427
1111.0,0.018038809401807278
1110.0,0.018241595028278858
1109.0,0.01846114575900982
1108.0,0.018701849540737156
1107.0,0.01894501899806602
1106.0,0.019181025896468196
1105.0,0.019421240940337436
1104.0,0.01966620184953076
1103.0,0.01989381964644276
1102.0,0.020091524309415645
1101.0,0.020271450078691276
1100.0,0.020441391051334117
1099.0,0.02059113200730746
1098.0,0.020723968165794925
1097.0,0.02086290412473382
1096.0,0.0210148587333253
1095.0,0.021160793475988076
1094.0,0.021293298021001796
1093.0,0.02142850784452528
1092.0,0.021569501149762464
1091.0,0.021695034241345033
1090.0,0.02179767141397626
1089.0,0.021896491469594322
1088.0,0.021999004862006007
1087.0,0.022087966875935693
1086.0,0.022159146983912675
1085.0,0.022232732928183067
1084.0,0.022312276914314023
1083.0,0.02237162272094625
1082.0,0.022397862206250504
1081.0,0.022408637471744975
1080.0,0.022412719386576744
1079.0,0.0223933708947006
1078.0,0.022345192765082258
1077.0,0.022287773014377985
1076.0,0.022227988300522347
1075.0,0.022146938843271326
1074.0,0.022037891184647856
1073.0,0.021919172055876218
1072.0,0.021796797691093047
1071.0,0.021652690197576742
1070.0,0.021481818008525007
1069.0,0.02130314119146481
1068.0,0.021123104647138156
1067.0,0.020926159815751296
1066.0,0.02071132885320579
1065.0,0.020500823086610498
1064.0,0.02030212772249701
1063.0,0.02009674175289609
1062.0,0.019876033952253836
1061.0,0.01965469342189979
1060.0,0.019439228167384595
1059.0,0.01921668409018604
1058.0,0.018984746990065554
1057.0,0.01876089766491849
1056.0,0.018551447493632328
1055.0,0.018341063514505592
1054.0,0.018122525897531515
1053.0,0.01790935130570835
1052.0,0.017709089631225708
1051.0,0.017512779488597988
1050.0,0.017321883574256534
1049.0,0.01715306206153293
1048.0,0.017004753705332144
1047.0,0.016852595467754507
1046.0,0.016685131723507447
1045.0,0.016512788935070095
1044.0,0.016339030903183494
1043.0,0.016152922610669977
1042.0,0.015954188281723573
1041.0,0.015759146855674498
1040.0,0.015576161843810069
1039.0,0.015398372121262889
1038.0,0.015224836842400578
1037.0,0.015065564673181762
1036.0,0.014920388041444976
1035.0,0.01477461176408806
1034.0,0.014621218010262947
1033.0,0.014467015105937828
1032.0,0.014312106720824724
1031.0,0.014144404676715468
1030.0,0.013960059120812966
1029.0,0.01376912626374968
1028.0,0.013575617012339659
1027.0,0.013370859689682015
1026.0,0.01315125025296275
1025.0,0.012924848254105
1024.0,0.012696872669276245
1023.0,0.012465769790056034
1022.0,0.012236670703972202
1021.0,0.01202223003561678
1020.0,0.011826774301609196
1019.0,0.01164457139478854
1018.0,0.011475542476708782
1017.0,0.011327104928903278
1016.0,0.011198585902696932
1015.0,0.011079933418399234
1014.0,0.010969312977228557
1013.0,0.010877536289181717
1012.0,0.010811418999244869
1011.0,0.0107654261462576
1010.0,0.010732063625791996
1009.0,0.010707854300365036
1008.0,0.010686714202190202
1007.0,0.01066084136251493
1006.0,0.010632338705274844
1005.0,0.010613005488042757
1004.0,0.010611480511722863
1003.0,0.01063332018407668
1002.0,0.010692222737224985
1001.0,0.010800321760140503
1000.0,0.010936948361311774
999.0,0.011038250011247492
998.0,0.01102886655051323
997.0,0.010863872446811865
996.0,0.010546555517271596
995.0,0.010124361251001456
994.0,0.00967026442153971
993.0,0.009248608105650041
992.0,0.008886758492523876
991.0,0.008579891026858919
990.0,0.008317221952342217
989.0,0.008096475785321739
988.0,0.007921121540569585
987.0,0.007797040620866636
986.0,0.007727714055521641
985.0,0.00769873149605576
984.0,0.007670288385207487
983.0,0.007603367934373143
982.0,0.007499659911148221
981.0,0.007404552463173833
980.0,0.007367525275259648
979.0,0.007409561188885465
978.0,0.007526760013705459
977.0,0.007705504561569477
976.0,0.007921007635127247
975.0,0.008128396169548871
974.0,0.008267141075713297
973.0,0.008277728250492878
972.0,0.008121693914004467
971.0,0.007804002049838245
970.0,0.007382317666510076
969.0,0.0069399057701328174
968.0,0.006539273423248669
967.0,0.006201253134154258
966.0,0.005919105086268999
965.0,0.005678882081746572
964.0,0.005467258240707772
963.0,0.005274353245169314
962.0,0.005097224046538148
961.0,0.004936734704568817
960.0,0.004789641837274075
959.0,0.0046490750985598486
958.0,0.004512972652365267
957.0,0.004385542713587345
956.0,0.004269540015304714
955.0,0.004163043987754793
954.0,0.004064294089407359
953.0,0.003973586245452101
952.0,0.0038897229496819346
951.0,0.003810654174330141
950.0,0.003738627662254592
949.0,0.00367905595800326
948.0,0.003633384216046105
947.0,0.0035982397953362665
946.0,0.0035719140439075233
945.0,0.0035560652547728024
944.0,0.003550155583294805
943.0,0.003549348654295534
942.0,0.003548542447891194
941.0,0.00354342385308884
940.0,0.0035274884568067817
939.0,0.0034946495021671055
938.0,0.0034467649646391253
937.0,0.00339328602694615
936.0,0.003341931306814566
935.0,0.0032939212852973647
934.0,0.0032476795801873954
933.0,0.003201183129350367
932.0,0.0031505034209059197
931.0,0.00309243155738007
930.0,0.0030299318235856654
929.0,0.002969874780258755
928.0,0.002914919406641262
927.0,0.002862925474072739
926.0,0.0028144202035799678
925.0,0.002774547861157748
924.0,0.00274649987316085
923.0,0.0027283088209512714
922.0,0.002717157825161667
921.0,0.0027119748609645785
920.0,0.002710998502775044
919.0,0.0027118294484996725
918.0,0.0027149853711192144
917.0,0.0027228340300007544
916.0,0.0027343412407913508
915.0,0.002745377423426698
914.0,0.0027541042026314735
913.0,0.0027604399163838763
912.0,0.002759982622752562
911.0,0.0027451243826701792
910.0,0.0027139143580149614
909.0,0.002672267527567135
908.0,0.0026269240385496245
907.0,0.0025831940056450665
906.0,0.002550682965209325
905.0,0.0025436384357807353
904.0,0.002571980265563445
903.0,0.0026347735899949418
902.0,0.002720688154473317
901.0,0.002807688202904195
900.0,0.0028621025682616613
899.0,0.002849249151950256
898.0,0.0027545632934029766
897.0,0.0025925117643411603
896.0,0.0023945390149991484
895.0,0.0021928020954807667
894.0,0.002012066097938377
893.0,0.0018648150964441599
892.0,0.0017487776915708969
891.0,0.0016535662086054042
890.0,0.0015724021047035417
889.0,0.0015050438424390887
888.0,0.0014506476928237944
887.0,0.0014046662125875111
886.0,0.0013649393863331002
885.0,0.0013351143131735495
884.0,0.0013188338941860674
883.0,0.0013145721438826239
882.0,0.0013185036124496287
881.0,0.0013282524970352325
880.0,0.001341162707398819
879.0,0.0013530973849496832
878.0,0.0013623949635260192
877.0,0.0013721783168426894
876.0,0.0013866086883901527
875.0,0.0014071164481868782
874.0,0.0014313117910283214
873.0,0.0014502042620987208
872.0,0.0014475467671574537
871.0,0.0014108411034353557
870.0,0.0013462787637688247
869.0,0.0012764678945196997
868.0,0.0012208580796155316
867.0,0.0011834109577197134
866.0,0.0011589332671308632
865.0,0.0011435939524736493
864.0,0.001136113186600824
863.0,0.0011346649829063013
862.0,0.001137556078186447
861.0,0.0011441706862728115
860.0,0.0011523605882165988
859.0,0.001157617366329219
858.0,0.0011569816401209626
857.0,0.0011511025595545255
856.0,0.001141325180531637
855.0,0.0011284164150642602
854.0,0.0011153097051910784
853.0,0.0011067908199773543
852.0,0.001104886076115251
851.0,0.001108720641524139
850.0,0.001120256637194745
849.0,0.001145505081452072
848.0,0.0011892726626742626
847.0,0.0012566967040596397
846.0,0.0013654199975737119
845.0,0.0015478232690739108
844.0,0.001824371531111638
843.0,0.0021636081338489805
842.0,0.0024712709077367406
841.0,0.002634483156103574
840.0,0.002594843924397427
839.0,0.0023919437099867323
838.0,0.0021361641225813507
837.0,0.0019295177744063617
836.0,0.0018075367312618339
835.0,0.0017488238449176218
834.0,0.0017217073547651479
833.0,0.0017102895901882737
832.0,0.0017074272857955904
831.0,0.0017060980286754813
830.0,0.0017047587148075246
829.0,0.0017084614102248733
828.0,0.0017176836255453326
827.0,0.001725375090046697
826.0,0.0017299781081838584
825.0,0.0017401588661253575
824.0,0.0017607257256028806
823.0,0.0017858331712458108
822.0,0.0018112799638415433
821.0,0.0018405035796955267
820.0,0.0018747008553468725
819.0,0.0019103260739562233
818.0,0.0019498548532903435
817.0,0.0020042542430006587
816.0,0.0020820442137265633
815.0,0.0021848674555113553
814.0,0.002315106481060645
813.0,0.0024762579850132137
812.0,0.0026601599052410107
811.0,0.0028423488648765074
810.0,0.002995314144973334
809.0,0.003099831690206032
808.0,0.0031431756983753946
807.0,0.003121599498921127
806.0,0.003051931560185685
805.0,0.002967810457398377
804.0,0.002896265382288666
803.0,0.002844744114439239
802.0,0.00281128131860571
801.0,0.002794810048279962
800.0,0.0027913317207433758
799.0,0.0027923618374368136
798.0,0.0027945942525496007
797.0,0.0028028423166422847
796.0,0.002818766665888965
795.0,0.002835930910270235
794.0,0.0028501886551490266
793.0,0.0028651120018239515
792.0,0.0028827657391415416
791.0,0.002899221172500095
790.0,0.0029136217053162103
789.0,0.002931802467561703
788.0,0.002956306652803151
787.0,0.0029816943514207515
786.0,0.0030033292131683063
785.0,0.0030215606173036457
784.0,0.0030350903541735783
783.0,0.0030414166236374064
782.0,0.0030463871511535847
781.0,0.0030610076408709875
780.0,0.0030850791157016138
779.0,0.0031062155096803334
778.0,0.0031187312985602356
777.0,0.0031308657051492333
776.0,0.003149111240987521
775.0,0.0031687714780737094
774.0,0.0031853980086295943
773.0,0.003202744343438604
772.0,0.0032233809742636572
771.0,0.0032438156612988552
770.0,0.0032650544598506305
769.0,0.0032958233102412023
768.0,0.0033387397701486214
767.0,0.003384717945154603
766.0,0.0034269350279013664
765.0,0.003468684666448437
764.0,0.003512304690296951
763.0,0.0035535215896502514
762.0,0.0035929083857342355
761.0,0.003639292201670527
760.0,0.003694189186436476
759.0,0.0037456510526070828
758.0,0.0037856863403369963
757.0,0.003822058073640873
756.0,0.0038650818445955283
755.0,0.003914358275899896
754.0,0.003965743566708751
753.0,0.004019260546342813
752.0,0.004072032954795662
751.0,0.004114879736589461
750.0,0.00414456165142071
749.0,0.004169806924494042
748.0,0.00419888935667756
747.0,0.004230772706122019
746.0,0.004262786574466406
745.0,0.004295418455677391
744.0,0.004324818685840348
743.0,0.004343331799408987
742.0,0.00435294548929754
741.0,0.004365367998247697
740.0,0.004383756923672878
739.0,0.004398140112029684
738.0,0.004403307266280803
737.0,0.004406161216848472
736.0,0.0044109305350311144
735.0,0.004413320160143526
734.0,0.004414899209935456
733.0,0.004426423781055442
732.0,0.004449248076609327
731.0,0.004469309632738976
730.0,0.004478300179615546
729.0,0.0044860954092062035
728.0,0.004503452452652596
727.0,0.004527657791709585
726.0,0.004554105010851332
725.0,0.004585657265751252
724.0,0.0046210990750189486
723.0,0.0046498435667948115
722.0,0.00466730717840046
721.0,0.004681897663696765
720.0,0.004698493629451801
719.0,0.004710381650555945
718.0,0.004717228189597364
717.0,0.004733398579197885
716.0,0.004769017813717908
715.0,0.004817413788804181
714.0,0.004867783497457957
713.0,0.004915888269799978
712.0,0.0049553886912813835
711.0,0.004976329623815421
710.0,0.004982391177774299
709.0,0.004993367795401772
708.0,0.005021293785591966
707.0,0.005058651135670062
706.0,0.005097092212751057
705.0,0.005140389736308016
704.0,0.005189787652080632
703.0,0.005235992413022559
702.0,0.005275649270092842
701.0,0.005316598302520396
700.0,0.00535734391541021
699.0,0.005381876553579176
698.0,0.005386364377425247
697.0,0.005390254790393913
696.0,0.005407787937160014
695.0,0.0054294518269705615
694.0,0.0054437779382587965
693.0,0.005455991874282179
692.0,0.005471472908538333
691.0,0.005481039130559212
690.0,0.005479041801816929
689.0,0.005477898828523913
688.0,0.005488003507674626
687.0,0.0055019182082006336
686.0,0.005514282005126469
685.0,0.005532840675421025
684.0,0.005555993306562618
683.0,0.005567155573947271
682.0,0.005563655218536433
681.0,0.005565817463078747
680.0,0.005585742202242291
679.0,0.005611641981092629
678.0,0.005634182288216498
677.0,0.005661478531803443
676.0,0.005694409151810729
675.0,0.005718042095879832
674.0,0.005729150380368801
673.0,0.005741737366476581
672.0,0.005754385895534444
671.0,0.005744553440581139
670.0,0.005705597279344342
669.0,0.005677167759518027
668.0,0.005710243957757075
667.0,0.0057791742673520335
666.0,0.005829532486624602
665.0,0.0058583525519553935
664.0,0.005885958952457642
663.0,0.005910327345784468
662.0,0.005923058069297638
661.0,0.005930584829968691
660.0,0.005934821383042676
659.0,0.005921112255445588
658.0,0.00589378029947843
657.0,0.005887343608355936
656.0,0.005916370911371563
655.0,0.00595413739444216
654.0,0.005980922440899844
653.0,0.006011557840297907
652.0,0.006050353599990533
651.0,0.006066675258259066
650.0,0.006047435320279634
649.0,0.0060261558616003285
648.0,0.006024623083638321
647.0,0.006017213548234254
646.0,0.005985269506441155
645.0,0.005953334913355745
644.0,0.005939122309715752
643.0,0.005919496091031475
642.0,0.005877187319482836
641.0,0.005832818167387168
640.0,0.0057985530092474
639.0,0.005751436803628352
638.0,0.005687008522399939
637.0,0.0056433894814231994
636.0,0.005636176310515371
635.0,0.0056297106269533855
634.0,0.005608743240235858
633.0,0.005613633403625319
632.0,0.0056620949010263485
631.0,0.005705175962237952
630.0,0.005701986599598321
629.0,0.005674584211349536
628.0,0.005644367306410038
627.0,0.005582302797587345
626.0,0.005474050134160677
625.0,0.005368723408590571
624.0,0.005298297782648328
623.0,0.005220017857240518
622.0,0.00510124781356484
621.0,0.004982954935857488
620.0,0.0048981949656434105
619.0,0.004812007011908798
618.0,0.004703793283551469
617.0,0.0046262064321404475
616.0,0.004611467838155414
615.0,0.004612257367504732
614.0,0.004596859799167105
613.0,0.004600052454785008
612.0,0.004633327826220224
611.0,0.004646952386560586
610.0,0.004629295018158136
609.0,0.004646443457540516
608.0,0.004728103231011209
607.0,0.004814106792807658
606.0,0.00486196132781834
605.0,0.004908403027116695
604.0,0.004970240875380347
603.0,0.00499768043159218
602.0,0.004977509448659072
601.0,0.004969988808644727
600.0,0.004994490816529573
599.0,0.004987367858852777
598.0,0.004918834049434994
597.0,0.004841595692196916
596.0,0.004776040431155283
595.0,0.0046658621595898845
594.0,0.004496431342017938
593.0,0.004344930836105861
592.0,0.004250760825989657
591.0,0.004146108176732314
590.0,0.003984847843047127
589.0,0.003817576825995642
588.0,0.0036702565219032326
587.0,0.0034850680929532636
586.0,0.0032390658064513295
585.0,0.0030109434435322785
584.0,0.0028551224950676313
583.0,0.0027165994659444485
582.0,0.0025407891266414104
581.0,0.0023681159580554827
580.0,0.0022379696288302685
579.0,0.0021077659025888628
578.0,0.0019421430123336542
577.0,0.0017784284015532183
576.0,0.0016409935807313546
575.0,0.001500016851781842
574.0,0.0013718676536131694
573.0,0.001332615477145043
572.0,0.0013773752409285366
571.0,0.0013860199591282686
570.0,0.0012891658829178242
569.0,0.0011750403698338324
568.0,0.0011350704353821984
567.0,0.0011354674559689755
566.0,0.0011244907787021038
565.0,0.0011423975761174362
564.0,0.0012295105937008915
563.0,0.0013276652385056495
562.0,0.0013577638396565226
561.0,0.0013271149056656186
560.0,0.0012675364332931074
559.0,0.0011765130586503946
558.0,0.001084750392776049
557.0,0.0010587163155637391
556.0,0.001083297352495996
555.0,0.001047610619031068
554.0,0.0009163451804432384
553.0,0.0008009356260091247
552.0,0.0007766108039778031
551.0,0.0007718894700878066
550.0,0.0006983863324265251
