cm-1,A
4000.0,0.0029033117733240354
3999.0,0.002901696055340762
3998.0,0.0028994114491356776
3997.0,0.002897103007450331
3996.0,0.0028966676340711033
3995.0,0.0029002524637418174
3994.0,0.0029078509991213395
3993.0,0.002915933971760744
3992.0,0.002919099196515955
3991.0,0.0029144676400334026
3990.0,0.0029048422202531433
3989.0,0.0028970614480312764
3988.0,0.0028966376095167336
3987.0,0.0029037757437924616
3986.0,0.0029147391302886214
3985.0,0.002925692847327745
3984.0,0.0029346680654527358
3983.0,0.002940612820215973
3982.0,0.0029423574397575095
3981.0,0.002939492528026431
3980.0,0.00293390041214568
3979.0,0.002929343989544658
3978.0,0.002928995340246222
3977.0,0.002933043860759066
3976.0,0.00293883034377465
3975.0,0.0029432216291051553
3974.0,0.002944706987091166
3973.0,0.0029441172419081736
3972.0,0.0029435385487288418
3971.0,0.002944450754734265
3970.0,0.0029464014544265046
3969.0,0.0029468095608354058
3968.0,0.002942453630949169
3967.0,0.0029322465097952914
3966.0,0.002919146943590056
3965.0,0.002908888483599891
3964.0,0.002906155171248857
3963.0,0.002911419746441041
3962.0,0.002921026549061667
3961.0,0.0029306154321762984
3960.0,0.0029376210804649113
3959.0,0.0029410448296408424
3958.0,0.0029402721760532465
3957.0,0.002935804845009591
3956.0,0.002930220225130397
3955.0,0.002926353535519472
3954.0,0.0029244755417313292
3953.0,0.0029223346256275788
3952.0,0.0029179344365046654
3951.0,0.0029123944007973333
3950.0,0.002909261622201717
3949.0,0.002910394750358764
3948.0,0.0029137150992594035
3947.0,0.0029159558201818985
3946.0,0.002917156145038141
3945.0,0.002919217858857112
3944.0,0.00292224335400476
3943.0,0.002924612514115318
3942.0,0.002924801039139886
3941.0,0.0029247461263904187
3940.0,0.002928393148540114
3939.0,0.002935105187316188
3938.0,0.0029403743632316296
3937.0,0.0029421518382861216
3936.0,0.002943313774539608
3935.0,0.0029484385745854897
3934.0,0.0029587187806382293
3933.0,0.002971026734373085
3932.0,0.002980181587952057
3931.0,0.002983473244858135
3930.0,0.0029834221449456825
3929.0,0.002984988535221512
3928.0,0.0029910615000370965
3927.0,0.0030005744863851507
3926.0,0.003008575270587249
3925.0,0.0030084980818493243
3924.0,0.0029998526664826346
3923.0,0.0029922423507336192
3922.0,0.0029951096802716326
3921.0,0.003005798430404819
3920.0,0.0030138035920617597
3919.0,0.003014110229401093
3918.0,0.0030105303699189115
3917.0,0.0030087769080231926
3916.0,0.0030115987278038596
3915.0,0.003020349898296604
3914.0,0.003034779734559569
3913.0,0.0030497087721751918
3912.0,0.0030576609944254996
3911.0,0.0030560051741178283
3910.0,0.0030475250766587546
3909.0,0.003036920571949306
3908.0,0.0030258144845009514
3907.0,0.0030130640583520335
3906.0,0.002995782268514052
3905.0,0.002971077643765793
3904.0,0.0029378060855911707
3903.0,0.0029023370366421525
3902.0,0.0028798750432009624
3901.0,0.0028799956684020887
3900.0,0.0028954869054698684
3899.0,0.0029130807506547738
3898.0,0.00292965655549466
3897.0,0.002950546938116248
3896.0,0.00297506743277841
3895.0,0.0029947229933552314
3894.0,0.0030061232169898873
3893.0,0.003012931202808964
3892.0,0.0030121119281860892
3891.0,0.002993136183194147
3890.0,0.002960819068464079
3889.0,0.0029414446583600484
3888.0,0.0029480961683831623
3887.0,0.002968375231846649
3886.0,0.0029820746841957516
3885.0,0.002976097799250825
3884.0,0.0029592592489332816
3883.0,0.0029538734706061965
3882.0,0.002960679970916402
3881.0,0.002962538518055612
3880.0,0.0029499664087383184
3879.0,0.002932098392375811
3878.0,0.002931262910907626
3877.0,0.0029535006704688926
3876.0,0.002977799544333805
3875.0,0.0029829802412307607
3874.0,0.0029663078068332457
3873.0,0.0029459230768006817
3872.0,0.002946144981360376
3871.0,0.002967885668781204
3870.0,0.0029832224580171006
3869.0,0.002971007874447284
3868.0,0.0029513452591903074
3867.0,0.002953930122239259
3866.0,0.0029695704843397093
3865.0,0.002973363889668572
3864.0,0.0029595609781391218
3863.0,0.0029397395610697647
3862.0,0.0029288346979440124
3861.0,0.0029314861531998214
3860.0,0.0029410016346362467
3859.0,0.00294876882819206
3858.0,0.0029465579436479565
3857.0,0.002933739021940468
3856.0,0.0029211253615556137
3855.0,0.0029297534402930297
3854.0,0.0029636972588560897
3853.0,0.0029758976943667186
3852.0,0.002947513310286742
3851.0,0.0029390914314692236
3850.0,0.00296709418274165
3849.0,0.0029880859888299647
3848.0,0.0029843056099269853
3847.0,0.002970678237625899
3846.0,0.002962804391286225
3845.0,0.002964041177287534
3844.0,0.002968994863238787
3843.0,0.0029683950190260355
3842.0,0.0029588479143950663
3841.0,0.0029471441409160987
3840.0,0.00294117440660988
3839.0,0.002943950905196285
3838.0,0.0029519845279147557
3837.0,0.0029598679493873263
3836.0,0.0029654729383175593
3835.0,0.002970866938989746
3834.0,0.0029763420969419908
3833.0,0.00298019371307281
3832.0,0.0029804652301574667
3831.0,0.0029784165590706598
3830.0,0.002981440659275866
3829.0,0.0029953859382049275
3828.0,0.0030137981891834595
3827.0,0.0030218294990757653
3826.0,0.003012135730792802
3825.0,0.0029966191429809125
3824.0,0.0029948846885025377
3823.0,0.003014095986013753
3822.0,0.003042570260696078
3821.0,0.003051023000830982
3820.0,0.0030249658045641385
3819.0,0.003004042295318773
3818.0,0.003020997668240968
3817.0,0.0030555100724996053
3816.0,0.0030735237423617163
3815.0,0.0030624480398144067
3814.0,0.003046072281975035
3813.0,0.0030491188024263233
3812.0,0.0030600276469733246
3811.0,0.003060068264594067
3810.0,0.0030543533460473792
3809.0,0.0030573306550370632
3808.0,0.0030695701884078724
3807.0,0.0030719606281335785
3806.0,0.0030525108357085783
3805.0,0.003034541381615491
3804.0,0.0030462772682112666
3803.0,0.0030836809105660905
3802.0,0.003118918655616359
3801.0,0.003116617921544396
3800.0,0.0030791962938019335
3799.0,0.0030531290125894624
3798.0,0.003054401137825409
3797.0,0.0030622504240765238
3796.0,0.003062876320509847
3795.0,0.0030599170760844214
3794.0,0.0030643628965045773
3793.0,0.003076966420632767
3792.0,0.0030874325805509226
3791.0,0.0030903900355559585
3790.0,0.0030909269200834963
3789.0,0.003094484256223577
3788.0,0.0031013673271659686
3787.0,0.0031092977112998172
3786.0,0.003115878660058355
3785.0,0.0031178415935540563
3784.0,0.003113796155300364
3783.0,0.0031090584206890162
3782.0,0.0031122079055767825
3781.0,0.0031247741519207515
3780.0,0.0031387136861465523
3779.0,0.003144142282192502
3778.0,0.0031421380632547357
3777.0,0.003145216177825578
3776.0,0.003156633008328226
3775.0,0.003164917128307467
3774.0,0.003162795058289137
3773.0,0.0031581532314578975
3772.0,0.003162531254899466
3771.0,0.0031752234892015244
3770.0,0.0031822533302128834
3769.0,0.0031751141734135697
3768.0,0.003165328849420325
3767.0,0.0031668270447596375
3766.0,0.0031753554142765874
3765.0,0.003178433475038416
3764.0,0.0031748953508191563
3763.0,0.00317688256784602
3762.0,0.003191233296297758
3761.0,0.0032106872772627174
3760.0,0.003226330531778906
3759.0,0.0032359578815427713
3758.0,0.003242724204180974
3757.0,0.0032504931239139305
3756.0,0.003259415718631614
3755.0,0.0032676321888374243
3754.0,0.0032736632711997966
3753.0,0.0032804420061223983
3752.0,0.0032958314795534446
3751.0,0.003318361312124956
3750.0,0.0033316102532815195
3749.0,0.0033310642762818454
3748.0,0.00333238475049695
3747.0,0.003345696306784068
3746.0,0.0033664654374254525
3745.0,0.0033859402240656927
3744.0,0.003382000574776268
3743.0,0.003358402105683735
3742.0,0.0033667574140667797
3741.0,0.003408295632643165
3740.0,0.003433511798962464
3739.0,0.0034295446118527096
3738.0,0.003418592453140386
3737.0,0.003419635126559178
3736.0,0.003430094357826311
3735.0,0.003437935962220624
3734.0,0.00344851535756051
3733.0,0.0034767678032076674
3732.0,0.0035161217799790194
3731.0,0.003548604838672942
3730.0,0.003570947589337857
3729.0,0.003589320249340256
3728.0,0.0036061953220442823
3727.0,0.003622437127297899
3726.0,0.0036389605795607884
3725.0,0.003656403143672972
3724.0,0.0036754618502414004
3723.0,0.0036943146677499645
3722.0,0.003714446831218547
3721.0,0.0037422717200241203
3720.0,0.003781370356512187
3719.0,0.003827516642977506
3718.0,0.003871749899681441
3717.0,0.003907764002281431
3716.0,0.003935488049030361
3715.0,0.003960090754418758
3714.0,0.003989929532502534
3713.0,0.004034921483951572
3712.0,0.004095100214859697
3711.0,0.004151872165541807
3710.0,0.00419441997847182
3709.0,0.004238197192503873
3708.0,0.004298056661570091
3707.0,0.004373020398674248
3706.0,0.004454821421815355
3705.0,0.0045391212052010715
3704.0,0.004626643497798768
3703.0,0.004719149492465979
3702.0,0.004813649557857648
3701.0,0.0049009727131853024
3700.0,0.0049789774033897225
3699.0,0.005055803100689563
3698.0,0.005134306706996418
3697.0,0.005205151123195354
3696.0,0.00525905505294123
3695.0,0.005296739059102155
3694.0,0.005325519649343966
3693.0,0.005348719748693128
3692.0,0.005365807329861819
3691.0,0.005380299924464665
3690.0,0.005400491973836522
3689.0,0.005430318982715417
3688.0,0.005466506563600475
3687.0,0.0055131843245465224
3686.0,0.005576458163333967
3685.0,0.005648050181232135
3684.0,0.005715197667519544
3683.0,0.005779131511131844
3682.0,0.005849632731686404
3681.0,0.005927232212566005
3680.0,0.00599805713049017
3679.0,0.006054829322940956
3678.0,0.006118730947457886
3677.0,0.006225327039030117
3676.0,0.00637238634431773
3675.0,0.00649221310263641
3674.0,0.0065599658420389785
3673.0,0.006639171743348713
3672.0,0.006763700757650015
3671.0,0.006917946833769995
3670.0,0.007076710713128898
3669.0,0.007209274585362415
3668.0,0.007320897972597841
3667.0,0.007443904046789403
3666.0,0.007586695090562872
3665.0,0.00774174323902261
3664.0,0.007903198791796842
3663.0,0.00806561139914959
3662.0,0.008222517003624441
3661.0,0.008369812885973408
3660.0,0.00851019406173455
3659.0,0.008656736167213467
3658.0,0.008828638579559145
3657.0,0.009029698878785974
3656.0,0.009229461850317849
3655.0,0.009394953395614363
3654.0,0.009533621253938317
3653.0,0.009669343431609302
3652.0,0.009818189137694389
3651.0,0.010002132204246877
3650.0,0.010235605318395782
3649.0,0.010490214075000694
3648.0,0.01072385204957588
3647.0,0.010930651498353768
3646.0,0.011130882299961302
3645.0,0.01134320518912569
3644.0,0.011573057191799137
3643.0,0.01181187220795128
3642.0,0.012045185708242107
3641.0,0.012265882107112153
3640.0,0.01247841721392806
3639.0,0.012690810454198979
3638.0,0.012905911502807267
3637.0,0.013125714207421715
3636.0,0.01335441474335419
3635.0,0.01358825479350473
3634.0,0.013811041849343795
3633.0,0.014010022130916684
3632.0,0.014198350359521357
3631.0,0.014416176699451604
3630.0,0.014711032313587283
3629.0,0.015067380627783792
3628.0,0.015389531740912437
3627.0,0.01565270352531556
3626.0,0.015913292946570536
3625.0,0.016183615649426178
3624.0,0.01644247481165973
3623.0,0.016685150196670707
3622.0,0.016928361729684614
3621.0,0.017192608347517315
3620.0,0.01747897659970357
3619.0,0.0177606702222791
3618.0,0.01801461433620215
3617.0,0.018253365338423713
3616.0,0.01850108950863784
3615.0,0.018766562816992405
3614.0,0.019044807786768467
3613.0,0.019321652326976874
3612.0,0.019585775362069922
3611.0,0.019846409027204442
3610.0,0.020126902779275795
3609.0,0.020435854171866424
3608.0,0.020750248741078357
3607.0,0.021039908374286768
3606.0,0.02130428066881908
3605.0,0.021561720499714294
3604.0,0.021819843195774746
3603.0,0.02207552628866947
3602.0,0.022326898127584285
3601.0,0.022573027284588952
3600.0,0.022809182594508863
3599.0,0.023032432465559385
3598.0,0.023249984620555164
3597.0,0.023474356279454784
3596.0,0.023713359961134897
3595.0,0.023964625875438027
3594.0,0.024218710814322406
3593.0,0.024465277584246388
3592.0,0.024698280880921394
3591.0,0.024920909970096456
3590.0,0.025150487972043344
3589.0,0.02541184648549082
3588.0,0.02570606467213372
3587.0,0.025996239690930175
3586.0,0.02625839754676746
3585.0,0.026510444593948232
3584.0,0.026770300721856977
3583.0,0.027036126591775126
3582.0,0.027304987864909144
3581.0,0.027579851028550886
3580.0,0.027861421796969717
3579.0,0.028144801314458397
3578.0,0.02842601089123666
3577.0,0.028702482843400063
3576.0,0.028969755788094534
3575.0,0.02922478086571416
3574.0,0.029472702079672574
3573.0,0.02972146808605419
3572.0,0.02997031119632083
3571.0,0.03021275464148515
3570.0,0.030451192387758008
3569.0,0.03070361699383197
3568.0,0.030986138881001143
3567.0,0.0312848099588243
3566.0,0.03156940394038818
3565.0,0.03183715681647252
3564.0,0.032105937872530986
3563.0,0.032385279039090165
3562.0,0.03267476981399706
3561.0,0.03296952717489284
3560.0,0.033260695758974154
3559.0,0.03354205899823879
3558.0,0.033816873607404645
3557.0,0.034092161103679124
3556.0,0.034370811971311574
3555.0,0.034654298869650636
3554.0,0.034945767287031165
3553.0,0.03524243642438526
3552.0,0.03552978578427074
3551.0,0.03579701180295425
3550.0,0.03605268209069597
3549.0,0.03631537277799968
3548.0,0.03659537793782547
3547.0,0.036890437964647804
3546.0,0.037193348651676596
3545.0,0.03749787950046377
3544.0,0.03779931860186346
3543.0,0.03809513294210124
3542.0,0.038386081548612026
3541.0,0.03867391869164207
3540.0,0.03895883053199698
3539.0,0.03924230204443582
3538.0,0.03952930081526231
3537.0,0.03982226837374509
3536.0,0.0401152070695306
3535.0,0.04040138563447472
3534.0,0.040683061969704296
3533.0,0.040966409028019714
3532.0,0.041252340527186966
3531.0,0.04153924958590311
3530.0,0.0418306704487845
3529.0,0.042130526856233176
3528.0,0.04243427323186842
3527.0,0.04273520410370569
3526.0,0.043036787914866634
3525.0,0.043346622489168804
3524.0,0.043660301818496464
3523.0,0.043963994792485285
3522.0,0.04425443188778248
3521.0,0.04454438160940582
3520.0,0.044846136955081634
3519.0,0.04515882154419635
3518.0,0.04547268724420562
3517.0,0.045779375625022864
3516.0,0.046076668725559704
3515.0,0.04636817205885074
3514.0,0.046659898109751456
3513.0,0.04695510605881202
3512.0,0.04725351226039718
3511.0,0.04755679510986036
3510.0,0.04786940242081877
3509.0,0.048188914431951294
3508.0,0.048503544259716425
3507.0,0.048806699414416704
3506.0,0.04910708465317799
3505.0,0.04941759790308513
3504.0,0.049738525346021585
3503.0,0.050059028264870395
3502.0,0.05037406129677889
3501.0,0.050688933198835086
3500.0,0.05100719889679245
3499.0,0.05132619341933076
3498.0,0.051644164685745717
3497.0,0.051961584904780984
3496.0,0.05227665868306748
3495.0,0.05258820802268227
3494.0,0.05290161619001851
3493.0,0.05322306863815104
3492.0,0.0535493855716313
3491.0,0.05387248399774225
3490.0,0.05419297894109127
3489.0,0.054519542916739216
3488.0,0.054853814142360874
3487.0,0.055185463973804465
3486.0,0.0555053167257169
3485.0,0.05581595587168305
3484.0,0.056127563389727186
3483.0,0.056449050667129776
3482.0,0.05678282726049796
3481.0,0.05712342790290927
3480.0,0.05746168629685094
3479.0,0.05779314496422905
3478.0,0.05812046498174518
3477.0,0.05844603102076417
3476.0,0.05876754796637999
3475.0,0.05908533748707173
3474.0,0.05940820880739119
3473.0,0.059744155385904926
3472.0,0.060088824947006896
3471.0,0.06043048142212994
3470.0,0.06076312842164038
3469.0,0.061088035500724946
3468.0,0.061406549037313976
3467.0,0.06172018960463509
3466.0,0.062035351962259705
3465.0,0.06235854295506822
3464.0,0.06268761429104888
3463.0,0.06301520375556809
3462.0,0.06333915920901657
3461.0,0.06366238442993673
3460.0,0.06398459987496127
3459.0,0.06430292344854703
3458.0,0.06461940813732252
3457.0,0.0649398167308657
3456.0,0.06526522318394576
3455.0,0.0655911443080058
3454.0,0.06591331700335626
3453.0,0.0662284006195856
3452.0,0.0665326878978436
3451.0,0.06682809785140256
3450.0,0.06712700552563153
3449.0,0.06744196657274623
3448.0,0.06777002778656512
3447.0,0.06809463043472043
3446.0,0.06840550255716854
3445.0,0.06870873840357758
3444.0,0.0690155230489064
3443.0,0.06933005861554561
3442.0,0.06964934702138756
3441.0,0.06996787603759641
3440.0,0.07028250159550506
3439.0,0.07059619220517561
3438.0,0.07091527403085725
3437.0,0.07124003101543648
3436.0,0.07156086217695772
3435.0,0.07186825768257402
3434.0,0.0721634683444396
3433.0,0.07245458921232385
3432.0,0.07274613699376482
3431.0,0.07303780382683141
3430.0,0.07332921577598256
3429.0,0.07361909231958358
3428.0,0.07390299489954964
3427.0,0.07417816527199184
3426.0,0.07444838525844262
3425.0,0.07471926003341711
3424.0,0.07499185502280713
3423.0,0.07526524348005771
3422.0,0.07554091956067314
3421.0,0.07581887272432421
3420.0,0.07609295024435062
3419.0,0.0763565748247883
3418.0,0.07661019259188444
3417.0,0.07685863547212685
3416.0,0.07710533022346723
3415.0,0.07735279894084258
3414.0,0.07760335977219435
3413.0,0.07785418599360056
3412.0,0.0780966267216271
3411.0,0.07832561849316484
3410.0,0.07854522248848154
3409.0,0.07876026044063096
3408.0,0.07896835971618173
3407.0,0.0791664965352277
3406.0,0.07935956412730734
3405.0,0.07955493652062422
3404.0,0.07975246683905184
3403.0,0.07994635676787692
3402.0,0.08013330764475098
3401.0,0.08031267629586596
3400.0,0.08048232940565199
3399.0,0.08064112914453353
3398.0,0.08079270423853405
3397.0,0.0809406968353999
3396.0,0.08108305215921532
3395.0,0.08121607576799336
3394.0,0.08134071793192502
3393.0,0.0814593956120036
3392.0,0.08156999948845925
3391.0,0.08166879066661806
3390.0,0.08175596295763896
3389.0,0.08183313892329121
3388.0,0.08189915493702016
3387.0,0.08195354312393459
3386.0,0.08200083106975499
3385.0,0.08204608169358914
3384.0,0.08208863122083802
3383.0,0.08212481862613584
3382.0,0.08215367029731717
3381.0,0.08217554693625714
3380.0,0.0821888222801568
3379.0,0.08219216250797054
3378.0,0.08218695803122508
3377.0,0.08217387780396188
3376.0,0.08215110241034826
3375.0,0.08211974346983893
3374.0,0.08208612105066904
3373.0,0.08205374608550711
3372.0,0.08201725270694073
3371.0,0.08196915156032589
3370.0,0.08190918587042126
3369.0,0.08184253482285404
3368.0,0.0817720026890388
3367.0,0.08169675944814113
3366.0,0.08161595713553729
3365.0,0.08152944013433637
3364.0,0.08143774932902052
3363.0,0.0813444880281368
3362.0,0.08125460944042166
3361.0,0.08116703201226666
3360.0,0.08107356841240124
3359.0,0.08096931921725657
3358.0,0.08085992866255438
3357.0,0.0807544324780834
3356.0,0.08065507940519143
3355.0,0.08055807692522064
3354.0,0.0804596823958762
3353.0,0.0803570550403248
3352.0,0.08024723737247035
3351.0,0.08012977796326497
3350.0,0.08000731660092798
3349.0,0.07988064380021381
3348.0,0.07974737148918495
3347.0,0.0796085029013885
3346.0,0.07947090082133723
3345.0,0.0793389893426579
3344.0,0.07920883109297071
3343.0,0.07907447462421392
3342.0,0.07893513984180452
3341.0,0.07879201626797021
3340.0,0.07864310146199743
3339.0,0.07848638434694125
3338.0,0.07832453958635201
3337.0,0.0781617768909548
3336.0,0.07799929670667674
3335.0,0.07783769325869737
3334.0,0.07767973019121562
3333.0,0.07752639310713975
3332.0,0.07737405428704003
3331.0,0.0772193789235758
3330.0,0.07706295166416025
3329.0,0.07690477963574564
3328.0,0.07674116750075735
3327.0,0.07657052904530126
3326.0,0.07639818502698219
3325.0,0.07623064592212342
3324.0,0.07606839671567717
3323.0,0.07590808525097133
3322.0,0.07574788239490214
3321.0,0.07558676051903833
3320.0,0.07542261949954109
3319.0,0.07525549553946143
3318.0,0.07508894349090202
3317.0,0.07492426260278318
3316.0,0.07475739850210777
3315.0,0.07458571299773616
3314.0,0.07441391080306652
3313.0,0.0742488129014219
3312.0,0.07409123579143198
3311.0,0.07393669479968082
3310.0,0.07378079482392087
3309.0,0.07362043361372739
3308.0,0.07345405411946869
3307.0,0.07328536277420579
3306.0,0.07312321211149114
3305.0,0.07297295649364773
3304.0,0.07283019389292357
3303.0,0.07268644304321073
3302.0,0.07253789994931045
3301.0,0.07238519147314035
3300.0,0.07222874800003658
3299.0,0.07206998724159636
3298.0,0.07191456268899199
3297.0,0.07176878231300773
3296.0,0.07163293469739107
3295.0,0.07150092650488642
3294.0,0.07136540344692408
3293.0,0.07122163920816232
3292.0,0.07106936746232814
3291.0,0.07091370151681016
3290.0,0.07076220744002071
3289.0,0.07061853867961748
3288.0,0.07048012156852473
3287.0,0.070342569502413
3286.0,0.07020338389321748
3285.0,0.07006063225727369
3284.0,0.06991235435040759
3283.0,0.06975946292957011
3282.0,0.06960576669001996
3281.0,0.06945337175773782
3280.0,0.06930160045653004
3279.0,0.06915156267360993
3278.0,0.06900674921923189
3277.0,0.06886663120228956
3276.0,0.06872461883508632
3275.0,0.0685759700480669
3274.0,0.06842375204593282
3273.0,0.06827370947110295
3272.0,0.0681273560037156
3271.0,0.06798352895482551
3270.0,0.06784250171447691
3269.0,0.06770435908600261
3268.0,0.06756637452732218
3267.0,0.06742587502426113
3266.0,0.06728373519093268
3265.0,0.06714249191768602
3264.0,0.06700339645748002
3263.0,0.0668673133811879
3262.0,0.06673569565055788
3261.0,0.0666085850118263
3260.0,0.06648439530225878
3259.0,0.06636338564866733
3258.0,0.06624808979582295
3257.0,0.06613845136541413
3256.0,0.06602999709276895
3255.0,0.06591891554778001
3254.0,0.06580531569585465
3253.0,0.06568953650615125
3252.0,0.06556951206449028
3251.0,0.06544433116387728
3250.0,0.0653160774895785
3249.0,0.06518475386404636
3248.0,0.06504475954629868
3247.0,0.06488994473767355
3246.0,0.06472005638015003
3245.0,0.06453967445709126
3244.0,0.06435304421861364
3243.0,0.06416192165887678
3242.0,0.06396558222521684
3241.0,0.06376049555968226
3240.0,0.06354268527250155
3239.0,0.06331281007014813
3238.0,0.06307664638133799
3237.0,0.06283889620650508
3236.0,0.06259925242822244
3235.0,0.06235596476736534
3234.0,0.06210950156424229
3233.0,0.061860536235481406
3232.0,0.061608271736269114
3231.0,0.06135386599610626
3230.0,0.06110228780620465
3229.0,0.06085721876173533
3228.0,0.06061607615189318
3227.0,0.060372785410916
3226.0,0.060123813286441036
3225.0,0.05986969750098561
3224.0,0.05961305854490719
3223.0,0.05935709725806976
3222.0,0.059103751384812664
3221.0,0.058851502801558944
3220.0,0.05859720006729905
3219.0,0.05834122753396152
3218.0,0.0580877721213492
3217.0,0.05783841083117387
3216.0,0.057588941195486396
3215.0,0.05733493669814806
3214.0,0.0570773750857992
3213.0,0.056819946338609414
3212.0,0.056563556095715284
3211.0,0.0563068091028888
3210.0,0.05604984898740329
3209.0,0.05579449194062093
3208.0,0.05554163474733283
3207.0,0.0552906461176785
3206.0,0.05504009306666203
3205.0,0.054787540666012616
3204.0,0.054530422729319586
3203.0,0.0542686014740869
3202.0,0.05400411657663244
3201.0,0.0537372364197963
3200.0,0.05346548662205284
3199.0,0.05318840382471423
3198.0,0.052910474372039204
3197.0,0.052636660665283656
3196.0,0.052366927331244685
3195.0,0.05209767924768859
3194.0,0.051826881094891954
3193.0,0.05155566760317683
3192.0,0.05128641537107806
3191.0,0.05102086565340809
3190.0,0.05075860331001853
3189.0,0.050495909584413703
3188.0,0.05022775405088615
3187.0,0.04995245448606746
3186.0,0.049673109643317205
3185.0,0.049393679799200826
3184.0,0.049115920192920264
3183.0,0.048841183086488396
3182.0,0.048571812269966146
3181.0,0.048307826558138256
3180.0,0.048044330923216264
3179.0,0.04777535153217223
3178.0,0.04749955433717145
3177.0,0.04722029789487198
3176.0,0.0469409530972785
3175.0,0.046662104605993605
3174.0,0.04638288804896146
3173.0,0.04610365482227527
3172.0,0.04582731097476838
3171.0,0.04555779816428018
3170.0,0.04529567512648653
3169.0,0.04503522751730788
3168.0,0.044768677675030726
3167.0,0.04449423625149189
3166.0,0.04421757896340627
3165.0,0.04394466371863791
3164.0,0.043676045025702624
3163.0,0.04340953091150804
3162.0,0.04314516770901286
3161.0,0.04288449135136331
3160.0,0.042626495591177115
3159.0,0.042367661455248194
3158.0,0.042106040421530766
3157.0,0.041843816161569264
3156.0,0.0415858661072441
3155.0,0.04133573581508985
3154.0,0.04109167917830112
3153.0,0.04084673624681671
3152.0,0.040594709712592006
3151.0,0.0403365841704665
3150.0,0.040079343031999004
3149.0,0.03982819539901665
3148.0,0.039582252814425456
3147.0,0.03933791524103085
3146.0,0.039093132478671605
3145.0,0.03884752328019445
3144.0,0.03860175432393019
3143.0,0.038358386049069486
3142.0,0.03812055653698663
3141.0,0.0378881247226343
3140.0,0.03765710399028155
3139.0,0.037424203040040696
3138.0,0.037189810089736104
3137.0,0.03695557075303477
3136.0,0.03672217214007321
3135.0,0.036491058213329354
3134.0,0.03626531298957115
3133.0,0.0360465955731879
3132.0,0.035832872240636936
3131.0,0.035620711266860484
3130.0,0.03540804935460777
3129.0,0.035193952899620316
3128.0,0.03497878813633321
3127.0,0.034765656145705245
3126.0,0.03455805558259378
3125.0,0.03435489335682938
3124.0,0.034151474076538506
3123.0,0.03394708337731291
3122.0,0.033747158066422575
3121.0,0.033554806789902136
3120.0,0.03336481598471431
3119.0,0.03317032142192738
3118.0,0.03297206934677418
3117.0,0.03277684226818734
3116.0,0.032588648859387524
3115.0,0.032405466164571704
3114.0,0.03222363073946729
3113.0,0.032041681080930355
3112.0,0.03186056354051959
3111.0,0.0316829355597936
3110.0,0.031511276757267455
3109.0,0.031344660046217776
3108.0,0.031178841829735383
3107.0,0.031011567723870342
3106.0,0.030845678483487717
3105.0,0.03068458343486781
3104.0,0.030527391493248752
3103.0,0.030371135701628544
3102.0,0.030215341429450846
3101.0,0.03006148502810251
3100.0,0.029909865709111354
3099.0,0.029760391116958974
3098.0,0.029614683747624868
3097.0,0.02947432692959625
3096.0,0.029338464354356227
3095.0,0.029205058809134116
3094.0,0.029072756139404566
3093.0,0.02893934636377025
3092.0,0.02880132549906144
3091.0,0.02865862214371439
3090.0,0.028516980122803976
3089.0,0.028381682350495274
3088.0,0.028250177390986272
3087.0,0.028114587482729745
3086.0,0.027970766187508433
3085.0,0.02782114362124387
3084.0,0.02766999821820963
3083.0,0.02751957883906609
3082.0,0.027370180732030024
3081.0,0.027220901245612047
3080.0,0.027070464066920895
3079.0,0.026919985865785354
3078.0,0.02677395579281528
3077.0,0.026635579140324665
3076.0,0.026501655589083937
3075.0,0.02636503107070274
3074.0,0.026222101125335594
3073.0,0.02607534179519838
3072.0,0.025929292147738443
3071.0,0.025786709637789677
3070.0,0.025648385312760907
3069.0,0.02551392197552255
3068.0,0.02538157839857567
3067.0,0.02524882590795928
3066.0,0.025113950422179787
3065.0,0.024977098704268404
3064.0,0.024840285479857446
3063.0,0.024706257418655966
3062.0,0.02457565049575956
3061.0,0.024445045998367814
3060.0,0.024309703299900922
3059.0,0.02416901220750759
3058.0,0.024026925668987516
3057.0,0.023886373522446998
3056.0,0.023746527431184397
3055.0,0.023606688082164182
3054.0,0.02346948036581201
3053.0,0.02333733407721042
3052.0,0.023208951827407554
3051.0,0.02308192807116628
3050.0,0.022956058901876908
3049.0,0.022831274130426682
3048.0,0.0227049181663061
3047.0,0.022575014023760765
3046.0,0.02244433901986564
3045.0,0.02231812105488022
3044.0,0.022198649137624163
3043.0,0.02208456443885154
3042.0,0.021973813244604956
3041.0,0.021864438737381364
3040.0,0.021754065286589908
3039.0,0.021641378814114726
3038.0,0.02152708104836202
3037.0,0.02141154532790962
3036.0,0.021293324552276414
3035.0,0.021172027691642434
3034.0,0.021050411956528157
3033.0,0.02093120012625779
3032.0,0.020814256924024863
3031.0,0.02069913223429557
3030.0,0.020586981693863138
3029.0,0.02047647743682219
3028.0,0.020361574776066323
3027.0,0.02023822955854264
3026.0,0.02011150264985046
3025.0,0.019990746026195216
3024.0,0.019878938567670593
3023.0,0.019771366599537807
3022.0,0.01966351975709608
3021.0,0.019555300421089033
3020.0,0.019447513054038478
3019.0,0.019339581908892484
3018.0,0.019231807218905196
3017.0,0.019126210569993047
3016.0,0.019023953401054634
3015.0,0.01892429427555522
3014.0,0.018826378275123953
3013.0,0.018729992999367263
3012.0,0.018634849793829105
3011.0,0.018541187069940276
3010.0,0.018450452521698794
3009.0,0.01836332234230751
3008.0,0.018278158342383777
3007.0,0.018193408597732837
3006.0,0.018110109172278385
3005.0,0.018029773038501617
3004.0,0.017951572670332268
3003.0,0.01787443157471383
3002.0,0.01780009334983155
3001.0,0.017730934645124135
3000.0,0.017666355834631914
2999.0,0.0176048545322996
2998.0,0.017548226578719597
2997.0,0.017499906951783096
2996.0,0.01745990916357699
2995.0,0.017425222220001643
2994.0,0.017394823830552516
2993.0,0.01737072942358676
2992.0,0.01735413167448504
2991.0,0.017344088989191046
2990.0,0.017340306118900282
2989.0,0.017344130835995196
2988.0,0.01735629593728519
2987.0,0.017376148969195013
2986.0,0.017403316772118583
2985.0,0.017437833592213146
2984.0,0.017478823403757563
2983.0,0.01752572443082902
2982.0,0.017581203465535558
2981.0,0.017650368445070244
2980.0,0.01773641887433504
2979.0,0.01783821542362927
2978.0,0.017952230460268736
2977.0,0.01807580983603293
2976.0,0.01820898968827948
2975.0,0.01835451472002145
2974.0,0.018515882171297945
2973.0,0.01869493018159623
2972.0,0.01889184580142883
2971.0,0.019107194323287023
2970.0,0.01934149976615704
2969.0,0.019592251031266144
2968.0,0.019854396502919536
2967.0,0.020125294290329034
2966.0,0.020405993445368503
2965.0,0.020696365795481605
2964.0,0.020992925816133094
2963.0,0.021294171135237194
2962.0,0.021603268423915856
2961.0,0.021920659879564486
2960.0,0.022237155098495463
2959.0,0.02253974431408543
2958.0,0.022824069164827956
2957.0,0.023096994795319865
2956.0,0.023368284875483942
2955.0,0.0236439455372587
2954.0,0.02392814524300502
2953.0,0.024229002887665944
2952.0,0.02456279022666999
2951.0,0.024954492888124402
2950.0,0.02543363630795337
2949.0,0.026027450321110517
2948.0,0.026756939851290285
2947.0,0.02764036672884699
2946.0,0.028697458989834435
2945.0,0.029947568517816287
2944.0,0.0314050106922727
2943.0,0.03307688652041249
2942.0,0.034965035438740216
2941.0,0.037070229143253614
2940.0,0.03939695330969028
2939.0,0.04195617663212148
2938.0,0.044761952406763506
2937.0,0.04782645736198393
2936.0,0.05116285703553288
2935.0,0.054791819901333146
2934.0,0.05873920369092583
2933.0,0.06302798831047476
2932.0,0.06767914296806692
2931.0,0.07272146780940997
2930.0,0.07819648884096035
2929.0,0.08415638743392201
2928.0,0.09066873230163085
2927.0,0.09782454455247591
2926.0,0.1057258780697974
2925.0,0.11445427765380504
2924.0,0.12403848527857406
2923.0,0.13442518464213038
2922.0,0.14544384410886713
2921.0,0.15676788243606066
2920.0,0.16787578576071582
2919.0,0.17799857003851252
2918.0,0.1861171472909487
2917.0,0.19112652991428375
2916.0,0.1922030946748175
2915.0,0.18916667152682326
2914.0,0.18256577509516395
2913.0,0.17348205704913566
2912.0,0.1631571004974853
2911.0,0.15265692791388202
2910.0,0.14271005672078876
2909.0,0.13369901993037767
2908.0,0.12576156885743603
2907.0,0.118888865950471
2906.0,0.1129923965606109
2905.0,0.10794521872937228
2904.0,0.10361062185896466
2903.0,0.09985794199291777
2902.0,0.09656540293495204
2901.0,0.09362463187946586
2900.0,0.09094433503753069
2899.0,0.0884512538425181
2898.0,0.0860850726557366
2897.0,0.08379604804740358
2896.0,0.08154622593983768
2895.0,0.07930875498910799
2894.0,0.07706676145658263
2893.0,0.07481182555557153
2892.0,0.07254265743895844
2891.0,0.07026183396585083
2890.0,0.06797210655190203
2889.0,0.06567739547119501
2888.0,0.06338447001069591
2887.0,0.06110176804578999
2886.0,0.058837236213377254
2885.0,0.05659735863111024
2884.0,0.054387493521121794
2883.0,0.05221217829152542
2882.0,0.050076423755889554
2881.0,0.04798864367334677
2880.0,0.045962041229673775
2879.0,0.04401505552479404
2878.0,0.0421711269619736
2877.0,0.040457424553279095
2876.0,0.03890054460011977
2875.0,0.03752066660219208
2874.0,0.03632878187809965
2873.0,0.03532738539325156
2872.0,0.03451477264582279
2871.0,0.03389054726878339
2870.0,0.03346132502569131
2869.0,0.03324376930132536
2868.0,0.03326532238727047
2867.0,0.03356586185162035
2866.0,0.03419855701502935
2865.0,0.0352257321379511
2864.0,0.036713304006532194
2863.0,0.03872991642664116
2862.0,0.041352856431140166
2861.0,0.04467376815499752
2860.0,0.0487999618271192
2859.0,0.05385248766679415
2858.0,0.05997000028811364
2857.0,0.06731346314215636
2856.0,0.07607961147461935
2855.0,0.086489792451737
2854.0,0.09872564503017413
2853.0,0.11274494991600098
2852.0,0.12794782040553646
2851.0,0.14282057897310052
2850.0,0.1548860723932008
2849.0,0.16142942145484737
2848.0,0.16083844598224592
2847.0,0.15353326434900547
2846.0,0.14157082226174333
2845.0,0.1274779215848802
2844.0,0.11328023381544071
2843.0,0.10019163627860399
2842.0,0.08874756884499753
2841.0,0.07905227030855688
2840.0,0.07098076185727731
2839.0,0.06431078643385493
2838.0,0.05879040869151289
2837.0,0.054189385241054246
2836.0,0.05031985197347169
2835.0,0.04703734567507452
2834.0,0.04423209292901154
2833.0,0.04181298555795597
2832.0,0.039703829103727294
2831.0,0.037842346726065776
2830.0,0.03618318471725816
2829.0,0.03469354416095499
2828.0,0.033346704988544716
2827.0,0.03211984378094244
2826.0,0.030996278830514257
2825.0,0.029966234759513447
2824.0,0.029023375222319882
2823.0,0.028160073457405434
2822.0,0.027365310399691103
2821.0,0.026625629160880307
2820.0,0.025929494022641542
2819.0,0.02527179627512463
2818.0,0.02465374056299299
2817.0,0.024077083876940106
2816.0,0.02353907502171398
2815.0,0.023033286199557572
2814.0,0.022553305453392163
2813.0,0.022094756446340978
2812.0,0.0216558251664048
2811.0,0.021237201694689827
2810.0,0.020839775481093083
2809.0,0.020460713491741993
2808.0,0.020094074034355994
2807.0,0.019736901247853798
2806.0,0.019392148286508232
2805.0,0.01906357068379359
2804.0,0.018750627347993768
2803.0,0.018450361918819994
2802.0,0.01816090328190088
2801.0,0.017880243230680316
2800.0,0.01760480471345017
2799.0,0.017333522957550303
2798.0,0.01707077447467324
2797.0,0.016820661585639586
2796.0,0.016580025325557624
2795.0,0.0163411309801529
2794.0,0.016099904887232595
2793.0,0.01585787562974442
2792.0,0.015617380603836915
2791.0,0.015379205273068165
2790.0,0.015144458810370583
2789.0,0.01491465453350635
2788.0,0.014689775561020958
2787.0,0.01446920176676423
2786.0,0.014254108703474795
2785.0,0.014046406803494052
2784.0,0.013846220689434646
2783.0,0.013652917336387618
2782.0,0.013467262413338527
2781.0,0.013289679846640791
2780.0,0.013117866005444243
2779.0,0.012949316218664584
2778.0,0.012784922485463817
2777.0,0.01262696986119814
2776.0,0.012475161367087395
2775.0,0.01232783359071617
2774.0,0.01218566419463014
2773.0,0.012050748698289811
2772.0,0.011922995529410533
2771.0,0.011800539327542017
2770.0,0.01168232440588168
2769.0,0.011567367046966497
2768.0,0.011453477134532965
2767.0,0.011340176895348084
2766.0,0.011231080507863532
2765.0,0.011129622614898717
2764.0,0.011033832375298435
2763.0,0.010938968540752839
2762.0,0.010843846212999761
2761.0,0.010750568640510983
2760.0,0.01065974858635758
2759.0,0.01057040868518858
2758.0,0.010483388583308998
2757.0,0.010400585046243048
2756.0,0.010321401778963837
2755.0,0.010243557332060855
2754.0,0.010166638596782107
2753.0,0.010091703316875589
2752.0,0.01001889133410373
2751.0,0.009948934781750789
2750.0,0.009885286166159107
2749.0,0.009830571451542184
2748.0,0.009781999266091801
2747.0,0.009734122204313075
2746.0,0.009685148776060021
2745.0,0.009636789227379415
2744.0,0.009589639679777977
2743.0,0.009543009108528433
2742.0,0.009497745227917458
2741.0,0.009454736656825872
2740.0,0.00941157372814112
2739.0,0.009364992778798245
2738.0,0.009315527570379812
2737.0,0.009265544530260041
2736.0,0.009214081891197141
2735.0,0.009158325615816289
2734.0,0.009099412131161052
2733.0,0.009041718306293859
2732.0,0.00898638335165713
2731.0,0.008930172287371398
2730.0,0.008870839669062025
2729.0,0.008809583174552446
2728.0,0.008748140175555072
2727.0,0.008687319584569612
2726.0,0.008628582339046398
2725.0,0.00857341870466706
2724.0,0.008520806962961532
2723.0,0.008468212137356863
2722.0,0.008414970518373024
2721.0,0.008362079527593992
2720.0,0.00830959118838237
2719.0,0.008257412004168284
2718.0,0.00820755484952695
2717.0,0.008162075083857459
2716.0,0.008119542419368906
2715.0,0.008076621161619257
2714.0,0.008032167733211417
2713.0,0.007986833612967748
2712.0,0.007940402739855933
2711.0,0.007893073509904872
2710.0,0.00784757080745939
2709.0,0.0078056624588210295
2708.0,0.007763983362547742
2707.0,0.007717894180721696
2706.0,0.0076684765136339934
2705.0,0.007621444125354435
2704.0,0.007579600947113775
2703.0,0.00754059555883106
2702.0,0.007501546452740293
2701.0,0.00746183390819307
2700.0,0.007421707468247857
2699.0,0.00738198318704913
2698.0,0.007344921884448253
2697.0,0.007312120265945104
2696.0,0.007282150816118218
2695.0,0.007253141271296012
2694.0,0.007226302330998105
2693.0,0.0072034395987454845
2692.0,0.007182909657203185
2691.0,0.007162137968645286
2690.0,0.0071423999285170695
2689.0,0.007126565685172519
2688.0,0.007113364761422501
2687.0,0.007098760312737352
2686.0,0.00708216746329342
2685.0,0.007066570962654337
2684.0,0.00705298317531597
2683.0,0.0070393189358075375
2682.0,0.007024710374059051
2681.0,0.0070107932729220005
2680.0,0.006998853003352492
2679.0,0.006989394712940095
2678.0,0.006983846891600577
2677.0,0.006982830320081905
2676.0,0.0069834457111186
2675.0,0.006982224123281522
2674.0,0.006980109946049407
2673.0,0.006980750555750342
2672.0,0.006984910561583845
2671.0,0.006990660113246883
2670.0,0.006997804759556018
2669.0,0.007007421759466029
2668.0,0.007017799687809579
2667.0,0.0070259989428998965
2666.0,0.00703316543456573
2665.0,0.007043419121007443
2664.0,0.007057199598499968
2663.0,0.007070316926160538
2662.0,0.007079927129255243
2661.0,0.007087063181214407
2660.0,0.007092567247465378
2659.0,0.007094769325296227
2658.0,0.007092395470936454
2657.0,0.00708620150303782
2656.0,0.007076734736860662
2655.0,0.0070636360457280375
2654.0,0.007047964927490568
2653.0,0.007032435299765403
2652.0,0.007018689318713341
2651.0,0.007006802865997979
2650.0,0.006997304185764716
2649.0,0.006990790656643997
2648.0,0.006985852538784527
2647.0,0.006980514750555471
2646.0,0.0069757553304578964
2645.0,0.006974903447517233
2644.0,0.006979736365415616
2643.0,0.0069893460779096375
2642.0,0.0070016542087802495
2641.0,0.007013375831439814
2640.0,0.007020345939791743
2639.0,0.007021630760284427
2638.0,0.00702175984828268
2637.0,0.007024840640121044
2636.0,0.0070276838524756195
2635.0,0.007022617440120833
2634.0,0.007006094141033283
2633.0,0.0069804636845192765
2632.0,0.006948854480046948
2631.0,0.006912777738021624
2630.0,0.006873713182708903
2629.0,0.006832720137349212
2628.0,0.00678903629542508
2627.0,0.006742844405732433
2626.0,0.006697908037766678
2625.0,0.006657352765188779
2624.0,0.006618565723616712
2623.0,0.006576931235957859
2622.0,0.006532749252997042
2621.0,0.006489659574997757
2620.0,0.006448150478682813
2619.0,0.006406127085901427
2618.0,0.006364375812756217
2617.0,0.006325652399357973
2616.0,0.006289364272028945
2615.0,0.006252619411403212
2614.0,0.006215666790037183
2613.0,0.006180943321623341
2612.0,0.006147755038809627
2611.0,0.0061131716836405605
2610.0,0.006077159922701541
2609.0,0.006041634155743047
2608.0,0.006005605089719777
2607.0,0.005966781585957567
2606.0,0.005927123739981365
2605.0,0.005891809950491313
2604.0,0.005863404326910816
2603.0,0.005841054007399363
2602.0,0.005823274915798656
2601.0,0.005806814042304645
2600.0,0.005785773392859172
2599.0,0.005757587778291489
2598.0,0.005727219800385661
2597.0,0.0056999257008392215
2596.0,0.0056729596961420945
2595.0,0.005640805043430237
2594.0,0.005605248498259546
2593.0,0.005572740867013294
2592.0,0.005544611088347207
2591.0,0.0055175552764497645
2590.0,0.005491510603473352
2589.0,0.005468915507221586
2588.0,0.005447585792546355
2587.0,0.005422499415803305
2586.0,0.005393772435139839
2585.0,0.005365723736696556
2584.0,0.0053392239590139695
2583.0,0.0053120301688122686
2582.0,0.00528521950742293
2581.0,0.00526184634732118
2580.0,0.005240278412748035
2579.0,0.005216174368794609
2578.0,0.005190226437454222
2577.0,0.005167312277195606
2576.0,0.005149088999400948
2575.0,0.005133691961722036
2574.0,0.005120877134904701
2573.0,0.005110448883357523
2572.0,0.005097460134955303
2571.0,0.005076601087418955
2570.0,0.00505054192136896
2569.0,0.005027458474702561
2568.0,0.005011299710070023
2567.0,0.00499971130830092
2566.0,0.004989135470510208
2565.0,0.0049763507310727085
2564.0,0.004958196610087122
2563.0,0.0049360141488785075
2562.0,0.004916853575055821
2561.0,0.004903894148119919
2560.0,0.004890238981272476
2559.0,0.004869457052100863
2558.0,0.004846927598087646
2557.0,0.0048319273784720815
2556.0,0.004823465908945095
2555.0,0.0048138197024933296
2554.0,0.004802002787582492
2553.0,0.0047927635652300635
2552.0,0.004785467899958276
2551.0,0.004775550723935952
2550.0,0.004764842783285109
2549.0,0.0047590483507491
2548.0,0.004755734055182923
2547.0,0.004745486455578176
2546.0,0.004725097993218627
2545.0,0.004700178566595854
2544.0,0.004675149975627842
2543.0,0.0046498575940739
2542.0,0.0046255560599906525
2541.0,0.004605085334037755
2540.0,0.004587049079009313
2539.0,0.004568376389232268
2538.0,0.004552307925098585
2537.0,0.004545567578639279
2536.0,0.004548153977167066
2535.0,0.004553661040898649
2534.0,0.004558716773543819
2533.0,0.004564432798183291
2532.0,0.004570089036496556
2531.0,0.004573702322975716
2530.0,0.004577422502248497
2529.0,0.004583975509167087
2528.0,0.004589005840899149
2527.0,0.004585170886613538
2526.0,0.0045728754594411055
2525.0,0.004559135550222457
2524.0,0.004547112099388018
2523.0,0.004534467218568123
2522.0,0.004520187587401406
2521.0,0.004504831578663618
2520.0,0.004485760026863627
2519.0,0.004460519525203728
2518.0,0.00443388390209542
2517.0,0.00441380130798156
2516.0,0.004401292830483946
2515.0,0.004391198980800001
2514.0,0.004380866632836953
2513.0,0.0043711187968803545
2512.0,0.004361426008455873
2511.0,0.004351371475620664
2510.0,0.004343849071610576
2509.0,0.004339679149667967
2508.0,0.004332889601523404
2507.0,0.004319106701211659
2506.0,0.004304242354532259
2505.0,0.0042961274600795945
2504.0,0.004291968621090899
2503.0,0.00428368967807436
2502.0,0.004271422750825984
2501.0,0.004261385207948283
2500.0,0.0042542366338703674
2499.0,0.0042463527408903926
2498.0,0.004239378029742802
2497.0,0.004237342218409787
2496.0,0.0042367879862165525
2495.0,0.004231002974474168
2494.0,0.004222208807340993
2493.0,0.004218397498785211
2492.0,0.004219256380481403
2491.0,0.004216245270565326
2490.0,0.004206236527082952
2489.0,0.004194981261034017
2488.0,0.0041874230627526685
2487.0,0.004183758162253753
2486.0,0.004183984965110531
2485.0,0.004187102989518337
2484.0,0.004187128042833876
2483.0,0.004179113409951372
2482.0,0.004167799091872077
2481.0,0.004161723808589193
2480.0,0.004161030414596013
2479.0,0.004160223291774968
2478.0,0.004159958166614128
2477.0,0.004165144459770966
2476.0,0.004173062337444537
2475.0,0.004174657656629911
2474.0,0.00416734124475623
2473.0,0.00415629977822034
2472.0,0.004143600013715532
2471.0,0.004126311874546568
2470.0,0.00410567195583241
2469.0,0.004088392105471651
2468.0,0.004077916078708495
2467.0,0.004072276016118456
2466.0,0.004070155137503604
2465.0,0.004071110338437831
2464.0,0.00407104878756597
2463.0,0.004066161428001632
2462.0,0.00406053636331146
2461.0,0.00406163726610019
2460.0,0.0040693099508526355
2459.0,0.0040772632995003145
2458.0,0.004083565969506388
2457.0,0.004090898200540364
2456.0,0.004097973242482102
2455.0,0.00409973632073693
2454.0,0.00409538898902991
2453.0,0.004088344028612903
2452.0,0.004079706890724345
2451.0,0.004069610807313255
2450.0,0.004062647290289353
2449.0,0.004063127894827857
2448.0,0.00406680462770858
2447.0,0.004066026974362348
2446.0,0.004061166632923011
2445.0,0.004058332407406239
2444.0,0.004058198553644205
2443.0,0.004056181583649188
2442.0,0.004051531452599599
2441.0,0.004047200335984664
2440.0,0.004042786545255608
2439.0,0.004036528418025748
2438.0,0.004032073651177686
2437.0,0.004034346644069691
2436.0,0.004040924129471368
2435.0,0.004045983746095686
2434.0,0.004049618181405692
2433.0,0.004054204479640904
2432.0,0.004055416826586527
2431.0,0.004047627559798801
2430.0,0.004035736985342765
2429.0,0.004030934781977826
2428.0,0.004036181610042969
2427.0,0.0040452839300261926
2426.0,0.00405388581064992
2425.0,0.004061518359050942
2424.0,0.004065514554559471
2423.0,0.0040636939238226245
2422.0,0.004061409095066016
2421.0,0.0040657066219453334
2420.0,0.004074238432500734
2419.0,0.004079747307152364
2418.0,0.00408284318240572
2417.0,0.004089570666264317
2416.0,0.004098527496890231
2415.0,0.004101610545766327
2414.0,0.004096687368173852
2413.0,0.004089065495781965
2412.0,0.0040809296273048665
2411.0,0.00406933795195849
2410.0,0.004054452243561769
2409.0,0.004040156289897738
2408.0,0.004026468807384166
2407.0,0.004010502159882729
2406.0,0.003994831190327254
2405.0,0.0039859616349570345
2404.0,0.003984549408118561
2403.0,0.003985007599466466
2402.0,0.00398390089273
2401.0,0.003981475870097574
2400.0,0.0039767076127011245
2399.0,0.003968555772232831
2398.0,0.003960386619129492
2397.0,0.003955624934248625
2396.0,0.003951163650876134
2395.0,0.003942719488822011
2394.0,0.003933825184521026
2393.0,0.003931075712653921
2392.0,0.0039334749243037275
2391.0,0.003935088898806797
2390.0,0.003935074239638337
2389.0,0.003936201222107275
2388.0,0.003936196120496668
2387.0,0.003930376614440477
2386.0,0.003921252299714341
2385.0,0.003915925903288421
2384.0,0.003914822707135141
2383.0,0.0039120224925146396
2382.0,0.003906166409322504
2381.0,0.003901522106909734
2380.0,0.003897496259333752
2379.0,0.0038869134427443938
2378.0,0.0038672832395243092
2377.0,0.003843326312790889
2376.0,0.003814756044734635
2375.0,0.0037751371697418434
2374.0,0.00372739254672229
2373.0,0.0036865652590524116
2372.0,0.003663341712838218
2371.0,0.00365641753313517
2370.0,0.0036648836832458833
2369.0,0.0036874776498706466
2368.0,0.003708485569025582
2367.0,0.0037125809278237727
2366.0,0.0037190801835485596
2365.0,0.00376363013544276
2364.0,0.003835583084772113
2363.0,0.0038820285594546233
2362.0,0.0038899855860472336
2361.0,0.0038941045332827467
2360.0,0.003909816347257824
2359.0,0.003925922380252257
2358.0,0.003937791154206618
2357.0,0.003956062339941243
2356.0,0.003973887779108015
2355.0,0.003970966306434046
2354.0,0.00396394738567916
2353.0,0.00397800079860617
2352.0,0.004010441089455135
2351.0,0.004024816987758226
2350.0,0.004002254913674788
2349.0,0.003973999205818931
2348.0,0.003974488267525381
2347.0,0.004020093760107535
2346.0,0.00409525683652278
2345.0,0.004170132169626277
2344.0,0.004220114824905951
2343.0,0.004230636272966279
2342.0,0.00423382741004189
2341.0,0.0042483272440321275
2340.0,0.004270145528514724
2339.0,0.004286623367412497
2338.0,0.004301609790766865
2337.0,0.0043302630619866675
2336.0,0.004362608040075954
2335.0,0.004380906317090358
2334.0,0.004381494644339877
2333.0,0.004384745512018776
2332.0,0.004396689513080215
2331.0,0.004415240752059675
2330.0,0.004432439312275557
2329.0,0.004470179620892694
2328.0,0.004526089843835374
2327.0,0.004611283809879807
2326.0,0.00472009529259263
2325.0,0.004836849092831309
2324.0,0.004916050844538439
2323.0,0.004916298526428198
2322.0,0.00485602738239773
2321.0,0.004783167438778839
2320.0,0.004729459595223659
2319.0,0.004691238932058817
2318.0,0.004661714282988321
2317.0,0.00464899907036932
2316.0,0.004648561392529
2315.0,0.0046558839706483555
2314.0,0.004660658253816637
2313.0,0.004669350537411317
2312.0,0.004674180806237161
2311.0,0.004679144207255735
2310.0,0.004686731893741976
2309.0,0.004707141095153821
2308.0,0.004725944544725435
2307.0,0.004734105855477705
2306.0,0.004733269548305648
2305.0,0.004739346640554255
2304.0,0.0047486638448728
2303.0,0.004751298310442565
2302.0,0.00474353692237246
2301.0,0.0047376577775245995
2300.0,0.0047349671672289265
2299.0,0.004733684503145848
2298.0,0.004734022999509733
2297.0,0.004745617433311476
2296.0,0.004763742904526124
2295.0,0.004779992360968398
2294.0,0.004792934005414434
2293.0,0.004812847354993181
2292.0,0.0048390255239640495
2291.0,0.004861362887639744
2290.0,0.00487658513019264
2289.0,0.004893315114982648
2288.0,0.004916397083199271
2287.0,0.004940241773559107
2286.0,0.004960854593845994
2285.0,0.004978160953626012
2284.0,0.004988503319418578
2283.0,0.004985075182177219
2282.0,0.0049704081061381
2281.0,0.0049524027607554585
2280.0,0.004931380043392029
2279.0,0.0049027418851896555
2278.0,0.004873218891020459
2277.0,0.004855751934986369
2276.0,0.004849416422072627
2275.0,0.004841740337930096
2274.0,0.004830620231976142
2273.0,0.0048268380890128465
2272.0,0.0048321868972520995
2271.0,0.004835118761517884
2270.0,0.004828205476159386
2269.0,0.004813321417992642
2268.0,0.0047892558792430266
2267.0,0.004753391673520973
2266.0,0.004715936305244753
2265.0,0.004693626188737633
2264.0,0.004687612063949016
2263.0,0.004686360602217573
2262.0,0.0046879392443165396
2261.0,0.004699935747344263
2260.0,0.004718950706426103
2259.0,0.004730414968111975
2258.0,0.004730230307022122
2257.0,0.004724528859743351
2256.0,0.004711631371062065
2255.0,0.004685357400032065
2254.0,0.004656221460413448
2253.0,0.004645246875028131
2252.0,0.0046547507664379375
2251.0,0.0046677306542193585
2250.0,0.004675174591775605
2249.0,0.00468327494560302
2248.0,0.004692970588670816
2247.0,0.004696697039558388
2246.0,0.004695256322417202
2245.0,0.004697813830742373
2244.0,0.004703613635637699
2243.0,0.004704807525660437
2242.0,0.004705727877033351
2241.0,0.004716766092249863
2240.0,0.004730698552886128
2239.0,0.004728761881232971
2238.0,0.004709644472816926
2237.0,0.004689921691571317
2236.0,0.004677481952777588
2235.0,0.004667679772352116
2234.0,0.004663174569525409
2233.0,0.0046712224791228074
2232.0,0.004682510385884326
2231.0,0.00467871555963982
2230.0,0.0046608769029430055
2229.0,0.004645365734389967
2228.0,0.004635126598002807
2227.0,0.004620980882651882
2226.0,0.004608233832524179
2225.0,0.004612611495967684
2224.0,0.004630975622433249
2223.0,0.004644236152923771
2222.0,0.004647359136729785
2221.0,0.004648890772732563
2220.0,0.004644739511167498
2219.0,0.004623190858150085
2218.0,0.004593528240073809
2217.0,0.004577611508977467
2216.0,0.004574392428773084
2215.0,0.004564818314025164
2214.0,0.00454979940216333
2213.0,0.00454971040881581
2212.0,0.004565784922787588
2211.0,0.004576014646149284
2210.0,0.004571217937000388
2209.0,0.004563500579741253
2208.0,0.0045579228135895775
2207.0,0.004547131608406664
2206.0,0.004535065946044187
2205.0,0.004535296748774544
2204.0,0.004544926104567406
2203.0,0.004549860712235321
2202.0,0.004553565908148635
2201.0,0.0045695095268625
2200.0,0.0045894401052991975
2199.0,0.004592396695833085
2198.0,0.004581338194002714
2197.0,0.004577406491374203
2196.0,0.004582642834388143
2195.0,0.004584146702886924
2194.0,0.004589594394333427
2193.0,0.004618221354346464
2192.0,0.004658528391920935
2191.0,0.00467650526582427
2190.0,0.004666839637651063
2189.0,0.004658390119525592
2188.0,0.004668317192847082
2187.0,0.0046869506155066305
2186.0,0.004706362283988978
2185.0,0.004723491060900749
2184.0,0.004717145468522524
2183.0,0.004665945031713718
2182.0,0.004591859913293402
2181.0,0.004543900827399183
2180.0,0.004534987707384672
2179.0,0.004535028116470082
2178.0,0.004523728361531734
2177.0,0.004507802854651529
2176.0,0.004490785217745356
2175.0,0.004470486626388011
2174.0,0.004466071393625881
2173.0,0.004504226591528588
2172.0,0.004577433583470631
2171.0,0.004654852105790965
2170.0,0.004728818672073596
2169.0,0.0048105402308481655
2168.0,0.004887377289107167
2167.0,0.004928583727577472
2166.0,0.004934710184451588
2165.0,0.0049414524241436246
2164.0,0.004970886794118649
2163.0,0.005011117669738089
2162.0,0.005030835230932982
2161.0,0.004972588972035061
2160.0,0.004759967602329726
2159.0,0.0043891363238441035
2158.0,0.004000149167127041
2157.0,0.0037653157315426684
2156.0,0.0037192410402465026
2155.0,0.0037746248848549444
2154.0,0.003855932648659189
2153.0,0.00393882605559226
2152.0,0.004004638327946495
2151.0,0.004034402400318514
2150.0,0.004039931452221276
2149.0,0.004046544854451788
2148.0,0.004048155500559007
2147.0,0.004023418564176102
2146.0,0.003984306072099877
2145.0,0.003962686886542058
2144.0,0.003959768581779573
2143.0,0.003953631345683713
2142.0,0.003944350577652535
2141.0,0.003946186583953588
2140.0,0.003947785525281649
2139.0,0.003925428416836445
2138.0,0.003885210440470253
2137.0,0.0038488759686280197
2136.0,0.0038086314500954486
2135.0,0.0037421444337257296
2134.0,0.0036646677661596166
2133.0,0.003619882933645836
2132.0,0.0036233778804564136
2131.0,0.0036542057035934914
2130.0,0.003694968366739444
2129.0,0.0037414703813394463
2128.0,0.0037823922358979512
2127.0,0.0038056585745403146
2126.0,0.003821510092124611
2125.0,0.0038482568177550247
2124.0,0.0038806446183839464
2123.0,0.0039012903966949885
2122.0,0.003914735341925713
2121.0,0.00393792064364168
2120.0,0.003964534722363085
2119.0,0.00397444061435735
2118.0,0.0039740531674331584
2117.0,0.00399204199242933
2116.0,0.004034880088475022
2115.0,0.004079438095792208
2114.0,0.004110249953493012
2113.0,0.004132196685957234
2112.0,0.004146182638392883
2111.0,0.004144425589088465
2110.0,0.004133039869172719
2109.0,0.00412855759571369
2108.0,0.004128935458509327
2107.0,0.004117284047424796
2106.0,0.004096023040480304
2105.0,0.0040870077781233576
2104.0,0.004095730440548865
2103.0,0.004104851639855323
2102.0,0.0041053374022355805
2101.0,0.0041045122904216965
2100.0,0.004102974276066445
2099.0,0.004092021278873581
2098.0,0.004074064893098456
2097.0,0.004057061792006357
2096.0,0.004031514234722575
2095.0,0.003984954584300734
2094.0,0.0039364875701822285
2093.0,0.003922040620105581
2092.0,0.003946252379817769
2091.0,0.0039813722644213255
2090.0,0.004010014221343541
2089.0,0.004037104279022598
2088.0,0.0040623235466861465
2087.0,0.004076203073749181
2086.0,0.0040851826923278284
2085.0,0.004108030261009864
2084.0,0.004143646913292937
2083.0,0.004171039430425045
2082.0,0.004182924804858038
2081.0,0.004190937982134529
2080.0,0.004198614315174114
2079.0,0.004198814036149598
2078.0,0.004196873296634457
2077.0,0.004204039568950627
2076.0,0.004209716448301869
2075.0,0.0041938339656442235
2074.0,0.0041648369170014165
2073.0,0.004150519664412112
2072.0,0.004153341716498109
2071.0,0.004151343962226819
2070.0,0.004141008626290506
2069.0,0.004139815735347037
2068.0,0.004147486104613073
2067.0,0.004144939336543726
2066.0,0.0041321019231934835
2065.0,0.004127332696832952
2064.0,0.004129825845661793
2063.0,0.004123156550511745
2062.0,0.004113131986403473
2061.0,0.004118813515644409
2060.0,0.004132184509373565
2059.0,0.004130346952161772
2058.0,0.004121685282689069
2057.0,0.004131446610255388
2056.0,0.004149316498823728
2055.0,0.004147193013448014
2054.0,0.004147373941941689
2053.0,0.004207609057658619
2052.0,0.004328510720394035
2051.0,0.004434796529240487
2050.0,0.004463951440120029
2049.0,0.004428918933068603
2048.0,0.004377697866256737
2047.0,0.004336289731453241
2046.0,0.004314820068671131
2045.0,0.004319206529907427
2044.0,0.004330133022368553
2043.0,0.004317413768614386
2042.0,0.004292562339466052
2041.0,0.004301553078783438
2040.0,0.0043524943293791665
2039.0,0.004401596070540744
2038.0,0.004419768314930062
2037.0,0.004416720142847933
2036.0,0.0043973935921185064
2035.0,0.004353136051762482
2034.0,0.00430323148694648
2033.0,0.004284177162373572
2032.0,0.00428822072940293
2031.0,0.004276311242080126
2030.0,0.0042532132644218425
2029.0,0.004262338564236427
2028.0,0.004305381416452463
2027.0,0.004337001344250267
2026.0,0.004342529471627399
2025.0,0.004350241954988808
2024.0,0.004366389565755308
2023.0,0.004368225287381739
2022.0,0.0043624036481822
2021.0,0.004380013447092024
2020.0,0.004411305035992789
2019.0,0.004413551426255693
2018.0,0.004385931304648596
2017.0,0.004368960290883412
2016.0,0.004365169531596655
2015.0,0.004334531165720262
2014.0,0.004272383188458136
2013.0,0.004219194344418996
2012.0,0.004191508847802414
2011.0,0.004165957884164414
2010.0,0.00413155302395147
2009.0,0.004094123973184568
2008.0,0.004034129459952598
2007.0,0.003931345679096912
2006.0,0.003827442911233437
2005.0,0.00378843163888553
2004.0,0.0038086904005203326
2003.0,0.003825487969354947
2002.0,0.003817496944917316
2001.0,0.003817117738060262
2000.0,0.0038347313367367297
1999.0,0.0038438800238231683
1998.0,0.0038420956996173252
1997.0,0.0038561565518029474
1996.0,0.0038815899291276563
1995.0,0.003882766489665324
1994.0,0.0038586964839290878
1993.0,0.003849651760093559
1992.0,0.003867650080592684
1991.0,0.0038801530932088147
1990.0,0.0038774813408732666
1989.0,0.0038868260666157202
1988.0,0.003913199793877455
1987.0,0.003930691449180838
1986.0,0.003936340138770668
1985.0,0.00395483132076765
1984.0,0.003988686803934924
1983.0,0.004021886990216928
1982.0,0.004066430448289224
1981.0,0.0041370712689067675
1980.0,0.004183236865197326
1979.0,0.004125809005662464
1978.0,0.003975187175650543
1977.0,0.0038325864941961586
1976.0,0.003751081280931207
1975.0,0.0036919303698315586
1974.0,0.003632552821984774
1973.0,0.0036052130622793413
1972.0,0.0036131033584679765
1971.0,0.0036087351437204384
1970.0,0.0035758401272414832
1969.0,0.003551072825219843
1968.0,0.0035489718751196384
1967.0,0.0035387369628431128
1966.0,0.003513543494112451
1965.0,0.00350450422984035
1964.0,0.0035112252729124654
1963.0,0.003495305486259608
1962.0,0.003447770679348073
1961.0,0.0033986230213798787
1960.0,0.0033558716672287825
1959.0,0.003301325736502549
1958.0,0.0032506932513044692
1957.0,0.003247292977661852
1956.0,0.003290184532447074
1955.0,0.0033313400486750092
1954.0,0.0033473287487392825
1953.0,0.0033562024370136
1952.0,0.0033634347879055973
1951.0,0.003351428215313257
1950.0,0.003326048787939964
1949.0,0.0033158888972726914
1948.0,0.0033204648032201067
1947.0,0.003311245144250258
1946.0,0.0032867380188019058
1945.0,0.0032744543100252624
1944.0,0.0032762402996479893
1943.0,0.0032647848506220252
1942.0,0.0032411889755997497
1941.0,0.003237241244532573
1940.0,0.003253519387072188
1939.0,0.0032598389476822627
1938.0,0.003250193451202438
1937.0,0.003244619132495133
1936.0,0.003241032135401809
1935.0,0.00321510065614318
1934.0,0.003171443723055095
1933.0,0.003144737025272428
1932.0,0.0031437995045304
1931.0,0.0031431483324156012
1930.0,0.003133658210825353
1929.0,0.0031326622325661344
1928.0,0.0031416046565200684
1927.0,0.0031394333627651418
1926.0,0.003122898744645036
1925.0,0.0031124103986620633
1924.0,0.003114538676690808
1923.0,0.003117788568690535
1922.0,0.0031269750072685358
1921.0,0.003157625706830227
1920.0,0.0031950083324709545
1919.0,0.003203703095804537
1918.0,0.0031812141756229545
1917.0,0.0031645415749256283
1916.0,0.003169263264585168
1915.0,0.0031755853403312127
1914.0,0.0031753726641887375
1913.0,0.0031820096034241526
1912.0,0.0031955844725856976
1911.0,0.003198537668525692
1910.0,0.0031916588956891413
1909.0,0.0031957766715666764
1908.0,0.003211395492279598
1907.0,0.003217908130968667
1906.0,0.0032157082722768346
1905.0,0.0032271311261726473
1904.0,0.003253495126901474
1903.0,0.00327189596575195
1902.0,0.003275360110469835
1901.0,0.0032796736419090544
1900.0,0.0032886880008900776
1899.0,0.003289280566659918
1898.0,0.003283136635606889
1897.0,0.0032867578599089287
1896.0,0.003296135598926327
1895.0,0.0032879535531955776
1894.0,0.003261854122767782
1893.0,0.003241119843248851
1892.0,0.0032293051810472688
1891.0,0.0032078320481317285
1890.0,0.0031765266970760838
1889.0,0.003158222860665701
1888.0,0.003152851228836248
1887.0,0.003135396336797588
1886.0,0.0031025396263309104
1885.0,0.0030775508420675035
1884.0,0.003068512147069386
1883.0,0.003058482954481115
1882.0,0.003041998956162248
1881.0,0.0030339791793938193
1880.0,0.0030359542121302942
1879.0,0.003030524697931397
1878.0,0.0030158262956643004
1877.0,0.0030102751247295437
1876.0,0.0030160457498270826
1875.0,0.0030140445171533206
1874.0,0.0030001771582204317
1873.0,0.0029908828529666637
1872.0,0.0029893597780846068
1871.0,0.0029810449397989756
1870.0,0.002967911347646721
1869.0,0.0029743288900042093
1868.0,0.0029993036755785393
1867.0,0.003011794374954764
1866.0,0.0030057973295269007
1865.0,0.0030017630792733055
1864.0,0.0030036835137604314
1863.0,0.002996827026161344
1862.0,0.002981812911549525
1861.0,0.0029773235666836974
1860.0,0.0029836964416389655
1859.0,0.002979343281887628
1858.0,0.0029604000409022848
1857.0,0.002947672104221164
1856.0,0.0029485448367301327
1855.0,0.0029470320954320815
1854.0,0.0029383810754593266
1853.0,0.002937093449954196
1852.0,0.002944411690341192
1851.0,0.0029417154332277823
1850.0,0.0029242595734354114
1849.0,0.0029108599150754833
1848.0,0.002908873743123609
1847.0,0.002902969840545223
1846.0,0.002889024127203239
1845.0,0.002887860596688765
1844.0,0.002904259649885827
1843.0,0.0029105707170857392
1842.0,0.0029004734208035723
1841.0,0.0028948888144737445
1840.0,0.0028991442725478512
1839.0,0.002899469443647823
1838.0,0.002893307740430466
1837.0,0.0028946451036674097
1836.0,0.0029033930695316814
1835.0,0.002902603689151562
1834.0,0.0028917190881139953
1833.0,0.002890199295740167
1832.0,0.002904954415281145
1831.0,0.0029201497088843353
1830.0,0.0029267854838375173
1829.0,0.002936512566038628
1828.0,0.002948082540007403
1827.0,0.0029453138870393697
1826.0,0.002933417543123329
1825.0,0.002937658823430875
1824.0,0.002959469935003562
1823.0,0.002972706963043282
1822.0,0.0029694460183874827
1821.0,0.0029648593212988784
1820.0,0.002961107664061431
1819.0,0.002941682083862872
1818.0,0.002907845861151839
1817.0,0.0028864605709374744
1816.0,0.0028881789437228012
1815.0,0.0028936480525716397
1814.0,0.0028903851354198005
1813.0,0.0028901811379685774
1812.0,0.002901238659887308
1811.0,0.002910989269419278
1810.0,0.0029131900594855137
1809.0,0.002919895924101311
1808.0,0.00293361513863459
1807.0,0.0029415366844091823
1806.0,0.0029420705587495525
1805.0,0.002947585335196345
1804.0,0.002957906486618302
1803.0,0.0029581529879214607
1802.0,0.0029493961772594285
1801.0,0.002954386245174959
1800.0,0.0029780518869602034
1799.0,0.002995694548099854
1798.0,0.0029967291541317326
1797.0,0.00299766795179841
1796.0,0.0030076863081170096
1795.0,0.003015440043901767
1794.0,0.003016887265706223
1793.0,0.0030287928902782554
1792.0,0.003052909668321022
1791.0,0.003062477038546904
1790.0,0.003055767041143361
1789.0,0.0030568922729946424
1788.0,0.0030689676519142354
1787.0,0.003073551728303945
1786.0,0.0030663762012693523
1785.0,0.003067089125532734
1784.0,0.0030847971927400043
1783.0,0.003103836318319797
1782.0,0.003115891752046397
1781.0,0.0031336257020393578
1780.0,0.0031596300508626098
1779.0,0.0031741230713387184
1778.0,0.00317307568341852
1777.0,0.003176734024849607
1776.0,0.0031955595956671373
1775.0,0.0032171524365993006
1774.0,0.0032371756784423714
1773.0,0.003276936897893467
1772.0,0.003334274510142529
1771.0,0.003362507488653719
1770.0,0.0033491705146065703
1769.0,0.003331573340502195
1768.0,0.003334072820017008
1767.0,0.003347931487948009
1766.0,0.0033653368676611188
1765.0,0.0033927745020033056
1764.0,0.0034297764927988363
1763.0,0.003464484585819752
1762.0,0.0034956741616704776
1761.0,0.003537923279005356
1760.0,0.0035890260700991105
1759.0,0.003629167269393551
1758.0,0.003661993872346444
1757.0,0.0037166374331755667
1756.0,0.0037969977779653934
1755.0,0.0038682965728637046
1754.0,0.003914647366692615
1753.0,0.003960845801145004
1752.0,0.0040348431936800214
1751.0,0.004129104076776533
1750.0,0.00422658031941997
1749.0,0.004338614438418995
1748.0,0.004459941971251204
1747.0,0.004554759401905101
1746.0,0.0046173863989367545
1745.0,0.004683846728558544
1744.0,0.0047727148221539855
1743.0,0.004861411048333285
1742.0,0.004938900405619875
1741.0,0.005031588222904401
1740.0,0.00514752160669958
1739.0,0.005243507629675934
1738.0,0.005294784892942098
1737.0,0.005330884699526127
1736.0,0.005381495577461201
1735.0,0.005448179760840735
1734.0,0.005519530209087814
1733.0,0.005596861957081499
1732.0,0.005678467103659204
1731.0,0.005745598986917098
1730.0,0.005799521997405604
1729.0,0.005867302580642383
1728.0,0.005953514813701601
1727.0,0.00603076867623127
1726.0,0.006091266704293987
1725.0,0.006163035732204008
1724.0,0.006258467583656771
1723.0,0.00634786785936789
1722.0,0.006413706580964853
1721.0,0.006479558950829765
1720.0,0.006567545726560242
1719.0,0.006669805932555063
1718.0,0.006779723103924009
1717.0,0.006918040912327755
1716.0,0.007074953471539678
1715.0,0.007203736057495057
1714.0,0.007301991721623549
1713.0,0.007409413437834377
1712.0,0.007540094113674312
1711.0,0.007672915351502305
1710.0,0.007801151129717375
1709.0,0.007951108827646845
1708.0,0.008141955957766924
1707.0,0.008362250990498707
1706.0,0.008600752972033455
1705.0,0.008849873469101686
1704.0,0.009072086787770557
1703.0,0.009241984050440586
1702.0,0.009414370501281374
1701.0,0.009738576312658271
1700.0,0.010219846414081473
1699.0,0.010605008334698757
1698.0,0.010841932410823407
1697.0,0.011116733379994633
1696.0,0.011529546578148806
1695.0,0.011954214228283447
1694.0,0.012274088097928909
1693.0,0.01254672719329837
1692.0,0.01284553932385855
1691.0,0.013185695499413796
1690.0,0.013555192841905732
1689.0,0.01393380702768703
1688.0,0.01428487993495457
1687.0,0.014584343829032134
1686.0,0.0148873372782886
1685.0,0.015365586340743483
1684.0,0.016029132669119775
1683.0,0.016555657514762085
1682.0,0.01687276183954617
1681.0,0.01716384162602411
1680.0,0.017504686732099102
1679.0,0.017847773639660527
1678.0,0.01815366283140227
1677.0,0.018475413845773832
1676.0,0.018888794617640745
1675.0,0.01934910993327056
1674.0,0.019730442253518964
1673.0,0.02002616514143055
1672.0,0.020315384483520195
1671.0,0.02064370445131699
1670.0,0.021015392283710542
1669.0,0.021399736949519375
1668.0,0.02173742955392038
1667.0,0.021993076838277455
1666.0,0.022197300554539143
1665.0,0.022419909047012663
1664.0,0.022711743702373288
1663.0,0.023047873369550345
1662.0,0.023351397265693685
1661.0,0.023601425920646547
1660.0,0.02382866963350417
1659.0,0.02403762033173548
1658.0,0.02421901372907759
1657.0,0.024380040698041807
1656.0,0.024537208025004878
1655.0,0.02470396933850962
1654.0,0.024942790816112063
1653.0,0.02528263545155794
1652.0,0.025552368652322383
1651.0,0.02568112493205616
1650.0,0.025766396123074423
1649.0,0.025884520286308225
1648.0,0.026085145896075572
1647.0,0.026343606356273756
1646.0,0.026560821408110145
1645.0,0.026718130288376975
1644.0,0.02686216929744918
1643.0,0.027000378968408633
1642.0,0.027116293608140687
1641.0,0.027205243597466195
1640.0,0.027266252141723457
1639.0,0.02727956873248082
1638.0,0.02721019457312277
1637.0,0.027008001960433733
1636.0,0.02662262073074807
1635.0,0.026115732621582025
1634.0,0.025630828051927502
1633.0,0.02521350342731719
1632.0,0.02482844273441575
1631.0,0.02443590872725274
1630.0,0.02401641428557158
1629.0,0.023575716415661706
1628.0,0.023137058987183018
1627.0,0.022727403887934563
1626.0,0.022352991886111284
1625.0,0.021987163579142113
1624.0,0.02158286025092414
1623.0,0.021128947955922052
1622.0,0.020690892093935702
1621.0,0.020328709451890224
1620.0,0.020027096652444273
1619.0,0.019726202202689256
1618.0,0.01936012842522176
1617.0,0.01890681653155649
1616.0,0.01844072157338137
1615.0,0.018047427376061336
1614.0,0.017722518529883134
1613.0,0.0174180936626783
1612.0,0.017100906122639346
1611.0,0.01676760554337187
1610.0,0.01643401147328031
1609.0,0.016110538401099484
1608.0,0.015797391109099487
1607.0,0.015499454112848157
1606.0,0.0152249030118888
1605.0,0.014968225202941523
1604.0,0.014714320962070569
1603.0,0.01445961917483308
1602.0,0.014216485114637155
1601.0,0.013991802766374361
1600.0,0.013778288090557094
1599.0,0.013571207900629285
1598.0,0.013375222054379491
1597.0,0.013191180396849737
1596.0,0.013011813748228242
1595.0,0.012835622864626394
1594.0,0.012670079361909373
1593.0,0.012515783862517772
1592.0,0.012364380673167245
1591.0,0.012216029548139577
1590.0,0.012082073464789941
1589.0,0.011966083011718504
1588.0,0.011858727640962505
1587.0,0.011755748429236393
1586.0,0.011664109722513813
1585.0,0.011585746607672448
1584.0,0.01151276312840325
1583.0,0.011442598991038066
1582.0,0.011383210508554072
1581.0,0.011338671303153655
1580.0,0.01130123822173516
1579.0,0.011263510306283737
1578.0,0.011227853567934227
1577.0,0.01119643657651101
1576.0,0.011157303688656889
1575.0,0.011108115255265241
1574.0,0.011067495006914039
1573.0,0.011042064101043884
1572.0,0.011022213902189824
1571.0,0.011006435098872783
1570.0,0.011004756292589764
1569.0,0.011010880116461732
1568.0,0.011003929465149675
1567.0,0.010986928736636557
1566.0,0.010982443648472904
1565.0,0.01099928246052506
1564.0,0.011022008950552347
1563.0,0.011032195269280247
1562.0,0.011033594710378227
1561.0,0.011049991326320832
1560.0,0.011122442570248229
1559.0,0.01124574201261084
1558.0,0.011331279812003592
1557.0,0.011353298078541473
1556.0,0.011346861688262324
1555.0,0.011335858387458757
1554.0,0.011338714266487023
1553.0,0.01135879289283809
1552.0,0.011378160459876397
1551.0,0.011382919381759553
1550.0,0.011385326291939234
1549.0,0.011399333747690091
1548.0,0.011412141789414366
1547.0,0.011403940631584189
1546.0,0.011378685046143675
1545.0,0.011359106055596889
1544.0,0.011353456075892355
1543.0,0.011348576577149138
1542.0,0.011339552187115841
1541.0,0.011319246662403724
1540.0,0.01123723742029321
1539.0,0.011083384991390489
1538.0,0.010934947697802528
1537.0,0.010833321741200108
1536.0,0.01075254948877859
1535.0,0.010653206835090773
1534.0,0.010524511728918419
1533.0,0.010393444259255258
1532.0,0.010276001219275476
1531.0,0.010162551846856414
1530.0,0.010054247370873362
1529.0,0.009958590440371885
1528.0,0.009862277492303659
1527.0,0.009743646875745705
1526.0,0.009620102391666347
1525.0,0.00953252196050077
1524.0,0.00947475500791453
1523.0,0.009398934522723673
1522.0,0.009292492632438228
1521.0,0.009200072408205882
1520.0,0.009139468533593077
1519.0,0.009080653784333004
1518.0,0.009009117713176437
1517.0,0.008929978156914157
1516.0,0.008834854274596625
1515.0,0.008714682618451272
1514.0,0.00858604588328803
1513.0,0.008468790321233455
1512.0,0.008357135815694418
1511.0,0.008236428475572577
1510.0,0.008116369552580226
1509.0,0.008026573511232758
1508.0,0.007960037256072946
1507.0,0.007858408945293447
1506.0,0.007752894586890583
1505.0,0.007706259784275339
1504.0,0.007671511905095966
1503.0,0.007606588027217247
1502.0,0.007525748278439645
1501.0,0.0074669080947952614
1500.0,0.007435695161686268
1499.0,0.007389220469600341
1498.0,0.007317210440887156
1497.0,0.007270951596094571
1496.0,0.007253931429996979
1495.0,0.00721480577026168
1494.0,0.007171018230363162
1493.0,0.007171794243290928
1492.0,0.007199089281479139
1491.0,0.007189981315213499
1490.0,0.007160330391193502
1489.0,0.00719839759559575
1488.0,0.007284156496257717
1487.0,0.007336369565205647
1486.0,0.007378306069920808
1485.0,0.007476909302516585
1484.0,0.007629217701348837
1483.0,0.007806211647202323
1482.0,0.008056319436889807
1481.0,0.008458068376477529
1480.0,0.00900978805237957
1479.0,0.00977291114587069
1478.0,0.011135816938072212
1477.0,0.013719291366426151
1476.0,0.017885439674998543
1475.0,0.023394063133276157
1474.0,0.02947496432580987
1473.0,0.034189009719005056
1472.0,0.03529791287736797
1471.0,0.03355577426350998
1470.0,0.03141811508022282
1469.0,0.029931053828219468
1468.0,0.0290840842095272
1467.0,0.02888164985942274
1466.0,0.029781027431238474
1465.0,0.03210284781620385
1464.0,0.03478948141561557
1463.0,0.03603093861447577
1462.0,0.03510103236128593
1461.0,0.03241686705937331
1460.0,0.028783768191179043
1459.0,0.025053221347018945
1458.0,0.021889170470958386
1457.0,0.019634328068288597
1456.0,0.01824614536227641
1455.0,0.017391518384931623
1454.0,0.016724660961911178
1453.0,0.01605104070321101
1452.0,0.01537334020373423
1451.0,0.014809978833634843
1450.0,0.01439661793085394
1449.0,0.014056222064269241
1448.0,0.013751860463885393
1447.0,0.013527143523155118
1446.0,0.013379240884358995
1445.0,0.013246420869204708
1444.0,0.013108135335403394
1443.0,0.012988705656753686
1442.0,0.012887938076664336
1441.0,0.012773378885426767
1440.0,0.012639123512290688
1439.0,0.012509227544827434
1438.0,0.012383574705876723
1437.0,0.01222569895468724
1436.0,0.012041320630055889
1435.0,0.011884616138992629
1434.0,0.011749412980238547
1433.0,0.011585222737301606
1432.0,0.011382248312691863
1431.0,0.011174308858031163
1430.0,0.010978776203730684
1429.0,0.010781734539089158
1428.0,0.010592810870767043
1427.0,0.01044001873072512
1426.0,0.01031572839686515
1425.0,0.010188819547553291
1424.0,0.010063590872725051
1423.0,0.00997240789085373
1422.0,0.009909525648507228
1421.0,0.009834946161146609
1420.0,0.009738650225996254
1419.0,0.009655088657876313
1418.0,0.009598712603883466
1417.0,0.009544270319259949
1416.0,0.00948547478232832
1415.0,0.009434802859050411
1414.0,0.009384494676983417
1413.0,0.009312306214032078
1412.0,0.00921684816640315
1411.0,0.009119269506680428
1410.0,0.009024365931743238
1409.0,0.008915637338433783
1408.0,0.008790724341426682
1407.0,0.008665777517664501
1406.0,0.008541017834391417
1405.0,0.00839906010854887
1404.0,0.008250042222920195
1403.0,0.008126110013828737
1402.0,0.008025110468467905
1401.0,0.007914302083106233
1400.0,0.007784044969644688
1399.0,0.007661064997336231
1398.0,0.007559363412837779
1397.0,0.007460236188803638
1396.0,0.007358275109857796
1395.0,0.007274866150414732
1394.0,0.007214382600912856
1393.0,0.007158239067016958
1392.0,0.007104509874662275
1391.0,0.007064520629543014
1390.0,0.007032358795104672
1389.0,0.006989968757213754
1388.0,0.0069415058899984
1387.0,0.006914828729972724
1386.0,0.006915933426842498
1385.0,0.006925687805258533
1384.0,0.006943519426389497
1383.0,0.0069889281768935295
1382.0,0.007066286659879791
1381.0,0.007157128270102356
1380.0,0.007245436455824154
1379.0,0.007322638499855465
1378.0,0.0073701987727402725
1377.0,0.007371647924333698
1376.0,0.007341430799057349
1375.0,0.007320531598561199
1374.0,0.007336337231226649
1373.0,0.007383163511694275
1372.0,0.007449065713611631
1371.0,0.007527191432008376
1370.0,0.007596853736332577
1369.0,0.00762751579106428
1368.0,0.0076091217880450215
1367.0,0.007556155055585309
1366.0,0.007477429192725298
1365.0,0.007368110386396743
1364.0,0.007234804922782509
1363.0,0.007105421901760658
1362.0,0.0070017183465078976
1361.0,0.006921620510322324
1360.0,0.00686090452031211
1359.0,0.0068230899588036156
1358.0,0.006804139171693955
1357.0,0.006792594468580843
1356.0,0.00678636002575842
1355.0,0.006791545575912897
1354.0,0.006802455979085218
1353.0,0.0068024512073037655
1352.0,0.0067854867638500824
1351.0,0.006757412805259225
1350.0,0.0067171174243794655
1349.0,0.006657819074816548
1348.0,0.006586523402359518
1347.0,0.006519828828273719
1346.0,0.006461402700956824
1345.0,0.00640213883895626
1344.0,0.006340822819831298
1343.0,0.006284262440786923
1342.0,0.006229069441242921
1341.0,0.006163111043732653
1340.0,0.006088520765754375
1339.0,0.006024050056697549
1338.0,0.00597668697640121
1337.0,0.005935146405114372
1336.0,0.005894515984672626
1335.0,0.005860888192113305
1334.0,0.00583336346969775
1333.0,0.005803029618766595
1332.0,0.00577057141200114
1331.0,0.005747581498252888
1330.0,0.005737952624314529
1329.0,0.005734450284003727
1328.0,0.005734892936496979
1327.0,0.005744548932870708
1326.0,0.005761325799571776
1325.0,0.00577596958072729
1324.0,0.005788123015546637
1323.0,0.005805689249786003
1322.0,0.005828376461844203
1321.0,0.00584751726005882
1320.0,0.005862754152531791
1319.0,0.005882616213096407
1318.0,0.005906782473222013
1317.0,0.005925022508272364
1316.0,0.005935594443300496
1315.0,0.005947532714411382
1314.0,0.005964294821835518
1313.0,0.0059803060222514935
1312.0,0.005994337362050356
1311.0,0.006011312494514369
1310.0,0.0060294625788200554
1309.0,0.006040757260346311
1308.0,0.006044899114440369
1307.0,0.00604933056367774
1306.0,0.006054398387599
1305.0,0.006052374994457469
1304.0,0.006042324054144128
1303.0,0.006031960509336154
1302.0,0.006023700909115346
1301.0,0.006011766752626974
1300.0,0.005994564610769165
1299.0,0.005976905974173496
1298.0,0.005958728668122062
1297.0,0.0059343095312336756
1296.0,0.005904354352724907
1295.0,0.005876436728595188
1294.0,0.0058521022606695785
1293.0,0.0058259633266849265
1292.0,0.005798294063769717
1291.0,0.005776129009045335
1290.0,0.005760963948149364
1289.0,0.0057476898448703085
1288.0,0.005736754143090829
1287.0,0.005734478159769351
1286.0,0.005739937671130043
1285.0,0.0057445656056055025
1284.0,0.005745959882245651
1283.0,0.005749895123705204
1282.0,0.005758085298960451
1281.0,0.005765873215273385
1280.0,0.0057730718477904544
1279.0,0.005785085427553644
1278.0,0.005801961061560793
1277.0,0.0058178894927371555
1276.0,0.005832492181396144
1275.0,0.005851196735688452
1274.0,0.0058737889703073505
1273.0,0.0058943801626668985
1272.0,0.00591352017336632
1271.0,0.005938494382531461
1270.0,0.005970127588116359
1269.0,0.006001380937921129
1268.0,0.006030456239766687
1267.0,0.006063032153300687
1266.0,0.006100279207492261
1265.0,0.006136530105522895
1264.0,0.006170464008338315
1263.0,0.006207223507640509
1262.0,0.006247576115273974
1261.0,0.006285845949340976
1260.0,0.006320476403025615
1259.0,0.006356079193281568
1258.0,0.006393385785191424
1257.0,0.006427672648448507
1256.0,0.006458507029007085
1255.0,0.006491201300447462
1254.0,0.006527487076660078
1253.0,0.006564106555757846
1252.0,0.006601400790216743
1251.0,0.006643543161897251
1250.0,0.006689142778364632
1249.0,0.006731441019243804
1248.0,0.006769136243347814
1247.0,0.006807779108958216
1246.0,0.0068493688015486085
1245.0,0.006889522339167722
1244.0,0.006926012527682676
1243.0,0.006961324048256268
1242.0,0.006995640925978156
1241.0,0.007025879144126277
1240.0,0.007052650968260611
1239.0,0.007080029662101167
1238.0,0.007107638364566869
1237.0,0.007130950853225709
1236.0,0.007149948055135361
1235.0,0.007169272449945009
1234.0,0.007189260391374274
1233.0,0.007205074130530547
1232.0,0.007215314767153919
1231.0,0.00722339732410726
1230.0,0.007230048961923304
1229.0,0.007232801075132623
1228.0,0.007233383473644293
1227.0,0.007237092512311704
1226.0,0.007243964104841211
1225.0,0.007248830576197438
1224.0,0.0072508938703526975
1223.0,0.007254770600046572
1222.0,0.007261285795118064
1221.0,0.00726606885652243
1220.0,0.007268490748365761
1219.0,0.007273342882130721
1218.0,0.007282166409748712
1217.0,0.007291283881224695
1216.0,0.00729988252217483
1215.0,0.007311751595165089
1214.0,0.007327654775743214
1213.0,0.0073442062101995755
1212.0,0.007361630266125071
1211.0,0.007384472658132446
1210.0,0.007413305427245911
1209.0,0.0074439532634844405
1208.0,0.0074759291075522614
1207.0,0.007513028970803852
1206.0,0.007554332339425861
1205.0,0.007593108005492661
1204.0,0.0076262199402836964
1203.0,0.007656668282259499
1202.0,0.0076856110196932195
1201.0,0.007709944614683967
1200.0,0.007729383757497243
1199.0,0.007748431847679881
1198.0,0.007769725405554914
1197.0,0.007792294918103586
1196.0,0.00781736088657451
1195.0,0.007848547130532976
1194.0,0.007885284277344685
1193.0,0.007923393114620014
1192.0,0.007963245925246859
1191.0,0.008009925202041324
1190.0,0.008064323003571398
1189.0,0.008121762391252348
1188.0,0.008180754344915418
1187.0,0.008245627523128811
1186.0,0.008318912958674382
1185.0,0.008398117825604224
1184.0,0.008481623232105748
1183.0,0.008571270941552899
1182.0,0.008667996972323044
1181.0,0.008771371829553226
1180.0,0.008884238337451437
1179.0,0.00901046255401048
1178.0,0.009146102184487543
1177.0,0.009279352966603555
1176.0,0.009401496317038427
1175.0,0.009513412631678885
1174.0,0.009620846086661113
1173.0,0.009728151579987153
1172.0,0.009837449155861424
1171.0,0.009948724169719038
1170.0,0.010058671010203876
1169.0,0.010163057306642843
1168.0,0.010261682115905604
1167.0,0.010358375234003165
1166.0,0.010455821539569012
1165.0,0.010553553326904358
1164.0,0.010651340608484635
1163.0,0.010750952618018743
1162.0,0.010853533192898144
1161.0,0.01095803021057113
1160.0,0.011063256812383165
1159.0,0.011169334500557935
1158.0,0.011276230420469293
1157.0,0.011382421315865835
1156.0,0.01148570950894882
1155.0,0.011584761129253307
1154.0,0.011680051275033224
1153.0,0.011773857654027357
1152.0,0.0118688068057188
1151.0,0.011965951423638833
1150.0,0.012064819715800156
1149.0,0.012165269620714424
1148.0,0.012267777252054314
1147.0,0.012371571880235077
1146.0,0.012474370940134035
1145.0,0.01257500876451768
1144.0,0.012675178649655701
1143.0,0.012777773198890124
1142.0,0.012884221222372243
1141.0,0.0129937467955138
1140.0,0.013104518182663883
1139.0,0.013215456803042822
1138.0,0.013327335933782675
1137.0,0.01344141434790669
1136.0,0.013556535926737494
1135.0,0.013669079938577848
1134.0,0.013776702199189288
1133.0,0.013880242741434238
1132.0,0.013980946995185057
1131.0,0.014078430054174345
1130.0,0.014172931761804626
1129.0,0.01426676015861876
1128.0,0.014361356026421447
1127.0,0.014455309949038264
1126.0,0.014546990959834003
1125.0,0.014636168204776756
1124.0,0.01472121360464108
1123.0,0.014798350100367043
1122.0,0.01486628464841308
1121.0,0.014928261726601
1120.0,0.014987207026969474
1119.0,0.015042470834813557
1118.0,0.015093622064076329
1117.0,0.015143444561005515
1116.0,0.0151941690696013
1115.0,0.015243855948227289
1114.0,0.015289137279075715
1113.0,0.015328858783485583
1112.0,0.015363281963099305
1111.0,0.015393002589777986
1110.0,0.015420128807804238
1109.0,0.015446907919569146
1108.0,0.015471974379679801
1107.0,0.015491773432223122
1106.0,0.015506308765446602
1105.0,0.01551902726900736
1104.0,0.015530736415820954
1103.0,0.015538756158239464
1102.0,0.01554240954110567
1101.0,0.015543950906327063
1100.0,0.015543298785307809
1099.0,0.015537857130042413
1098.0,0.015528337488456632
1097.0,0.01551854333847395
1096.0,0.015508585160520987
1095.0,0.015494244252669272
1094.0,0.01547416413927433
1093.0,0.015451556160362725
1092.0,0.01542784965356166
1091.0,0.015400719675309232
1090.0,0.015369246515226153
1089.0,0.01533495752522672
1088.0,0.015296944998119528
1087.0,0.015252118693145723
1086.0,0.015201089257882293
1085.0,0.015147392302444232
1084.0,0.015090185373187851
1083.0,0.015024407076467228
1082.0,0.01494896211467573
1081.0,0.014867840352398961
1080.0,0.014781973104885042
1079.0,0.01468677159045264
1078.0,0.01457936782887094
1077.0,0.014462268409690143
1076.0,0.014338268334218262
1075.0,0.014207184829657046
1074.0,0.014069056683135291
1073.0,0.013925880996690471
1072.0,0.013779187239402718
1071.0,0.013629876722804007
1070.0,0.013480754743125822
1069.0,0.013335541483150255
1068.0,0.013195360022271943
1067.0,0.013059072488369109
1066.0,0.012926241485356585
1065.0,0.012796868715235273
1064.0,0.012669177726245515
1063.0,0.012540544638996204
1062.0,0.01241003093472237
1061.0,0.012277914470434763
1060.0,0.01214404808437971
1059.0,0.012009103163640377
1058.0,0.011876122230233844
1057.0,0.011748437193662559
1056.0,0.011627172593311088
1055.0,0.011512566374801522
1054.0,0.0114059380898152
1053.0,0.011307583312425287
1052.0,0.011213090110690145
1051.0,0.011114237605569299
1050.0,0.01100488894328466
1049.0,0.010885699092142017
1048.0,0.010763243735550454
1047.0,0.010644957528699497
1046.0,0.010533700262056772
1045.0,0.01042620899332365
1044.0,0.010317039938231031
1043.0,0.010203732322619626
1042.0,0.010087828052697412
1041.0,0.009972142200093764
1040.0,0.00985880427999131
1039.0,0.009749140048320783
1038.0,0.009643062802792625
1037.0,0.009538794119637052
1036.0,0.009435090250454749
1035.0,0.009333325655689333
1034.0,0.009235480021816614
1033.0,0.00914053595943031
1032.0,0.009044738712678585
1031.0,0.008944881064434185
1030.0,0.00883969647571336
1029.0,0.008728966469777086
1028.0,0.008613397319228836
1027.0,0.008494951880954355
1026.0,0.00837557254605547
1025.0,0.008256028621864819
1024.0,0.008137033218248926
1023.0,0.00802006373119934
1022.0,0.00790584561678109
1021.0,0.007793966163383502
1020.0,0.007685416449159176
1019.0,0.0075829884256549684
1018.0,0.007487156459048022
1017.0,0.007394278275802347
1016.0,0.007301322234169735
1015.0,0.007210019915264623
1014.0,0.007124175595208539
1013.0,0.007045354035210526
1012.0,0.006973257886695396
1011.0,0.006907297470632236
1010.0,0.00684509953371008
1009.0,0.00678212430957012
1008.0,0.006715577031194145
1007.0,0.006646702977529754
1006.0,0.006576914282641455
1005.0,0.0065039407074989515
1004.0,0.006424362846380998
1003.0,0.00633791027842215
1002.0,0.006246929177806943
1001.0,0.006153653889811251
1000.0,0.006060147003659255
999.0,0.005968630671797535
998.0,0.005879520100933303
997.0,0.005791091889869921
996.0,0.005702859208691881
995.0,0.005616954225283187
994.0,0.005534734159827056
993.0,0.00545505290675222
992.0,0.005377581441481993
991.0,0.005304238725046479
990.0,0.005235116002743866
989.0,0.00516680154302065
988.0,0.005097562839941345
987.0,0.005030890896300384
986.0,0.004971107598172683
985.0,0.0049182734931744005
984.0,0.004869638532271626
983.0,0.004822884698872357
982.0,0.004775679221490134
981.0,0.00472545319154677
980.0,0.004672403596097343
979.0,0.00462008773236288
978.0,0.0045708495258672205
977.0,0.004523346034980753
976.0,0.004476154824511739
975.0,0.0044303097242847835
974.0,0.004386357232969271
973.0,0.00434242298365397
972.0,0.004297249444388952
971.0,0.004251936876943014
970.0,0.004207082028013884
969.0,0.0041617642134793124
968.0,0.004116928662558758
967.0,0.0040757360262727495
966.0,0.004038508226720548
965.0,0.004001269425331015
964.0,0.003961357178898188
963.0,0.0039204256370547795
962.0,0.0038798898214302225
961.0,0.003837819288313459
960.0,0.0037928577787354565
959.0,0.0037471934879844725
958.0,0.0037031658948811054
957.0,0.003660713570927695
956.0,0.003620264168326114
955.0,0.0035838182296875276
954.0,0.003550667446914858
953.0,0.003516399726444132
952.0,0.003479058096615184
951.0,0.0034424170808213866
950.0,0.0034106066700835295
949.0,0.0033834571480233543
948.0,0.0033594520907156344
947.0,0.003338833487667528
946.0,0.0033211592014366215
945.0,0.003304121331788956
944.0,0.0032874921605157816
943.0,0.003274136766374814
942.0,0.003264608870993577
941.0,0.00325502757880189
940.0,0.003243008865437165
939.0,0.0032314877389266966
938.0,0.0032236874394398337
937.0,0.003218226113790178
936.0,0.003212081162716909
935.0,0.003204437363752862
934.0,0.0031946986409438155
933.0,0.0031806734236744664
932.0,0.003162131611066242
931.0,0.003143038347576609
930.0,0.0031272213528129623
929.0,0.003114470594908216
928.0,0.003103143282195904
927.0,0.003093384715763166
926.0,0.003085387820455668
925.0,0.003077727063613295
924.0,0.0030699019812790457
923.0,0.0030636563246981673
922.0,0.003059866864797079
921.0,0.003057223129929945
920.0,0.0030555413333738105
919.0,0.0030568314526942418
918.0,0.0030614628845164592
917.0,0.0030670586483273077
916.0,0.0030728937878255255
915.0,0.0030813966805350885
914.0,0.003093261200129994
913.0,0.003104912194066458
912.0,0.0031128754537523146
911.0,0.0031168381048188656
910.0,0.00311641458818
909.0,0.003109089388988427
908.0,0.0030939397309591807
907.0,0.0030737019155586253
906.0,0.003050892734984445
905.0,0.003025700043147554
904.0,0.002999770559384239
903.0,0.002977658676627544
902.0,0.0029616979258783255
901.0,0.0029492756289193336
900.0,0.002937594035652957
899.0,0.0029269948769006593
898.0,0.0029175916571954306
897.0,0.0029076197017524176
896.0,0.0028980843481283044
895.0,0.0028943257075116245
894.0,0.002899510304119437
893.0,0.0029107020959252376
892.0,0.002924163224568826
891.0,0.0029397586252597535
890.0,0.002956819991209528
889.0,0.002970536115118024
888.0,0.0029768795734844986
887.0,0.0029778257978923094
886.0,0.002978169005486416
885.0,0.0029806422897252225
884.0,0.002987561992912795
883.0,0.0030030864077214255
882.0,0.0030291002881203434
881.0,0.0030617906543717
880.0,0.0030962351813425297
879.0,0.0031312587346625223
878.0,0.0031664087041163866
877.0,0.0031983444226228843
876.0,0.0032246167979305415
875.0,0.003247117514818279
874.0,0.003266976607302478
873.0,0.0032795557954718923
872.0,0.003279474949776144
871.0,0.0032679689668426333
870.0,0.0032512391038446217
869.0,0.0032344968457015686
868.0,0.00322155283729475
867.0,0.003216648452327525
866.0,0.0032213889872921815
865.0,0.0032319328221973483
864.0,0.0032434740817216152
863.0,0.003255754172321437
862.0,0.0032709366085917286
861.0,0.0032885692571563013
860.0,0.0033064652300415984
859.0,0.00332435835909787
858.0,0.003342753962315593
857.0,0.003360011833767597
856.0,0.0033744420228373467
855.0,0.003387826966091731
854.0,0.0034033112994609266
853.0,0.0034212755341962832
852.0,0.003440634039002688
851.0,0.003462310684594276
850.0,0.003487572922075008
849.0,0.0035145447671970894
848.0,0.0035405139819564514
847.0,0.0035666700392601343
846.0,0.0035966074972773243
845.0,0.0036309713992139538
844.0,0.0036674287107697195
843.0,0.003705236844495939
842.0,0.003745920220369097
841.0,0.003789509035009129
840.0,0.0038336331606790078
839.0,0.003876694967104761
838.0,0.003919107483541015
837.0,0.003961164182385283
836.0,0.004002225479882066
835.0,0.004042158257774414
834.0,0.004081294709399788
833.0,0.0041190418022943945
832.0,0.004154705634476838
831.0,0.004189325124813694
830.0,0.004224307337165129
829.0,0.004258888933040828
828.0,0.004291995754574505
827.0,0.004325772847001917
826.0,0.004363029733496783
825.0,0.004401872278084721
824.0,0.00443835958562019
823.0,0.004473906804728723
822.0,0.00451331988352047
821.0,0.004556145126676942
820.0,0.004597348088558732
819.0,0.004636060247061508
818.0,0.004676610013486351
817.0,0.004720474501408748
816.0,0.004763415109659254
815.0,0.004802409520900922
814.0,0.004840247750196874
813.0,0.004880563696472242
812.0,0.0049228600488719736
811.0,0.004965553696198303
810.0,0.0050097680542945024
809.0,0.00505654983923003
808.0,0.0051037298429940075
807.0,0.005149072040813878
806.0,0.005193536396098345
805.0,0.005238144900709915
804.0,0.005280754498305069
803.0,0.005319325987602002
802.0,0.005355511783497437
801.0,0.005391753947230056
800.0,0.00542770195799574
799.0,0.005462560023148195
798.0,0.005497657071731901
797.0,0.005533492025529087
796.0,0.005567828765035098
795.0,0.005600016904787182
794.0,0.005633126186659751
793.0,0.0056681339368881735
792.0,0.0057006429910469465
791.0,0.005727812133875689
790.0,0.005753921460609804
789.0,0.00578408526157536
788.0,0.005816882028781988
787.0,0.00584846380483533
786.0,0.005879371939974953
785.0,0.005911418010399329
784.0,0.0059422288111383986
783.0,0.005969408288558657
782.0,0.005996314911826027
781.0,0.006027055373623124
780.0,0.006059253680194153
779.0,0.006088298619112012
778.0,0.006115138969870565
777.0,0.006143353897497738
776.0,0.006172250774994543
775.0,0.006199494839395605
774.0,0.006226681170755356
773.0,0.006255609178031316
772.0,0.006283230863629297
771.0,0.006307138918613123
770.0,0.006331439374731046
769.0,0.006359954573686866
768.0,0.006388811215983677
767.0,0.006413608258938733
766.0,0.006438087161633877
765.0,0.006467002169690823
764.0,0.006496629373914988
763.0,0.006521905622967663
762.0,0.006546671090667939
761.0,0.006576368765230933
760.0,0.006606728844454705
759.0,0.0066311291293765645
758.0,0.0066534023370710665
757.0,0.006681422040219315
756.0,0.006713703753316133
755.0,0.006744576111691197
754.0,0.006776516404059119
753.0,0.00681436446701237
752.0,0.006853743130542827
751.0,0.006888829551288335
750.0,0.0069244761705728325
749.0,0.006966523338812723
748.0,0.007008297033775188
747.0,0.007042287621425608
746.0,0.0070765610843636795
745.0,0.007122361195438614
744.0,0.007175190144492451
743.0,0.007227620685632905
742.0,0.007290419455502208
741.0,0.007379669976838638
740.0,0.0074957709760094145
739.0,0.007640716644405776
738.0,0.007845458078884902
737.0,0.008166845715299978
736.0,0.008703082612264374
735.0,0.009662158700775381
734.0,0.0113499311589702
733.0,0.013921830606965557
732.0,0.017019150512721556
731.0,0.019694016621678207
730.0,0.020934626390585197
729.0,0.02046336604883715
728.0,0.018933686763178414
727.0,0.017312105917204796
726.0,0.016228156772278755
725.0,0.015865791047172985
724.0,0.01624566338726225
723.0,0.017468182613429608
722.0,0.01963089903279001
721.0,0.022459510441065013
720.0,0.02505315283501565
719.0,0.02631115160270534
718.0,0.02581746072625118
717.0,0.024044117386470915
716.0,0.02173562334043065
715.0,0.01941439743035565
714.0,0.017341205930699478
713.0,0.015636476076102006
712.0,0.014330209001660179
711.0,0.013361758477078794
710.0,0.012625764569210312
709.0,0.012046197871607711
708.0,0.01159096256775824
707.0,0.011230309991775603
706.0,0.010924190631931273
705.0,0.010653396824408337
704.0,0.010426222583983473
703.0,0.010244041470744843
702.0,0.010087112019653106
701.0,0.009940259138398813
700.0,0.009806226762700172
699.0,0.009687369447407421
698.0,0.009576940821273142
697.0,0.009473984985252063
696.0,0.009385903603406144
695.0,0.009310788005166102
694.0,0.0092366749975472
693.0,0.009162296104655873
692.0,0.009099278968350577
691.0,0.009050501344020127
690.0,0.009005176147146717
689.0,0.00895968792449313
688.0,0.008923587056274065
687.0,0.008898204251766021
686.0,0.008870780982950535
685.0,0.008836202682414241
684.0,0.008803217304527926
683.0,0.00877587763779741
682.0,0.008748159863100307
681.0,0.008718987230908366
680.0,0.008695226171149257
679.0,0.008677585536475747
678.0,0.008659030376077051
677.0,0.008640288314454956
676.0,0.008629076948726963
675.0,0.008625023256949787
674.0,0.008617810770121278
673.0,0.008601207970873792
672.0,0.008574158193269748
671.0,0.008534607364864022
670.0,0.008481414734417596
669.0,0.008436123224716117
668.0,0.008426852723297344
667.0,0.00843918825056924
666.0,0.008453202544866414
665.0,0.008460978407635385
664.0,0.008462518499363556
663.0,0.008462976868217793
662.0,0.00845850842008672
661.0,0.008449285528746167
660.0,0.008442779582568897
659.0,0.008438718499752773
658.0,0.00842796797218146
657.0,0.00840985139160962
656.0,0.00839266064096224
655.0,0.008378210553997898
654.0,0.00836146174752901
653.0,0.008343449179998507
652.0,0.008329477205005268
651.0,0.008315588609869445
650.0,0.008293743977579371
649.0,0.008267516755105307
648.0,0.008245231878368026
647.0,0.008222090468396845
646.0,0.008187589168150619
645.0,0.008144749953134654
644.0,0.008103642047760958
643.0,0.008062620089949027
642.0,0.008013842515724626
641.0,0.00796213462386163
640.0,0.007919953516845175
639.0,0.007887537976775211
638.0,0.007855445000527716
637.0,0.007822084421612979
636.0,0.007790623824723121
635.0,0.007755520003095437
634.0,0.007713645085700544
633.0,0.007678868934503038
632.0,0.007661261504003217
631.0,0.007641475519550998
630.0,0.007590266987460386
629.0,0.007506639056231973
628.0,0.007411975408992416
627.0,0.0073157112045951125
626.0,0.007211267533845898
625.0,0.007098999399269404
624.0,0.006987917783345369
623.0,0.006876856812445008
622.0,0.006760594306524962
621.0,0.00665251678913689
620.0,0.006573550561562355
619.0,0.006518620052363358
618.0,0.006460565523674891
617.0,0.006393145933726665
616.0,0.006338811033270735
615.0,0.006307812564349117
614.0,0.0062873047805482325
613.0,0.006274269791894195
612.0,0.006281949059800637
611.0,0.006308167004950729
610.0,0.006329925880839303
609.0,0.006338711691470012
608.0,0.006349907371200617
607.0,0.006370066008717319
606.0,0.006385325424324222
605.0,0.006386321816082362
604.0,0.006375577780977446
603.0,0.0063518352820061165
602.0,0.0063152573342326775
601.0,0.006283229638371168
600.0,0.006273587724808433
599.0,0.006272251443003425
598.0,0.006243133721054776
597.0,0.006171543369152018
596.0,0.00607354227065866
595.0,0.005969572342542121
594.0,0.005870244774627444
593.0,0.005779798020462147
592.0,0.005692130161019885
591.0,0.005585022954739373
590.0,0.0054440840841290805
589.0,0.005291214305402416
588.0,0.005165152388127363
587.0,0.005074898786705992
586.0,0.0049865341424106
585.0,0.004864922365650153
584.0,0.004713583036390873
583.0,0.00456091387360304
582.0,0.004423050643057806
581.0,0.004295928971929468
580.0,0.0041755670441745545
579.0,0.004062030870596213
578.0,0.003947525624351008
577.0,0.0038261061733671975
576.0,0.003716055660770397
575.0,0.0036475329731409153
574.0,0.003622905643751684
573.0,0.003617492915119048
572.0,0.0036086871315327597
571.0,0.003574884604056582
570.0,0.0035001457610182845
569.0,0.00340979261045902
568.0,0.0033701940387814606
567.0,0.0034157648550004376
566.0,0.0034922723374064485
565.0,0.0035221762364918705
564.0,0.00349022196734581
563.0,0.00342695524656052
562.0,0.0033557239395936907
561.0,0.0032869412584829406
560.0,0.0032418770422229922
559.0,0.003236707312922909
558.0,0.0032461288366784713
557.0,0.0032299984455801288
556.0,0.003185903985305401
555.0,0.0031368444083000593
554.0,0.003088298860234614
553.0,0.003028679197596527
552.0,0.002959110289106226
551.0,0.002894272002492265
550.0,0.002837180013395205
