cm-1,A
4000.0,0.002102353959962326
3999.0,0.002095320624073276
3998.0,0.002090579906772746
3997.0,0.002088320002865864
3996.0,0.002090748565641072
3995.0,0.002101324799438876
3994.0,0.0021204574384505685
3993.0,0.0021410921960057687
3992.0,0.0021515862136217943
3991.0,0.002145268630425635
3990.0,0.002126861851726225
3989.0,0.002109004697824206
3988.0,0.0021006958954145017
3987.0,0.002101846021905037
3986.0,0.0021078856060053816
3985.0,0.002114756373760634
3984.0,0.002119710702636335
3983.0,0.0021198216633699684
3982.0,0.0021149505953954855
3981.0,0.002110683343139637
3980.0,0.0021158610858356165
3979.0,0.0021343444237305878
3978.0,0.00215943666943474
3977.0,0.002179802916769267
3976.0,0.0021881662807830982
3975.0,0.0021865061712562544
3974.0,0.002181142113130934
3973.0,0.0021743252747778476
3972.0,0.0021640073987035215
3971.0,0.00214824402476609
3970.0,0.0021295012904424216
3969.0,0.0021131013339233794
3968.0,0.002103101018213995
3967.0,0.0021014316103089457
3966.0,0.002108603831681268
3965.0,0.0021230521821054404
3964.0,0.0021393375468213103
3963.0,0.0021501302334061625
3962.0,0.002150987627252087
3961.0,0.0021455961122329673
3960.0,0.0021441476914880932
3959.0,0.002152120784056186
3958.0,0.0021667534329295746
3957.0,0.002180082284090331
3956.0,0.0021831249611033833
3955.0,0.0021723814141441982
3954.0,0.002151387872777035
3953.0,0.0021298995805369043
3952.0,0.002120772638305829
3951.0,0.0021305114943361535
3950.0,0.0021538248455658295
3949.0,0.0021743974182049063
3948.0,0.0021793643774061598
3947.0,0.0021687343837077802
3946.0,0.002144450642340418
3945.0,0.00211293289522994
3944.0,0.002086396548332187
3943.0,0.002074824250188064
3942.0,0.002085260224764131
3941.0,0.002111660176777521
3940.0,0.002135127458738983
3939.0,0.0021416408727285476
3938.0,0.002134678122739696
3937.0,0.0021301205238831427
3936.0,0.002138590904428829
3935.0,0.0021588834051639956
3934.0,0.0021811524174713114
3933.0,0.0021970268785198024
3932.0,0.0021985783494510927
3931.0,0.0021831083992572345
3930.0,0.002157423186402583
3929.0,0.002126672954442697
3928.0,0.002096115544458552
3927.0,0.002076171303024811
3926.0,0.00208336772353115
3925.0,0.0021183398517051937
3924.0,0.0021603354421729833
3923.0,0.0021949440753498313
3922.0,0.002219409626857516
3921.0,0.0022393408917930815
3920.0,0.0022618765173891458
3919.0,0.0022825564716648173
3918.0,0.0022860929762096036
3917.0,0.00226194001747017
3916.0,0.002222623046788507
3915.0,0.0021889223996248604
3914.0,0.002164137825468721
3913.0,0.0021412258689473976
3912.0,0.002116241289732275
3911.0,0.002091251705448746
3910.0,0.002073204280376201
3909.0,0.002068756475270798
3908.0,0.0020877973144617003
3907.0,0.002147318160525313
3906.0,0.002259303277806592
3905.0,0.002397319105527149
3904.0,0.0024965374104283225
3903.0,0.0025216936815191052
3902.0,0.002495108619945294
3901.0,0.0024498448724390018
3900.0,0.002397199954621003
3899.0,0.002347751905899361
3898.0,0.0023155164035037626
3897.0,0.002299734104453126
3896.0,0.0022952001563461754
3895.0,0.002296906932531973
3894.0,0.002297469321220373
3893.0,0.0022870033698744845
3892.0,0.0022602761850168017
3891.0,0.00224368441211056
3890.0,0.0022646825600832242
3889.0,0.002301434596981346
3888.0,0.0023187291593874055
3887.0,0.002307628124295972
3886.0,0.002282977862179068
3885.0,0.002259971694240282
3884.0,0.002239418409614149
3883.0,0.0022022848209324692
3882.0,0.0021359616067581433
3881.0,0.002070285380309767
3880.0,0.0020652543680737727
3879.0,0.002129358271369528
3878.0,0.002195205688514364
3877.0,0.0022031926518350656
3876.0,0.00215133736454464
3875.0,0.0020896001699781744
3874.0,0.00207585663435341
3873.0,0.002121091621316889
3872.0,0.002185403287530351
3871.0,0.002215030221064825
3870.0,0.0022019882140337822
3869.0,0.002207270148205518
3868.0,0.002265872607599961
3867.0,0.0023497752587662343
3866.0,0.0024350798915967753
3865.0,0.0024977145324962344
3864.0,0.0025030162756784317
3863.0,0.00246053780155317
3862.0,0.0024161138150690957
3861.0,0.0023831253398045637
3860.0,0.002345927285765952
3859.0,0.002300323246549929
3858.0,0.002260837961234612
3857.0,0.0022456225970319717
3856.0,0.0022727798709629146
3855.0,0.0023455684845318132
3854.0,0.0024408181140264384
3853.0,0.0024504865853807274
3852.0,0.002394546891883827
3851.0,0.0023540735138964574
3850.0,0.0023297379913890413
3849.0,0.0023095124919100636
3848.0,0.0022933966325361663
3847.0,0.002279592480100178
3846.0,0.002264250137363392
3845.0,0.0022430926985353436
3844.0,0.0022194761114658294
3843.0,0.002205629302749989
3842.0,0.0022119168884504716
3841.0,0.0022349076038501725
3840.0,0.002256586026367485
3839.0,0.0022578320546535937
3838.0,0.002254440110480198
3837.0,0.002281180796038126
3836.0,0.0023305848035523246
3835.0,0.0023659581270950546
3834.0,0.002374869868115144
3833.0,0.0023694065484288667
3832.0,0.0023634142592014427
3831.0,0.002360265334589949
3830.0,0.0023539119887770847
3829.0,0.0023395046035596823
3828.0,0.0023224648050276606
3827.0,0.002320287574656325
3826.0,0.0023494436432687973
3825.0,0.002405590146915701
3824.0,0.002458744538303091
3823.0,0.00247599614139045
3822.0,0.0024588748119149535
3821.0,0.00242327510982836
3820.0,0.002400120040596216
3819.0,0.002392503081969236
3818.0,0.00236056285233435
3817.0,0.0022872068682455136
3816.0,0.002214026302137272
3815.0,0.0022078053076880315
3814.0,0.0022598033652586284
3813.0,0.0023078453196357634
3812.0,0.0023212513939127096
3811.0,0.0023081937936885004
3810.0,0.0022897493570754905
3809.0,0.002287397949128538
3808.0,0.0023106484079761713
3807.0,0.0023403586783303666
3806.0,0.002345466592577109
3805.0,0.0023065350468138932
3804.0,0.002228740618317954
3803.0,0.0021441645535951927
3802.0,0.0020871198621536446
3801.0,0.0020892780425761795
3800.0,0.002166594348246337
3799.0,0.002261012761637555
3798.0,0.002306074126968852
3797.0,0.002293874129606243
3796.0,0.002269526217879201
3795.0,0.0022705359092257274
3794.0,0.0022914302612359995
3793.0,0.0023129509076442933
3792.0,0.0023282764158807593
3791.0,0.0023365983707638056
3790.0,0.0023372303514628753
3789.0,0.0023301852814634474
3788.0,0.002316557867334192
3787.0,0.0022975580590960214
3786.0,0.0022728465081851886
3785.0,0.0022427124202640076
3784.0,0.002215642850381781
3783.0,0.0022000202961628603
3782.0,0.002191404722944287
3781.0,0.0021907610194028425
3780.0,0.0022065590277565404
3779.0,0.0022406091378407303
3778.0,0.0022868482746965357
3777.0,0.0023282202138857682
3776.0,0.0023490931416427323
3775.0,0.002352901899489739
3774.0,0.0023572601605648356
3773.0,0.002375391298249644
3772.0,0.0024056880512593037
3771.0,0.0024309266183881644
3770.0,0.0024371358511225483
3769.0,0.0024369218384025157
3768.0,0.002448434515816377
3767.0,0.002469572670655831
3766.0,0.0024850153527222986
3765.0,0.0024867336895129976
3764.0,0.0024775167364292127
3763.0,0.002453610149100384
3762.0,0.002410685727048242
3761.0,0.0023619514153744962
3760.0,0.0023297167374397507
3759.0,0.002326349891996481
3758.0,0.002354690974853059
3757.0,0.0024104749890699762
3756.0,0.002468170444612382
3755.0,0.002508207424755181
3754.0,0.0025478949492653115
3753.0,0.002652554570521699
3752.0,0.0028577628341989094
3751.0,0.003049579119514697
3750.0,0.0031243116787523575
3749.0,0.003135060314018899
3748.0,0.0031186094706238034
3747.0,0.003054266840577053
3746.0,0.0029263420580603328
3745.0,0.002780953261874411
3744.0,0.0027165107683065817
3743.0,0.00273412806670745
3742.0,0.0027615962396860053
3741.0,0.0027728697773387436
3740.0,0.0027732994963092167
3739.0,0.0027679585618938796
3738.0,0.0027546728675382033
3737.0,0.0027426683001273936
3736.0,0.0027393346646637923
3735.0,0.0027455960930648157
3734.0,0.0027826838545429384
3733.0,0.002834602087098244
3732.0,0.0028559441027818074
3731.0,0.0028474569845504906
3730.0,0.002843586072588061
3729.0,0.0028610948543689556
3728.0,0.0028878957289054956
3727.0,0.002892351837856441
3726.0,0.0028539932544437317
3725.0,0.0027849928022542682
3724.0,0.002708388116678241
3723.0,0.00263494792574083
3722.0,0.002568010714032283
3721.0,0.002512125749353799
3720.0,0.0024712916661174386
3719.0,0.0024498478305612368
3718.0,0.0024545774877386987
3717.0,0.0024835464883334072
3716.0,0.00251445142303633
3715.0,0.0025245925817117343
3714.0,0.002520318610029962
3713.0,0.0025459866128486174
3712.0,0.002613366014041496
3711.0,0.0026518497733975972
3710.0,0.00265347009508023
3709.0,0.00266590051948785
3708.0,0.002685688398428457
3707.0,0.002692456124650527
3706.0,0.002681062047579277
3705.0,0.0026542139744701416
3704.0,0.0026177952146060335
3703.0,0.002584733544357532
3702.0,0.0025729667202564702
3701.0,0.0025948965598550974
3700.0,0.002644220374907566
3699.0,0.0026967676828693263
3698.0,0.0027359568552312316
3697.0,0.002764949170401752
3696.0,0.002793793470244812
3695.0,0.002822516016060707
3694.0,0.0028369094236089165
3693.0,0.0028211432844586744
3692.0,0.0027837456012152284
3691.0,0.0027478443560145817
3690.0,0.0027049112608143718
3689.0,0.0026629597761520475
3688.0,0.0026866264842289444
3687.0,0.0027655955838544214
3686.0,0.0028303907457904853
3685.0,0.0028503048769477493
3684.0,0.0028409258291599232
3683.0,0.0028257068677076166
3682.0,0.002814216885513766
3681.0,0.002807331880269017
3680.0,0.0028049417129825368
3679.0,0.0027991522080145215
3678.0,0.002777748167389173
3677.0,0.0027292665750632958
3676.0,0.0026583060292812684
3675.0,0.0026352462826423634
3674.0,0.0027218385810090394
3673.0,0.0028437400854124315
3672.0,0.0029433553804488477
3671.0,0.003000134246213362
3670.0,0.0029923652801334003
3669.0,0.0029698119568381497
3668.0,0.0029885247379166117
3667.0,0.0030113739358331457
3666.0,0.0030101619560920336
3665.0,0.0029962345291710615
3664.0,0.0029891906468025855
3663.0,0.0029974184417594927
3662.0,0.0030197864478588568
3661.0,0.0030535243000530737
3660.0,0.003096214644651008
3659.0,0.0031472582701210783
3658.0,0.0032022456021326817
3657.0,0.0032475767434107343
3656.0,0.003264961332843483
3655.0,0.003256662033169
3654.0,0.0032352920349856566
3653.0,0.0032052302722286553
3652.0,0.003197622756298847
3651.0,0.0033001847959764135
3650.0,0.0035076454866148398
3649.0,0.003563831699375293
3648.0,0.0034417298832744737
3647.0,0.0033748023319066607
3646.0,0.0034183660751609564
3645.0,0.00350130496526323
3644.0,0.0035700928461504704
3643.0,0.003605459508932954
3642.0,0.0036114388320293567
3641.0,0.0036054140172321484
3640.0,0.003599388665550163
3639.0,0.0035958681136549616
3638.0,0.003597118193276275
3637.0,0.0036080920151271836
3636.0,0.003634232621719924
3635.0,0.0036823658892460682
3634.0,0.003761523124252622
3633.0,0.0038745080364036384
3632.0,0.004010914232598173
3631.0,0.004150130436999707
3630.0,0.004262080322474319
3629.0,0.004299615202874416
3628.0,0.004280777508428724
3627.0,0.004277335637794194
3626.0,0.004286806769165294
3625.0,0.004296894677052382
3624.0,0.004309244743533155
3623.0,0.004326221341396318
3622.0,0.004345383579503228
3621.0,0.004363786349668678
3620.0,0.0043760551390741725
3619.0,0.004380407995108088
3618.0,0.004400175025387279
3617.0,0.004452270650422344
3616.0,0.00452502179863847
3615.0,0.004598848144875112
3614.0,0.0046596795572094556
3613.0,0.004715556404844582
3612.0,0.004786172392227688
3611.0,0.0048639271293000426
3610.0,0.004912932434670133
3609.0,0.004902082568899135
3608.0,0.004837841429109468
3607.0,0.004771180138829837
3606.0,0.004746555029915598
3605.0,0.00476036342971812
3604.0,0.004789409904317455
3603.0,0.004827273353708975
3602.0,0.00488058334155073
3601.0,0.0049474863480937995
3600.0,0.00501262445798043
3599.0,0.005060983228990906
3598.0,0.005088453001146456
3597.0,0.005103775535850095
3596.0,0.005121572249508585
3595.0,0.005152316477314404
3594.0,0.005197895477704471
3593.0,0.005256971653082889
3592.0,0.005325970660516821
3591.0,0.005394689121218106
3590.0,0.005455848402257036
3589.0,0.0055079968722116564
3588.0,0.005527897540062924
3587.0,0.005499768530337006
3586.0,0.0054784193798405895
3585.0,0.005496778213353079
3584.0,0.0055311684382223815
3583.0,0.0055608459502175765
3582.0,0.005582016564751161
3581.0,0.005596015201232351
3580.0,0.00560632682813271
3579.0,0.0056219555149100466
3578.0,0.005654993027033943
3577.0,0.005708840568443523
3576.0,0.005772010981099238
3575.0,0.0058266003429342916
3574.0,0.0058652542502780364
3573.0,0.0058947541317959165
3572.0,0.005922397357751231
3571.0,0.0059458957477298985
3570.0,0.005963043761836118
3569.0,0.005994104314490519
3568.0,0.006057717267324481
3567.0,0.006113355683111004
3566.0,0.006142437149365132
3565.0,0.006192345328457622
3564.0,0.006267374307396906
3563.0,0.006331013378265228
3562.0,0.006361739301470338
3561.0,0.006366395689742829
3560.0,0.006368316102070896
3559.0,0.006388391554264907
3558.0,0.00643153334422086
3557.0,0.0064870184448844945
3556.0,0.006539892325993692
3555.0,0.006582003972360065
3554.0,0.006614886032545059
3553.0,0.00664461424405198
3552.0,0.006681149874222232
3551.0,0.006733994019469404
3550.0,0.006799464394674944
3549.0,0.0068663816786725985
3548.0,0.006931196430855909
3547.0,0.006994387677286362
3546.0,0.0070470515542099856
3545.0,0.007075686520855749
3544.0,0.007080971080911122
3543.0,0.007076506277386584
3542.0,0.007079133577596769
3541.0,0.007101868184886083
3540.0,0.007148049634752261
3539.0,0.0072110292480960635
3538.0,0.00727652160763247
3537.0,0.007328583438330236
3536.0,0.007362404169983109
3535.0,0.007391385386167206
3534.0,0.007430623027390797
3533.0,0.007481791995597635
3532.0,0.007537052184485478
3531.0,0.007590008078898092
3530.0,0.007640651747445149
3529.0,0.007688637270445029
3528.0,0.007729853950954008
3527.0,0.007764152851551076
3526.0,0.007797160680403035
3525.0,0.00782857059413457
3524.0,0.007849416824898392
3523.0,0.007860072496972074
3522.0,0.00787925231330777
3521.0,0.007919476753795986
3520.0,0.007966796048392278
3519.0,0.00799828830344422
3518.0,0.008008982923637383
3517.0,0.00801597166149194
3516.0,0.00803691625309161
3515.0,0.008074754355742045
3514.0,0.008123390765240263
3513.0,0.008178263939649875
3512.0,0.008235093644084006
3511.0,0.008283755031567856
3510.0,0.008314704624177324
3509.0,0.008334177616888315
3508.0,0.0083615428366957
3507.0,0.00840801246468129
3506.0,0.008469474421491555
3505.0,0.008534725935085552
3504.0,0.008588962342242318
3503.0,0.008621580170677282
3502.0,0.008640252210224676
3501.0,0.00865857880995858
3500.0,0.008676208596309007
3499.0,0.008688344110047486
3498.0,0.008699361332150246
3497.0,0.008717340235234369
3496.0,0.008743269071927956
3495.0,0.008772796258226887
3494.0,0.008805217609930388
3493.0,0.008843108994837938
3492.0,0.008883885138374872
3491.0,0.008919358104515612
3490.0,0.008945561946603153
3489.0,0.008967645101146721
3488.0,0.00899283024135648
3487.0,0.009021601927165323
3486.0,0.009048121198996808
3485.0,0.0090697796502861
3484.0,0.009093690788862732
3483.0,0.009131320657863415
3482.0,0.009186025504279546
3481.0,0.009247843740330879
3480.0,0.009301776659595393
3479.0,0.00933904123959178
3478.0,0.009361222424585801
3477.0,0.009376689307624175
3476.0,0.00939509187696819
3475.0,0.009423381669781754
3474.0,0.009462462497216809
3473.0,0.009505133457630868
3472.0,0.00954030693742518
3471.0,0.009563439366612856
3470.0,0.009581768168912048
3469.0,0.009605624758923433
3468.0,0.009636699604046261
3467.0,0.009668627345667976
3466.0,0.009696370496234693
3465.0,0.009720580683815436
3464.0,0.009744820638674165
3463.0,0.00977350513751255
3462.0,0.009810343600165052
3461.0,0.009853520485798637
3460.0,0.009892899788048104
3459.0,0.009917515289393705
3458.0,0.009927005740269685
3457.0,0.00993303347931222
3456.0,0.009947611574548812
3455.0,0.009973924469067533
3454.0,0.01000767915136432
3453.0,0.010043242234259063
3452.0,0.010077650208877178
3451.0,0.010111125189530066
3450.0,0.010146746391192705
3449.0,0.010186765010851112
3448.0,0.01022646517839674
3447.0,0.010258483728318368
3446.0,0.010286127845987772
3445.0,0.010318969295716691
3444.0,0.010357231379652033
3443.0,0.010393243577900802
3442.0,0.010423823868356205
3441.0,0.010454842987289412
3440.0,0.010491581456445688
3439.0,0.010529135637199582
3438.0,0.010556759708365409
3437.0,0.010569465881229145
3436.0,0.010571959402706508
3435.0,0.010574822816458912
3434.0,0.010588174353227068
3433.0,0.010615646196705126
3432.0,0.010651595971846138
3431.0,0.010684938658595353
3430.0,0.010709321472512698
3429.0,0.010727809974496749
3428.0,0.01074723243963276
3427.0,0.010772022853900203
3426.0,0.010805199286016398
3425.0,0.01084979666777926
3424.0,0.01090378460682719
3423.0,0.01095533302624437
3422.0,0.010987563206688866
3421.0,0.010991893722846206
3420.0,0.01097716074525719
3419.0,0.010963969998896086
3418.0,0.010971298069999412
3417.0,0.011006172224336721
3416.0,0.011059562222598553
3415.0,0.011110594846775963
3414.0,0.011140528349354521
3413.0,0.011146079831484147
3412.0,0.011139269412970946
3411.0,0.011136310925629061
3410.0,0.011147001360697063
3409.0,0.011170115613286234
3408.0,0.011195907831501633
3407.0,0.01121482763076194
3406.0,0.011225752855164198
3405.0,0.011235733534594193
3404.0,0.011251913457039705
3403.0,0.011276777595436714
3402.0,0.011310173393620365
3401.0,0.011349818392060255
3400.0,0.011387437542151255
3399.0,0.011410252391437184
3398.0,0.011412919527423956
3397.0,0.011406247646934627
3396.0,0.011408889959074282
3395.0,0.011429481700650826
3394.0,0.011459156239135893
3393.0,0.011480795544534671
3392.0,0.01148543252535127
3391.0,0.011480471350996122
3390.0,0.011481291990214736
3389.0,0.011496032461192657
3388.0,0.011518153198081358
3387.0,0.01153335149715718
3386.0,0.011534639028824895
3385.0,0.011530768987583798
3384.0,0.011537916073274132
3383.0,0.011563578181156746
3382.0,0.011599393086005398
3381.0,0.011628535643152572
3380.0,0.011640292664630954
3379.0,0.011639265580455303
3378.0,0.011640213703669867
3377.0,0.011652260773446048
3376.0,0.011670462588612249
3375.0,0.011684870916953721
3374.0,0.011693908604585926
3373.0,0.011703660375381992
3372.0,0.011716831825429543
3371.0,0.011729482747927955
3370.0,0.011739174997921948
3369.0,0.011750050616220021
3368.0,0.011766534724290324
3367.0,0.011786286380634661
3366.0,0.011803027095151675
3365.0,0.011813595598469303
3364.0,0.011818969104782692
3363.0,0.011820884273815009
3362.0,0.011820631943625473
3361.0,0.011819694898310796
3360.0,0.011819134518394095
3359.0,0.011819253199622043
3358.0,0.011821176224228869
3357.0,0.01182701072745043
3356.0,0.01183675856911684
3355.0,0.01184597261256827
3354.0,0.011848077394759566
3353.0,0.011839217090401106
3352.0,0.011822009904520184
3351.0,0.011806276407293877
3350.0,0.011804645597600959
3349.0,0.011823133466989546
3348.0,0.011854152071197655
3347.0,0.011881684961488163
3346.0,0.011894692033332939
3345.0,0.011894435948449727
3344.0,0.011889073382670324
3343.0,0.011884483786007873
3342.0,0.01188181093936187
3341.0,0.011880394938300638
3340.0,0.011880415347660996
3339.0,0.01188355575366484
3338.0,0.011892226230724948
3337.0,0.011907076348963534
3336.0,0.011924797740914506
3335.0,0.011940064659487423
3334.0,0.011949907231567336
3333.0,0.011954758712074723
3332.0,0.011956295017342166
3331.0,0.011957428113035637
3330.0,0.011963712786935024
3329.0,0.011979444033311777
3328.0,0.011999759805528261
3327.0,0.012011375998958781
3326.0,0.012006084187479081
3325.0,0.011991839926146523
3324.0,0.011985405162510301
3323.0,0.011994220648603171
3322.0,0.012009540094637177
3321.0,0.012017592119426702
3320.0,0.012013729299739383
3319.0,0.012004453093761165
3318.0,0.01199882208526308
3317.0,0.012001085194185614
3316.0,0.012010613522786458
3315.0,0.012024931205788006
3314.0,0.012040737678937954
3313.0,0.012053894633734954
3312.0,0.01206143115474699
3311.0,0.01206365212869118
3310.0,0.0120623770472913
3309.0,0.012057642709676242
3308.0,0.01204926094253592
3307.0,0.012041460762303634
3306.0,0.012041258501677228
3305.0,0.012049945117239943
3304.0,0.012059768147382922
3303.0,0.012063640079986573
3302.0,0.012066394167093148
3301.0,0.01208076317044472
3300.0,0.012110826004627148
3299.0,0.012144019936135309
3298.0,0.012162225611341216
3297.0,0.012159036475080221
3296.0,0.012144440569966098
3295.0,0.012133791283253717
3294.0,0.012134351808360325
3293.0,0.01214141033603419
3292.0,0.012145210838063771
3291.0,0.01214092728900524
3290.0,0.012131585017234756
3289.0,0.012122432052397833
3288.0,0.01211549238904774
3287.0,0.012110529581769003
3286.0,0.01210842424448315
3285.0,0.012110624104268537
3284.0,0.012116885156728792
3283.0,0.012126149122767665
3282.0,0.012138206494479217
3281.0,0.01215115698456331
3280.0,0.01215812703085645
3279.0,0.012151158923096686
3278.0,0.012129216993606374
3277.0,0.012099783425162415
3276.0,0.01207197949083678
3275.0,0.012049862072333137
3274.0,0.012032062492593146
3273.0,0.012014950043758072
3272.0,0.011995343458628124
3271.0,0.011972944801159726
3270.0,0.011951741791779673
3269.0,0.011937795119507507
3268.0,0.011934965525954652
3267.0,0.011942643883392038
3266.0,0.011956011459979063
3265.0,0.01196694628227905
3264.0,0.011967530081131888
3263.0,0.01195576528470119
3262.0,0.011937191960270415
3261.0,0.01191859002028244
3260.0,0.011901193784864017
3259.0,0.011882446668803963
3258.0,0.011861597458654493
3257.0,0.011839989138139589
3256.0,0.01181774674343484
3255.0,0.011795179418232384
3254.0,0.011776145986521687
3253.0,0.011764519654768303
3252.0,0.01175652210343592
3251.0,0.011741509780589241
3250.0,0.011712790872275496
3249.0,0.011675072864212951
3248.0,0.011640780556790357
3247.0,0.011620775677781572
3246.0,0.011617292834328781
3245.0,0.01162240102237478
3244.0,0.011623648884616061
3243.0,0.011613769519783653
3242.0,0.011595348653013525
3241.0,0.011575661108334303
3240.0,0.01155861877423257
3239.0,0.011543119826982291
3238.0,0.011527028638140749
3237.0,0.011509368529824659
3236.0,0.011489033155992421
3235.0,0.011464998570440435
3234.0,0.011437761610802188
3233.0,0.011408756547355283
3232.0,0.01137936740494501
3231.0,0.01135215737391165
3230.0,0.011330925248242446
3229.0,0.011315719291957542
3228.0,0.011299815957894074
3227.0,0.011276491072276195
3226.0,0.01124775090884214
3225.0,0.011221963604829233
3224.0,0.011203840632892717
3223.0,0.011190821586428515
3222.0,0.01117842913347726
3221.0,0.011163986322417663
3220.0,0.011145617427634666
3219.0,0.011122915478577
3218.0,0.011099058339049079
3217.0,0.011077841357115264
3216.0,0.011058425364222973
3215.0,0.011037601231650684
3214.0,0.011017886945902054
3213.0,0.011007896457821032
3212.0,0.011011150096979387
3211.0,0.011018017595931429
3210.0,0.011012623835725448
3209.0,0.010986964130261795
3208.0,0.010947055522986911
3207.0,0.01090620769581572
3206.0,0.010874073628657787
3205.0,0.01085119393101637
3204.0,0.010832269856081149
3203.0,0.010813662787789575
3202.0,0.0107963524011241
3201.0,0.010780948371538918
3200.0,0.010763508592044266
3199.0,0.010740306748981566
3198.0,0.010714452454915774
3197.0,0.01069249903723346
3196.0,0.010674969302388405
3195.0,0.010656429221910693
3194.0,0.010634769234997784
3193.0,0.010613449088974585
3192.0,0.010592986623239214
3191.0,0.010567178380863454
3190.0,0.010532588068987816
3189.0,0.01049662320183549
3188.0,0.010470574473594105
3187.0,0.010456219113200943
3186.0,0.010444401399327735
3185.0,0.010426348728586112
3184.0,0.010402331621548992
3183.0,0.010379029791409517
3182.0,0.010361509481989247
3181.0,0.010349113812286958
3180.0,0.01033642426520473
3179.0,0.010316826552463403
3178.0,0.010287326510975484
3177.0,0.010251291951368709
3176.0,0.010215452890125938
3175.0,0.010183952576983606
3174.0,0.010156029883430681
3173.0,0.010128999456059669
3172.0,0.010102168883461443
3171.0,0.01007717647107399
3170.0,0.01005488975150431
3169.0,0.01003295720019583
3168.0,0.010008126674536828
3167.0,0.009980841922828486
3166.0,0.009955824889350028
3165.0,0.009937004842117413
3164.0,0.009922988067659469
3163.0,0.009908949040469775
3162.0,0.009891909998792126
3161.0,0.009872364184243667
3160.0,0.009851162265971478
3159.0,0.009827381250580152
3158.0,0.009800263838646916
3157.0,0.009771290406162276
3156.0,0.009742595322852392
3155.0,0.009714119655175596
3154.0,0.00968396007646306
3153.0,0.00965174234448547
3152.0,0.0096205947955292
3151.0,0.00959494448993761
3150.0,0.0095763262222795
3149.0,0.009562013396998682
3148.0,0.009548102598841582
3147.0,0.0095328985788378
3146.0,0.009515994498752265
3145.0,0.009495386571906534
3144.0,0.0094686908663617
3143.0,0.009437868071210236
3142.0,0.009408721799375817
3141.0,0.00938371690120926
3140.0,0.009358753268530867
3139.0,0.009330540233935864
3138.0,0.009304206905075848
3137.0,0.00928794211004161
3136.0,0.009281148218168576
3135.0,0.00927330776452354
3134.0,0.009255250502874875
3133.0,0.009228657937577761
3132.0,0.00920325228645804
3131.0,0.009186736258166293
3130.0,0.009179494641386657
3129.0,0.009176611534301696
3128.0,0.009171406167420829
3127.0,0.009158040281660243
3126.0,0.009134338767207114
3125.0,0.009103376082247441
3124.0,0.00907183510670659
3123.0,0.009046051893522328
3122.0,0.009028512481932198
3121.0,0.009017154820062958
3120.0,0.009007693486589698
3119.0,0.008997267892597947
3118.0,0.008985811302572509
3117.0,0.008973758759300341
3116.0,0.008959702024568788
3115.0,0.008941647028751045
3114.0,0.008919849952476851
3113.0,0.008897227038616631
3112.0,0.008877083203475107
3111.0,0.008861475689628251
3110.0,0.008851009994649463
3109.0,0.008844493030146526
3108.0,0.008838744295339209
3107.0,0.00883028933644264
3106.0,0.008819014023128149
3105.0,0.008808455130337817
3104.0,0.008800722430288238
3103.0,0.00879172706893129
3102.0,0.008773903963715747
3101.0,0.008745279991127647
3100.0,0.008714612910715954
3099.0,0.00869488351414637
3098.0,0.00869091296900463
3097.0,0.008694319816778448
3096.0,0.008690625012595517
3095.0,0.008672709617417134
3094.0,0.00864686495300855
3093.0,0.008624580266463587
3092.0,0.008611305016415842
3091.0,0.008604825777929375
3090.0,0.008601084833995668
3089.0,0.008597892586448866
3088.0,0.008593570472377576
3087.0,0.008585684969799154
3086.0,0.008573501690630985
3085.0,0.00855911837841331
3084.0,0.008544685006534243
3083.0,0.008530141123645139
3082.0,0.008514800860704627
3081.0,0.008500026633327867
3080.0,0.008488248853889987
3079.0,0.008480046200207186
3078.0,0.00847349966128476
3077.0,0.008466338694349377
3076.0,0.00845751324807813
3075.0,0.008446620037962736
3074.0,0.008433165668047896
3073.0,0.008417300622376415
3072.0,0.00840072644524968
3071.0,0.00838530325313783
3070.0,0.008370639340383419
3069.0,0.008354542644694363
3068.0,0.008337140137748202
3067.0,0.008322894396741368
3066.0,0.008315979374758031
3065.0,0.008313718381452583
3064.0,0.008307799319451371
3063.0,0.00829304250763163
3062.0,0.008271794667746335
3061.0,0.00824922843726366
3060.0,0.008227491169485552
3059.0,0.008206140615317003
3058.0,0.008184832734210935
3057.0,0.008163072151847117
3056.0,0.008140238578311644
3055.0,0.008118649690990385
3054.0,0.008103556590966548
3053.0,0.008095841788284338
3052.0,0.008088111184008616
3051.0,0.00807164482958555
3050.0,0.008045725333561262
3049.0,0.008016689737149182
3048.0,0.00798912394494556
3047.0,0.007962936605301837
3046.0,0.007937338239646213
3045.0,0.00791214398759389
3044.0,0.007885930809896488
3043.0,0.007858537837911418
3042.0,0.007835243406148497
3041.0,0.007822879082995712
3040.0,0.007820184641617227
3039.0,0.007816974028738632
3038.0,0.007805199672221255
3037.0,0.00778722264845942
3036.0,0.007771903593680723
3035.0,0.0077651526476964685
3034.0,0.007765095208786356
3033.0,0.007763976280497487
3032.0,0.00775405800025185
3031.0,0.007734574857172173
3030.0,0.00771353310301769
3029.0,0.007698896934124939
3028.0,0.007689670145443507
3027.0,0.007677872877878206
3026.0,0.007657867722705944
3025.0,0.007630899860747647
3024.0,0.007600778418072548
3023.0,0.00757003154307471
3022.0,0.007541279473854136
3021.0,0.007518076305581649
3020.0,0.0075017389777159785
3019.0,0.007489802063645216
3018.0,0.007479367381387814
3017.0,0.007469842836205118
3016.0,0.007461223092975616
3015.0,0.007452362898723537
3014.0,0.007442247291335928
3013.0,0.007430908657252287
3012.0,0.007418525896484191
3011.0,0.007405967334572007
3010.0,0.007396267062000372
3009.0,0.007392263321969766
3008.0,0.0073913524491408394
3007.0,0.007385373811281305
3006.0,0.007367188918788443
3005.0,0.007337079555404467
3004.0,0.007303076069977632
3003.0,0.007276058689472101
3002.0,0.007263927161767714
3001.0,0.0072664350041491115
3000.0,0.007275080941713558
2999.0,0.007280012200477852
2998.0,0.007277669213914385
2997.0,0.007270461350974533
2996.0,0.007260147506432569
2995.0,0.007246506508275975
2994.0,0.007232043090149097
2993.0,0.007222243160310279
2992.0,0.007218322394705198
2991.0,0.007214293044881361
2990.0,0.007204564789701417
2989.0,0.007191395599381912
2988.0,0.0071807005364569396
2987.0,0.007172710281014039
2986.0,0.007161164820090847
2985.0,0.007142369489332235
2984.0,0.007121086855454421
2983.0,0.0071054613146664496
2982.0,0.007096859814077131
2981.0,0.007087064715339519
2980.0,0.007066576969176432
2979.0,0.007035093644414353
2978.0,0.007002484725498172
2977.0,0.006978731678657268
2976.0,0.00696432683519819
2975.0,0.006950007755711892
2974.0,0.006924818162867826
2973.0,0.006883399292815734
2972.0,0.006828351000246388
2971.0,0.0067671563067489005
2970.0,0.006705798704868598
2969.0,0.0066438375908979466
2968.0,0.006576294738496122
2967.0,0.006501402951505388
2966.0,0.006423654717841154
2965.0,0.006348466385226492
2964.0,0.00627703849355246
2963.0,0.006209410545346071
2962.0,0.006148427095826983
2961.0,0.006096066730316357
2960.0,0.006048812409350202
2959.0,0.006002312385774006
2958.0,0.005959882143151704
2957.0,0.005930567757047378
2956.0,0.0059187570355328
2955.0,0.005919919438411439
2954.0,0.0059273528688469496
2953.0,0.0059389556925110235
2952.0,0.005956002597656954
2951.0,0.005977962057248406
2950.0,0.00599977436818217
2949.0,0.006013141881172163
2948.0,0.00601147009632187
2947.0,0.005995378115676197
2946.0,0.005972347687525514
2945.0,0.005948558861536597
2944.0,0.005922158420132896
2943.0,0.005886387825136801
2942.0,0.005837216002447028
2941.0,0.0057750256434225085
2940.0,0.005701011816588316
2939.0,0.005615692369262152
2938.0,0.005519568331302733
2937.0,0.0054117196958375574
2936.0,0.00528988029977274
2935.0,0.005156582813632898
2934.0,0.005023374425151037
2933.0,0.004903286456097665
2932.0,0.004798610313136941
2931.0,0.004700939746311458
2930.0,0.0046029298412608366
2929.0,0.00450639881185136
2928.0,0.004419857039047508
2927.0,0.0043527334421353
2926.0,0.0043114796044056315
2925.0,0.004296763811459113
2924.0,0.004303720579314603
2923.0,0.004327540851496823
2922.0,0.004367190856065284
2921.0,0.004422349765839625
2920.0,0.0044912977202810405
2919.0,0.004575797994891274
2918.0,0.0046828509547429354
2917.0,0.0048149381272075955
2916.0,0.0049621066739821435
2915.0,0.005108932871448676
2914.0,0.005245649873831252
2913.0,0.0053672081618762356
2912.0,0.005466928204742184
2911.0,0.005540143590652142
2910.0,0.005591271263773037
2909.0,0.00562969630280856
2908.0,0.005660066031174532
2907.0,0.005682222746518279
2906.0,0.005698628019983877
2905.0,0.005713684488036794
2904.0,0.005725820154651478
2903.0,0.005730902844509953
2902.0,0.005730705863204894
2901.0,0.005735721657772898
2900.0,0.0057526107965146485
2899.0,0.005776377940656037
2898.0,0.00579892231052324
2897.0,0.005816900939948799
2896.0,0.005830583561442721
2895.0,0.005840275062771497
2894.0,0.005847908744322035
2893.0,0.0058575131648101394
2892.0,0.005870382181133393
2891.0,0.005882641501403413
2890.0,0.005890561154333032
2889.0,0.0058957196404079495
2888.0,0.005903229745037259
2887.0,0.005916665633693612
2886.0,0.005935496997198831
2885.0,0.005954997713009596
2884.0,0.005968006478337664
2883.0,0.005969362311270963
2882.0,0.005958719402113926
2881.0,0.0059372328617878466
2880.0,0.005903371426525632
2879.0,0.005856780373334824
2878.0,0.005804691260064202
2877.0,0.0057577076214806325
2876.0,0.005718727499497444
2875.0,0.005681501434979211
2874.0,0.0056414561877422735
2873.0,0.005601775173135263
2872.0,0.005566399379938825
2871.0,0.005533660086530332
2870.0,0.005500570520934241
2869.0,0.0054675779435838625
2868.0,0.005433957620883093
2867.0,0.00539235367814143
2866.0,0.005333686678121457
2865.0,0.005256968340921599
2864.0,0.0051700407718061865
2863.0,0.005081056506437817
2862.0,0.004991693642530464
2861.0,0.004897638918448397
2860.0,0.0047945441285011554
2859.0,0.0046846147009292445
2858.0,0.004578804600467781
2857.0,0.0044911703588029995
2856.0,0.004430448782072699
2855.0,0.004398752905514497
2854.0,0.004397148511770971
2853.0,0.004428493483802539
2852.0,0.004493923963557096
2851.0,0.004590555493861825
2850.0,0.004713389001435138
2849.0,0.00485518692901143
2848.0,0.005002820688225486
2847.0,0.005137934398659109
2846.0,0.005245232269785067
2845.0,0.005319195280470349
2844.0,0.005363040969752575
2843.0,0.005383611806690267
2842.0,0.005387381957446162
2841.0,0.0053789429654148594
2840.0,0.005361659971906901
2839.0,0.005340528919455165
2838.0,0.005323520854068037
2837.0,0.005317327344534414
2836.0,0.00532176024832996
2835.0,0.0053308176678951566
2834.0,0.0053392803648104606
2833.0,0.005345952858310672
2832.0,0.005350668632663186
2831.0,0.00535160269213214
2830.0,0.005346658360802542
2829.0,0.005335180486189994
2828.0,0.005318053345555842
2827.0,0.005298274099892917
2826.0,0.005280758879129551
2825.0,0.005268648175243901
2824.0,0.005259690587189117
2823.0,0.0052494134390412605
2822.0,0.005237776011230738
2821.0,0.00522893120063809
2820.0,0.005224548250725011
2819.0,0.005221595599797172
2818.0,0.005217246576714383
2817.0,0.005211509721121456
2816.0,0.005203480710323904
2815.0,0.005189569467746309
2814.0,0.005168422300005127
2813.0,0.0051447736018523284
2812.0,0.005125989429678337
2811.0,0.005116268071138821
2810.0,0.005115300518424627
2809.0,0.005119568063656276
2808.0,0.0051228786363567685
2807.0,0.0051190157140081
2806.0,0.005106694512612305
2805.0,0.005090558269017339
2804.0,0.005075474518996323
2803.0,0.0050609314163201575
2802.0,0.0050428906522754086
2801.0,0.0050200337123587
2800.0,0.004996169758711437
2799.0,0.004976961621906174
2798.0,0.004965253026301235
2797.0,0.004958640851165461
2796.0,0.0049514204597566535
2795.0,0.004940052091747815
2794.0,0.004926620616035665
2793.0,0.004915691825315038
2792.0,0.004908177172481
2791.0,0.0049003981848885336
2790.0,0.0048893634753643155
2789.0,0.004876803265816116
2788.0,0.004866997487146086
2787.0,0.004862060815603739
2786.0,0.0048604009581857234
2785.0,0.004858607705279378
2784.0,0.004854146427349601
2783.0,0.004847110463864712
2782.0,0.004839454628056785
2781.0,0.004832123377800344
2780.0,0.00482381737610603
2779.0,0.004813425649386607
2778.0,0.004802295097579154
2777.0,0.004792574982773872
2776.0,0.004784707160856447
2775.0,0.004778359705455188
2774.0,0.004774144458240127
2773.0,0.004771857497904754
2772.0,0.004768292057937309
2771.0,0.004759801273547943
2770.0,0.004746556338855987
2769.0,0.004731610368934433
2768.0,0.004716717871184907
2767.0,0.004702101142457909
2766.0,0.0046893657461464355
2765.0,0.004680871166951316
2764.0,0.004675782677431655
2763.0,0.004669886701093447
2762.0,0.0046603651671142735
2761.0,0.004648761983971144
2760.0,0.004639012777461861
2759.0,0.00463389490454665
2758.0,0.004632726880754918
2757.0,0.004630836800162901
2756.0,0.004622557492347021
2755.0,0.004607365963493341
2754.0,0.004591870502721694
2753.0,0.004582904981483175
2752.0,0.004579844381819603
2751.0,0.00457640180821862
2750.0,0.004568617723945172
2749.0,0.004557963591995607
2748.0,0.004547812767639755
2747.0,0.004540698506734828
2746.0,0.004538106777478874
2745.0,0.004539140172597584
2744.0,0.004539776014920429
2743.0,0.004536817864937459
2742.0,0.004531949589088761
2741.0,0.004528457947628488
2740.0,0.00452506807865896
2739.0,0.004517440922349329
2738.0,0.004505124065701774
2737.0,0.004492250406747623
2736.0,0.0044812565398870685
2735.0,0.004470669836347232
2734.0,0.004460086464504094
2733.0,0.004452516823323923
2732.0,0.0044498638856741305
2731.0,0.004449743708179423
2730.0,0.004448596639568222
2729.0,0.004445229795883516
2728.0,0.004439905881599285
2727.0,0.004432801070822742
2726.0,0.004424900621411803
2725.0,0.004418147382040894
2724.0,0.004413175851170338
2723.0,0.0044082259239229035
2722.0,0.00440088916448031
2721.0,0.004389682031614161
2720.0,0.004374473101000528
2719.0,0.004357570102337216
2718.0,0.004343955922077248
2717.0,0.00433768590839346
2716.0,0.004337643343559186
2715.0,0.004338354061136866
2714.0,0.004334698555557493
2713.0,0.004324639725776521
2712.0,0.004309424327319693
2711.0,0.0042939015698354515
2710.0,0.004284881722568353
2709.0,0.004285533452249876
2708.0,0.004291802662817412
2707.0,0.004297034448241097
2706.0,0.004298382651928835
2705.0,0.004295896554184782
2704.0,0.004288260343065578
2703.0,0.0042747331196504295
2702.0,0.004260061374931539
2701.0,0.0042512081509118475
2700.0,0.00424878516073904
2699.0,0.004246521707506474
2698.0,0.004239790660584441
2697.0,0.004230131294515331
2696.0,0.00422061320519126
2695.0,0.004211863780777031
2694.0,0.0042041143691644465
2693.0,0.004198623763784103
2692.0,0.0041950025214778
2691.0,0.004190621367588553
2690.0,0.004184772015080604
2689.0,0.0041804802926453674
2688.0,0.004180361486543564
2687.0,0.004182927470663458
2686.0,0.004184196504674602
2685.0,0.004180934940153944
2684.0,0.00417180693269958
2683.0,0.004157970729640242
2682.0,0.0041435173032455235
2681.0,0.004133266956382017
2680.0,0.004129185785426579
2679.0,0.004130116032503204
2678.0,0.0041341587035184715
2677.0,0.004138921736354267
2676.0,0.004140630032851841
2675.0,0.0041365522093062684
2674.0,0.004128686302516275
2673.0,0.004122282467673849
2672.0,0.004120569055620885
2671.0,0.0041229555026638725
2670.0,0.004127298962166722
2669.0,0.004131042890447691
2668.0,0.004131531666654106
2667.0,0.004129367505105111
2666.0,0.004131096306864245
2665.0,0.004144353045098909
2664.0,0.004169712312268707
2663.0,0.004200423632435289
2662.0,0.0042296211541720695
2661.0,0.004254534766612075
2660.0,0.004274453521376783
2659.0,0.004289433429316874
2658.0,0.004301934563932577
2657.0,0.004315404933193249
2656.0,0.004329742913978972
2655.0,0.004341156973248987
2654.0,0.004347520958386588
2653.0,0.004351336892488188
2652.0,0.004356727813656167
2651.0,0.004365811643823644
2650.0,0.004377908022442453
2649.0,0.00438975840945076
2648.0,0.004397285616091084
2647.0,0.004399824735573826
2646.0,0.004401507543645354
2645.0,0.004405586793406465
2644.0,0.004409696542871175
2643.0,0.004411163247612398
2642.0,0.00441428413707375
2641.0,0.004425717528392262
2640.0,0.004443556056950883
2639.0,0.004457949660670269
2638.0,0.004463174933069447
2637.0,0.004462628402232401
2636.0,0.004461316493773999
2635.0,0.004460390732041681
2634.0,0.00446085422321574
2633.0,0.004465957843417255
2632.0,0.004476400547871121
2631.0,0.004487787506594433
2630.0,0.004495529387875267
2629.0,0.004498432069182107
2628.0,0.004496431141511154
2627.0,0.0044899683587594965
2626.0,0.004483245173501393
2625.0,0.004482749845554142
2624.0,0.004489539914653004
2623.0,0.00449707704584813
2622.0,0.0044987333483419555
2621.0,0.004493907015569415
2620.0,0.004486290327137926
2619.0,0.004480737992853864
2618.0,0.004482810551879471
2617.0,0.0044956296166511036
2616.0,0.004514799980591184
2615.0,0.004531178241564779
2614.0,0.0045405064297550585
2613.0,0.0045462259121646234
2612.0,0.004552015341869199
2611.0,0.004556918956373579
2610.0,0.004559377012100146
2609.0,0.004560281899039396
2608.0,0.00455967481111678
2607.0,0.004555294407391299
2606.0,0.0045465559772238
2605.0,0.004535674574325149
2604.0,0.004523716127012529
2603.0,0.0045108056962017175
2602.0,0.004501255954420988
2601.0,0.0045017257494524895
2600.0,0.0045113542497928
2599.0,0.004520111479033783
2598.0,0.0045209075548557935
2597.0,0.0045185851261771055
2596.0,0.004523197515955981
2595.0,0.0045377930337891755
2594.0,0.004556147945928336
2593.0,0.004569109297965529
2592.0,0.0045703944682080255
2591.0,0.004559805371483063
2590.0,0.004543601940806757
2589.0,0.004529791867167073
2588.0,0.004521750906593637
2587.0,0.004518114791104368
2586.0,0.00451784339380727
2585.0,0.0045208157591528466
2584.0,0.004523521004221863
2583.0,0.004519907771386653
2582.0,0.0045086228291873936
2581.0,0.004495531303473608
2580.0,0.004487314165971527
2579.0,0.004485452771627277
2578.0,0.004486636643200156
2577.0,0.004485822211543985
2576.0,0.004479660550882062
2575.0,0.004470525922256168
2574.0,0.004465910504297293
2573.0,0.00446981783146901
2572.0,0.004476944251330863
2571.0,0.004480674923185866
2570.0,0.004483489934245744
2569.0,0.004491576044856902
2568.0,0.004501611920764603
2567.0,0.004502719507086501
2566.0,0.004492164285907897
2565.0,0.0044797437554803116
2564.0,0.004474194684838326
2563.0,0.004473740621574218
2562.0,0.004473163092885386
2561.0,0.004472683128313321
2560.0,0.004475816349151661
2559.0,0.004483565000757663
2558.0,0.004493787866852951
2557.0,0.004502383586455834
2556.0,0.004504260525635843
2555.0,0.004498458938758094
2554.0,0.00449296511207194
2553.0,0.004498185154152705
2552.0,0.004514274991323337
2551.0,0.004530684854497459
2550.0,0.004539211646610096
2549.0,0.004541970781818682
2548.0,0.004545944506782242
2547.0,0.004555924988935051
2546.0,0.004573880018041803
2545.0,0.004598460589224624
2544.0,0.004622870923067897
2543.0,0.0046389295614490435
2542.0,0.004645462543818859
2541.0,0.004648386415110629
2540.0,0.004652098818780154
2539.0,0.00465622687595202
2538.0,0.004660961838426108
2537.0,0.004668947595533684
2536.0,0.004680500049441608
2535.0,0.004692577222480163
2534.0,0.004703866009582889
2533.0,0.004716211095913448
2532.0,0.004730575652426278
2531.0,0.0047461255456583504
2530.0,0.00476243638743816
2529.0,0.004777318268527234
2528.0,0.004784272109113565
2527.0,0.00477906904265104
2526.0,0.00476791233565431
2525.0,0.004761784849816593
2524.0,0.004763346958629239
2523.0,0.004766639932096466
2522.0,0.004768047323946781
2521.0,0.004768654064339939
2520.0,0.004767178112914218
2519.0,0.004761354834711114
2518.0,0.004756918087410391
2517.0,0.004763492778810919
2516.0,0.004777827301425736
2515.0,0.0047815323958808114
2514.0,0.004761238419349411
2513.0,0.004723831392101962
2512.0,0.004687419591439621
2511.0,0.0046637198176882316
2510.0,0.004652790391771898
2509.0,0.00464775866426481
2508.0,0.004639669684462967
2507.0,0.004623082818752116
2506.0,0.00460163022879764
2505.0,0.0045847016264913155
2504.0,0.004576263594915526
2503.0,0.004570839749705917
2502.0,0.004561500794819424
2501.0,0.004546489388602576
2500.0,0.0045269291130234715
2499.0,0.00450441400503394
2498.0,0.004483162509446514
2497.0,0.004468668849609294
2496.0,0.004461039053821332
2495.0,0.004453882026154582
2494.0,0.0044418183478134275
2493.0,0.004425084479247792
2492.0,0.004405816608587182
2491.0,0.004384724953314947
2490.0,0.004362970343042244
2489.0,0.004342954115088795
2488.0,0.004325711990225896
2487.0,0.004310346332030533
2486.0,0.004295272589623709
2485.0,0.0042766424147463655
2484.0,0.004248489429113661
2483.0,0.004210493444458986
2482.0,0.004173258327496262
2481.0,0.004148480993381864
2480.0,0.004134898878843595
2479.0,0.004121240219012395
2478.0,0.004101944984348546
2477.0,0.0040820101381510675
2476.0,0.004067212244803942
2475.0,0.004058367727336634
2474.0,0.004055170234069931
2473.0,0.004056330894646288
2472.0,0.004054850186939733
2471.0,0.004042301537159386
2470.0,0.004020052138291465
2469.0,0.003998667917508425
2468.0,0.0039845822333638686
2467.0,0.003974545204172279
2466.0,0.00396396287879516
2465.0,0.003952562060964586
2464.0,0.003940713331536399
2463.0,0.003928631188029706
2462.0,0.003920782941000501
2461.0,0.003922375516209213
2460.0,0.003929126401132632
2459.0,0.0039289497534214695
2458.0,0.003916684509724296
2457.0,0.0038996779552960496
2456.0,0.003886521279761801
2455.0,0.003878063352205547
2454.0,0.003871982734893863
2453.0,0.003867693346442969
2452.0,0.0038628697686303223
2451.0,0.0038528639396319536
2450.0,0.0038380804002009095
2449.0,0.003825404835443305
2448.0,0.0038180432303290927
2447.0,0.0038099704091943028
2446.0,0.0037947906718902085
2445.0,0.003774918939654517
2444.0,0.003757895077077502
2443.0,0.0037476571592817047
2442.0,0.0037425296436734952
2441.0,0.0037381694927449086
2440.0,0.003730184172707581
2439.0,0.0037169941872483058
2438.0,0.0037014093603674227
2437.0,0.003686946932544828
2436.0,0.003673561930395982
2435.0,0.003660409005247705
2434.0,0.0036500803581052278
2433.0,0.0036445537506450826
2432.0,0.0036399136907461823
2431.0,0.00363227893706911
2430.0,0.0036258762903094216
2429.0,0.00362602409634744
2428.0,0.003626407003840531
2427.0,0.003614575930875632
2426.0,0.0035902758529241787
2425.0,0.003567264568348616
2424.0,0.0035552087885191413
2423.0,0.0035502522015579486
2422.0,0.0035456998052662385
2421.0,0.0035404843112653555
2420.0,0.0035326943656849913
2419.0,0.0035160359007792913
2418.0,0.003490182697597324
2417.0,0.003467069697299898
2416.0,0.0034596331478166523
2415.0,0.0034686215119240187
2414.0,0.0034850123954926907
2413.0,0.003500368491032686
2412.0,0.0035101489447346137
2411.0,0.0035113532259720744
2410.0,0.003502405500787482
2409.0,0.0034842023504072445
2408.0,0.0034592217124955575
2407.0,0.0034313656854747486
2406.0,0.0034064914152821413
2405.0,0.0033889295811870956
2404.0,0.0033770001351690086
2403.0,0.0033659734516104274
2402.0,0.0033551400705277915
2401.0,0.0033473356470617756
2400.0,0.0033421917513012864
2399.0,0.003335765140981584
2398.0,0.0033272420814026956
2397.0,0.0033203143355376207
2396.0,0.0033170359209662367
2395.0,0.0033154695707757285
2394.0,0.003313687568866368
2393.0,0.0033107051474119487
2392.0,0.003303800078516889
2391.0,0.003291110738537815
2390.0,0.003277338046025183
2389.0,0.0032707557636199695
2388.0,0.003273395214674739
2387.0,0.0032796999356453985
2386.0,0.0032856532666918686
2385.0,0.0032930821991780015
2384.0,0.003303135948633262
2383.0,0.003310875366129404
2382.0,0.0033087967797393323
2381.0,0.0032924484565867527
2380.0,0.003262188611276043
2379.0,0.003224415152893626
2378.0,0.003191933914786893
2377.0,0.003175443886870183
2376.0,0.00317248164297574
2375.0,0.0031715065058180378
2374.0,0.003168492222600944
2373.0,0.00317091708956755
2372.0,0.0031823832922073586
2371.0,0.003196017670063913
2370.0,0.003207941683196534
2369.0,0.0032203335016749513
2368.0,0.0032258428503602046
2367.0,0.0032116813042908842
2366.0,0.0031885541861441805
2365.0,0.0031898573391782505
2364.0,0.0032291670412361757
2363.0,0.0032854162668159185
2362.0,0.0033298386435395106
2361.0,0.003344514119258144
2360.0,0.003326405737182547
2359.0,0.0032875731266023512
2358.0,0.003256590888461435
2357.0,0.0032503642287929936
2356.0,0.0032529758192076565
2355.0,0.003247947007097584
2354.0,0.0032347312854471913
2353.0,0.003219104411493842
2352.0,0.0032001697409342047
2351.0,0.003182428430752171
2350.0,0.0031851271371655387
2349.0,0.0032140317910800114
2348.0,0.003256382135070986
2347.0,0.0032862745384512468
2346.0,0.0032966343889034378
2345.0,0.0033148431877860485
2344.0,0.0033597731546047864
2343.0,0.003418429651212574
2342.0,0.003454773078048157
2341.0,0.003455971410117252
2340.0,0.0034370392092506743
2339.0,0.00341739381582834
2338.0,0.003410695818630121
2337.0,0.003417819371791163
2336.0,0.003424337553999117
2335.0,0.0034127896930959863
2334.0,0.0033815088624007082
2333.0,0.003347584645527228
2332.0,0.003326515335421898
2331.0,0.003318443116793188
2330.0,0.003327534352598526
2329.0,0.0033633085073690675
2328.0,0.0034473353226656626
2327.0,0.003593353654972594
2326.0,0.0037932619303915676
2325.0,0.004003540384022825
2324.0,0.004148056546552988
2323.0,0.004177797190979465
2322.0,0.004107800653561629
2321.0,0.004003022843579547
2320.0,0.003909130939212522
2319.0,0.003833741410400187
2318.0,0.0037764147814791284
2317.0,0.003742396297824747
2316.0,0.003732167337518178
2315.0,0.0037342183114622736
2314.0,0.0037419127535057457
2313.0,0.0037531861441418967
2312.0,0.0037620798755916346
2311.0,0.003758367613272781
2310.0,0.00374496969056734
2309.0,0.003735519439773718
2308.0,0.0037352800405161986
2307.0,0.0037375740284934502
2306.0,0.003738816490297358
2305.0,0.0037446508593992874
2304.0,0.0037563151063405723
2303.0,0.0037681964813588553
2302.0,0.0037787574559446776
2301.0,0.0037928974206639767
2300.0,0.003809973147452005
2299.0,0.0038213381314927877
2298.0,0.003825943964071282
2297.0,0.0038338985173488865
2296.0,0.003851954906325987
2295.0,0.0038735081718626954
2294.0,0.0038900018560680113
2293.0,0.003901829357244815
2292.0,0.00391365969361881
2291.0,0.003928554337282647
2290.0,0.003949286054728232
2289.0,0.003978449852809507
2288.0,0.004011058951481258
2287.0,0.004036790577734107
2286.0,0.004050999821423759
2285.0,0.004057067533918168
2284.0,0.0040552555051994585
2283.0,0.00404032173626814
2282.0,0.0040122949128006975
2281.0,0.0039803694615239745
2280.0,0.003951529080565326
2279.0,0.003925151286898411
2278.0,0.0039014044864109096
2277.0,0.003884618813745906
2276.0,0.0038755585770365265
2275.0,0.0038707457481675896
2274.0,0.0038724642739072744
2273.0,0.0038860064531701472
2272.0,0.0039051142297909106
2271.0,0.0039135403485549645
2270.0,0.0039051431780330013
2269.0,0.0038883618488686194
2268.0,0.003866878292641214
2267.0,0.0038315668546818294
2266.0,0.003779513998090545
2265.0,0.00372771120904436
2264.0,0.0036987383144620137
2263.0,0.00370100050330745
2262.0,0.003727968581456801
2261.0,0.0037673896705522946
2260.0,0.003806292769816918
2259.0,0.0038367650677189674
2258.0,0.0038584794050540933
2257.0,0.003869853150997432
2256.0,0.0038599740252952958
2255.0,0.0038218153125933914
2254.0,0.003770671315771642
2253.0,0.0037336473633195633
2252.0,0.0037214370841221808
2251.0,0.003724330607390962
2250.0,0.003733062422834159
2249.0,0.0037472993042206772
2248.0,0.003763574921887159
2247.0,0.003774551526836396
2246.0,0.003782217079385897
2245.0,0.0037937638872517446
2244.0,0.003805879283215266
2243.0,0.0038092082682609713
2242.0,0.003806749047192695
2241.0,0.003808686036475592
2240.0,0.0038119705832795996
2239.0,0.0038069853856570034
2238.0,0.0038018789167507975
2237.0,0.0038149333986992546
2236.0,0.0038417464816342924
2235.0,0.003856354856529868
2234.0,0.003848842875041774
2233.0,0.0038359986640312815
2232.0,0.003830205708458599
2231.0,0.0038252132767702673
2230.0,0.0038197262789025988
2229.0,0.0038267996452419056
2228.0,0.0038477708623625593
2227.0,0.00386135108781154
2226.0,0.0038522309233628297
2225.0,0.0038308834698764643
2224.0,0.0038142597952657877
2223.0,0.0038059867676463943
2222.0,0.003804635484729762
2221.0,0.0038115665672892656
2220.0,0.003820692519691163
2219.0,0.0038190143528412848
2218.0,0.0038060301030507383
2217.0,0.0037949486435311063
2216.0,0.0037895160894102584
2215.0,0.0037797397672655634
2214.0,0.003765600064031407
2213.0,0.003762014667303799
2212.0,0.00377237549426081
2211.0,0.0037800270976420802
2210.0,0.003775521634119595
2209.0,0.0037715143325566134
2208.0,0.003780572575803382
2207.0,0.003796724082299744
2206.0,0.003808198440559585
2205.0,0.0038119969558574928
2204.0,0.003810268389423407
2203.0,0.003808238362905252
2202.0,0.003818570090987742
2201.0,0.003849761952976298
2200.0,0.003888043448059918
2199.0,0.003910609935256575
2198.0,0.00391654492767641
2197.0,0.00392330881009191
2196.0,0.00393446423948971
2195.0,0.003936283127426329
2194.0,0.003927562120273354
2193.0,0.003925886530300642
2192.0,0.003940328662876915
2191.0,0.003962922217097661
2190.0,0.003990021773910374
2189.0,0.004025665384821557
2188.0,0.004061240854096928
2187.0,0.0040793463505396
2186.0,0.004080649028876764
2185.0,0.004079060021990684
2184.0,0.004067574373081079
2183.0,0.004021342347811812
2182.0,0.003942732847355154
2181.0,0.0038720423658205423
2180.0,0.0038414371097746022
2179.0,0.003843874696457518
2178.0,0.0038541235387493404
2177.0,0.003853026132562773
2176.0,0.0038287415966469854
2175.0,0.0037839977972161636
2174.0,0.0037481584166130337
2173.0,0.003757727977188253
2172.0,0.0038206910356250734
2171.0,0.003919317124814085
2170.0,0.004038932585701769
2169.0,0.00416763827570477
2168.0,0.0042798959106853055
2167.0,0.00435348526920675
2166.0,0.0044002299525543525
2165.0,0.004451449932950916
2164.0,0.004516630108056377
2163.0,0.004578956981781755
2162.0,0.004606272290626798
2161.0,0.004526551517165297
2160.0,0.004235091033978729
2159.0,0.003718861350760474
2158.0,0.003159365036547875
2157.0,0.0027980449582792073
2156.0,0.00270269625524075
2155.0,0.0027616088785887187
2154.0,0.002861549886004433
2153.0,0.0029688764077867003
2152.0,0.0030727023344725717
2151.0,0.0031453230184482245
2150.0,0.00317432242793466
2149.0,0.0031763317198967105
2148.0,0.0031602636092366654
2147.0,0.0031185598924466955
2146.0,0.0030631135632025884
2145.0,0.0030275719496749747
2144.0,0.003023393355326875
2143.0,0.003032012621555433
2142.0,0.0030455894912384566
2141.0,0.00307550030166805
2140.0,0.0031161816750859286
2139.0,0.0031394162349514137
2138.0,0.003129832019287046
2137.0,0.003092296464786681
2136.0,0.0030240250741666655
2135.0,0.0029188744109757804
2134.0,0.0028033882319147387
2133.0,0.0027279144063870856
2132.0,0.002713249605436865
2131.0,0.002739357844277095
2130.0,0.0027883082784551493
2129.0,0.0028604141137872634
2128.0,0.0029444137746656713
2127.0,0.0030095507649811
2126.0,0.003041098130522643
2125.0,0.0030588850939928733
2124.0,0.0030888791042467836
2123.0,0.0031368948665000326
2122.0,0.003197061683993878
2121.0,0.003261865180783841
2120.0,0.0033149841887450803
2119.0,0.003338220359065337
2118.0,0.003337862011944487
2117.0,0.003345680191594755
2116.0,0.003382280019501689
2115.0,0.003434726249853282
2114.0,0.003477813350680734
2113.0,0.003500542570107429
2112.0,0.0035046516528501334
2111.0,0.003495571917285897
2110.0,0.003485350114986987
2109.0,0.0034884405989653406
2108.0,0.003504399918605648
2107.0,0.003516829289410701
2106.0,0.0035143283626585644
2105.0,0.0034996355004654114
2104.0,0.0034772951780694056
2103.0,0.0034498943075223073
2102.0,0.0034283078015404167
2101.0,0.003425781349001935
2100.0,0.003437266588177004
2099.0,0.003441691709472534
2098.0,0.0034261899008086703
2097.0,0.003392357288564527
2096.0,0.003342737124365766
2095.0,0.0032840807900276704
2094.0,0.003241566624238052
2093.0,0.0032416703209588583
2092.0,0.003278545456995141
2091.0,0.003320066525530148
2090.0,0.003347524198646497
2089.0,0.003367729107623102
2088.0,0.003387644614838031
2087.0,0.0034045200830099083
2086.0,0.0034228386923414733
2085.0,0.00345281362422783
2084.0,0.0034869130254581654
2083.0,0.0035041396627197704
2082.0,0.0035029399293344593
2081.0,0.003504514153672693
2080.0,0.003518704290351714
2079.0,0.0035332676480372225
2078.0,0.003542700720648312
2077.0,0.003558474276605112
2076.0,0.0035822272917593575
2075.0,0.0035968945028181532
2074.0,0.003593776816265033
2073.0,0.003582185642141157
2072.0,0.0035655028039690293
2071.0,0.0035362935734469395
2070.0,0.0035024513293028005
2069.0,0.0034870889581195648
2068.0,0.0034922865264064486
2067.0,0.0034931806101803223
2066.0,0.0034766724761639374
2065.0,0.0034571687665903607
2064.0,0.003446734884409157
2063.0,0.0034415044038040845
2062.0,0.0034472013719336293
2061.0,0.003481189959768524
2060.0,0.003535479985665546
2059.0,0.0035725554355252693
2058.0,0.003571643419683619
2057.0,0.0035481441228728747
2056.0,0.0035218346402675444
2055.0,0.003506197068954547
2054.0,0.0035373829487400244
2053.0,0.003658968177151007
2052.0,0.0038491027266894214
2051.0,0.0040053739769586915
2050.0,0.004035478273194472
2049.0,0.003947473332621044
2048.0,0.00382709030229122
2047.0,0.003741726664096395
2046.0,0.0037016809231505228
2045.0,0.003692497182159686
2044.0,0.003698972527863477
2043.0,0.0037088985331677803
2042.0,0.0037221927760931256
2041.0,0.0037472681877405026
2040.0,0.0037760816844755723
2039.0,0.003784145031764544
2038.0,0.0037660956410589287
2037.0,0.0037438378409399616
2036.0,0.003727750843887579
2035.0,0.0036987145267555694
2034.0,0.00364335594911831
2033.0,0.0035771237731089837
2032.0,0.003517237676397998
2031.0,0.003466404304312906
2030.0,0.003435631283937386
2029.0,0.0034443496675513156
2028.0,0.0034828234188377
2027.0,0.0035120166291162875
2026.0,0.003512162828169521
2025.0,0.0034958277989747735
2024.0,0.0034710844910606983
2023.0,0.0034336890823327415
2022.0,0.003400048853305575
2021.0,0.0034014440006823097
2020.0,0.0034352471325779345
2019.0,0.003463144322098632
2018.0,0.0034666954702173595
2017.0,0.003469042655330425
2016.0,0.003492464991350626
2015.0,0.0035311129119343426
2014.0,0.0035756514683204727
2013.0,0.0036243047621044534
2012.0,0.003662936477192718
2011.0,0.0036723774996583053
2010.0,0.0036555814549952452
2009.0,0.0036204962141631715
2008.0,0.0035443657742247284
2007.0,0.0034058339719281617
2006.0,0.003248861898991318
2005.0,0.0031553969033204982
2004.0,0.0031502746539624773
2003.0,0.003187029858768189
2002.0,0.003226362728665389
2001.0,0.0032705790575646744
2000.0,0.0033189731305789394
1999.0,0.0033484914434997464
1998.0,0.003356421922123998
1997.0,0.003375314881248571
1996.0,0.003424635974424762
1995.0,0.003485964375783096
1994.0,0.003536190457995481
1993.0,0.0035663986881833767
1992.0,0.0035676854604609785
1991.0,0.0035418161928690885
1990.0,0.003518739164797348
1989.0,0.0035272071808592465
1988.0,0.0035587782455933385
1987.0,0.003588975268236699
1986.0,0.003623916604809093
1985.0,0.003688065205336203
1984.0,0.003776305688727383
1983.0,0.0038652776574652145
1982.0,0.003961018831797981
1981.0,0.004073944860100957
1980.0,0.004146162072451264
1979.0,0.004078517129141411
1978.0,0.0038597980085146935
1977.0,0.003604941914872516
1976.0,0.0034242035404775852
1975.0,0.003324133842757934
1974.0,0.0032676619866162477
1973.0,0.0032434309184430294
1972.0,0.0032416046800426883
1971.0,0.0032350495115412107
1970.0,0.003216116320668645
1969.0,0.0032038607196085444
1968.0,0.0031967908407489793
1967.0,0.003168441130368329
1966.0,0.0031267694721482265
1965.0,0.003107500035512636
1964.0,0.003104296929897231
1963.0,0.0030799507830157075
1962.0,0.003034925025060756
1961.0,0.003003717868961323
1960.0,0.0029870954211683566
1959.0,0.0029509031731332672
1958.0,0.0028980362066366987
1957.0,0.0028750192654222926
1956.0,0.0028986239444709293
1955.0,0.0029342891070442477
1954.0,0.0029566145165507924
1953.0,0.002975846611380222
1952.0,0.002993469798420303
1951.0,0.0029875779621648937
1950.0,0.0029586201409586106
1949.0,0.002941969149141252
1948.0,0.0029569812375512
1947.0,0.002980815970100462
1946.0,0.002987516282003481
1945.0,0.0029761150816018096
1944.0,0.0029472847788336296
1943.0,0.002892155498919657
1942.0,0.0028332183004991197
1941.0,0.0028208793742631527
1940.0,0.0028573677448689564
1939.0,0.002894341600040317
1938.0,0.0029042008928713173
1937.0,0.0029001294511714257
1936.0,0.0028955110082273675
1935.0,0.0028820685092903987
1934.0,0.002856906486890004
1933.0,0.002835413187583839
1932.0,0.0028244117911547075
1931.0,0.0028114944452145643
1930.0,0.002791556723583098
1929.0,0.002775808033106478
1928.0,0.002767212605289973
1927.0,0.0027519418265720555
1926.0,0.0027253364751675664
1925.0,0.0027053927172174417
1924.0,0.0027063819754375236
1923.0,0.002716581441146385
1922.0,0.002725871762785339
1921.0,0.0027442050281156908
1920.0,0.0027710471244533643
1919.0,0.0027919421028946563
1918.0,0.0028055603797719634
1917.0,0.0028237154532361596
1916.0,0.0028412649090017953
1915.0,0.002834040973991464
1914.0,0.0027979887044130448
1913.0,0.002759972485379566
1912.0,0.0027432749773028233
1911.0,0.002744132655206135
1910.0,0.002748875609611479
1909.0,0.0027539318767700357
1908.0,0.002759965694996186
1907.0,0.002761167224222286
1906.0,0.0027561784272953664
1905.0,0.002755523557925913
1904.0,0.002761770460473085
1903.0,0.002763071165465065
1902.0,0.0027555148980592226
1901.0,0.002750405631556132
1900.0,0.0027503964282415997
1899.0,0.0027416348455922843
1898.0,0.002718872891232108
1897.0,0.0026972898282776785
1896.0,0.0026895206392985017
1895.0,0.002689019455225387
1894.0,0.002688215219534775
1893.0,0.0026879423412748934
1892.0,0.002681370188676252
1891.0,0.00265973029727517
1890.0,0.0026344180776441033
1889.0,0.002633489025224212
1888.0,0.0026627464213797086
1887.0,0.0026910342993339545
1886.0,0.002694924549222902
1885.0,0.002686491438846926
1884.0,0.002686060032208216
1883.0,0.002693740087338433
1882.0,0.002700298275945263
1881.0,0.002705457447419502
1880.0,0.002710206119390688
1879.0,0.0027093455602681064
1878.0,0.002702273736732128
1877.0,0.002696975674630513
1876.0,0.002694626592357058
1875.0,0.002686108765274531
1874.0,0.0026708811008240955
1873.0,0.00266070548842558
1872.0,0.0026610633294229776
1871.0,0.0026652785481177618
1870.0,0.002669092115890845
1869.0,0.002662503102875954
1868.0,0.0026331569130729443
1867.0,0.0025999285310780574
1866.0,0.0025897516837447266
1865.0,0.0026038134680015264
1864.0,0.0026243239808354086
1863.0,0.002632865145126734
1862.0,0.0026310623309505616
1861.0,0.002635145498454862
1860.0,0.0026481305900343134
1859.0,0.0026538747483618374
1858.0,0.002644079311351166
1857.0,0.0026321704967801423
1856.0,0.0026295469851471865
1855.0,0.002627362772165581
1854.0,0.002617372172402438
1853.0,0.002605395812680145
1852.0,0.0025952713257594447
1851.0,0.0025804148019973805
1850.0,0.0025588429989615346
1849.0,0.0025433951867428802
1848.0,0.002545656041945103
1847.0,0.0025643209429298116
1846.0,0.00259485774144852
1845.0,0.0026290926297556135
1844.0,0.002641835812850841
1843.0,0.0026221200337116428
1842.0,0.0026001632156036603
1841.0,0.0026005498471917783
1840.0,0.0026131921230000115
1839.0,0.0026179686580852534
1838.0,0.0026137947797614325
1837.0,0.0026161197471768973
1836.0,0.002624568173390159
1835.0,0.0026206036538793474
1834.0,0.002600189277140254
1833.0,0.002578855971077288
1832.0,0.002567959680891507
1831.0,0.002569246713188501
1830.0,0.0025757669248547173
1829.0,0.0025809463686013155
1828.0,0.002583555681141072
1827.0,0.00257716758496623
1826.0,0.002570859438083104
1825.0,0.0025946714166940055
1824.0,0.002653593414763409
1823.0,0.002718435329386341
1822.0,0.002763376851646856
1821.0,0.002783003294411773
1820.0,0.0027794467055448826
1819.0,0.0027555921390530463
1818.0,0.0027258381223913704
1817.0,0.0027172096325252504
1816.0,0.0027432656539698166
1815.0,0.002790933557575742
1814.0,0.0028432124479385013
1813.0,0.0028984343244094256
1812.0,0.0029567709924769535
1811.0,0.003009647890665234
1810.0,0.0030549000151627727
1809.0,0.0031001123662387016
1808.0,0.003148620967486124
1807.0,0.0031943524898637083
1806.0,0.0032257981996706648
1805.0,0.0032334950324564636
1804.0,0.0032187474330987913
1803.0,0.003202483451041589
1802.0,0.003215182666308944
1801.0,0.003263645848309076
1800.0,0.0033263364150215415
1799.0,0.0033798349856728575
1798.0,0.0034143304943587208
1797.0,0.003434529128436403
1796.0,0.003450324892714081
1795.0,0.0034632838200117084
1794.0,0.0034657832448038977
1793.0,0.003440256422026574
1792.0,0.0033669390425861935
1791.0,0.0032742553202689505
1790.0,0.0032204824668394727
1789.0,0.003207562748287223
1788.0,0.003195872418456667
1787.0,0.0031610932128802913
1786.0,0.003110523923589081
1785.0,0.0030674378087635168
1784.0,0.00303659126193835
1783.0,0.003005055519960093
1782.0,0.0029690023834518945
1781.0,0.0029386664803196143
1780.0,0.0029191089526225417
1779.0,0.002901510946709539
1778.0,0.0028783845564623305
1777.0,0.002852277700662541
1776.0,0.0028354831278467794
1775.0,0.002836731361807382
1774.0,0.0028575972469070945
1773.0,0.002882974644908941
1772.0,0.0028641257373411013
1771.0,0.0027912553488862514
1770.0,0.0027190770012292904
1769.0,0.0026815477777632694
1768.0,0.0026757551803484303
1767.0,0.0026868261652934554
1766.0,0.0026993408145245578
1765.0,0.0027042358725232023
1764.0,0.0026957441424918065
1763.0,0.002672211357030802
1762.0,0.0026355244367360585
1761.0,0.0025984574585178927
1760.0,0.0025698790139869324
1759.0,0.0025394376472988546
1758.0,0.002500945681263988
1757.0,0.00246261098237488
1756.0,0.0024320000677211357
1755.0,0.002400047689362019
1754.0,0.0023476972712776372
1753.0,0.0022711252541034173
1752.0,0.002189823745868258
1751.0,0.0021302985858823492
1750.0,0.0021120135753544197
1749.0,0.0021322736510027665
1748.0,0.002152140895869301
1747.0,0.00213892783378624
1746.0,0.002097461690416447
1745.0,0.002049748415511889
1744.0,0.0020167623816525304
1743.0,0.0020156251979692426
1742.0,0.002060662389733146
1741.0,0.0021456827157356976
1740.0,0.002228524664534293
1739.0,0.0022640966578758577
1738.0,0.0022641151648124325
1737.0,0.0022709181824769604
1736.0,0.002302751674328647
1735.0,0.002356808584066282
1734.0,0.0023949857248478823
1733.0,0.0023942236136174264
1732.0,0.002394665158678926
1731.0,0.0024035351190438885
1730.0,0.002418513502793595
1729.0,0.002470008957304482
1728.0,0.0025480549213543983
1727.0,0.002611353107844057
1726.0,0.002640035178802649
1725.0,0.0026609903507844603
1724.0,0.002698314075246084
1723.0,0.0027375316271010656
1722.0,0.0027550845830299742
1721.0,0.002749164920268203
1720.0,0.0027275901504297657
1719.0,0.0027304012407335597
1718.0,0.0028366722306551787
1717.0,0.0029927077714867866
1716.0,0.003069207194567729
1715.0,0.003070389282060663
1714.0,0.0030577017251817154
1713.0,0.003073669300146363
1712.0,0.003118059896751994
1711.0,0.0031614726685129445
1710.0,0.0031947354643160684
1709.0,0.0032312477482256134
1708.0,0.003284943809402512
1707.0,0.003353665153966552
1706.0,0.0034233959628966293
1705.0,0.00348163714497445
1704.0,0.0035348493445530693
1703.0,0.003606449587722225
1702.0,0.00371290757523134
1701.0,0.0038651137065160756
1700.0,0.004034957907451291
1699.0,0.004126494997460061
1698.0,0.004140809717805323
1697.0,0.004156194283379219
1696.0,0.004196691676448304
1695.0,0.004268048924182558
1694.0,0.004349007916387768
1693.0,0.004423024864156332
1692.0,0.004491746381407029
1691.0,0.004557995148483198
1690.0,0.004634986013176804
1689.0,0.004723587919195934
1688.0,0.004798563724376488
1687.0,0.004836153682935205
1686.0,0.004835602135431792
1685.0,0.0048565305896901495
1684.0,0.004954978041237028
1683.0,0.005088009934622704
1682.0,0.005209034006115839
1681.0,0.005312562106125273
1680.0,0.0054024181276048884
1679.0,0.005495025258276769
1678.0,0.005595669947953962
1677.0,0.005719570152354476
1676.0,0.005864041084907683
1675.0,0.005985202642304971
1674.0,0.006046880857459728
1673.0,0.006092165613144329
1672.0,0.006174419409121866
1671.0,0.006295623587826111
1670.0,0.006399335354395485
1669.0,0.006445185517964175
1668.0,0.006480672482787307
1667.0,0.0065390989021411345
1666.0,0.0066194945161646085
1665.0,0.0067291067544087355
1664.0,0.0068675434218641055
1663.0,0.006997070342380504
1662.0,0.007069837070390941
1661.0,0.007114777707643652
1660.0,0.007176388127239154
1659.0,0.0072496710007103156
1658.0,0.007301956653507335
1657.0,0.007332399319771763
1656.0,0.007349464651792443
1655.0,0.007386829432173481
1654.0,0.007459688817176268
1653.0,0.007537502655022783
1652.0,0.00761637839658648
1651.0,0.007667409904846928
1650.0,0.007702800795602012
1649.0,0.007753173531904661
1648.0,0.007858326346567935
1647.0,0.007917857311042184
1646.0,0.007865341660259411
1645.0,0.007842849163657772
1644.0,0.00787578710468248
1643.0,0.007901789514372363
1642.0,0.007915150824116188
1641.0,0.007915236101779008
1640.0,0.007913644805662782
1639.0,0.007910557261124631
1638.0,0.00791633601238696
1637.0,0.007928101314671256
1636.0,0.007869261800836603
1635.0,0.007741889909100233
1634.0,0.00765988487148817
1633.0,0.007630668626909511
1632.0,0.007617125771456124
1631.0,0.007602284759447896
1630.0,0.007568132617889985
1629.0,0.007517964103840839
1628.0,0.007454370213376762
1627.0,0.007389369736095948
1626.0,0.007342673777664021
1625.0,0.00732175063451751
1624.0,0.00728919920093809
1623.0,0.00718618645742339
1622.0,0.007045326544791415
1621.0,0.0069528144055240335
1620.0,0.0069199216450277325
1619.0,0.006911673557906937
1618.0,0.0068950190198963195
1617.0,0.006824809118662065
1616.0,0.006694155752902006
1615.0,0.006569677638904307
1614.0,0.006492082781006171
1613.0,0.0064472112241692504
1612.0,0.006409619671730513
1611.0,0.006359121774235326
1610.0,0.006298452345821388
1609.0,0.006240986109158152
1608.0,0.006184913843912768
1607.0,0.006121413869235673
1606.0,0.0060630272485743516
1605.0,0.00602679246655391
1604.0,0.006005549902253681
1603.0,0.005975952651179636
1602.0,0.005932795388419253
1601.0,0.005894615239793783
1600.0,0.005868840312677035
1599.0,0.005845956351846631
1598.0,0.005826245489915382
1597.0,0.005818856862149494
1596.0,0.00581813393143899
1595.0,0.005806008577328923
1594.0,0.005783553104661566
1593.0,0.005771283737323747
1592.0,0.005773017560584826
1591.0,0.0057724304586876975
1590.0,0.005763413213646759
1589.0,0.005756889130930677
1588.0,0.005757698408938287
1587.0,0.0057591295685728225
1586.0,0.005764238080180764
1585.0,0.005782336636352557
1584.0,0.005808958551233233
1583.0,0.005832484679578073
1582.0,0.005854330837395795
1581.0,0.005880868336930365
1580.0,0.005909657287197921
1579.0,0.005939220739553871
1578.0,0.005991010122856533
1577.0,0.0060793372661560666
1576.0,0.006139113855456963
1575.0,0.006140119003947389
1574.0,0.006149295503599349
1573.0,0.006195266766389305
1572.0,0.00626211975549498
1571.0,0.006339435194120003
1570.0,0.006420127724294417
1569.0,0.0064901995505717534
1568.0,0.006548146877464253
1567.0,0.006613150449773794
1566.0,0.0067097243790904286
1565.0,0.006836445218518008
1564.0,0.006962880859320673
1563.0,0.007026439310252371
1562.0,0.007041703837205695
1561.0,0.00700940921241167
1560.0,0.007080257178834815
1559.0,0.0075221663925194426
1558.0,0.007998603427167676
1557.0,0.008296051703126028
1556.0,0.008525387179930144
1555.0,0.008694099816436183
1554.0,0.008861032669256011
1553.0,0.009004294634663488
1552.0,0.00912942479858423
1551.0,0.009265696654110046
1550.0,0.009476114229664573
1549.0,0.009747114366917612
1548.0,0.009990738262904182
1547.0,0.010156179290061037
1546.0,0.010306407597850488
1545.0,0.010563520486295152
1544.0,0.010946580637396472
1543.0,0.011304115742526856
1542.0,0.011586248521796648
1541.0,0.011852472264097134
1540.0,0.012006854191049866
1539.0,0.012099165987555173
1538.0,0.012262831774156026
1537.0,0.012441756293412164
1536.0,0.012595513311337138
1535.0,0.012746232139278323
1534.0,0.012945084016213318
1533.0,0.013187321644106909
1532.0,0.013389466471886598
1531.0,0.013539661429436294
1530.0,0.013670417000089271
1529.0,0.013821179110741762
1528.0,0.014019863854052442
1527.0,0.014260061900442999
1526.0,0.014509557257777923
1525.0,0.014735336407876611
1524.0,0.014917137247347924
1523.0,0.015079563123817545
1522.0,0.015284042484915474
1521.0,0.015492076192939505
1520.0,0.01562782990779143
1519.0,0.015711417540517802
1518.0,0.015820748563807826
1517.0,0.016021541844399096
1516.0,0.01625899243338296
1515.0,0.016451943914766683
1514.0,0.01660578725613797
1513.0,0.016743937745058213
1512.0,0.01685426470873955
1511.0,0.016904045446553453
1510.0,0.01690481766631697
1509.0,0.0169576936113393
1508.0,0.017249884539697356
1507.0,0.01766292702407866
1506.0,0.017992000689105028
1505.0,0.0182953834272206
1504.0,0.018498874743389626
1503.0,0.018604303246184697
1502.0,0.018707214946730194
1501.0,0.018840532238165376
1500.0,0.019014402916024638
1499.0,0.019185442931700547
1498.0,0.019373634795019943
1497.0,0.019613154702222066
1496.0,0.019845766633375377
1495.0,0.019998499821501318
1494.0,0.02009321124796963
1493.0,0.020173114074266
1492.0,0.02025936036468114
1491.0,0.020394260886365208
1490.0,0.020628195464401852
1489.0,0.02091420023031761
1488.0,0.021168741343668557
1487.0,0.02137334435176146
1486.0,0.02155058508246659
1485.0,0.021725787120799003
1484.0,0.02189722921685765
1483.0,0.02206365148837312
1482.0,0.022250440274433538
1481.0,0.022465292568864852
1480.0,0.022660319034390856
1479.0,0.02279377760100152
1478.0,0.022896767449001577
1477.0,0.023045375414806883
1476.0,0.023271914043583093
1475.0,0.02353560167342151
1474.0,0.023838654086599277
1473.0,0.02419420393578535
1472.0,0.024489787699375466
1471.0,0.024670333504826406
1470.0,0.024803225484694373
1469.0,0.024930634100166493
1468.0,0.025064770293793948
1467.0,0.025220799164143815
1466.0,0.02544697420411442
1465.0,0.02576836979505972
1464.0,0.026086034457415298
1463.0,0.026293186202821044
1462.0,0.026400239666954924
1461.0,0.02645605980989092
1460.0,0.026504107130103708
1459.0,0.026608122600500626
1458.0,0.026915182632679682
1457.0,0.027359401133692004
1456.0,0.0276308965306598
1455.0,0.02773668599142691
1454.0,0.0278274326804686
1453.0,0.027946619762488738
1452.0,0.028085607467624122
1451.0,0.028204286544107993
1450.0,0.028313762934056484
1449.0,0.028455914255783532
1448.0,0.02863781671017807
1447.0,0.02881268840730197
1446.0,0.02896173412365564
1445.0,0.029100500622748545
1444.0,0.029237603053702904
1443.0,0.029372639708994102
1442.0,0.029509912221464266
1441.0,0.029646567653263532
1440.0,0.029762172195652727
1439.0,0.029850199345909854
1438.0,0.029967614690757993
1437.0,0.030202627674997394
1436.0,0.030495086747372942
1435.0,0.030704413689157446
1434.0,0.03084034620347411
1433.0,0.030976372663292
1432.0,0.03114070038458356
1431.0,0.03133037408490757
1430.0,0.03154708352894259
1429.0,0.031790079375278446
1428.0,0.032012178287116166
1427.0,0.03217197615514854
1426.0,0.03230460320315011
1425.0,0.03249709505295808
1424.0,0.03276684904878543
1423.0,0.03301313367939956
1422.0,0.03317563681648317
1421.0,0.03330218493016825
1420.0,0.0334899230182379
1419.0,0.033795156082380075
1418.0,0.034147738235984354
1417.0,0.034474274659087305
1416.0,0.034761090425068565
1415.0,0.03500225690554122
1414.0,0.03522035585441878
1413.0,0.03545211099119667
1412.0,0.03570312446450572
1411.0,0.03594554241575606
1410.0,0.03617130249645768
1409.0,0.03638979712231009
1408.0,0.0365805465318481
1407.0,0.036725005395143895
1406.0,0.03687169738976958
1405.0,0.03708339984149387
1404.0,0.037311953649745516
1403.0,0.03745859567083357
1402.0,0.03752131105260425
1401.0,0.03756544386645701
1400.0,0.037626117585738035
1399.0,0.037674984233686225
1398.0,0.03769280947393398
1397.0,0.03771225728060512
1396.0,0.037736791018157356
1395.0,0.03773554380855351
1394.0,0.037726472910179276
1393.0,0.03773432814363077
1392.0,0.037717535359819615
1391.0,0.03763755011825286
1390.0,0.037516114619747194
1389.0,0.03740165600100943
1388.0,0.037305531485852673
1387.0,0.037199372632156745
1386.0,0.03709127422614836
1385.0,0.037001231842573354
1384.0,0.036899527346540784
1383.0,0.03675830792851331
1382.0,0.03659614145308505
1381.0,0.036437888871860856
1380.0,0.03627242059437734
1379.0,0.03608222932513747
1378.0,0.03588348107036923
1377.0,0.03569200861267374
1376.0,0.035487540685235755
1375.0,0.035251011391492656
1374.0,0.03501537795996322
1373.0,0.034824898507777986
1372.0,0.03465565049360932
1371.0,0.034455572693965
1370.0,0.03422193388756251
1369.0,0.033982977483788236
1368.0,0.03374278774044481
1367.0,0.03348675410691764
1366.0,0.033210726875136355
1365.0,0.03291423367763352
1364.0,0.03259689560674552
1363.0,0.03227615390191679
1362.0,0.031997146946335195
1361.0,0.031781071322528574
1360.0,0.03158037428334491
1359.0,0.0313462862097559
1358.0,0.031084880595155323
1357.0,0.03081999562129442
1356.0,0.03055160070905292
1355.0,0.0302733196376978
1354.0,0.02999975033614665
1353.0,0.0297421212963415
1352.0,0.029486788419442956
1351.0,0.029221543226652498
1350.0,0.028955602015573813
1349.0,0.0286974850959071
1348.0,0.028435857286969936
1347.0,0.028163038792719634
1346.0,0.027892285403866193
1345.0,0.027633304740678315
1344.0,0.02737280157439306
1343.0,0.027095898435325137
1342.0,0.02680754538696958
1341.0,0.02652046682516509
1340.0,0.02622912951111286
1339.0,0.02593397427281585
1338.0,0.025674014418130362
1337.0,0.0254648123923777
1336.0,0.02526915459194107
1335.0,0.02505858056256982
1334.0,0.02483695052373959
1333.0,0.02460930194619572
1332.0,0.02436792925247527
1331.0,0.02411473185925045
1330.0,0.02386852921110603
1329.0,0.02363821832582958
1328.0,0.02341304495051816
1327.0,0.02318674511094264
1326.0,0.022967920099142745
1325.0,0.022759889177938527
1324.0,0.022551351744406596
1323.0,0.022337917353361457
1322.0,0.02212973765971738
1321.0,0.02192911559387393
1320.0,0.021722276636397208
1319.0,0.021504767919596178
1318.0,0.021293793436595296
1317.0,0.021099288503904596
1316.0,0.020908238215088394
1315.0,0.020711205390129828
1314.0,0.020517444303534926
1313.0,0.020333810447152687
1312.0,0.02015352561102151
1311.0,0.01997335851515039
1310.0,0.019798271413719332
1309.0,0.019624904676237547
1308.0,0.019442276008860004
1307.0,0.01925268648658693
1306.0,0.01907237350722698
1305.0,0.018906569653345914
1304.0,0.01874328251990451
1303.0,0.01857731264569336
1302.0,0.018417863060620068
1301.0,0.018267985084672356
1300.0,0.01811786376752325
1299.0,0.017964906667700755
1298.0,0.017819769431916
1297.0,0.017686118776865323
1296.0,0.017553887507079594
1295.0,0.017418288711086412
1294.0,0.017287050986598485
1293.0,0.017163035927387958
1292.0,0.017038225948606035
1291.0,0.016910088750735953
1290.0,0.016786972195940743
1289.0,0.01667251356661368
1288.0,0.016560760670717118
1287.0,0.016450965254836896
1286.0,0.016350223032228668
1285.0,0.016257580196858693
1284.0,0.016162895661753773
1283.0,0.016064108753412534
1282.0,0.01596939254567266
1281.0,0.015880887528417303
1280.0,0.015791866499042195
1279.0,0.015701434691838087
1278.0,0.015616351215536856
1277.0,0.015536333509447268
1276.0,0.015453436829821768
1275.0,0.01536696014905933
1274.0,0.015284461574768118
1273.0,0.015206831801075373
1272.0,0.01512633995041903
1271.0,0.0150406967506992
1270.0,0.014954471949375915
1269.0,0.014865362259631972
1268.0,0.014765041873627607
1267.0,0.014655149726440653
1266.0,0.014547012813751101
1265.0,0.01444408611801063
1264.0,0.014340336316224183
1263.0,0.01423666868080498
1262.0,0.014143020876300361
1261.0,0.014063915017618177
1260.0,0.013997213649126039
1259.0,0.013946999533143083
1258.0,0.013920905883439019
1257.0,0.013913492280018933
1256.0,0.01390839140995214
1255.0,0.013896933183741913
1254.0,0.013881690638125438
1253.0,0.013863019986526967
1252.0,0.013836949965576488
1251.0,0.013806714202755123
1250.0,0.013781287314830123
1249.0,0.013760528272021833
1248.0,0.013735250289549004
1247.0,0.013703273699352017
1246.0,0.013672242769921971
1245.0,0.013645100900656168
1244.0,0.013616604894850092
1243.0,0.013585910324889755
1242.0,0.013558590984606218
1241.0,0.01353407004564487
1240.0,0.013504396754433799
1239.0,0.013467250761946695
1238.0,0.013427997160089673
1237.0,0.013387894607136705
1236.0,0.013342824936553647
1235.0,0.013294787807828824
1234.0,0.013251734480788846
1233.0,0.013214324950775234
1232.0,0.013174858804733942
1231.0,0.01313048206286429
1230.0,0.013085793507812507
1229.0,0.013042071528801127
1228.0,0.012996052769673855
1227.0,0.012949163878764762
1226.0,0.012905557352561846
1225.0,0.012861576122253872
1224.0,0.012809855374615892
1223.0,0.012753014435944019
1222.0,0.01269993787559939
1221.0,0.012649654676579926
1220.0,0.012592569242758122
1219.0,0.012526713850701674
1218.0,0.012458998297976016
1217.0,0.0123908539194364
1216.0,0.012317544426192527
1215.0,0.012241764433847122
1214.0,0.012172886965564848
1213.0,0.012111743271697145
1212.0,0.012050106279874335
1211.0,0.01198607492447524
1210.0,0.011925762850570868
1209.0,0.011869843092044672
1208.0,0.011813158151280392
1207.0,0.011757091186045437
1206.0,0.011707478798902346
1205.0,0.011660827296291833
1204.0,0.011607573771157806
1203.0,0.011548670187267742
1202.0,0.011494448553370715
1201.0,0.011447715177763959
1200.0,0.011402412912560255
1199.0,0.011357914929781355
1198.0,0.011319681565913014
1197.0,0.011285845217419169
1196.0,0.011248356315519938
1195.0,0.011207990525982935
1194.0,0.011173834081753122
1193.0,0.011147508128294702
1192.0,0.011121652739970758
1191.0,0.011094202357206246
1190.0,0.011070304473905827
1189.0,0.01104967487839261
1188.0,0.011025930680455142
1187.0,0.010999590169974245
1186.0,0.010978760401187025
1185.0,0.010965930131102721
1184.0,0.010956475775603939
1183.0,0.010950067174927136
1182.0,0.010950486461201912
1181.0,0.01095437181187159
1180.0,0.010953509009959301
1179.0,0.01094883685489555
1178.0,0.010949278398991716
1177.0,0.010956076547300617
1176.0,0.010961204122905407
1175.0,0.010961814366779937
1174.0,0.010963849200468712
1173.0,0.01097058364283259
1172.0,0.01097920765489847
1171.0,0.010989352594977077
1170.0,0.011003179664927849
1169.0,0.011016386202334659
1168.0,0.011020653056469945
1167.0,0.01101592894896548
1166.0,0.011009543985020258
1165.0,0.011003307334021318
1164.0,0.010993100235210156
1163.0,0.010980611305707896
1162.0,0.010972106702378451
1161.0,0.01096522354046665
1160.0,0.010950630102577536
1159.0,0.010928207053523433
1158.0,0.010908902345008199
1157.0,0.010898879040720138
1156.0,0.01089453656617431
1155.0,0.01089469516217517
1154.0,0.01090381360431189
1153.0,0.010919789065158244
1152.0,0.010931499010412703
1151.0,0.010933435699414126
1150.0,0.010932529647572865
1149.0,0.010936484552935789
1148.0,0.010944939731749133
1147.0,0.01095507460674863
1146.0,0.01096602376178269
1145.0,0.010974474732127535
1144.0,0.010975025140962966
1143.0,0.01096849096790626
1142.0,0.010962421059514518
1141.0,0.010960794036388784
1140.0,0.010960476993440995
1139.0,0.010959028757843804
1138.0,0.010957579689669013
1137.0,0.010954471977450593
1136.0,0.010944600119496979
1135.0,0.01092718588362121
1134.0,0.010906891435895637
1133.0,0.010886300454951247
1132.0,0.01086456902972866
1131.0,0.01084282861727877
1130.0,0.010822336533639466
1129.0,0.010798020649840716
1128.0,0.010763362525352052
1127.0,0.010721634666037809
1126.0,0.010682621043965099
1125.0,0.010648398434775122
1124.0,0.010612679195281114
1123.0,0.010573920903436815
1122.0,0.010538183185124879
1121.0,0.01050869486021066
1120.0,0.010483578592698266
1119.0,0.010464359919666376
1118.0,0.010455503952119635
1117.0,0.010454322509661397
1116.0,0.010451757123952314
1115.0,0.01044470011685904
1114.0,0.010438328770890508
1113.0,0.010435651785474538
1112.0,0.010434459338484546
1111.0,0.010434827631369707
1110.0,0.010439561629980646
1109.0,0.01044651459333119
1108.0,0.010450436787653627
1107.0,0.010453774489532722
1106.0,0.010465044474504796
1105.0,0.010485814600211458
1104.0,0.010509786691667734
1103.0,0.010534231802099706
1102.0,0.010562414148086882
1101.0,0.0105929807130211
1100.0,0.010619312114436036
1099.0,0.010643747674308904
1098.0,0.010677603933958696
1097.0,0.010728158806563703
1096.0,0.01079245136186899
1095.0,0.010867001654832216
1094.0,0.010952922926943148
1093.0,0.011048920404350524
1092.0,0.011148527031754526
1091.0,0.011247767871875728
1090.0,0.011347416258407397
1089.0,0.011444469901590218
1088.0,0.011529563743788484
1087.0,0.011597181625405694
1086.0,0.011651337636972566
1085.0,0.01169654738029706
1084.0,0.011729979161316113
1083.0,0.011747188804741857
1082.0,0.01174888989411375
1081.0,0.011737248395047934
1080.0,0.01171193801141239
1079.0,0.01167481420506722
1078.0,0.011632551418878603
1077.0,0.011589885167564347
1076.0,0.011544998817735928
1075.0,0.011494370574549807
1074.0,0.011436904881366998
1073.0,0.011371616808670418
1072.0,0.011297692275804704
1071.0,0.011218865641778533
1070.0,0.011141642630843576
1069.0,0.0110682058127128
1068.0,0.010997328736770156
1067.0,0.01093140153842663
1066.0,0.010874250763368098
1065.0,0.010822414457833641
1064.0,0.01076752998704853
1063.0,0.010707938704723221
1062.0,0.010650025944257437
1061.0,0.010597969011434633
1060.0,0.010550435791878055
1059.0,0.01050741823801972
1058.0,0.010471077785305252
1057.0,0.01043879662071107
1056.0,0.010403938120629072
1055.0,0.01036506382273174
1054.0,0.010327406115004278
1053.0,0.010294344188407635
1052.0,0.010264427650900292
1051.0,0.010237021406421583
1050.0,0.010212327211949394
1049.0,0.010185721648669155
1048.0,0.010151850825823925
1047.0,0.010113533216781101
1046.0,0.010076572407282443
1045.0,0.010037542522759228
1044.0,0.00998665049322226
1043.0,0.009921838069211795
1042.0,0.00985156897558982
1041.0,0.009783523835741484
1040.0,0.00971809972845979
1039.0,0.009653134211234447
1038.0,0.009587455980651643
1037.0,0.0095195910531924
1036.0,0.009449792933304559
1035.0,0.009382900293200398
1034.0,0.00932238898207568
1033.0,0.009262779921517809
1032.0,0.009195266146063747
1031.0,0.009119506426393
1030.0,0.009042354412714611
1029.0,0.008966688492482625
1028.0,0.008889916469311313
1027.0,0.008811888082814339
1026.0,0.008735233178876655
1025.0,0.008658720530778593
1024.0,0.00857906910685252
1023.0,0.008499054031655318
1022.0,0.00842561296624887
1021.0,0.008359910177071925
1020.0,0.008296775199056356
1019.0,0.008233551557168203
1018.0,0.008172069090699275
1017.0,0.008112600923930808
1016.0,0.008053532294870547
1015.0,0.007996408703308264
1014.0,0.007944114898024763
1013.0,0.007894855916105514
1012.0,0.00784478944506801
1011.0,0.007795370294985986
1010.0,0.0077512109116742705
1009.0,0.007711925394009538
1008.0,0.00767288617159226
1007.0,0.007632665683741343
1006.0,0.00759260439729203
1005.0,0.00755022001826498
1004.0,0.0075006246226755335
1003.0,0.007444400030327614
1002.0,0.007387570048922196
1001.0,0.007334039563105228
1000.0,0.007283616066289633
999.0,0.007235880946616003
998.0,0.007189694566914701
997.0,0.007140268956094176
996.0,0.007083045965995226
995.0,0.007019674909151901
994.0,0.006955049371757385
993.0,0.006890451544076042
992.0,0.00682520443620508
991.0,0.006761979524652404
990.0,0.006703043287838221
989.0,0.0066435202623838
988.0,0.006576104945526745
987.0,0.006501159664884496
986.0,0.006425379644352563
985.0,0.006352120071054061
984.0,0.006279971225111005
983.0,0.006209147803361409
982.0,0.006141798625472575
981.0,0.006076772675903289
980.0,0.006010852929432562
979.0,0.005944674769449223
978.0,0.005881627370810031
977.0,0.005822122829696877
976.0,0.005764556374391295
975.0,0.005710011620005168
974.0,0.005660162817727703
973.0,0.005612468598370005
972.0,0.005563145416198377
971.0,0.005512896320000778
970.0,0.005464452631842621
969.0,0.005417054375222552
968.0,0.005368993018692621
967.0,0.005322938156451119
966.0,0.005282618261419588
965.0,0.005246277075772577
964.0,0.005209048792472286
963.0,0.005169638894013482
962.0,0.00512962040869132
961.0,0.005089030935589635
960.0,0.005047815556485289
959.0,0.005008402254407056
958.0,0.0049715985426269935
957.0,0.0049333984609906505
956.0,0.004891199917388128
955.0,0.004849426103753681
954.0,0.004813292072672608
953.0,0.004780854473415636
952.0,0.004747285767543828
951.0,0.004713015944464486
950.0,0.004681093804780339
949.0,0.004650539583853473
948.0,0.004619373800782703
947.0,0.004590638533604531
946.0,0.004568152901684161
945.0,0.0045490927021864915
944.0,0.004527509029670717
943.0,0.004502638460866657
942.0,0.0044777050472986505
941.0,0.00445345158936832
940.0,0.004428986428883647
939.0,0.0044060140560898044
938.0,0.004385717174526597
937.0,0.004364076558596515
936.0,0.004336634096923672
935.0,0.004305544193645707
934.0,0.004276112578897523
933.0,0.0042489605183181406
932.0,0.004221331851374886
931.0,0.004193221349930486
930.0,0.0041661719281857424
929.0,0.004138555883265954
928.0,0.004107893305148521
927.0,0.004075587083681151
926.0,0.0040441200353184045
925.0,0.004012227151105682
924.0,0.003977957443255608
923.0,0.003943369886322493
922.0,0.003910869209587531
921.0,0.003878245936978179
920.0,0.0038428941654180026
919.0,0.003807469260498202
918.0,0.003775612506244786
917.0,0.0037454248167173897
916.0,0.003712993673610856
915.0,0.003679106933175382
914.0,0.0036465209079613843
913.0,0.003613709441196479
912.0,0.003577483948973886
911.0,0.0035389679555808753
910.0,0.003500889238736241
909.0,0.0034616972571997343
908.0,0.0034183459619239517
907.0,0.0033721485630214716
906.0,0.003326216310429427
905.0,0.0032801942065242753
904.0,0.0032330896601217313
903.0,0.003187537356809187
902.0,0.0031450731094688072
901.0,0.0031007478365216523
900.0,0.0030492335390840414
899.0,0.002993611420981557
898.0,0.002941684638647961
897.0,0.002896160150218396
896.0,0.002853958307902027
895.0,0.002812805456666308
894.0,0.002773330450473401
893.0,0.0027384246878708702
892.0,0.002717907436887901
891.0,0.0027341721278284544
890.0,0.0028202739628397713
889.0,0.0030132568065609428
888.0,0.0033473010918779605
887.0,0.0038429282885449906
886.0,0.004496851191360134
885.0,0.005288898294202409
884.0,0.006202966502013588
883.0,0.007236808009920638
882.0,0.008391944216076714
881.0,0.009660155872059796
880.0,0.011018762060071692
879.0,0.012434299592161985
878.0,0.013874658623413982
877.0,0.01532337495680133
876.0,0.01678267836257442
875.0,0.01826468725349635
874.0,0.019770460525739466
873.0,0.02123977473151747
872.0,0.02249012083111932
871.0,0.0232351421259102
870.0,0.023232311910892846
869.0,0.022446162784847408
868.0,0.021068945603342135
867.0,0.019405330522913156
866.0,0.017732644583952555
865.0,0.016215325392953457
864.0,0.014903109827905131
863.0,0.013784816833047595
862.0,0.012835173689613625
861.0,0.012027391702845858
860.0,0.011333323270165866
859.0,0.010729846871792506
858.0,0.010202782592202298
857.0,0.009741755071365705
856.0,0.009336570616950262
855.0,0.00898081485340917
854.0,0.008676216129348808
853.0,0.008434226748553328
852.0,0.008273208106413958
851.0,0.008202422977941604
850.0,0.008195862769922515
849.0,0.008186608340795317
848.0,0.008102620520121593
847.0,0.007915927380347096
846.0,0.007656158243050611
845.0,0.007378939681764753
844.0,0.0071279879901851185
843.0,0.0069219719588234484
842.0,0.006759284906319501
841.0,0.006627339781395762
840.0,0.006514153464550261
839.0,0.0064163259497585275
838.0,0.006335185400571448
837.0,0.006267863691615357
836.0,0.006207418288197255
835.0,0.006149633749101576
834.0,0.006093720931481868
833.0,0.006037913599554565
832.0,0.00598045220463366
831.0,0.005923529415784456
830.0,0.005870009050066605
829.0,0.0058175010699902845
828.0,0.005762396318312364
827.0,0.005708177259166029
826.0,0.005661486306250931
825.0,0.005621181621648973
824.0,0.005580583652424192
823.0,0.005538963358837203
822.0,0.005500796715956754
821.0,0.0054661146542626556
820.0,0.005431442145279865
819.0,0.0053973101515410685
818.0,0.005366441134227351
817.0,0.0053373477995063145
816.0,0.005307007396880172
815.0,0.005277699897862154
814.0,0.005254272260220421
813.0,0.005235868917356862
812.0,0.005216599249148872
811.0,0.005193104413334656
810.0,0.005165890030120386
809.0,0.005134930808489565
808.0,0.0051000249841022995
807.0,0.005064559061314442
806.0,0.005033213670459994
805.0,0.005006638347715575
804.0,0.004982614176828218
803.0,0.00496047306472251
802.0,0.0049404258362661406
801.0,0.004921485701086063
800.0,0.004904658682269672
799.0,0.004894530691863917
798.0,0.004892364487071159
797.0,0.004891392684692781
796.0,0.004884834107193043
795.0,0.004874896478831285
794.0,0.004867848152194109
793.0,0.004864019956639531
792.0,0.004859699755301826
791.0,0.0048555390436615066
790.0,0.004855339863354322
789.0,0.004858505628076657
788.0,0.004860785760945123
787.0,0.004861234098994622
786.0,0.004861995569176705
785.0,0.0048623958001503724
784.0,0.004859183295399988
783.0,0.004851855399720097
782.0,0.004842589943019371
781.0,0.0048319358594100595
780.0,0.004819484999945426
779.0,0.004807183154437755
778.0,0.004796804621725969
777.0,0.00478566827713218
776.0,0.004770178730775537
775.0,0.004752470721083428
774.0,0.004738574580238549
773.0,0.004730856813322027
772.0,0.004726285701781855
771.0,0.004720280269766433
770.0,0.004708557428699166
769.0,0.004688287941986902
768.0,0.0046624493058622495
767.0,0.004640331204727836
766.0,0.004628155763508198
765.0,0.004621457416891582
764.0,0.004611827125793334
763.0,0.004597977877997485
762.0,0.004584083856848492
761.0,0.004570256890253559
760.0,0.004552069002644136
759.0,0.004528515649169999
758.0,0.004504020010951123
757.0,0.0044829755573767725
756.0,0.0044678215135498965
755.0,0.004461384385640314
754.0,0.0044651899891508
753.0,0.004475725328605498
752.0,0.004486831941243724
751.0,0.004494760001124458
750.0,0.004497005851397888
749.0,0.00448962309876164
748.0,0.0044721308328993506
747.0,0.00445320387509019
746.0,0.004444428811164539
745.0,0.004448458139015127
744.0,0.004458792369193971
743.0,0.004469764504514099
742.0,0.004479904732787302
741.0,0.004486710383964885
740.0,0.004486803196357422
739.0,0.004482933145348031
738.0,0.004483818450336867
737.0,0.004495239369558716
736.0,0.0045174373661182425
735.0,0.0045530193267538255
734.0,0.004611094901626401
733.0,0.004699450290586717
732.0,0.004815347245927351
731.0,0.0049467524998039105
730.0,0.005081484779227531
729.0,0.005215957996751088
728.0,0.00535846654010796
727.0,0.00552468458473193
726.0,0.005726231907344942
725.0,0.005961279899338791
724.0,0.006218977511167496
723.0,0.006492484479686013
722.0,0.006780072508097312
721.0,0.007068552842678329
720.0,0.007323024204666325
719.0,0.007506691113344639
718.0,0.007608821618672167
717.0,0.0076432163733572405
716.0,0.0076298477367739235
715.0,0.007588839769855488
714.0,0.007541186363367956
713.0,0.007500947132104276
712.0,0.007466674423318021
711.0,0.007426289276275935
710.0,0.0073691368130131135
709.0,0.007291275778868098
708.0,0.007193746454277047
707.0,0.007081295559357902
706.0,0.006961469964025184
705.0,0.006840084991456542
704.0,0.006718630547267424
703.0,0.006598353700208495
702.0,0.006483394422563479
701.0,0.006376803828557339
700.0,0.006276916737598306
699.0,0.00617994586691549
698.0,0.006084586443289386
697.0,0.0059927383842535535
696.0,0.00590746512966913
695.0,0.005831491822824433
694.0,0.005764771551368128
693.0,0.0057031713833533525
692.0,0.005642815054441839
691.0,0.005585689593643833
690.0,0.005537196838820158
689.0,0.005496555769421115
688.0,0.005454444193660832
687.0,0.005404182022264755
686.0,0.005349872131576386
685.0,0.005300601937610091
684.0,0.005262056766846664
683.0,0.0052346026607133864
682.0,0.005215075829785395
681.0,0.005198475919621936
680.0,0.005180860300297944
679.0,0.00516122013573068
678.0,0.005140001101135195
677.0,0.00511771446065919
676.0,0.005094356612227454
675.0,0.005073632229620052
674.0,0.005059624595355484
673.0,0.005047681427096658
672.0,0.005024976424697479
671.0,0.004980386573096538
670.0,0.004911644600330125
669.0,0.004826447160048018
668.0,0.004765923732961172
667.0,0.004783717629410845
666.0,0.004834669363821609
665.0,0.004855676334777749
664.0,0.004841494132670895
663.0,0.004809526032829044
662.0,0.004781191827621249
661.0,0.004768537790233627
660.0,0.0047689352230586585
659.0,0.004772339612110525
658.0,0.004768535239744713
657.0,0.004752716191604212
656.0,0.004726927423645032
655.0,0.004700863870583456
654.0,0.004683071403502
653.0,0.004669993826005673
652.0,0.004650892912837241
651.0,0.0046220197867415875
650.0,0.0045897976027022
649.0,0.004562258440243521
648.0,0.004544445100509633
647.0,0.0045390607770231005
646.0,0.004541591130373455
645.0,0.004536716967667534
644.0,0.004511280693967224
643.0,0.004470961880858643
642.0,0.004434977070479402
641.0,0.004412767638441075
640.0,0.004395332616841378
639.0,0.004370807154816404
638.0,0.0043387228176620515
637.0,0.0043065235352333755
636.0,0.004281056924959639
635.0,0.004266003696865372
634.0,0.004258582850968043
633.0,0.004249447998927844
632.0,0.0042331456631039144
631.0,0.0042158418433307955
630.0,0.004204220488412733
629.0,0.004190580459556016
628.0,0.004160334949255851
627.0,0.004112575861324558
626.0,0.004063033144244193
625.0,0.004025000497478427
624.0,0.003998821189246742
623.0,0.0039774518612741335
622.0,0.003948941939062715
621.0,0.003897870924088302
620.0,0.0038216493203668163
619.0,0.0037455595565913154
618.0,0.003700693467985623
617.0,0.0036873822001810604
616.0,0.003684930233856269
615.0,0.0036875662612340116
614.0,0.0037018474049551582
613.0,0.003718785957060258
612.0,0.0037187191535938994
611.0,0.003702009548034093
610.0,0.003693249934657112
609.0,0.003710514792706434
608.0,0.0037433337148639594
607.0,0.0037605587469520703
606.0,0.003738306921057627
605.0,0.00368657143282742
604.0,0.00364585207918608
603.0,0.0036492615177606946
602.0,0.0036845166601538453
601.0,0.003706658918104574
600.0,0.003693218363132725
599.0,0.0036653167558291884
598.0,0.003646318844484052
597.0,0.003623257084427469
596.0,0.0035731746056937375
595.0,0.003507278810997951
594.0,0.0034598502014143648
593.0,0.003440214013482843
592.0,0.0034236539856719256
591.0,0.0033861216438969294
590.0,0.0033246344274391274
589.0,0.003243353431114447
588.0,0.003151739464210517
587.0,0.00307798487228183
586.0,0.0030411423057240296
585.0,0.0030091195258031035
584.0,0.0029311688043353393
583.0,0.002810316625575059
582.0,0.002701465799138096
581.0,0.0026303011755394352
580.0,0.002564186458601141
579.0,0.0024716593381478216
578.0,0.0023703993321722043
577.0,0.0023053314994209402
576.0,0.002314003721387365
575.0,0.002401146202784643
574.0,0.0025131449189428655
573.0,0.0025749748640261664
572.0,0.0025549769298628426
571.0,0.00248057480962814
570.0,0.002398112241553024
569.0,0.002317365336218711
568.0,0.0022256356215733077
567.0,0.0021400514880085776
566.0,0.002093407018934826
565.0,0.0020867383943994847
564.0,0.0021057327841356886
563.0,0.002149103196623354
562.0,0.0022107622538760172
561.0,0.002264134506844824
560.0,0.0022877298767255416
559.0,0.0022833045151638377
558.0,0.002258757092918574
557.0,0.002217160591623909
556.0,0.002177286338020796
555.0,0.0021725768701853767
554.0,0.0022005874899250306
553.0,0.00221236335953113
552.0,0.0021770904799683346
551.0,0.0021146466551782723
550.0,0.0020480824312419585
