cm-1,A
4000.0,0.001700528989488307
3999.0,0.0016919705038327933
3998.0,0.0016987304686117226
3997.0,0.0017168736918473943
3996.0,0.0017363618390494728
3995.0,0.0017478618479554982
3994.0,0.0017492437207100673
3993.0,0.001744581769698563
3992.0,0.0017390814533439053
3991.0,0.0017351114980973504
3990.0,0.001732411959018949
3989.0,0.001730457026362669
3988.0,0.0017293053083350272
3987.0,0.001729483268968103
3986.0,0.0017312334034268414
3985.0,0.0017338920467620668
3984.0,0.0017359642899324023
3983.0,0.0017361414148842095
3982.0,0.001734799304482764
3981.0,0.0017335820949458984
3980.0,0.001733212537485694
3979.0,0.0017323738550983378
3978.0,0.0017292309842687073
3977.0,0.0017240813917256703
3976.0,0.0017194049092815198
3975.0,0.0017172686782126628
3974.0,0.0017181344759240082
3973.0,0.0017224018715008265
3972.0,0.001731484985218253
3971.0,0.0017455372782562016
3970.0,0.0017601173400660724
3969.0,0.0017669832324462955
3968.0,0.0017604492818456214
3967.0,0.0017433155785534296
3966.0,0.001726138098591333
3965.0,0.0017199147461905056
3964.0,0.001727751931278024
3963.0,0.0017428156415205324
3962.0,0.0017536296976940159
3961.0,0.0017534656302654861
3960.0,0.0017447225856183947
3959.0,0.00173478127416431
3958.0,0.0017300157199743025
3957.0,0.0017321558972204507
3956.0,0.0017391613902098557
3955.0,0.0017473059737647956
3954.0,0.0017520067384700173
3953.0,0.0017494601590914024
3952.0,0.0017395131566468195
3951.0,0.0017277208638553677
3950.0,0.0017219444077165949
3949.0,0.0017249291954963037
3948.0,0.0017308161109139773
3947.0,0.001730766989443485
3946.0,0.001722368577474172
3945.0,0.0017113191301837355
3944.0,0.001705182307596682
3943.0,0.0017069367537461307
3942.0,0.0017131975698687308
3941.0,0.0017187131654807703
3940.0,0.001720662287995064
3939.0,0.0017186390344134115
3938.0,0.0017136038030116053
3937.0,0.001707373908732645
3936.0,0.0017024792616457773
3935.0,0.0017013442931220466
3934.0,0.0017053223712636578
3933.0,0.0017143616761573013
3932.0,0.0017261639220254475
3931.0,0.0017361151944459137
3930.0,0.001738914274560876
3929.0,0.0017327312395780032
3928.0,0.0017226780574232754
3927.0,0.0017180867771890299
3926.0,0.0017245549073755663
3925.0,0.0017379489185789286
3924.0,0.0017484880162932145
3923.0,0.001749930114392866
3922.0,0.0017432694584355733
3921.0,0.0017337519138072685
3920.0,0.0017264316219821746
3919.0,0.001724615581992535
3918.0,0.001729747704428678
3917.0,0.001740915279359415
3916.0,0.0017540123159490292
3915.0,0.0017628082794448178
3914.0,0.0017624960658825062
3913.0,0.0017536176666012177
3912.0,0.001741273702819832
3911.0,0.0017306037700977727
3910.0,0.0017227639063095378
3909.0,0.0017165400291582556
3908.0,0.0017128395778007086
3907.0,0.0017150922760601549
3906.0,0.0017245154401907335
3905.0,0.0017351403291553445
3904.0,0.0017373565036214586
3903.0,0.0017281916613211589
3902.0,0.0017159072542597543
3901.0,0.0017121458995763479
3900.0,0.0017211817053717285
3899.0,0.0017375610571275265
3898.0,0.00175057807971771
3897.0,0.001752004252228559
3896.0,0.0017402388532094006
3895.0,0.0017206990171688718
3894.0,0.0017036520445634223
3893.0,0.0016989011043208194
3892.0,0.0017081574734818107
3891.0,0.0017237063542117903
3890.0,0.001736576925043511
3889.0,0.001743983059096147
3888.0,0.0017476517736078794
3887.0,0.001749275374532767
3886.0,0.0017498501790063447
3885.0,0.0017504138255714525
3884.0,0.0017498303395741353
3883.0,0.001744019675766935
3882.0,0.0017288279783955651
3881.0,0.0017063968173780851
3880.0,0.0016881476436672559
3879.0,0.0016841369263839636
3878.0,0.001692479651566073
3877.0,0.0017040693281673326
3876.0,0.0017112902156440047
3875.0,0.0017113109318260475
3874.0,0.0017070923507730407
3873.0,0.0017052373321383481
3872.0,0.0017100426452834033
3871.0,0.0017202611939279018
3870.0,0.0017324609990640965
3869.0,0.0017448667840357455
3868.0,0.0017557448544744327
3867.0,0.0017608742599815289
3866.0,0.0017558838104793787
3865.0,0.0017443486608966423
3864.0,0.001736881465285895
3863.0,0.0017396856572949927
3862.0,0.0017480354438986876
3861.0,0.001754266926281797
3860.0,0.001754946113144687
3859.0,0.0017507399445830466
3858.0,0.001742863973685976
3857.0,0.0017315811412565059
3856.0,0.0017198805866548458
3855.0,0.0017203843161811014
3854.0,0.0017455900251153547
3853.0,0.0017823306136743864
3852.0,0.0018034453959102836
3851.0,0.0018011968199931204
3850.0,0.0017850038063782158
3849.0,0.0017655571537862945
3848.0,0.0017485643832940538
3847.0,0.0017350005611777323
3846.0,0.0017228807200737133
3845.0,0.001711070118145459
3844.0,0.0017012142023175498
3843.0,0.0016975951737521681
3842.0,0.0017039359691732262
3841.0,0.0017194883692092655
3840.0,0.0017381645690626446
3839.0,0.0017530451455936152
3838.0,0.0017613803164725672
3837.0,0.0017641974989820526
3836.0,0.0017636139777896724
3835.0,0.0017617709662068018
3834.0,0.0017591818577777597
3833.0,0.0017541311570425256
3832.0,0.001745520687128415
3831.0,0.0017355716715397687
3830.0,0.0017283677803559935
3829.0,0.0017270488637054372
3828.0,0.001731277763171322
3827.0,0.0017375703902666106
3826.0,0.0017425400746770843
3825.0,0.0017461384923017588
3824.0,0.001750268363913502
3823.0,0.0017561390846962863
3822.0,0.0017626759898224193
3821.0,0.0017684435931248441
3820.0,0.0017759011287509499
3819.0,0.0017869124461628236
3818.0,0.0017968862562342557
3817.0,0.0017983061660988221
3816.0,0.0017905646904141578
3815.0,0.0017808801486499872
3814.0,0.00177282545733982
3813.0,0.0017629677683524353
3812.0,0.001748276545597565
3811.0,0.0017316613530203003
3810.0,0.0017210172012193299
3809.0,0.0017224876246235738
3808.0,0.0017350793587505493
3807.0,0.0017521337233531746
3806.0,0.0017669476475385693
3805.0,0.0017768092719678053
3804.0,0.001779930891979249
3803.0,0.001772324698758067
3802.0,0.0017540589817914955
3801.0,0.0017357148130233116
3800.0,0.001726835182689305
3799.0,0.0017264493132939742
3798.0,0.0017304001650072318
3797.0,0.001735799189783989
3796.0,0.0017419978813955762
3795.0,0.0017488428190667806
3794.0,0.0017553747810639822
3793.0,0.0017612291192353555
3792.0,0.001767616947165929
3791.0,0.0017751143180776813
3790.0,0.0017813585817207846
3789.0,0.0017825566069795237
3788.0,0.0017772288503179112
3787.0,0.0017675896703625098
3786.0,0.0017572852991337654
3785.0,0.0017491161308268413
3784.0,0.0017443787729358243
3783.0,0.0017434073700413463
3782.0,0.0017462102050296397
3781.0,0.0017527416339301331
3780.0,0.001761501116037767
3779.0,0.0017690265583538965
3778.0,0.0017721604519083268
3777.0,0.0017700852197356275
3776.0,0.0017635300802064553
3775.0,0.0017539526660032036
3774.0,0.001744561508081311
3773.0,0.0017400942299340438
3772.0,0.0017435821849863184
3771.0,0.001753319311267391
3770.0,0.0017641187501075246
3769.0,0.0017717980476146989
3768.0,0.0017756644172316678
3767.0,0.0017763695243938984
3766.0,0.0017738004791365307
3765.0,0.0017689503068230553
3764.0,0.0017650961042235272
3763.0,0.0017649307861948263
3762.0,0.00176806334878578
3761.0,0.001773918935313726
3760.0,0.0017833670564129482
3759.0,0.0017960018357412347
3758.0,0.0018082350059667792
3757.0,0.0018175345114562103
3756.0,0.001825793939991308
3755.0,0.001835480127962141
3754.0,0.0018449713187018504
3753.0,0.00185076157946056
3752.0,0.0018525330971699496
3751.0,0.0018527035310515797
3750.0,0.0018520580480626686
3749.0,0.0018495816209774174
3748.0,0.0018470271987839392
3747.0,0.0018462507458040767
3746.0,0.0018441106913280807
3745.0,0.0018373046333066993
3744.0,0.0018300505277871163
3743.0,0.0018271434758677188
3742.0,0.0018261471491692522
3741.0,0.0018236257131202388
3740.0,0.0018184531404292466
3739.0,0.0018113861186052067
3738.0,0.001804045106517915
3737.0,0.0017976575517887313
3736.0,0.001793861359426188
3735.0,0.0017939520646377879
3734.0,0.00179593117716753
3733.0,0.0017957704617495972
3732.0,0.0017932726772207776
3731.0,0.001792749518898574
3730.0,0.0017980899918247873
3729.0,0.001808180977716685
3728.0,0.0018176961429702122
3727.0,0.0018216406873353885
3726.0,0.0018209044796128541
3725.0,0.0018220307051693744
3724.0,0.001831064262309013
3723.0,0.0018494802502038513
3722.0,0.0018732629818636061
3721.0,0.001896207976299749
3720.0,0.0019145618048451566
3719.0,0.001928367228899761
3718.0,0.001939635598089677
3717.0,0.001952557764683505
3716.0,0.0019728790708517597
3715.0,0.0020044374731550494
3714.0,0.0020455653347051213
3713.0,0.0020903542684208333
3712.0,0.0021338040658542825
3711.0,0.0021781930453322004
3710.0,0.002231444714695671
3709.0,0.0022962658513036474
3708.0,0.002366950835670006
3707.0,0.0024369463372577458
3706.0,0.002506869124417502
3705.0,0.002585202366111527
3704.0,0.0026827833325784372
3703.0,0.0028038661987025296
3702.0,0.0029396731567628825
3701.0,0.0030738363171002904
3700.0,0.003195937515292075
3699.0,0.003303482114255832
3698.0,0.0033923015987891913
3697.0,0.0034544596976353132
3696.0,0.003485534499559618
3695.0,0.003488898355320337
3694.0,0.00347172055240525
3693.0,0.0034414387510820175
3692.0,0.003406025250253358
3691.0,0.0033709105132839357
3690.0,0.003333455118867259
3689.0,0.0032877337360066134
3688.0,0.003236177866075056
3687.0,0.0031878398059114977
3686.0,0.003146415634499713
3685.0,0.0031078664766584097
3684.0,0.003068146367799049
3683.0,0.0030297299376214675
3682.0,0.002999650078063993
3681.0,0.0029815225091710564
3680.0,0.0029745477263586305
3679.0,0.0029782197081043476
3678.0,0.00299113948397294
3677.0,0.003004781472621433
3676.0,0.0030065200273423362
3675.0,0.0029994321015259706
3674.0,0.003002147415645664
3673.0,0.0030218769363532924
3672.0,0.003048763027123819
3671.0,0.0030692131280229814
3670.0,0.00308057546812725
3669.0,0.0030933910264827353
3668.0,0.003115343981266697
3667.0,0.0031422647927743363
3666.0,0.0031657449526573313
3665.0,0.003182547447424724
3664.0,0.0031971904768975422
3663.0,0.003216524420243492
3662.0,0.003242564231574107
3661.0,0.003271085828464154
3660.0,0.0032974356108304605
3659.0,0.0033208821945445426
3658.0,0.0033436188470296656
3657.0,0.003367293022308076
3656.0,0.003392383521463976
3655.0,0.003419245520298913
3654.0,0.0034477877030544817
3653.0,0.003477048750661866
3652.0,0.0035058762075624297
3651.0,0.003533171142011373
3650.0,0.003555682525635222
3649.0,0.003568045460493493
3648.0,0.0035706395014338784
3647.0,0.0035725867929050394
3646.0,0.0035829959349160086
3645.0,0.003603876845921625
3644.0,0.003631530570052364
3643.0,0.0036609502109187612
3642.0,0.003688172559355273
3641.0,0.00371016135006287
3640.0,0.0037243602894184817
3639.0,0.0037304136220222125
3638.0,0.003733135786393846
3637.0,0.003741431512441198
3636.0,0.0037624972563635294
3635.0,0.003796181648272348
3634.0,0.003835886459388334
3633.0,0.0038753487921729148
3632.0,0.003913294285506851
3631.0,0.003952575485341366
3630.0,0.0039958384016901645
3629.0,0.004041706434246907
3628.0,0.004089282507279358
3627.0,0.004140321487701173
3626.0,0.004194942486609172
3625.0,0.004252984478592542
3624.0,0.00431671458639895
3623.0,0.0043900358478884466
3622.0,0.004472155022997856
3621.0,0.00455109303085343
3620.0,0.004605962184620274
3619.0,0.004623255706116918
3618.0,0.00461092680751922
3617.0,0.00458647221919147
3616.0,0.004558445292048819
3615.0,0.004526429944906173
3614.0,0.004491488666544592
3613.0,0.0044616574579471645
3612.0,0.004444554833445917
3611.0,0.004437900179239452
3610.0,0.004431719997014287
3609.0,0.004420990082157103
3608.0,0.0044133889244825225
3607.0,0.004420620326488398
3606.0,0.004442683146186133
3605.0,0.004467390917182431
3604.0,0.004483836670723417
3603.0,0.004491855489372013
3602.0,0.00449898461486503
3601.0,0.004510384726807426
3600.0,0.00452412906983643
3599.0,0.004535792486646092
3598.0,0.0045449056078229865
3597.0,0.004555881465880979
3596.0,0.00457317642775749
3595.0,0.004596792871526929
3594.0,0.004622764461627035
3593.0,0.004646840192039501
3592.0,0.004667144400038187
3591.0,0.0046840972748807205
3590.0,0.004698330066261161
3589.0,0.004708166870387248
3588.0,0.0047109459987477115
3587.0,0.0047106994899604425
3586.0,0.00471834264671255
3585.0,0.0047390137384990295
3584.0,0.004767249601698378
3583.0,0.004794240344174719
3582.0,0.004815833348625815
3581.0,0.004834567966927344
3580.0,0.0048558811952806764
3579.0,0.004882193944178901
3578.0,0.0049106293396022765
3577.0,0.004936396129254587
3576.0,0.004957532021708813
3575.0,0.0049764680941568095
3574.0,0.004997837786279654
3573.0,0.00502493501778175
3572.0,0.005058203000665018
3571.0,0.005096394454641051
3570.0,0.005137161515850377
3569.0,0.005175119403638503
3568.0,0.00520153790434419
3567.0,0.005213283944678292
3566.0,0.005220290340498523
3565.0,0.005234194436456516
3564.0,0.005255732892465102
3563.0,0.005279326210785096
3562.0,0.005302882496967519
3561.0,0.0053294059930597435
3560.0,0.005360568599516249
3559.0,0.005392801362132507
3558.0,0.005421762947194037
3557.0,0.005448777263288794
3556.0,0.005479331226763612
3555.0,0.005515217657290075
3554.0,0.005550309889968174
3553.0,0.005576500810836002
3552.0,0.005593890651754468
3551.0,0.005611703135635784
3550.0,0.005638401199597262
3549.0,0.005673759458363942
3548.0,0.005709813768846309
3547.0,0.00573784568899005
3546.0,0.005756219527843607
3545.0,0.005772488932273125
3544.0,0.005796518345785889
3543.0,0.00583131794125732
3542.0,0.005871469579470643
3541.0,0.00590932551693381
3540.0,0.0059415595592922504
3539.0,0.005969918626802905
3538.0,0.005996859973738715
3537.0,0.006022402732673171
3536.0,0.00604627848016635
3535.0,0.006071384004446675
3534.0,0.006102624232302363
3533.0,0.00614247238221548
3532.0,0.006188647109030594
3531.0,0.006235482076759332
3530.0,0.006276607496974631
3529.0,0.006306997839088172
3528.0,0.006325055413571089
3527.0,0.006334418299982087
3526.0,0.006342945087363396
3525.0,0.006358452305559684
3524.0,0.006383977989429254
3523.0,0.006416022204405829
3522.0,0.006447510596274972
3521.0,0.006473174675481215
3520.0,0.006493378673163381
3519.0,0.006513496235325166
3518.0,0.00653907758013996
3517.0,0.006570650190743625
3516.0,0.006603047147889223
3515.0,0.006630225514834397
3514.0,0.006650880782204427
3513.0,0.006669121132162484
3512.0,0.0066900663312801645
3511.0,0.006715209980948503
3510.0,0.006742013427353935
3509.0,0.006767685059983906
3508.0,0.0067924028622323475
3507.0,0.006817890599461647
3506.0,0.0068430123553706
3505.0,0.006862056393869408
3504.0,0.006869275389680105
3503.0,0.006866686517967631
3502.0,0.0068657863775415644
3501.0,0.0068789835116488535
3500.0,0.006910293762187311
3499.0,0.006954108697976431
3498.0,0.006999792662823133
3497.0,0.0070374359209612655
3496.0,0.0070624394389483935
3495.0,0.007077623475432612
3494.0,0.007091128298254722
3493.0,0.0071098545485943215
3492.0,0.007133520519938697
3491.0,0.007155763977870572
3490.0,0.007171598389609034
3489.0,0.007183425847464191
3488.0,0.007199704912286912
3487.0,0.0072277915693908824
3486.0,0.007267585525782072
3485.0,0.007310526240479849
3484.0,0.007343681206285748
3483.0,0.007358129843666643
3482.0,0.007357775723491755
3481.0,0.0073590999872867185
3480.0,0.007378242752036917
3479.0,0.007416720042206925
3478.0,0.007461067717816993
3477.0,0.007496691274132855
3476.0,0.007520643015909049
3475.0,0.007540805031989083
3474.0,0.00756448649940729
3473.0,0.007590069582808482
3472.0,0.0076103798674152495
3471.0,0.007622285108710731
3470.0,0.007631141232054833
3469.0,0.007646029076678471
3468.0,0.007671350397551156
3467.0,0.007703459243231788
3466.0,0.007735304660175442
3465.0,0.007763118552416088
3464.0,0.0077880688828245535
3463.0,0.007812795874410767
3462.0,0.007838284932536818
3461.0,0.007864558371103768
3460.0,0.007892508337003657
3459.0,0.007922940819291936
3458.0,0.00795430791043499
3457.0,0.007983320427023382
3456.0,0.00800848710463504
3455.0,0.008031958962517257
3454.0,0.008057018669963969
3453.0,0.008084368075657046
3452.0,0.008111652785766055
3451.0,0.008136166294034774
3450.0,0.008156999138839332
3449.0,0.008174798882293766
3448.0,0.008190992083191068
3447.0,0.008207786452670824
3446.0,0.008227441560050027
3445.0,0.008250259400467854
3444.0,0.008274047781983809
3443.0,0.008296585287581747
3442.0,0.00831843805295104
3441.0,0.00834233591117426
3440.0,0.008369247974064393
3439.0,0.008396170263619373
3438.0,0.008419013162419331
3437.0,0.008437216842931083
3436.0,0.008454478120977195
3435.0,0.008474770237107404
3434.0,0.008498419674467229
3433.0,0.008522757912338209
3432.0,0.008545904645876127
3431.0,0.008568735873023054
3430.0,0.008593229528260821
3429.0,0.008619825943118215
3428.0,0.008646836121306234
3427.0,0.00867191490873229
3426.0,0.008693838053136997
3425.0,0.008713448367035671
3424.0,0.008733326295620509
3423.0,0.008755722481508191
3422.0,0.008779775722180218
3421.0,0.008801304692250612
3420.0,0.00881676668058513
3419.0,0.008827424677169739
3418.0,0.008838394653794865
3417.0,0.008853418387517457
3416.0,0.008871670014479345
3415.0,0.008890179221191884
3414.0,0.008908205318966331
3413.0,0.008927620793391251
3412.0,0.008949355570581364
3411.0,0.008971455304168036
3410.0,0.008991394019937062
3409.0,0.009009177844676194
3408.0,0.009027097109500322
3407.0,0.009046945739962273
3406.0,0.009068641139640267
3405.0,0.00909131156706091
3404.0,0.00911437685472499
3403.0,0.009137359375964063
3402.0,0.009159668482484756
3401.0,0.009181050020964641
3400.0,0.009201418458270667
3399.0,0.009219656697513408
3398.0,0.009233416729379686
3397.0,0.009241179904796146
3396.0,0.009244541067142923
3395.0,0.00924808470584249
3394.0,0.009257064745471805
3393.0,0.009274970801153717
3392.0,0.00930218232487874
3391.0,0.009335937996614878
3390.0,0.009371741954134916
3389.0,0.009405501385502155
3388.0,0.009434622596714227
3387.0,0.009457365746999978
3386.0,0.009472266970914035
3385.0,0.00947946330199708
3384.0,0.009482515187240513
3383.0,0.009487405776568996
3382.0,0.009498553077373304
3381.0,0.009515816027965071
3380.0,0.009535624927889407
3379.0,0.00955494747707189
3378.0,0.009573847140949287
3377.0,0.00959397562186434
3376.0,0.009614899769898995
3375.0,0.00963297215529324
3374.0,0.00964485681758716
3373.0,0.009651986200107389
3372.0,0.009660268972223222
3371.0,0.009674626574000792
3370.0,0.009694197848281575
3369.0,0.009713324349082121
3368.0,0.009726710865729094
3367.0,0.00973321499791442
3366.0,0.009735936976063626
3365.0,0.009740240490193581
3364.0,0.009750988764393266
3363.0,0.009769307733924884
3362.0,0.00979101757882824
3361.0,0.009809324256696549
3360.0,0.00981991047997006
3359.0,0.009823273679980576
3358.0,0.009822691419244257
3357.0,0.009821704360972915
3356.0,0.009823896319107546
3355.0,0.009832628516685784
3354.0,0.009848643716002959
3353.0,0.009868320628558403
3352.0,0.009885833451917665
3351.0,0.009897566336583874
3350.0,0.00990420013282591
3349.0,0.009908758547861034
3348.0,0.009913402669016861
3347.0,0.009918289912086268
3346.0,0.009922920716105642
3345.0,0.009927823042282525
3344.0,0.00993426287791986
3343.0,0.009942382797885256
3342.0,0.009950777952529683
3341.0,0.00995880149519616
3340.0,0.009968191652910309
3339.0,0.009980404685292082
3338.0,0.009992591499342942
3337.0,0.009998906954131982
3336.0,0.009996993224835642
3335.0,0.009991048258282127
3334.0,0.009986852690305336
3333.0,0.009985759164585903
3332.0,0.009985687395763738
3331.0,0.009986182602045616
3330.0,0.009989501416145076
3329.0,0.00999728303500327
3328.0,0.01000888873199408
3327.0,0.010023129572161617
3326.0,0.01003911847718795
3325.0,0.010054613506368687
3324.0,0.01006555558580864
3323.0,0.010068611780549623
3322.0,0.010063383360323867
3321.0,0.01005201420886148
3320.0,0.010038579745760298
3319.0,0.01002950037411854
3318.0,0.010031681900145903
3317.0,0.010047136581644522
3316.0,0.010069527093882726
3315.0,0.01008784430921196
3314.0,0.010094231843508644
3313.0,0.010088273310162522
3312.0,0.010074859392249773
3311.0,0.010059738345409729
3310.0,0.010047334398248632
3309.0,0.010040860841386605
3308.0,0.01004218884003178
3307.0,0.010050578418196468
3306.0,0.010061971495906485
3305.0,0.01007076626541321
3304.0,0.01007359308446874
3303.0,0.010071847777130471
3302.0,0.010069966114647215
3301.0,0.010070791019356222
3300.0,0.010073034029149103
3299.0,0.010073379220699384
3298.0,0.010070201695322762
3297.0,0.010064742581469494
3296.0,0.010059668668085166
3295.0,0.01005757278951514
3294.0,0.010060128051990495
3293.0,0.010066955458715752
3292.0,0.010074972547908182
3291.0,0.010080116648049649
3290.0,0.010080502420822222
3289.0,0.010077654555044707
3288.0,0.010074807977775133
3287.0,0.01007460512731021
3286.0,0.010077950743501374
3285.0,0.010083530391628393
3284.0,0.010087984220891202
3283.0,0.010088016875426703
3282.0,0.010083579791114967
3281.0,0.010078338392615436
3280.0,0.010076039959633562
3279.0,0.010076839918851884
3278.0,0.010077698551648516
3277.0,0.010075460588387018
3276.0,0.010068689782058052
3275.0,0.01005770590912699
3274.0,0.010044677223409536
3273.0,0.010033244115540466
3272.0,0.010026023337063554
3271.0,0.01002215660271793
3270.0,0.010018820294903688
3269.0,0.010015442039579112
3268.0,0.010014851454585517
3267.0,0.010019499224555186
3266.0,0.010027734621918319
3265.0,0.010034636260912232
3264.0,0.010035601385887112
3263.0,0.010028706983554295
3262.0,0.010015167364359898
3261.0,0.009998757446534313
3260.0,0.009983853355202285
3259.0,0.00997277372094787
3258.0,0.009965180195552509
3257.0,0.009959980529949434
3256.0,0.009956146213436573
3255.0,0.00995117562770742
3254.0,0.009941519867646163
3253.0,0.009927100330139785
3252.0,0.009913823467948989
3251.0,0.0099085873535765
3250.0,0.00991216148340551
3249.0,0.00991903354031199
3248.0,0.009923360509597579
3247.0,0.009922281171386223
3246.0,0.009914175221839508
3245.0,0.009898240256997847
3244.0,0.009877393228498517
3243.0,0.00985792191310989
3242.0,0.00984361552436028
3241.0,0.009832509949633514
3240.0,0.009821721513125211
3239.0,0.009813056454656209
3238.0,0.009810331433262617
3237.0,0.009812247879937168
3236.0,0.00981185552158409
3235.0,0.00980370772943986
3234.0,0.009788573434090788
3233.0,0.009770216307214577
3232.0,0.009750561907824638
3231.0,0.009730186854683916
3230.0,0.009711470848181776
3229.0,0.009697989964997046
3228.0,0.009690628164098911
3227.0,0.009686325779559168
3226.0,0.009681416967493249
3225.0,0.009675104898632363
3224.0,0.009668895794735028
3223.0,0.009663356936640515
3222.0,0.009656390585163207
3221.0,0.009644769675479694
3220.0,0.009627146038449436
3219.0,0.009605645520644513
3218.0,0.009584510426309409
3217.0,0.00956681836782073
3216.0,0.009552373489650979
3215.0,0.009539019730760807
3214.0,0.009525851007634905
3213.0,0.009514084336406008
3212.0,0.009504163388564302
3211.0,0.009493277777655419
3210.0,0.009477549850479012
3209.0,0.009456454197508185
3208.0,0.009433223460039858
3207.0,0.00941058293172688
3206.0,0.009388230275984634
3205.0,0.009365845981417882
3204.0,0.009346535454448886
3203.0,0.009334365406401349
3202.0,0.009328540099147218
3201.0,0.009322429047940964
3200.0,0.009309473618303012
3199.0,0.009289038825077598
3198.0,0.009265841424472605
3197.0,0.009244584703391024
3196.0,0.009226295919483396
3195.0,0.009209439038048595
3194.0,0.009192870801158685
3193.0,0.009176711395192666
3192.0,0.009160945416704811
3191.0,0.009144582580306287
3190.0,0.009126796200867792
3189.0,0.009107920588928418
3188.0,0.009088167272395064
3187.0,0.009066028835855545
3186.0,0.009040043817065638
3185.0,0.009012499693355092
3184.0,0.00898903609839518
3183.0,0.008972747911592588
3182.0,0.008959878421987939
3181.0,0.008943356402068578
3180.0,0.008920104604643844
3179.0,0.008893196574948725
3178.0,0.008867127587645818
3177.0,0.00884284345153818
3176.0,0.008817968605915515
3175.0,0.008790572985569053
3174.0,0.008761718737046615
3173.0,0.008734641797910246
3172.0,0.008711547399813866
3171.0,0.008690763291769422
3170.0,0.00866750693513936
3169.0,0.00863865611687702
3168.0,0.00860680572626596
3167.0,0.008578511507577479
3166.0,0.008558281841165779
3165.0,0.008544825806617664
3164.0,0.008532636660808973
3163.0,0.008516163936965675
3162.0,0.008493079684139588
3161.0,0.0084654080018889
3160.0,0.008438094398590579
3159.0,0.008415129474152835
3158.0,0.008396126852437137
3157.0,0.008377147809215913
3156.0,0.008354923950737732
3155.0,0.008329326085070185
3154.0,0.008301888908763318
3153.0,0.008273660106484528
3152.0,0.0082451976306797
3151.0,0.008217395230947222
3150.0,0.0081912310322549
3149.0,0.008167251301209724
3148.0,0.008145805208901066
3147.0,0.008126852192462335
3146.0,0.00810886790867498
3145.0,0.008088976788354926
3144.0,0.008065219258150907
3143.0,0.00803813259749469
3142.0,0.008009319849989585
3141.0,0.007979211239899853
3140.0,0.007947529138954622
3139.0,0.007915951467177546
3138.0,0.007888927208480351
3137.0,0.007870479939482054
3136.0,0.00785975631200824
3135.0,0.007850149139245317
3134.0,0.007833970410509468
3133.0,0.007809156815535116
3132.0,0.007781226082242935
3131.0,0.007757801919374734
3130.0,0.00774138770320419
3129.0,0.007728005548570527
3128.0,0.0077120929739797894
3127.0,0.0076914063890798755
3126.0,0.007667419417580205
3125.0,0.0076427622720740725
3124.0,0.007619218746413324
3123.0,0.00759714838171811
3122.0,0.007575618426933354
3121.0,0.007553344995062659
3120.0,0.007530211885875089
3119.0,0.007507817115787994
3118.0,0.007488460684284069
3117.0,0.007473751695076775
3116.0,0.007463548888449002
3115.0,0.007455068195923797
3114.0,0.0074432417207072835
3113.0,0.007424090935433329
3112.0,0.007398869869049312
3111.0,0.007373392657696626
3110.0,0.007352089884769108
3109.0,0.007333769613944887
3108.0,0.007314671959604096
3107.0,0.007294647087325001
3106.0,0.007277539534864574
3105.0,0.007265293344261235
3104.0,0.007254437560899451
3103.0,0.0072399545028585515
3102.0,0.007221187309342576
3101.0,0.007201983607006428
3100.0,0.007185071811548319
3099.0,0.007168186403167126
3098.0,0.007146934406666196
3097.0,0.007120407093538825
3096.0,0.007092890063161092
3095.0,0.007070167223374418
3094.0,0.007054761713873434
3093.0,0.007045091109164191
3092.0,0.007038014874505814
3091.0,0.007030617332374475
3090.0,0.007019831226944778
3089.0,0.007002436439444298
3088.0,0.0069774351577598336
3087.0,0.00694861288965969
3086.0,0.006922977573610951
3085.0,0.006905212262317974
3084.0,0.006893994319536726
3083.0,0.006884080503258608
3082.0,0.006871421953876711
3081.0,0.006855396822602372
3080.0,0.006836671298784555
3079.0,0.006815209610067019
3078.0,0.006791251563064539
3077.0,0.006766708119290598
3076.0,0.006744136785272705
3075.0,0.00672481539858234
3074.0,0.006708844149114158
3073.0,0.006696113230392853
3072.0,0.00668553240117525
3071.0,0.006673930221741793
3070.0,0.006657903945683808
3069.0,0.006637340714286691
3068.0,0.006615401774361022
3067.0,0.006594818919718635
3066.0,0.006575924065593724
3065.0,0.006558731651999969
3064.0,0.006544600967865838
3063.0,0.006533736248919545
3062.0,0.006522806539734341
3061.0,0.006507370990519187
3060.0,0.006486250478415361
3059.0,0.006462148136712764
3058.0,0.006438197906897678
3057.0,0.006415428982662964
3056.0,0.006393152323249244
3055.0,0.00637023642438299
3054.0,0.006346076647329325
3053.0,0.006321637016479857
3052.0,0.006299500672891039
3051.0,0.006281421821554878
3050.0,0.006265656005879137
3049.0,0.006248078325679062
3048.0,0.00622649437140993
3047.0,0.006202461551874481
3046.0,0.006178541947290191
3045.0,0.006155300819158455
3044.0,0.006131934691954833
3043.0,0.006108776603063833
3042.0,0.006087493810031847
3041.0,0.006069008263709409
3040.0,0.006052191563010423
3039.0,0.006034951277896013
3038.0,0.006016289587537709
3037.0,0.0059973176240632545
3036.0,0.005980522998100809
3035.0,0.005967605127470683
3034.0,0.005957185295776005
3033.0,0.0059448771406998375
3032.0,0.005926754331809963
3031.0,0.00590370904210971
3030.0,0.005881896756126252
3029.0,0.0058672789950616235
3028.0,0.0058599994849090325
3027.0,0.005854860388757819
3026.0,0.005847449083219851
3025.0,0.005838419359312752
3024.0,0.005830725129360864
3023.0,0.005824741451978198
3022.0,0.005818291903974436
3021.0,0.005810891665856873
3020.0,0.005804996894094884
3019.0,0.005802519009416572
3018.0,0.005802732958877386
3017.0,0.005804900180048292
3016.0,0.005810721685009711
3015.0,0.00582199445264152
3014.0,0.005837237591336943
3013.0,0.005852867075193334
3012.0,0.00586748258961159
3011.0,0.005883124887695835
3010.0,0.005902520794939805
3009.0,0.005926284951020885
3008.0,0.005952675153083077
3007.0,0.0059789002473650665
3006.0,0.006002721480895146
3005.0,0.006024327613319703
3004.0,0.006046948612611636
3003.0,0.006074491563005752
3002.0,0.006107870195318822
3001.0,0.006143624554751149
3000.0,0.006176458054454666
2999.0,0.006202690118500121
2998.0,0.006221519969325772
2997.0,0.006233478835049655
2996.0,0.0062380566370104275
2995.0,0.006233304686004371
2994.0,0.006217703780809818
2993.0,0.0061919551727581505
2992.0,0.006158131116897403
2991.0,0.006117419822029632
2990.0,0.006070021868730578
2989.0,0.0060175245948184295
2988.0,0.005963797305410936
2987.0,0.005912528714125405
2986.0,0.005864666772542155
2985.0,0.005819626597402392
2984.0,0.005778320611933285
2983.0,0.005743633203814391
2982.0,0.00571778521133912
2981.0,0.005699977439134949
2980.0,0.005686811219741261
2979.0,0.005674782585481787
2978.0,0.005662982193386512
2977.0,0.0056536839302452286
2976.0,0.005649910003288833
2975.0,0.0056518228800658135
2974.0,0.005656007261128805
2973.0,0.00565827477094974
2972.0,0.0056561373937866035
2971.0,0.005648640869685601
2970.0,0.005636002780669161
2969.0,0.005621186063983544
2968.0,0.005610042470896024
2967.0,0.005606957659132663
2966.0,0.00561029279891528
2965.0,0.005613767590054859
2964.0,0.005612732822327735
2963.0,0.005607526973600247
2962.0,0.005601491920394255
2961.0,0.005597955635846059
2960.0,0.005599622630392477
2959.0,0.00560831284639467
2958.0,0.005623134095088513
2957.0,0.005640074063784755
2956.0,0.005655278712429648
2955.0,0.005669309945838673
2954.0,0.005687401355227854
2953.0,0.005715195067883062
2952.0,0.005754153283493547
2951.0,0.005800357729254262
2950.0,0.0058471081798403424
2949.0,0.00588843628059709
2948.0,0.005921377427427874
2947.0,0.005946137279957844
2946.0,0.0059649476306213485
2945.0,0.005979734786379513
2944.0,0.005989392998209953
2943.0,0.005989267855772761
2942.0,0.005974713158292065
2941.0,0.005946061517085628
2940.0,0.005908978324697963
2939.0,0.005869480416972412
2938.0,0.005829599263712568
2937.0,0.005789256233305604
2936.0,0.005750767622363585
2935.0,0.005718897379254224
2934.0,0.005696197071974875
2933.0,0.005679551120433353
2932.0,0.00566216096708589
2931.0,0.005638196184562657
2930.0,0.005606127519165124
2929.0,0.005568479024035324
2928.0,0.005528659422063271
2927.0,0.0054875085119519785
2926.0,0.005442842871826694
2925.0,0.005392794186332173
2924.0,0.005338824997141386
2923.0,0.005284545648128209
2922.0,0.005231866267308704
2921.0,0.005179031012629969
2920.0,0.005122542277907369
2919.0,0.0050608390398531895
2918.0,0.0049972786735650405
2917.0,0.0049399102640910785
2916.0,0.004897209077112175
2915.0,0.0048723789997230085
2914.0,0.004861784710148948
2913.0,0.004858689542408498
2912.0,0.004857717073910799
2911.0,0.004855546560104581
2910.0,0.0048494906508232734
2909.0,0.004837773878698705
2908.0,0.004820881824119288
2907.0,0.004801247986531849
2906.0,0.004781194951310377
2905.0,0.004762080769539623
2904.0,0.004744976223868275
2903.0,0.0047308337335536296
2902.0,0.004719140939257403
2901.0,0.004707225549128089
2900.0,0.004691596733413854
2899.0,0.004670444137012114
2898.0,0.004645606366008478
2897.0,0.004621977644787947
2896.0,0.004604113312224032
2895.0,0.004592314927735848
2894.0,0.004582177659657673
2893.0,0.004568726579578788
2892.0,0.004550889795276392
2891.0,0.004532299473151424
2890.0,0.004518204674142536
2889.0,0.004511866891743266
2888.0,0.004512502765416147
2887.0,0.004515642957359754
2886.0,0.004515986574195342
2885.0,0.004511309087446665
2884.0,0.004503633382139792
2883.0,0.004496353387949638
2882.0,0.004490897793812271
2881.0,0.004486574739811945
2880.0,0.0044823055400676865
2879.0,0.0044766583413944116
2878.0,0.0044669784097207165
2877.0,0.004450695972580787
2876.0,0.004428090400284939
2875.0,0.004402478755835142
2874.0,0.004377051861602143
2873.0,0.004352519483741311
2872.0,0.004328422037134145
2871.0,0.004305424748479598
2870.0,0.004284878484018857
2869.0,0.004266518003134074
2868.0,0.004248123323626527
2867.0,0.004228487658271242
2866.0,0.004209925915727976
2865.0,0.004196326092633925
2864.0,0.004188505326694722
2863.0,0.004182538428203191
2862.0,0.004174044771922421
2861.0,0.0041630838509152356
2860.0,0.004153023318758428
2859.0,0.004145423194368024
2858.0,0.004138242727243611
2857.0,0.004128996343714936
2856.0,0.004116452387020436
2855.0,0.0040980514656108
2854.0,0.0040688621341481174
2853.0,0.004026416252889396
2852.0,0.0039753834639324375
2851.0,0.003925154486430055
2850.0,0.0038834626167883815
2849.0,0.0038532714743291247
2848.0,0.003834057222033992
2847.0,0.0038226767348541555
2846.0,0.003813922825430233
2845.0,0.003803287800864228
2844.0,0.003789837151450477
2843.0,0.0037748688703507626
2842.0,0.003758340026861524
2841.0,0.003739180439719889
2840.0,0.0037186478892811724
2839.0,0.0037001386151067498
2838.0,0.0036848330378932174
2837.0,0.0036702066360406313
2836.0,0.003654175603066959
2835.0,0.003638217630314438
2834.0,0.003624243167205471
2833.0,0.0036105355244333654
2832.0,0.003593768794027628
2831.0,0.0035741186758267898
2830.0,0.003555559094295952
2829.0,0.0035411606845516643
2828.0,0.0035301393013449913
2827.0,0.0035198851267615357
2826.0,0.0035091486852461343
2825.0,0.003498306455512321
2824.0,0.0034878937434229393
2823.0,0.003477801273090703
2822.0,0.003467230977666714
2821.0,0.0034551620345537283
2820.0,0.003441684664689965
2819.0,0.0034289889204567334
2818.0,0.003419659008072462
2817.0,0.0034130052390246605
2816.0,0.0034041224546315103
2815.0,0.0033882976994600075
2814.0,0.0033662411705686355
2813.0,0.0033438234265861233
2812.0,0.0033266845077485107
2811.0,0.003315795702534966
2810.0,0.003308420497097928
2809.0,0.0033020324814868945
2808.0,0.0032958714641795
2807.0,0.0032895315221704332
2806.0,0.0032818995880923955
2805.0,0.003272284789532849
2804.0,0.0032617274314457527
2803.0,0.0032521319838570875
2802.0,0.003244319544689402
2801.0,0.003237448864506357
2800.0,0.003230243720554184
2799.0,0.0032223124914663778
2798.0,0.0032141557991210426
2797.0,0.0032062997469567644
2796.0,0.0031984769602066056
2795.0,0.003189430199394572
2794.0,0.0031778105029321383
2793.0,0.0031638362965389364
2792.0,0.0031498918892123575
2791.0,0.003138677723022076
2790.0,0.0031307886287145915
2789.0,0.0031246746551739026
2788.0,0.0031187198255829378
2787.0,0.00311222983061185
2786.0,0.0031041238982232894
2785.0,0.003092588926465031
2784.0,0.0030775562463060983
2783.0,0.0030624459344642634
2782.0,0.0030515050900807666
2781.0,0.003045278388126647
2780.0,0.003040220147101962
2779.0,0.003033027863875958
2778.0,0.0030237281796756292
2777.0,0.0030142094150228276
2776.0,0.0030055652842701248
2775.0,0.0029979046507825893
2774.0,0.0029914361015306195
2773.0,0.00298615920368781
2772.0,0.002981057179535139
2771.0,0.002974903184340805
2770.0,0.0029675809872823497
2769.0,0.0029597106114598523
2768.0,0.002951705550388589
2767.0,0.0029444839094545632
2766.0,0.002940247868872332
2765.0,0.0029405567523195387
2764.0,0.0029434072414048027
2763.0,0.002943930138089519
2762.0,0.0029387432849270856
2761.0,0.0029284964665298365
2760.0,0.0029161503218064857
2759.0,0.0029045615767865946
2758.0,0.0028962125833800366
2757.0,0.002892942278087369
2756.0,0.0028940526443360683
2755.0,0.0028955888362653223
2754.0,0.0028932011228359664
2753.0,0.0028856202645560665
2752.0,0.0028744444714156837
2751.0,0.0028613689898261204
2750.0,0.00284741398268578
2749.0,0.002834439598968533
2748.0,0.002825324972347384
2747.0,0.002821758693582704
2746.0,0.0028224274226922967
2745.0,0.002823716885929686
2744.0,0.002821925119074434
2743.0,0.0028152743962144666
2742.0,0.0028049262937799805
2741.0,0.0027943972755083064
2740.0,0.002787067340588512
2739.0,0.002783548527999605
2738.0,0.0027815450395225613
2737.0,0.002778116206634917
2736.0,0.0027716677399285215
2735.0,0.0027624708563568786
2734.0,0.0027525672738537093
2733.0,0.00274513343412994
2732.0,0.0027423147005671265
2731.0,0.002742751498533211
2730.0,0.0027420305229130066
2729.0,0.002736598719668291
2728.0,0.0027270816094876723
2727.0,0.00271734584891565
2726.0,0.002710592278543678
2725.0,0.0027067351835374774
2724.0,0.002703348287562179
2723.0,0.0026985040454514187
2722.0,0.0026923931779084657
2721.0,0.0026863613558146034
2720.0,0.00268082053932326
2719.0,0.0026747908100991187
2718.0,0.0026676328470648797
2717.0,0.002660560414374565
2716.0,0.0026556652896655175
2715.0,0.002653566118337052
2714.0,0.0026525511010985735
2713.0,0.00264987562406731
2712.0,0.0026436013762118327
2711.0,0.00263399036477786
2710.0,0.0026242397092106017
2709.0,0.0026191874492334827
2708.0,0.002621178487389597
2707.0,0.0026266154346784964
2706.0,0.002628229789384367
2705.0,0.002621843099442396
2704.0,0.0026099793225267134
2703.0,0.002598238573240885
2702.0,0.0025897380909531975
2701.0,0.0025841951751811036
2700.0,0.0025806881631708417
2699.0,0.0025787757766444755
2698.0,0.002577393643076653
2697.0,0.00257501660259771
2696.0,0.0025713853526200415
2695.0,0.0025676129070027615
2694.0,0.002564325469946549
2693.0,0.0025611549441370875
2692.0,0.002558072712733542
2691.0,0.002555450712806453
2690.0,0.002552388746484553
2689.0,0.0025469663552392815
2688.0,0.002539260985469267
2687.0,0.0025323132349045173
2686.0,0.0025286326820368804
2685.0,0.002527001120172939
2684.0,0.0025243449427307567
2683.0,0.002519667874882802
2682.0,0.002514105528573255
2681.0,0.0025080204710400374
2680.0,0.002500537404724563
2679.0,0.0024921128468457393
2678.0,0.002485354452566231
2677.0,0.0024823831479530004
2676.0,0.0024826655828235635
2675.0,0.0024839738238494136
2674.0,0.002484272079904808
2673.0,0.0024824495626615786
2672.0,0.0024787142080942726
2671.0,0.0024749120638129485
2670.0,0.0024730685532570774
2669.0,0.0024729186943623846
2668.0,0.0024724354451354427
2667.0,0.0024717157324763697
2666.0,0.0024748264349235016
2665.0,0.0024861641354699707
2664.0,0.0025058946776132475
2663.0,0.0025302895400994485
2662.0,0.0025552398591447154
2661.0,0.0025777999207378
2660.0,0.0025954452130120837
2659.0,0.0026067518757185997
2658.0,0.0026134564509428166
2657.0,0.0026196745437306957
2656.0,0.0026279657675519603
2655.0,0.002637193163826575
2654.0,0.0026448042807176667
2653.0,0.0026499984756402366
2652.0,0.0026537835845196066
2651.0,0.002657096427506016
2650.0,0.002660176735360561
2649.0,0.002663307191934772
2648.0,0.0026669464767636025
2647.0,0.0026710797216581944
2646.0,0.00267511386365473
2645.0,0.0026784453781735543
2644.0,0.0026806374862312246
2643.0,0.0026811694764679985
2642.0,0.002679834610846993
2641.0,0.0026776250699941436
2640.0,0.0026764446162147724
2639.0,0.002677006954763607
2638.0,0.002677345275582757
2637.0,0.0026746678909786927
2636.0,0.0026691469692265986
2635.0,0.002664705701825538
2634.0,0.0026647278570199073
2633.0,0.002667764335983394
2632.0,0.0026690075795695336
2631.0,0.0026657846626565547
2630.0,0.002659883648631657
2629.0,0.0026544591594459704
2628.0,0.0026509388877756297
2627.0,0.0026495598726089223
2626.0,0.0026505041990882894
2625.0,0.0026526477350661097
2624.0,0.002652914415824715
2623.0,0.002649019147862014
2622.0,0.0026419144835766353
2621.0,0.0026341850325785157
2620.0,0.0026272917312222923
2619.0,0.0026220676259460637
2618.0,0.002620249612803805
2617.0,0.002622738118090352
2616.0,0.0026271331726246245
2615.0,0.0026296296717981857
2614.0,0.002629134667232429
2613.0,0.0026274287282060265
2612.0,0.00262582463319366
2611.0,0.0026240149713362983
2610.0,0.002621792681972688
2609.0,0.0026192628808790904
2608.0,0.0026155984894479962
2607.0,0.0026103051162600444
2606.0,0.002605564198996425
2605.0,0.00260424773488465
2604.0,0.0026051834048021693
2603.0,0.0026036621543707316
2602.0,0.0025977351672057873
2601.0,0.0025911489130152794
2600.0,0.002588572786756782
2599.0,0.002590362965021336
2598.0,0.0025935651476170153
2597.0,0.0025956226579397987
2596.0,0.0025951085714524293
2595.0,0.0025908960161900477
2594.0,0.0025831256992145057
2593.0,0.002574123266916781
2592.0,0.002566372110020345
2591.0,0.002559918684960885
2590.0,0.0025531324896061894
2589.0,0.0025455084555597884
2588.0,0.0025384390843979907
2587.0,0.002533491680446232
2586.0,0.002530893519117047
2585.0,0.002529699618193193
2584.0,0.0025289140673219737
2583.0,0.002528265906138152
2582.0,0.002527741959123569
2581.0,0.002526386319643376
2580.0,0.0025226087178889327
2579.0,0.0025164944819788026
2578.0,0.0025107081337655554
2577.0,0.0025077036527311365
2576.0,0.002506952767361314
2575.0,0.002506581460105274
2574.0,0.002506542616129348
2573.0,0.002507772704477204
2572.0,0.002509105721050445
2571.0,0.0025079580692618487
2570.0,0.002503722427444059
2569.0,0.0024975320235717663
2568.0,0.002489094282794034
2567.0,0.002477453496351389
2566.0,0.002465263285046956
2565.0,0.0024580858990171594
2564.0,0.0024576549101289263
2563.0,0.0024593042163878697
2562.0,0.0024582382062056933
2561.0,0.0024554394240315506
2560.0,0.0024547511617933043
2559.0,0.0024563822156773367
2558.0,0.0024565018886789766
2557.0,0.0024521959315386187
2556.0,0.0024442813357552287
2555.0,0.002435840295938444
2554.0,0.0024298837724945612
2553.0,0.0024279882516305214
2552.0,0.00242945542574485
2551.0,0.002431709029995908
2550.0,0.0024323735768463834
2549.0,0.0024308001184051025
2548.0,0.002427352960703002
2547.0,0.002422315032516399
2546.0,0.0024163555206238
2545.0,0.0024111857968677902
2544.0,0.0024085821269973174
2543.0,0.0024087114055540487
2542.0,0.0024094917209889054
2541.0,0.0024074003535081187
2540.0,0.0023999084206025615
2539.0,0.0023888246557704777
2538.0,0.0023809334159564065
2537.0,0.002383040270623855
2536.0,0.0023952889063553425
2535.0,0.0024102610791455637
2534.0,0.002419043186981844
2533.0,0.0024175643879654346
2532.0,0.0024079711232025815
2531.0,0.002396298087261279
2530.0,0.0023888757509334876
2529.0,0.0023880219837585136
2528.0,0.0023897151469761428
2527.0,0.0023874231103606916
2526.0,0.0023797862948608606
2525.0,0.002373135054673994
2524.0,0.0023748162219873244
2523.0,0.002384856926890713
2522.0,0.0023955882039577276
2521.0,0.0023992046021325047
2520.0,0.0023950019401317874
2519.0,0.002389251523130423
2518.0,0.0023881272803558573
2517.0,0.002390933582315383
2516.0,0.0023911018285763695
2515.0,0.0023839579813924945
2514.0,0.0023717214414951276
2513.0,0.002359840937541969
2512.0,0.002350733381142297
2511.0,0.00234359309880936
2510.0,0.0023384251939222254
2509.0,0.0023364887257838
2508.0,0.0023371641212343976
2507.0,0.0023380235012416565
2506.0,0.002338491270614373
2505.0,0.0023403142832121963
2504.0,0.002343594607859027
2503.0,0.0023450591868761266
2502.0,0.0023412531097188375
2501.0,0.0023314778187851046
2500.0,0.0023174002795757417
2499.0,0.002302281517804337
2498.0,0.0022908016053731902
2497.0,0.002286405996829098
2496.0,0.0022873845622815845
2495.0,0.002287831859006084
2494.0,0.0022836689266443693
2493.0,0.002275919182807671
2492.0,0.002267673338395786
2491.0,0.002260512298973299
2490.0,0.0022549561001492897
2489.0,0.002251739241148457
2488.0,0.0022508275488954035
2487.0,0.002250832312297635
2486.0,0.0022506536564572137
2485.0,0.0022502248336511454
2484.0,0.0022489104794982786
2483.0,0.0022451180494591984
2482.0,0.0022385835284703674
2481.0,0.002231370697976515
2480.0,0.00222546334061085
2479.0,0.002220583502926559
2478.0,0.0022150783699624375
2477.0,0.002207781575912581
2476.0,0.0021987951781907377
2475.0,0.0021900063240776584
2474.0,0.0021849425728204036
2473.0,0.0021860664306618824
2472.0,0.0021916073311166588
2471.0,0.0021967314138109386
2470.0,0.0021980872229931847
2469.0,0.002195482182866403
2468.0,0.0021895369242963237
2467.0,0.0021808104214446162
2466.0,0.0021719696934745614
2465.0,0.0021675670932381334
2464.0,0.0021695833439939476
2463.0,0.002175161944973088
2462.0,0.0021806163083512883
2461.0,0.0021861138553046352
2460.0,0.0021944380736494936
2459.0,0.002206109656716254
2458.0,0.002217820462283711
2457.0,0.0022258747474469395
2456.0,0.0022300087802987712
2455.0,0.00223305248527546
2454.0,0.0022367583060393954
2453.0,0.002238664242045478
2452.0,0.002234431666287694
2451.0,0.0022235451389844615
2450.0,0.002210941359557556
2449.0,0.0022019146909574906
2448.0,0.002197127220938746
2447.0,0.002194066793951913
2446.0,0.0021911796239006054
2445.0,0.0021880318396201815
2444.0,0.0021833845852490446
2443.0,0.002176520988472996
2442.0,0.002169347658746292
2441.0,0.0021637735142938735
2440.0,0.002157920145452508
2439.0,0.0021487530820924684
2438.0,0.002138181268904074
2437.0,0.002132528515723984
2436.0,0.002135100444617869
2435.0,0.0021421790106750174
2434.0,0.002146861584437035
2433.0,0.002144362089324401
2432.0,0.0021339509198284295
2431.0,0.002119263307244407
2430.0,0.002107125624135119
2429.0,0.002102400991684196
2428.0,0.002102505289708613
2427.0,0.0020995761095907017
2426.0,0.002089260443859306
2425.0,0.0020754109940132755
2424.0,0.002065564744128804
2423.0,0.002063858880011324
2422.0,0.002068764948291768
2421.0,0.0020754563264695916
2420.0,0.002079634793489241
2419.0,0.0020805567067692034
2418.0,0.0020804557052254264
2417.0,0.002080185686858327
2416.0,0.0020771288904285297
2415.0,0.0020696530737043693
2414.0,0.0020616950652963496
2413.0,0.0020592301330027503
2412.0,0.002063011626487696
2411.0,0.0020682235669422957
2410.0,0.002070245020747036
2409.0,0.0020667316165308043
2408.0,0.002055171376383498
2407.0,0.002034123689944618
2406.0,0.002007918083098623
2405.0,0.0019852976554995054
2404.0,0.0019717115895775098
2403.0,0.0019662223750851453
2402.0,0.0019660611676644685
2401.0,0.0019695763467252356
2400.0,0.0019737516454616543
2399.0,0.001973936135902525
2398.0,0.001968799645705963
2397.0,0.0019621810474675836
2396.0,0.001957687481244858
2395.0,0.0019543534668172457
2394.0,0.0019495347022632317
2393.0,0.0019429284971450114
2392.0,0.0019356532437637755
2391.0,0.0019282523838372737
2390.0,0.0019216664951914992
2389.0,0.0019174522242382786
2388.0,0.0019146644262874736
2387.0,0.0019088807521015663
2386.0,0.0018969237828729145
2385.0,0.0018808292329560872
2384.0,0.0018647242475492804
2383.0,0.0018490036679408052
2382.0,0.0018298625170235032
2381.0,0.0018040971232691247
2380.0,0.0017728630739456777
2379.0,0.0017411511455033037
2378.0,0.0017147458222749974
2377.0,0.0016971577092088582
2376.0,0.0016879997323831302
2375.0,0.0016838819836802327
2374.0,0.0016806684381726277
2373.0,0.0016746585188841681
2372.0,0.001664110616608453
2371.0,0.0016534030416772898
2370.0,0.0016534055628935182
2369.0,0.001670308278523198
2368.0,0.0016942445110382175
2367.0,0.001707764210121543
2366.0,0.0017070193959119306
2365.0,0.0017048130639979852
2364.0,0.001709998354118452
2363.0,0.0017172749432193967
2362.0,0.0017224901999079545
2361.0,0.0017321628771565806
2360.0,0.0017485303756882612
2359.0,0.0017584513153419685
2358.0,0.0017499179150845794
2357.0,0.001729750945620411
2356.0,0.0017143978069004491
2355.0,0.0017111294185397975
2354.0,0.001716622204708812
2353.0,0.001725952465308103
2352.0,0.0017353835323927953
2351.0,0.0017421565154963972
2350.0,0.0017451282556453416
2349.0,0.0017442200836650275
2348.0,0.0017406101500899072
2347.0,0.0017402171002072519
2346.0,0.0017538995578847416
2345.0,0.0017861231238173953
2344.0,0.0018252340467611152
2343.0,0.0018527820375682565
2342.0,0.001862249040311736
2341.0,0.001863633507467957
2340.0,0.0018695298487872263
2339.0,0.0018824440813380505
2338.0,0.001896747686517463
2337.0,0.0019068812194972724
2336.0,0.001909455146772494
2335.0,0.0019021057540125467
2334.0,0.0018858116814924517
2333.0,0.0018680435362320473
2332.0,0.0018588647849644862
2331.0,0.001863605791043551
2330.0,0.0018819680006836974
2329.0,0.0019168010194113403
2328.0,0.001979540283740197
2327.0,0.0020809016164208115
2326.0,0.0022120703015422382
2325.0,0.0023363190951132323
2324.0,0.002406948151636686
2323.0,0.002402891855072111
2322.0,0.0023479463704355573
2321.0,0.002286451348752483
2320.0,0.0022437471762540937
2319.0,0.0022180811263681236
2318.0,0.0022002217863629635
2317.0,0.0021863667446061458
2316.0,0.0021745966696211675
2315.0,0.0021629862932178914
2314.0,0.0021536841871748003
2313.0,0.0021515292276121077
2312.0,0.0021564734762138343
2311.0,0.002163287387968008
2310.0,0.0021700047069320586
2309.0,0.002179929601887141
2308.0,0.002194161797302494
2307.0,0.0022083581733181876
2306.0,0.0022187910626440895
2305.0,0.0022261838877047193
2304.0,0.0022319379931120442
2303.0,0.0022358791313896037
2302.0,0.002239698756450656
2301.0,0.0022476696834985216
2300.0,0.002261077988853162
2299.0,0.002276126562898274
2298.0,0.002289883206310048
2297.0,0.0023045912401169983
2296.0,0.0023234582239479882
2295.0,0.0023457322790168596
2294.0,0.0023690410602604487
2293.0,0.002393454641335608
2292.0,0.0024202354844287655
2291.0,0.0024485573489687043
2290.0,0.002476622220248432
2289.0,0.0025043381718746582
2288.0,0.0025320951514550367
2287.0,0.002557205480090615
2286.0,0.0025737418488436603
2285.0,0.002576480667596367
2284.0,0.0025654702310209535
2283.0,0.0025472041981455347
2282.0,0.0025304299542901715
2281.0,0.0025186456504678605
2280.0,0.002507302546382928
2279.0,0.0024909683411418215
2278.0,0.002471782074210677
2277.0,0.0024570021514012204
2276.0,0.0024489503546740155
2275.0,0.002442699492475081
2274.0,0.002434257858032888
2273.0,0.0024261741817900246
2272.0,0.0024232948400487275
2271.0,0.002426528654631656
2270.0,0.002432171942696099
2269.0,0.0024343991463263268
2268.0,0.0024283743575463446
2267.0,0.0024141094800393787
2266.0,0.002397366425517108
2265.0,0.0023840465085480725
2264.0,0.0023750587139419084
2263.0,0.0023701410608092835
2262.0,0.002373555439405082
2261.0,0.0023896784539174046
2260.0,0.002413775909992858
2259.0,0.0024330557884544137
2258.0,0.002436729036868439
2257.0,0.0024213451237883985
2256.0,0.0023896962433014
2255.0,0.0023513430510463027
2254.0,0.002321816068346825
2253.0,0.0023121977673118115
2252.0,0.0023186496746880197
2251.0,0.002328360221620681
2250.0,0.002334695974408548
2249.0,0.002340054770757333
2248.0,0.00234640552112821
2247.0,0.0023518370585246537
2246.0,0.002355784225618183
2245.0,0.0023593089481358546
2244.0,0.002360754152062645
2243.0,0.0023591569032379574
2242.0,0.002360805867917491
2241.0,0.002373155298680857
2240.0,0.00239277381670027
2239.0,0.0024089069609678224
2238.0,0.002418198252162459
2237.0,0.0024257594875979694
2236.0,0.0024322085091091857
2235.0,0.0024314527448132334
2234.0,0.0024230739897056004
2233.0,0.0024153894490348236
2232.0,0.002412797065225668
2231.0,0.0024101919398079345
2230.0,0.0024032181949096196
2229.0,0.002395108831108631
2228.0,0.0023904635718313503
2227.0,0.0023906134208332695
2226.0,0.0023971546905719138
2225.0,0.0024105664756217107
2224.0,0.0024237936816756942
2223.0,0.002427011740348598
2222.0,0.002420940029695112
2221.0,0.002416321052971776
2220.0,0.0024181843397434112
2219.0,0.002420466707009817
2218.0,0.0024180464181889263
2217.0,0.002413737034969333
2216.0,0.00241072970695654
2215.0,0.002408130928889632
2214.0,0.002407276927179787
2213.0,0.0024129400643665383
2212.0,0.0024248220257841627
2211.0,0.002435436775674747
2210.0,0.00243832822560634
2209.0,0.002431694004254145
2208.0,0.0024154825942550883
2207.0,0.0023944924922917428
2206.0,0.002382464860846394
2205.0,0.0023909360903061135
2204.0,0.002413162462298548
2203.0,0.002431575190868231
2202.0,0.0024414254176196356
2201.0,0.002453867156300769
2200.0,0.0024756228950649434
2199.0,0.0024990606454276918
2198.0,0.002514510201223911
2197.0,0.002519661817742206
2196.0,0.0025145236249392968
2195.0,0.0025008219404977767
2194.0,0.0024902384955261584
2193.0,0.0024992293224868657
2192.0,0.002529455080968594
2191.0,0.0025637400352451416
2190.0,0.00258536977271172
2189.0,0.0025930533631402224
2188.0,0.002595498814709321
2187.0,0.0026008811748498063
2186.0,0.002611531910222725
2185.0,0.0026166030543322786
2184.0,0.0025914331566899546
2183.0,0.0025212581310909993
2182.0,0.0024297028453358917
2181.0,0.0023675696676825975
2180.0,0.002364494586493767
2179.0,0.002402212646363422
2178.0,0.002437396912737482
2177.0,0.002438315375211272
2176.0,0.0024028224929603247
2175.0,0.0023582429602400307
2174.0,0.002345744500197171
2173.0,0.0023899309096472032
2172.0,0.0024785230923876824
2171.0,0.0025800157356305007
2170.0,0.0026756661663912737
2169.0,0.002761501376396648
2168.0,0.0028282738682280724
2167.0,0.00286088842563044
2166.0,0.0028631452097321337
2165.0,0.002867342729998679
2164.0,0.0029071048546885424
2163.0,0.0029812244661695337
2162.0,0.0030350853179276958
2161.0,0.0029705392270160695
2160.0,0.0027047464442522123
2159.0,0.00226736283043947
2158.0,0.0018286542838687311
2157.0,0.001570886042835672
2156.0,0.0015335051758496201
2155.0,0.0016235279083745406
2154.0,0.001739400843729444
2153.0,0.0018363626619084862
2152.0,0.001906148693456781
2151.0,0.0019470667049014592
2150.0,0.0019614473193360115
2149.0,0.001955861579427445
2148.0,0.0019324063287065145
2147.0,0.00189433676196661
2146.0,0.001859675546899003
2145.0,0.0018494664061144152
2144.0,0.0018608894538628116
2143.0,0.0018711096166026489
2142.0,0.001868686512103116
2141.0,0.0018631633483592478
2140.0,0.001863915314475031
2139.0,0.0018677624593010774
2138.0,0.0018668360284018245
2137.0,0.001851345424348186
2136.0,0.001807073645410056
2135.0,0.001730921235868264
2134.0,0.001650425237690978
2133.0,0.0016074338110271113
2132.0,0.0016175429631222155
2131.0,0.0016608433388752494
2130.0,0.0017119159712102902
2129.0,0.0017607422286649522
2128.0,0.0018057872693013786
2127.0,0.0018451157666519
2126.0,0.001879654318604403
2125.0,0.001913422874623344
2124.0,0.0019457243989192108
2123.0,0.0019717175280924504
2122.0,0.0019917247994198574
2121.0,0.002011309828128858
2120.0,0.0020322031140062977
2119.0,0.0020527569956090316
2118.0,0.002076285450486976
2117.0,0.002107942154853645
2116.0,0.0021438049098132664
2115.0,0.0021742259944248134
2114.0,0.0021975311248200674
2113.0,0.0022185447966688015
2112.0,0.0022341905829088874
2111.0,0.002234031509177774
2110.0,0.0022171548171421767
2109.0,0.0021962390909012254
2108.0,0.0021824964253238173
2107.0,0.0021781742462475195
2106.0,0.0021842194263638464
2105.0,0.0022013245374223195
2104.0,0.0022209432276415475
2103.0,0.0022295320234056214
2102.0,0.0022258782607520113
2101.0,0.002222237950756986
2100.0,0.002224988162620621
2099.0,0.002225100107397247
2098.0,0.0022100991356803976
2097.0,0.0021750578626199705
2096.0,0.0021220331831205428
2095.0,0.0020621304253621614
2094.0,0.0020189570679819083
2093.0,0.002013991479832645
2092.0,0.002044686722768018
2091.0,0.0020880173117065626
2090.0,0.0021254528371271878
2089.0,0.002153283675950338
2088.0,0.002171076457444522
2087.0,0.0021765955817808235
2086.0,0.002174958074757325
2085.0,0.002178994205634008
2084.0,0.002195534975339173
2083.0,0.0022206928676393772
2082.0,0.0022493201320753897
2081.0,0.002277333108546396
2080.0,0.0022958058872019245
2079.0,0.0022971239574793912
2078.0,0.0022876364989856896
2077.0,0.0022810854364795742
2076.0,0.002279672209201695
2075.0,0.0022759647648181655
2074.0,0.0022714705408442616
2073.0,0.0022747305243914716
2072.0,0.002281700634240666
2071.0,0.0022781905046272964
2070.0,0.002263310405612492
2069.0,0.0022512681675693393
2068.0,0.0022482679510505105
2067.0,0.00224756739831856
2066.0,0.002248291286241962
2065.0,0.0022564535623031123
2064.0,0.0022650481600332982
2063.0,0.0022577439407913975
2062.0,0.002236802872161675
2061.0,0.002224440292661553
2060.0,0.002232386869968673
2059.0,0.00225060426449202
2058.0,0.0022674064664186195
2057.0,0.002277690886226971
2056.0,0.002273510959035284
2055.0,0.002257789373177559
2054.0,0.002268648531915245
2053.0,0.0023502678618609846
2052.0,0.002486543844036494
2051.0,0.0025970864202882644
2050.0,0.002615807628330871
2049.0,0.0025547053689370528
2048.0,0.0024749041449424474
2047.0,0.002416870258226016
2046.0,0.0023878786886660504
2045.0,0.0023906207676965803
2044.0,0.002422949739440865
2043.0,0.0024648499042416727
2042.0,0.0024947655020511154
2041.0,0.002509998440332889
2040.0,0.0025162630731748958
2039.0,0.0025128209520166754
2038.0,0.0025027399409094254
2037.0,0.002497311789333365
2036.0,0.0024946038297152724
2035.0,0.002475406516238763
2034.0,0.0024351650275550875
2033.0,0.002395795933075273
2032.0,0.0023706472983010805
2031.0,0.002347810522328337
2030.0,0.002325083763867763
2029.0,0.002327370875394122
2028.0,0.0023671343456981566
2027.0,0.0024155577932463983
2026.0,0.0024331694388982695
2025.0,0.0024063624436950507
2024.0,0.002343025875382578
2023.0,0.002261619953994696
2022.0,0.0021991416886848196
2021.0,0.0021950111271127146
2020.0,0.002242883824081727
2019.0,0.002286711973071686
2018.0,0.0022843467116993223
2017.0,0.002253287898478173
2016.0,0.0022372362509743763
2015.0,0.00225290147455408
2014.0,0.002291571230055026
2013.0,0.002343360113184055
2012.0,0.0023947626740054573
2011.0,0.002422468396540294
2010.0,0.002408329126071453
2009.0,0.002351271582979986
2008.0,0.0022610009954370834
2007.0,0.0021580573962443057
2006.0,0.0020812148580574515
2005.0,0.002064438034553308
2004.0,0.002097927414355425
2003.0,0.0021387498964208548
2002.0,0.002162172108712906
2001.0,0.002178043924968286
2000.0,0.002199058950677499
1999.0,0.002222913386870905
1998.0,0.002249522210848383
1997.0,0.0022836695359423646
1996.0,0.0023136455528453767
1995.0,0.0023171490946886654
1994.0,0.002296109682974358
1993.0,0.0022806342658387665
1992.0,0.0022884056389887867
1991.0,0.0023062603700011327
1990.0,0.0023230023433616727
1989.0,0.0023459355578380196
1988.0,0.002374046886895047
1987.0,0.0023914413156624183
1986.0,0.002400815435963216
1985.0,0.0024316386343250797
1984.0,0.0025010777946215075
1983.0,0.002596102123453974
1982.0,0.0027019799134211943
1981.0,0.002809330860164397
1980.0,0.002879126532429558
1979.0,0.002845684342375633
1978.0,0.0026919531979678404
1977.0,0.002494303837021727
1976.0,0.0023481214136024955
1975.0,0.002277791044555321
1974.0,0.002254956380277976
1973.0,0.0022540798830987304
1972.0,0.002253189274856884
1971.0,0.0022254596308885063
1970.0,0.0021688379625864314
1969.0,0.002119692763534179
1968.0,0.00210928496926619
1967.0,0.0021264659623533417
1966.0,0.0021443610029934315
1965.0,0.002156375300562606
1964.0,0.002161961843836738
1963.0,0.0021463184248488583
1962.0,0.0020996270481095933
1961.0,0.0020367263387732685
1960.0,0.001979273286554805
1959.0,0.001936388359317135
1958.0,0.0019148288021281579
1957.0,0.0019225510399783017
1956.0,0.0019495700656635218
1955.0,0.0019701016078458406
1954.0,0.0019751507424975025
1953.0,0.001981293842421678
1952.0,0.001998657750985534
1951.0,0.002013907376803629
1950.0,0.0020142490023794778
1949.0,0.0020048564744774224
1948.0,0.001992223683247167
1947.0,0.0019725622638557838
1946.0,0.0019473444097613635
1945.0,0.0019284487612004713
1944.0,0.0019177023266032692
1943.0,0.00190179593294731
1942.0,0.001877611124308293
1941.0,0.0018592289135313357
1940.0,0.0018508032019235502
1939.0,0.001840496730332322
1938.0,0.0018266454741995837
1937.0,0.0018231484417864222
1936.0,0.0018322632112767624
1935.0,0.0018361315261602993
1934.0,0.0018252295665167765
1933.0,0.0018121826734063505
1932.0,0.0018078634152063735
1931.0,0.0018068063453013747
1930.0,0.0018055919671769475
1929.0,0.0018115449841603587
1928.0,0.001821824863424988
1927.0,0.0018176356921549442
1926.0,0.0017924398907551058
1925.0,0.0017662739896589826
1924.0,0.0017603952046424877
1923.0,0.0017730495778106364
1922.0,0.001791904679401919
1921.0,0.0018132498053798343
1920.0,0.0018341024169585688
1919.0,0.0018428269543181938
1918.0,0.0018345268948337277
1917.0,0.0018223601599055437
1916.0,0.0018169917044887935
1915.0,0.0018123955515944564
1914.0,0.001804260214846017
1913.0,0.0018014351101674592
1912.0,0.0018087016208603029
1911.0,0.0018138542457697081
1910.0,0.00180502164541097
1909.0,0.0017891670576120186
1908.0,0.0017798689609410717
1907.0,0.0017786169500597026
1906.0,0.0017800822210895094
1905.0,0.0017826240496034472
1904.0,0.0017837749887073895
1903.0,0.001778217809460791
1902.0,0.0017684881329740236
1901.0,0.0017657163148147687
1900.0,0.001772451400353025
1899.0,0.0017779653534228017
1898.0,0.0017759693453182188
1897.0,0.0017726109377594072
1896.0,0.0017723683337236037
1895.0,0.001770769557802397
1894.0,0.001768073491510372
1893.0,0.0017726940408436295
1892.0,0.0017836401676099148
1891.0,0.0017864483880426728
1890.0,0.0017740833828079213
1889.0,0.001758469482517334
1888.0,0.0017503671961807813
1887.0,0.0017451365490290475
1886.0,0.0017388662801121172
1885.0,0.0017379074666056902
1884.0,0.0017440294648220773
1883.0,0.001747130788496139
1882.0,0.0017415616813842218
1881.0,0.0017347259577893874
1880.0,0.0017311977586184797
1879.0,0.0017246344421306197
1878.0,0.0017137282705498838
1877.0,0.0017093484683514488
1876.0,0.0017163946065863738
1875.0,0.0017245029485976823
1874.0,0.0017259648371540147
1873.0,0.0017267860018646414
1872.0,0.0017314554804125353
1871.0,0.0017321683871433715
1870.0,0.001723149466131269
1869.0,0.001714395989661727
1868.0,0.0017164996461955851
1867.0,0.0017252670024969622
1866.0,0.0017355061617419405
1865.0,0.0017485314859299653
1864.0,0.0017588372505159577
1863.0,0.0017537982545642616
1862.0,0.0017335869892219089
1861.0,0.0017169519031762892
1860.0,0.0017169206220243414
1859.0,0.0017248062047053579
1858.0,0.0017275937621040924
1857.0,0.0017250451629495735
1856.0,0.001720432000648405
1855.0,0.0017107238125917189
1854.0,0.0016968890726825028
1853.0,0.0016894912458850473
1852.0,0.0016933327798346303
1851.0,0.0016994595261995231
1850.0,0.001700889633172896
1849.0,0.0017022836478102915
1848.0,0.0017068016457973062
1847.0,0.0017087402145796766
1846.0,0.0017068212586056732
1845.0,0.0017112279290067837
1844.0,0.0017229257120999367
1843.0,0.0017250305557686462
1842.0,0.0017126291249157295
1841.0,0.0016999217903590667
1840.0,0.0016943698323558538
1839.0,0.001690105593644946
1838.0,0.001685593361258949
1837.0,0.001690773303396656
1836.0,0.0017083180862304088
1835.0,0.001725565169443565
1834.0,0.0017345435996833243
1833.0,0.0017410394040566933
1832.0,0.0017481290874907986
1831.0,0.0017481742274610905
1830.0,0.0017413693657933058
1829.0,0.0017431280752708733
1828.0,0.001757800622838114
1827.0,0.001770626034352973
1826.0,0.0017736668507025398
1825.0,0.0017770992650871175
1824.0,0.0017875582315283417
1823.0,0.0017952016960332139
1822.0,0.0017936303121211352
1821.0,0.0017892659482045767
1820.0,0.0017833666733921385
1819.0,0.0017659179165120413
1818.0,0.0017372103943418032
1817.0,0.0017176854756911308
1816.0,0.0017213614164700236
1815.0,0.0017382930247266048
1814.0,0.0017556649050868287
1813.0,0.0017750014610597785
1812.0,0.0017979395385609596
1811.0,0.001814666481950658
1810.0,0.001821354319561204
1809.0,0.0018311715891676543
1808.0,0.0018521078367226501
1807.0,0.0018736462043732627
1806.0,0.0018872276083338638
1805.0,0.0019005231834598327
1804.0,0.0019213600779435253
1803.0,0.0019446048599013476
1802.0,0.0019668640637242624
1801.0,0.0019972334848081764
1800.0,0.0020379496039198306
1799.0,0.002075144097706546
1798.0,0.002104715192015806
1797.0,0.0021424897898480785
1796.0,0.002197013117695838
1795.0,0.002256517107533917
1794.0,0.002313161492224651
1793.0,0.0023832198543406982
1792.0,0.0024810404894210795
1791.0,0.002593439212158675
1790.0,0.0027119479567909444
1789.0,0.0028505191633430797
1788.0,0.003016437868116606
1787.0,0.003201787872962232
1786.0,0.0034061995026811137
1785.0,0.003641801925681955
1784.0,0.0039051550327472394
1783.0,0.004176326915107825
1782.0,0.004455340733668711
1781.0,0.004762744280990409
1780.0,0.005094893362714133
1779.0,0.0054179174885580295
1778.0,0.0057173822004439045
1777.0,0.006011167148230893
1776.0,0.006310370516735574
1775.0,0.006607412146353514
1774.0,0.006908142092949566
1773.0,0.007246842829489217
1772.0,0.007629891366008895
1771.0,0.008012185476766931
1770.0,0.008381269404398933
1769.0,0.008781644197696767
1768.0,0.009243193967240715
1767.0,0.009744952324029627
1766.0,0.01025625709968527
1765.0,0.010781490671979454
1764.0,0.0113451200790801
1763.0,0.011965122979229345
1762.0,0.012635678934113702
1761.0,0.013311815935358183
1760.0,0.013938077776603938
1759.0,0.014499790869058164
1758.0,0.015025824643729663
1757.0,0.015540043243525495
1756.0,0.01601873241349907
1755.0,0.01642685701364041
1754.0,0.016768544181460458
1753.0,0.017060492796333985
1752.0,0.017292553225764094
1751.0,0.017447969150281198
1750.0,0.017545712088487014
1749.0,0.01761221122052292
1748.0,0.01763694263731563
1747.0,0.0176009337728931
1746.0,0.017499821116417923
1745.0,0.017315283398920557
1744.0,0.01701773646631662
1743.0,0.01661117162848201
1742.0,0.016111496330580462
1741.0,0.015468991427284966
1740.0,0.014629545030077984
1739.0,0.013721124702920287
1738.0,0.012972397569714932
1737.0,0.012402790342973546
1736.0,0.011803451229469034
1735.0,0.01090872008539534
1734.0,0.009780814092159024
1733.0,0.00885914708894405
1732.0,0.00828605685032145
1731.0,0.00785911356301553
1730.0,0.007447084545582029
1729.0,0.0070442974434875094
1728.0,0.006690420368827443
1727.0,0.006398412940347585
1726.0,0.006152232154385515
1725.0,0.005927046012186613
1724.0,0.005709222365779244
1723.0,0.005514079407572319
1722.0,0.005366498889228222
1721.0,0.005262306990987106
1720.0,0.005162159055040194
1719.0,0.00502120136822892
1718.0,0.004834965272857297
1717.0,0.004652545203666906
1716.0,0.004510454873857538
1715.0,0.00439956791851085
1714.0,0.004307004372534942
1713.0,0.004229114887093269
1712.0,0.004159426056368732
1711.0,0.0040925777317382655
1710.0,0.004032420318993975
1709.0,0.003984922575866446
1708.0,0.003943898222279247
1707.0,0.0038953955781617184
1706.0,0.003840090121724527
1705.0,0.0038000075460960315
1704.0,0.0037903713280256802
1703.0,0.0038023360114801327
1702.0,0.0038177901566933646
1701.0,0.0038253515153908978
1700.0,0.0038292834176598036
1699.0,0.0038409138543057672
1698.0,0.003865727377295362
1697.0,0.0039028070984204995
1696.0,0.003945429221849307
1695.0,0.003988670828973819
1694.0,0.004036735012231941
1693.0,0.004093906732289315
1692.0,0.004154997180580321
1691.0,0.004212363048779635
1690.0,0.004266814487769233
1689.0,0.004326271144208483
1688.0,0.004392929872427662
1687.0,0.004461761566900945
1686.0,0.004528696607698213
1685.0,0.0045993484269563675
1684.0,0.004673956731988805
1683.0,0.0047382440916031564
1682.0,0.004796004171025426
1681.0,0.004861571070111237
1680.0,0.004934869285992687
1679.0,0.005009992809724797
1678.0,0.005083933609155781
1677.0,0.005157768267279675
1676.0,0.00522865619401178
1675.0,0.00529208131962473
1674.0,0.0053514051267799425
1673.0,0.005414360726926921
1672.0,0.005480733844862264
1671.0,0.005545050924369383
1670.0,0.005608072603575629
1669.0,0.005673047897964899
1668.0,0.005734842414539714
1667.0,0.005789399324919823
1666.0,0.00584263537215379
1665.0,0.005900604761611828
1664.0,0.005960888756041162
1663.0,0.006016344685748484
1662.0,0.006066669535392409
1661.0,0.006117968501616192
1660.0,0.006169666426861162
1659.0,0.006216471398916899
1658.0,0.006260431304626454
1657.0,0.006311543709520592
1656.0,0.006372466550490461
1655.0,0.006430437483511313
1654.0,0.00646745810622888
1653.0,0.006484125744049617
1652.0,0.006496339202285918
1651.0,0.0065126969334229606
1650.0,0.0065349086981390855
1649.0,0.0065588075392942575
1648.0,0.006575997399284565
1647.0,0.0065771451745044495
1646.0,0.006567586630753332
1645.0,0.006562056187738229
1644.0,0.006563685365809545
1643.0,0.006564984100685224
1642.0,0.006561810716279028
1641.0,0.006556236619182183
1640.0,0.006553028749319093
1639.0,0.0065533786506042305
1638.0,0.006552348243382262
1637.0,0.006538640649534734
1636.0,0.006500274710012725
1635.0,0.006443976189367395
1634.0,0.006394411072691261
1633.0,0.006362895668518666
1632.0,0.006342043547403731
1631.0,0.006320549489666866
1630.0,0.006289775118720912
1629.0,0.006246735144792454
1628.0,0.006193870841364658
1627.0,0.0061378558082318384
1626.0,0.006083265478930607
1625.0,0.006026218079712941
1624.0,0.0059582439024529095
1623.0,0.0058816205078860906
1622.0,0.005813049525754654
1621.0,0.005762538212726326
1620.0,0.005721062495775516
1619.0,0.0056702141764925435
1618.0,0.005593542460468958
1617.0,0.005492668750235892
1616.0,0.005393329038817388
1615.0,0.005316094115980407
1614.0,0.005257055791199567
1613.0,0.005201821867706892
1612.0,0.005139133951978956
1611.0,0.005066783146529415
1610.0,0.004991300649624896
1609.0,0.004919117784436331
1608.0,0.004851104099787105
1607.0,0.004786654882954098
1606.0,0.0047264511173893305
1605.0,0.004669078981920463
1604.0,0.004611348838822796
1603.0,0.004553788558743563
1602.0,0.004500810613982129
1601.0,0.004453870798070564
1600.0,0.0044094851564738255
1599.0,0.004364840878278029
1598.0,0.0043199767415072615
1597.0,0.004274190845322337
1596.0,0.004225997536379267
1595.0,0.004177532531669602
1594.0,0.004133673668439348
1593.0,0.0040957977113687686
1592.0,0.00406178349825034
1591.0,0.00403185710080376
1590.0,0.004007729502784201
1589.0,0.003986139044986588
1588.0,0.0039606204069741035
1587.0,0.003930821836627265
1586.0,0.0039032709803216315
1585.0,0.003881376046960639
1584.0,0.003861473091821395
1583.0,0.0038408441192159318
1582.0,0.0038231890859024373
1581.0,0.0038129176881631964
1580.0,0.0038095716740204257
1579.0,0.0038097464893904953
1578.0,0.0038094713174044396
1577.0,0.003803186562434226
1576.0,0.0037871334154718286
1575.0,0.0037682724606498625
1574.0,0.0037585609973802246
1573.0,0.0037593152931902248
1572.0,0.003761795223164305
1571.0,0.003758776513780292
1570.0,0.003753909858649862
1569.0,0.003755201324768459
1568.0,0.003761005976452152
1567.0,0.0037665482052683602
1566.0,0.0037719696915388045
1565.0,0.0037797544107445267
1564.0,0.003791418979181775
1563.0,0.0038083149822740886
1562.0,0.003830496579745357
1561.0,0.003851412690660347
1560.0,0.0038617345395210428
1559.0,0.0038671933058413337
1558.0,0.0038743979549045173
1557.0,0.0038821253048759467
1556.0,0.003891382661424389
1555.0,0.0039013321772080967
1554.0,0.003915016941353049
1553.0,0.0039309464329581765
1552.0,0.003946625884084461
1551.0,0.003961842737675354
1550.0,0.003979752370069526
1549.0,0.003999091849442125
1548.0,0.004014388291032027
1547.0,0.004023736724104854
1546.0,0.004031534206946918
1545.0,0.004043112973393841
1544.0,0.004057196681710109
1543.0,0.004068229819981002
1542.0,0.00407507986532971
1541.0,0.004082925882172865
1540.0,0.004095089094785341
1539.0,0.004106699333049139
1538.0,0.004116708006846268
1537.0,0.004128575577643602
1536.0,0.00413981618865145
1535.0,0.00414612196934234
1534.0,0.004148578424179797
1533.0,0.004152714002318726
1532.0,0.004158555751985302
1531.0,0.004164234734063503
1530.0,0.004170908265732104
1529.0,0.00417925754221864
1528.0,0.004186592313310421
1527.0,0.004190352060799213
1526.0,0.004194092512476143
1525.0,0.004203584746470065
1524.0,0.004218431697516946
1523.0,0.004233730155385289
1522.0,0.004247324208227785
1521.0,0.004257331148984961
1520.0,0.004260084259305971
1519.0,0.004257142367810685
1518.0,0.004254623745683504
1517.0,0.00425652904861176
1516.0,0.004260161148131874
1515.0,0.004260835817708434
1514.0,0.004258574357201632
1513.0,0.0042534964549105735
1512.0,0.004243467166507947
1511.0,0.004229086332051062
1510.0,0.004215929401668255
1509.0,0.0042089896465399255
1508.0,0.004209062010171724
1507.0,0.004214255355979202
1506.0,0.004218320539315784
1505.0,0.004218021030764632
1504.0,0.004216489413347354
1503.0,0.004216380094282945
1502.0,0.004220834437691661
1501.0,0.004230231353174717
1500.0,0.0042410059937362694
1499.0,0.004248017109580536
1498.0,0.004251429733605142
1497.0,0.004254373981343688
1496.0,0.0042570974499770535
1495.0,0.00426206389334866
1494.0,0.004275812564122133
1493.0,0.004297928095561369
1492.0,0.004317649144491757
1491.0,0.004326901448976947
1490.0,0.0043338453468226455
1489.0,0.004349527552309624
1488.0,0.004370108112752646
1487.0,0.004390292030040855
1486.0,0.004414922873298942
1485.0,0.004447085654806819
1484.0,0.004479833534744917
1483.0,0.004507595800980908
1482.0,0.004537454666706872
1481.0,0.004578466598129344
1480.0,0.004625789371917744
1479.0,0.004669395785686023
1478.0,0.004711508239877492
1477.0,0.004761546881655772
1476.0,0.004819853557297724
1475.0,0.004882033673062966
1474.0,0.004960007005654372
1473.0,0.005073764786549428
1472.0,0.005209604158939782
1471.0,0.005335733223168887
1470.0,0.005454806621255424
1469.0,0.005587170539846215
1468.0,0.005740791249633759
1467.0,0.005921170201568664
1466.0,0.006148638966544307
1465.0,0.0064369863933459006
1464.0,0.006750517873551414
1463.0,0.007040375327594613
1462.0,0.007304411671996693
1461.0,0.007561774294607594
1460.0,0.007818239092009988
1459.0,0.008074423605601769
1458.0,0.008351957233276298
1457.0,0.008645683333406868
1456.0,0.00887919952656545
1455.0,0.009023315664370016
1454.0,0.009122949704434271
1453.0,0.009202037790891435
1452.0,0.00925207621633847
1451.0,0.00926430145526078
1450.0,0.009240923020950505
1449.0,0.0091735212864766
1448.0,0.009045713254049398
1447.0,0.0088669910682102
1446.0,0.008663333094522944
1445.0,0.008438187677197413
1444.0,0.008178227723912369
1443.0,0.007885762331837605
1442.0,0.0075848271917806805
1441.0,0.0073021367471227325
1440.0,0.007051071380870742
1439.0,0.006827398597857734
1438.0,0.006610836476938875
1437.0,0.006388501025268655
1436.0,0.00619107544171103
1435.0,0.006058128170383908
1434.0,0.005979628705084495
1433.0,0.005919680800203124
1432.0,0.005856798440887124
1431.0,0.005791776573843899
1430.0,0.005734742446685825
1429.0,0.0056878418863159546
1428.0,0.005647902864291807
1427.0,0.005614179485127133
1426.0,0.005584931433350611
1425.0,0.0055550321251442636
1424.0,0.005523131190307478
1423.0,0.005495109351398634
1422.0,0.005473473909566421
1421.0,0.0054499943541526825
1420.0,0.00541490561331734
1419.0,0.005371621681003408
1418.0,0.005331559489101446
1417.0,0.005296223998194973
1416.0,0.005260621363999289
1415.0,0.005222624371544539
1414.0,0.00518080766076636
1413.0,0.0051320169313777576
1412.0,0.005075824782585099
1411.0,0.0050175321011844175
1410.0,0.004961498506296073
1409.0,0.004905260677918795
1408.0,0.004845161792229984
1407.0,0.0047823061018226615
1406.0,0.004719507618076051
1405.0,0.004658841091169822
1404.0,0.004605781986840192
1403.0,0.004566918846186248
1402.0,0.0045408570479120135
1401.0,0.00452124173413814
1400.0,0.004509662699041737
1399.0,0.0045163915027627444
1398.0,0.004546832030278251
1397.0,0.004600976170014649
1396.0,0.004686326247231482
1395.0,0.004811662217397644
1394.0,0.004967628611692009
1393.0,0.0051343831141638496
1392.0,0.005304374327880454
1391.0,0.005480358130576318
1390.0,0.005664391892406966
1389.0,0.005859020611960984
1388.0,0.00606666475482767
1387.0,0.006276387902821494
1386.0,0.006463365531520348
1385.0,0.006610383048948659
1384.0,0.006712703163267206
1383.0,0.006765422272068488
1382.0,0.006761864171521177
1381.0,0.006699296916058967
1380.0,0.0065795416513491954
1379.0,0.006410747952415898
1378.0,0.0062123342370615986
1377.0,0.006009352869000687
1376.0,0.005823200221187158
1375.0,0.005676542681148731
1374.0,0.005595487663003918
1373.0,0.005588800833618661
1372.0,0.005637177905962858
1371.0,0.005712726249312433
1370.0,0.005794371268835304
1369.0,0.005866952415188244
1368.0,0.005920579809685522
1367.0,0.005954130933452406
1366.0,0.005972681379870938
1365.0,0.005979900768418857
1364.0,0.0059763721616087635
1363.0,0.0059642371727852556
1362.0,0.005948984195548021
1361.0,0.005934000103160929
1360.0,0.005916469512225836
1359.0,0.005890194218373201
1358.0,0.005849271057499355
1357.0,0.005789201828507885
1356.0,0.0057081263097084525
1355.0,0.005608696598362808
1354.0,0.005496715491644424
1353.0,0.005376196404349961
1352.0,0.0052474780491937574
1351.0,0.00511085767624015
1350.0,0.004970026808966715
1349.0,0.004830756445995355
1348.0,0.004697133851661104
1347.0,0.0045705556279014795
1346.0,0.004451163900977101
1345.0,0.0043392407128303515
1344.0,0.004235619037215475
1343.0,0.004140635271811318
1342.0,0.004052279732489302
1341.0,0.003966991903316701
1340.0,0.003884153916090596
1339.0,0.0038083292233663394
1338.0,0.0037437096024614622
1337.0,0.0036883024995569176
1336.0,0.003637048458410466
1335.0,0.0035874925785010607
1334.0,0.00353958262358598
1333.0,0.003493034286338347
1332.0,0.0034481655941543945
1331.0,0.0034077451552244602
1330.0,0.0033748622845297827
1329.0,0.003349622684559765
1328.0,0.0033300535869354086
1327.0,0.003314748331165394
1326.0,0.003302506153456602
1325.0,0.003291054925251071
1324.0,0.00327856100208216
1323.0,0.0032655644974417617
1322.0,0.0032531393330569053
1321.0,0.0032402995612886495
1320.0,0.0032256013537609787
1319.0,0.003210358826224841
1318.0,0.003197380179923222
1317.0,0.003186893512622394
1316.0,0.003176502955626945
1315.0,0.0031648957483278017
1314.0,0.0031534297730807723
1313.0,0.003144238736328786
1312.0,0.003138143273306618
1311.0,0.0031340602571735534
1310.0,0.0031294789571187677
1309.0,0.003122197327339651
1308.0,0.003112603615687327
1307.0,0.0031032086416368666
1306.0,0.0030950169621448732
1305.0,0.0030858581849512014
1304.0,0.003073247335464063
1303.0,0.0030571815025837567
1302.0,0.0030386849701460276
1301.0,0.003017520054025419
1300.0,0.002993029808917567
1299.0,0.002965457952963841
1298.0,0.002934400720876089
1297.0,0.002897759477849954
1296.0,0.0028547061131095775
1295.0,0.0028086106418864333
1294.0,0.002765182338719062
1293.0,0.0027290862474081004
1292.0,0.002704146252287318
1291.0,0.0026947989238449476
1290.0,0.0027048363858908995
1289.0,0.002735912096043352
1288.0,0.002789011373382758
1287.0,0.00286569226846526
1286.0,0.0029660234788382563
1285.0,0.0030867765247861913
1284.0,0.0032232753142277023
1283.0,0.003372049938668336
1282.0,0.0035307537123422245
1281.0,0.003696630800962662
1280.0,0.003866089640913519
1279.0,0.004035276529365757
1278.0,0.00420048661038097
1277.0,0.004358458624105872
1276.0,0.004507004542874098
1275.0,0.004645191724923568
1274.0,0.00477223068952289
1273.0,0.004886135672859414
1272.0,0.004984355945448759
1271.0,0.005066001641247069
1270.0,0.005132262596982418
1269.0,0.005183951946880862
1268.0,0.005220084955447959
1267.0,0.005239937372358815
1266.0,0.005245138463990976
1265.0,0.005238755455712627
1264.0,0.005223973907390886
1263.0,0.005204597310091522
1262.0,0.005184546901828573
1261.0,0.005165298725778884
1260.0,0.00514565326221659
1259.0,0.005125395776908222
1258.0,0.005107345931301496
1257.0,0.005094656017176576
1256.0,0.005088300484972139
1255.0,0.0050883604226730945
1254.0,0.00509553917184547
1253.0,0.005110042763319467
1252.0,0.005130916165884635
1251.0,0.005157899900707218
1250.0,0.005192220180751741
1249.0,0.005234210362530232
1248.0,0.005281975671734931
1247.0,0.005333940421519555
1246.0,0.005391019344770265
1245.0,0.005454593965806765
1244.0,0.0055240268368027335
1243.0,0.005598068533350346
1242.0,0.005677122002973774
1241.0,0.005761978237256816
1240.0,0.005851723982462261
1239.0,0.005945127425460213
1238.0,0.00604278277184425
1237.0,0.006145492106928743
1236.0,0.006251895582268514
1235.0,0.00636065081873753
1234.0,0.006473987336465705
1233.0,0.006596009822795399
1232.0,0.006728294405830773
1231.0,0.00687037906196139
1230.0,0.007023612782744581
1229.0,0.007190388335963917
1228.0,0.007369588857170609
1227.0,0.0075568694339560195
1226.0,0.007750145570774129
1225.0,0.007951218911706828
1224.0,0.00816136150699186
1223.0,0.008379161038409407
1222.0,0.008603508847590658
1221.0,0.008834460442366137
1220.0,0.009069745187294765
1219.0,0.009304335009782406
1218.0,0.009534758203915085
1217.0,0.009760038695265243
1216.0,0.00997781306111607
1215.0,0.010184132081800077
1214.0,0.010377401101606546
1213.0,0.010557154400372257
1212.0,0.010718879950378667
1211.0,0.010856607554247374
1210.0,0.010971243183132463
1209.0,0.011069606548480404
1208.0,0.011155075471827928
1207.0,0.011226620582755677
1206.0,0.011287204579934516
1205.0,0.011344978443455262
1204.0,0.011405356674161714
1203.0,0.011469916264828803
1202.0,0.01154396539247328
1201.0,0.011636832898888937
1200.0,0.0117529276390596
1199.0,0.011890045484110653
1198.0,0.01204842027799387
1197.0,0.012234309591106827
1196.0,0.012452618981502211
1195.0,0.012703235262814624
1194.0,0.012987088096530135
1193.0,0.013308823600125506
1192.0,0.013670490693450861
1191.0,0.014068978787977245
1190.0,0.014502162833214417
1189.0,0.014970357029953904
1188.0,0.015468517602877888
1187.0,0.015983927377457758
1186.0,0.01650365807175108
1185.0,0.017015128233348165
1184.0,0.017495577209434433
1183.0,0.017909925005899868
1182.0,0.018222570283065818
1181.0,0.01840206676094848
1180.0,0.018414147913541023
1179.0,0.018227817811601595
1178.0,0.01783591910388468
1177.0,0.01725969080377426
1176.0,0.01653444319502419
1175.0,0.015704583727604027
1174.0,0.014827146899768027
1173.0,0.013959294647890997
1172.0,0.01313786545844423
1171.0,0.012379521283611184
1170.0,0.011695247317837552
1169.0,0.01109302665867567
1168.0,0.010570333442587636
1167.0,0.010116306497269629
1166.0,0.009722613633331966
1165.0,0.00938567051400338
1164.0,0.009100043660629586
1163.0,0.00885751460329107
1162.0,0.008652469688390505
1161.0,0.008482148170688436
1160.0,0.00834189511297987
1159.0,0.008225659381763553
1158.0,0.00813088111490499
1157.0,0.008057790006340706
1156.0,0.008004281392760106
1155.0,0.007966743267244562
1154.0,0.007946019876739856
1153.0,0.007947685158987295
1152.0,0.007976068548373436
1151.0,0.008032455020255388
1150.0,0.008119500533046067
1149.0,0.008243131755494704
1148.0,0.008409356859931718
1147.0,0.008622602014849183
1146.0,0.008887021020677196
1145.0,0.00920503129787148
1144.0,0.009573451967925454
1143.0,0.009984460926534046
1142.0,0.010430547246673826
1141.0,0.010903938650817145
1140.0,0.011390857636490344
1139.0,0.01187339053754681
1138.0,0.012339934386524611
1137.0,0.012787810965294945
1136.0,0.013214095043356912
1135.0,0.013611949491291754
1134.0,0.013978294358610543
1133.0,0.014315680587344067
1132.0,0.01462283154713798
1131.0,0.014891365678287263
1130.0,0.015113850172506441
1129.0,0.01528569803843145
1128.0,0.015397773166722119
1127.0,0.015439121391991405
1126.0,0.015411182813729912
1125.0,0.01533007529744411
1124.0,0.015214097215787686
1123.0,0.01507974940390341
1122.0,0.014948631521419425
1121.0,0.014843417581322151
1120.0,0.01477372376840837
1119.0,0.014735846603671564
1118.0,0.014726931356306351
1117.0,0.014749350156128677
1116.0,0.014801878239705888
1115.0,0.014879523537240206
1114.0,0.014984974583803212
1113.0,0.015129367609929889
1112.0,0.015319011219938845
1111.0,0.015551566052110936
1110.0,0.015826951821591658
1109.0,0.016149910214874313
1108.0,0.016518187261071817
1107.0,0.016919699186326267
1106.0,0.017345451340320395
1105.0,0.017794220162628976
1104.0,0.018260987505167144
1103.0,0.018733243375797643
1102.0,0.019203520829999512
1101.0,0.019673280901427403
1100.0,0.02014027916194057
1099.0,0.02059590592531166
1098.0,0.021039454468207503
1097.0,0.021480729528482543
1096.0,0.021923827469245566
1095.0,0.022363607396442674
1094.0,0.022801567446179637
1093.0,0.023247559293521933
1092.0,0.02370136780413262
1091.0,0.02415090892531777
1090.0,0.024593226453555803
1089.0,0.0250378301004953
1088.0,0.025483967237019144
1087.0,0.025915189871343187
1086.0,0.02632245922039961
1085.0,0.02671028040249567
1084.0,0.02707259273948676
1083.0,0.02738611063937713
1082.0,0.02763679586106705
1081.0,0.027830877390747643
1080.0,0.027971871744349005
1079.0,0.028049739776717583
1078.0,0.028060245534054156
1077.0,0.028011505959487516
1076.0,0.027903510239169992
1075.0,0.027723401036336453
1074.0,0.027467736472321515
1073.0,0.02714803938184683
1072.0,0.026770250239358268
1071.0,0.0263314419173642
1070.0,0.025840574044161707
1069.0,0.025320359290070645
1068.0,0.024785965095172672
1067.0,0.024243086449475607
1066.0,0.023708253746659844
1065.0,0.023210013272228786
1064.0,0.02276776947288383
1063.0,0.0223870757221325
1062.0,0.02207568875903589
1061.0,0.021845632632170073
1060.0,0.02169691756962578
1059.0,0.021615364439596378
1058.0,0.02158880044972166
1057.0,0.021610723306418257
1056.0,0.021667546607691966
1055.0,0.02173997909278213
1054.0,0.021821689375512574
1053.0,0.021921980653039786
1052.0,0.022046032368118102
1051.0,0.02218865212936816
1050.0,0.022351426377298995
1049.0,0.022544084465104534
1048.0,0.022761054554844756
1047.0,0.02297778524620659
1046.0,0.02317533183144578
1045.0,0.02334913018203836
1044.0,0.02349247859399689
1043.0,0.023592362332731986
1042.0,0.023645059286285144
1041.0,0.023657574378320386
1040.0,0.0236294068924327
1039.0,0.023549830345332663
1038.0,0.02341719979407369
1037.0,0.02324477356141062
1036.0,0.02304429913439584
1035.0,0.022819929435725504
1034.0,0.022581016236166436
1033.0,0.022344221925743996
1032.0,0.022118190570495785
1031.0,0.02190001711398197
1030.0,0.021689127984101775
1029.0,0.021489830742030955
1028.0,0.02129708783252279
1027.0,0.021094364205887027
1026.0,0.020870377866343666
1025.0,0.020626451190643443
1024.0,0.02036494647716475
1023.0,0.020082806724570097
1022.0,0.019779795835267348
1021.0,0.019462142542868363
1020.0,0.01913494692148266
1019.0,0.018800578804779058
1018.0,0.01846615451326359
1017.0,0.018142811647918106
1016.0,0.017836002982547727
1015.0,0.017545004899993444
1014.0,0.017272168428469604
1013.0,0.017023722317762648
1012.0,0.016800875482290627
1011.0,0.01659824317915853
1010.0,0.01641129672757037
1009.0,0.016237723790713785
1008.0,0.01607150053955747
1007.0,0.01590361512173219
1006.0,0.01572945260792073
1005.0,0.01554884251912031
1004.0,0.015359484214155845
1003.0,0.015157953986290062
1002.0,0.014946551108773694
1001.0,0.014731236269109653
1000.0,0.014513168281992811
999.0,0.01428959571388029
998.0,0.014062139239665778
997.0,0.013836434066225069
996.0,0.013614116051895522
995.0,0.013392649849077919
994.0,0.013172749760198409
993.0,0.012958664199259683
992.0,0.012751169869504364
991.0,0.012547327509975786
990.0,0.01234722952403774
989.0,0.012154170496456704
988.0,0.011968071396982758
987.0,0.011785352689024238
986.0,0.011605544935761256
985.0,0.011431681716009922
984.0,0.011263584817498767
983.0,0.011096568256580048
982.0,0.010927669308787318
981.0,0.010758300144655845
980.0,0.01059031567808006
979.0,0.010424107371367444
978.0,0.010260761631888212
977.0,0.010101607839823142
976.0,0.00994552231681267
975.0,0.009790494179772999
974.0,0.009637154005378859
973.0,0.009487017909635949
972.0,0.009338814333959751
971.0,0.009191087140420138
970.0,0.00904696660159507
969.0,0.008911375545198654
968.0,0.008784590226955605
967.0,0.00866379291963341
966.0,0.008550514366292642
965.0,0.008451458745550885
964.0,0.00837194044367606
963.0,0.008312908831083817
962.0,0.0082737686212658
961.0,0.00825261757502619
960.0,0.008242704118040706
959.0,0.008232966455642048
958.0,0.008213467888992711
957.0,0.008177780312279264
956.0,0.008121090741715065
955.0,0.00804116127331353
954.0,0.007942138700978985
953.0,0.007833102834448952
952.0,0.007721333629401977
951.0,0.007609614709398596
950.0,0.007499585134855512
949.0,0.007393516057134184
948.0,0.007292234215787414
947.0,0.00719490683620002
946.0,0.007101716970972184
945.0,0.007014079265401653
944.0,0.006932052929414482
943.0,0.0068542090052072305
942.0,0.0067800706750772155
941.0,0.006710177290950798
940.0,0.006643970526879199
939.0,0.006580153285414775
938.0,0.006518720375586613
937.0,0.0064599877240641874
936.0,0.006402145733277891
935.0,0.006342634776757346
934.0,0.006281643003473067
933.0,0.006221682676701975
932.0,0.006164314570900754
931.0,0.006109911433647407
930.0,0.006059690611202741
929.0,0.006014787782838029
928.0,0.005973858669631045
927.0,0.00593481523214817
926.0,0.005898770661699833
925.0,0.00586924961289164
924.0,0.005847494590425698
923.0,0.005831263249288532
922.0,0.005818033544084502
921.0,0.0058066570611093795
920.0,0.005796207000205795
919.0,0.005786341330290991
918.0,0.005779001703588667
917.0,0.005776925902094471
916.0,0.005779941780213283
915.0,0.0057845346387111005
914.0,0.005786447533756229
913.0,0.005781200980167333
912.0,0.005762984887400662
911.0,0.005726845452389717
910.0,0.005672715890941189
909.0,0.0056048301731775226
908.0,0.00552728520730409
907.0,0.005442687197719786
906.0,0.005354116976621896
905.0,0.005264630010802062
904.0,0.00517470812449601
903.0,0.005083324491130804
902.0,0.004991698441012497
901.0,0.004903355094258663
900.0,0.0048205935423212744
899.0,0.004743335342117239
898.0,0.004670860002410081
897.0,0.004601801540158406
896.0,0.004532757344122687
895.0,0.0044599693430243
894.0,0.004382605615873837
893.0,0.004302108232023296
892.0,0.004218914969535412
891.0,0.004132844882615983
890.0,0.004046705522264713
889.0,0.003966795481098072
888.0,0.003899715271330843
887.0,0.00385102626340021
886.0,0.003826831974152043
885.0,0.0038338611399192993
884.0,0.0038773085653769504
883.0,0.003960281162329253
882.0,0.004085048948274135
881.0,0.004251992799972034
880.0,0.004456140895963054
879.0,0.004686572530139108
878.0,0.004930691119589998
877.0,0.005178589459831781
876.0,0.005423459494847934
875.0,0.005659109570266836
874.0,0.00587583042459482
873.0,0.006055951770995473
872.0,0.006176128577978165
871.0,0.00622144092931606
870.0,0.006199817620304757
869.0,0.006138876533018759
868.0,0.006067148786715092
867.0,0.005999778358396327
866.0,0.005938406241142037
865.0,0.005877342131430596
864.0,0.005808147285744006
863.0,0.005722976168851148
862.0,0.005616976271007426
861.0,0.005487349148572284
860.0,0.005331487534678717
859.0,0.005149169603654828
858.0,0.004946143627055655
857.0,0.004732544444912883
856.0,0.004518152877281641
855.0,0.004311733715445695
854.0,0.004123263240391268
853.0,0.003962488522172291
852.0,0.003834676127289137
851.0,0.003739495012240088
850.0,0.003672503204116437
849.0,0.0036248857207215593
848.0,0.0035835738763827073
847.0,0.003536657953145339
846.0,0.0034800835107221297
845.0,0.0034168797244022997
844.0,0.0033504754419429973
843.0,0.0032820220300891646
842.0,0.003213738637343361
841.0,0.0031505722725813133
840.0,0.00309702346955636
839.0,0.0030544716657286064
838.0,0.0030219521313291434
837.0,0.0029973985770225496
836.0,0.002978179379570494
835.0,0.0029630128839977597
834.0,0.002953729515405899
833.0,0.00295281778240134
832.0,0.002958842829010771
831.0,0.0029663570292691515
830.0,0.0029704669180884062
829.0,0.0029694496258324526
828.0,0.0029634489777572246
827.0,0.0029541080431387005
826.0,0.0029458254814668542
825.0,0.002943370601663735
824.0,0.0029470419869813786
823.0,0.002953286780071703
822.0,0.0029597647450983217
821.0,0.0029658085425414487
820.0,0.002969153328981784
819.0,0.0029674434581178372
818.0,0.002962921471373523
817.0,0.002961343518373933
816.0,0.002965582911534137
815.0,0.002973295466430218
814.0,0.0029812496245825377
813.0,0.0029888034334999607
812.0,0.0029963873935361937
811.0,0.003003785043681759
810.0,0.003011357736538713
809.0,0.0030205903499736985
808.0,0.0030321674600905495
807.0,0.003045298005178108
806.0,0.0030595374669313393
805.0,0.003075337699712687
804.0,0.0030924080990906754
803.0,0.003109520865188205
802.0,0.0031261548078082655
801.0,0.003142330721719183
800.0,0.003156985005260896
799.0,0.003168953480649438
798.0,0.003179477132886543
797.0,0.003191057406384209
796.0,0.003203789799843334
795.0,0.003215644611453074
794.0,0.00322658898428348
793.0,0.003239598984218022
792.0,0.0032572342157206214
791.0,0.003279866866889093
790.0,0.0033073753483841874
789.0,0.0033395703748879116
788.0,0.0033744709744500155
787.0,0.0034090682411786147
786.0,0.0034426508134912147
785.0,0.0034770814853087176
784.0,0.003513393299795972
783.0,0.0035505713737510455
782.0,0.003587908216700456
781.0,0.003625700156425389
780.0,0.0036630877472807397
779.0,0.003698202818685197
778.0,0.0037316272412101607
777.0,0.0037674641532209393
776.0,0.0038099573736403375
775.0,0.0038605074583004714
774.0,0.003917958666331536
773.0,0.0039798864920344975
772.0,0.004043891216302743
771.0,0.0041100839165364505
770.0,0.004182430797518618
769.0,0.004265595903151928
768.0,0.004360833046319487
767.0,0.004467136260536297
766.0,0.004585158395451561
765.0,0.004716378173821841
764.0,0.004858695819476912
763.0,0.005006559709400791
762.0,0.005155880953724922
761.0,0.005305666474416491
760.0,0.00545418514583303
759.0,0.005596241008305152
758.0,0.005724800860216364
757.0,0.005833183954516688
756.0,0.005916074372729044
755.0,0.0059713740348415634
754.0,0.006001339106020864
753.0,0.0060097665921539645
752.0,0.005998779838235052
751.0,0.0059707903221230315
750.0,0.0059318858372947
749.0,0.005889327816092678
748.0,0.005846266086641513
747.0,0.005802270081981342
746.0,0.005757883332332684
745.0,0.005714210231083344
744.0,0.005668561900838564
743.0,0.005615549384097598
742.0,0.005553187448435595
741.0,0.005483549331891735
740.0,0.005406449766190442
739.0,0.005316797296585586
738.0,0.005209740354799734
737.0,0.005085031308218153
736.0,0.004945325440552114
735.0,0.004794001494421088
734.0,0.004636744988923407
733.0,0.004482502502017968
732.0,0.004340362203134976
731.0,0.004216441679737825
730.0,0.004114276922533015
729.0,0.0040359681166485875
728.0,0.003982127758340267
727.0,0.003952977080867456
726.0,0.0039494224713682025
725.0,0.003969927058913923
724.0,0.004007302211654844
723.0,0.004053695406105998
722.0,0.004109161333942798
721.0,0.004180301582874761
720.0,0.004268747749252045
719.0,0.0043664475816789375
718.0,0.00446594714971454
717.0,0.0045692629738573525
716.0,0.004681923616926824
715.0,0.004801190540412439
714.0,0.004912980224561077
713.0,0.005000522172154444
712.0,0.005056541627029702
711.0,0.005088479534438738
710.0,0.0051116660802283664
709.0,0.005136687156473106
708.0,0.0051646545893987445
707.0,0.005194294437766351
706.0,0.005228392728479976
705.0,0.0052696192050121875
704.0,0.005314577310657898
703.0,0.005357338259709611
702.0,0.005395681589620012
701.0,0.005429062767796164
700.0,0.005454382728054758
699.0,0.005469697428379466
698.0,0.005478798704112069
697.0,0.005485726803628044
696.0,0.00548801089201497
695.0,0.005482174343328674
694.0,0.005472356483859344
693.0,0.005465426613125686
692.0,0.005459673982756302
691.0,0.00544693538289464
690.0,0.005425533763113201
689.0,0.00540273259326105
688.0,0.005383789163330216
687.0,0.00536696290469234
686.0,0.005350774094231455
685.0,0.005337313837712597
684.0,0.005326643150153588
683.0,0.005315503891237574
682.0,0.005302394547491538
681.0,0.005288159224359979
680.0,0.005272561122915142
679.0,0.005255970328921706
678.0,0.005242748605190573
677.0,0.005235697837652469
676.0,0.005228557271966739
675.0,0.005213227715025621
674.0,0.005191691239023669
673.0,0.005171976241301609
672.0,0.005154615373423783
671.0,0.005132921289307176
670.0,0.005104043595069736
669.0,0.005077485924432076
668.0,0.005068287764672743
667.0,0.005069766074350356
666.0,0.005062683466669302
665.0,0.00504502382055025
664.0,0.0050220974673537006
663.0,0.004995790676926825
662.0,0.0049696598519852475
661.0,0.004949542960087082
660.0,0.004933497214834449
659.0,0.004911319329005513
658.0,0.00487837685406605
657.0,0.00484252478242471
656.0,0.004813432633712905
655.0,0.004793441587482037
654.0,0.004779694374025341
653.0,0.00476732360477122
652.0,0.0047493572366026785
651.0,0.0047219292612604566
650.0,0.004692635016427452
649.0,0.004675299339336563
648.0,0.004672938359612533
647.0,0.004672709751909943
646.0,0.0046591366434029675
645.0,0.004625220072304552
644.0,0.00457073603172792
643.0,0.004500568115880963
642.0,0.004426324418637261
641.0,0.004359847544781573
640.0,0.004304237040891184
639.0,0.004257017065923539
638.0,0.0042179292809011735
637.0,0.004185170290444178
636.0,0.004148630488316572
635.0,0.0040992348972304325
634.0,0.004043989664774489
633.0,0.003999334055802819
632.0,0.0039705625502041725
631.0,0.003948580012550399
630.0,0.00392342766348831
629.0,0.0038903741426466465
628.0,0.0038445534143845203
627.0,0.003782126328742483
626.0,0.003708527053974814
625.0,0.003633975788077091
624.0,0.003560213676346116
623.0,0.003483039055400777
622.0,0.0034049629620257777
621.0,0.0033313865474826343
620.0,0.0032589082851961987
619.0,0.0031848806343834513
618.0,0.003124098539891977
617.0,0.0030945674735585738
616.0,0.003088225720833097
615.0,0.0030780893897882867
614.0,0.0030544667225489864
613.0,0.0030331687813575266
612.0,0.003027542819555651
611.0,0.0030307348538751487
610.0,0.0030296623125259806
609.0,0.003024474132997351
608.0,0.003026384986149983
607.0,0.003045324579138766
606.0,0.0030845017170659196
605.0,0.003138787500066532
604.0,0.0031936171585160364
603.0,0.0032302341361250455
602.0,0.0032370071680950666
601.0,0.0032136262688000888
600.0,0.003166824321212929
599.0,0.0031101101763832137
598.0,0.003062543533839057
597.0,0.003034782296831378
596.0,0.003018940668874968
595.0,0.00300017332224175
594.0,0.0029747740298346924
593.0,0.0029483200447460514
592.0,0.0029198162218854323
591.0,0.002880445317997354
590.0,0.002826138344741211
589.0,0.0027579748725283055
588.0,0.002674204665928326
587.0,0.0025783281818769566
586.0,0.002489682248029451
585.0,0.002427155870640481
584.0,0.0023851576616636576
583.0,0.0023415659856024663
582.0,0.002286903075649824
581.0,0.0022304750030415783
580.0,0.0021791611800317376
579.0,0.0021269084995082293
578.0,0.0020661693236926444
577.0,0.0019963327522684177
576.0,0.0019228480236140781
575.0,0.00186028264308794
574.0,0.0018269656464508614
573.0,0.0018233172470037608
572.0,0.001825515776012445
571.0,0.0018080738354742205
570.0,0.001769686958891784
569.0,0.0017274740841365472
568.0,0.0016909271152367768
567.0,0.0016617339953804312
566.0,0.0016501683145594007
565.0,0.0016687102132678109
564.0,0.0017098305576969466
563.0,0.0017444639570788458
562.0,0.0017500654526801471
561.0,0.0017328400389245513
560.0,0.0017159030001347164
559.0,0.0017168846285673233
558.0,0.0017386335834058304
557.0,0.0017737742569798555
556.0,0.0018114562695318893
555.0,0.0018383984425801832
554.0,0.001840811136327389
553.0,0.0018103425046358057
552.0,0.001752502290368791
551.0,0.0016933638305680256
550.0,0.0016639061998820646
