cm-1,A
4000.0,0.003840768656923406
3999.0,0.003751980392660533
3998.0,0.00368790017911335
3997.0,0.0036770954032727347
3996.0,0.0037157342755533805
3995.0,0.003774791616354703
3994.0,0.0038229504178647605
3993.0,0.0038460480607670315
3992.0,0.003847993109546295
3991.0,0.0038431556286996228
3990.0,0.0038495350029296316
3989.0,0.0038793810844965134
3988.0,0.0039335857175334075
3987.0,0.003999970595296784
3986.0,0.004063098019945737
3985.0,0.004112326989866053
3984.0,0.004140361808083314
3983.0,0.004142770378041741
3982.0,0.004123526508167018
3981.0,0.0040979631661358824
3980.0,0.004083728086674978
3979.0,0.004086110928868434
3978.0,0.004093121978405273
3977.0,0.004085887141951584
3976.0,0.004054332643246143
3975.0,0.004003622782613925
3974.0,0.003951759368005861
3973.0,0.003923474875811749
3972.0,0.00394093966168102
3971.0,0.004007477868124755
3970.0,0.004097695145736546
3969.0,0.004173122424680615
3968.0,0.004210701315237864
3967.0,0.004217259227563688
3966.0,0.00421373025158138
3965.0,0.0042098764190188105
3964.0,0.004195401030838614
3963.0,0.004157204410277475
3962.0,0.004102987648320405
3961.0,0.004061725272952848
3960.0,0.004058521328959367
3959.0,0.004086980509739909
3958.0,0.004111141125936614
3957.0,0.004108723470074845
3956.0,0.004092084472390022
3955.0,0.004085863629399484
3954.0,0.00409198112680428
3953.0,0.004090960045674363
3952.0,0.004069485739092639
3951.0,0.004034900604274198
3950.0,0.004005057972918485
3949.0,0.003982238829779567
3948.0,0.0039500207971992305
3947.0,0.003909855480069082
3946.0,0.003907638071193455
3945.0,0.003986487477269578
3944.0,0.004134739129938414
3943.0,0.0042865302165653475
3942.0,0.004363203078785762
3941.0,0.004359392732628871
3940.0,0.004344606813165055
3939.0,0.00435056457162422
3938.0,0.004341533730101051
3937.0,0.004293981441623873
3936.0,0.0042385450349368865
3935.0,0.004213868136824339
3934.0,0.00420986578897632
3933.0,0.004191331665021836
3932.0,0.004151225505452135
3931.0,0.004112971330139176
3930.0,0.004098160069698141
3929.0,0.004096762431490986
3928.0,0.004078752816295725
3927.0,0.004041530318040769
3926.0,0.004009926275169842
3925.0,0.004001731307330451
3924.0,0.003998545752076947
3923.0,0.003981107121705241
3922.0,0.003972012975713148
3921.0,0.00398023795818565
3920.0,0.004015925419971117
3919.0,0.004140631983730525
3918.0,0.004360338945397278
3917.0,0.004558907132540865
3916.0,0.004626863631776662
3915.0,0.004597626525309161
3914.0,0.0045795325586191205
3913.0,0.004601873574660664
3912.0,0.004626246183971458
3911.0,0.004649071393609604
3910.0,0.004682655797747638
3909.0,0.004714006384961585
3908.0,0.004688842375365614
3907.0,0.0045728125366699904
3906.0,0.004382651823263998
3905.0,0.0041868584369299505
3904.0,0.004048489635796605
3903.0,0.003992615747963318
3902.0,0.004050609548674578
3901.0,0.004220734146766665
3900.0,0.004382417851215235
3899.0,0.004407222452675627
3898.0,0.004331645452563012
3897.0,0.00429440639295966
3896.0,0.004331997417636528
3895.0,0.004352135104990168
3894.0,0.004303225422964758
3893.0,0.004249211185773774
3892.0,0.0042450067820225795
3891.0,0.004211944619862634
3890.0,0.004096579385934166
3889.0,0.004094786486275745
3888.0,0.004304655157815163
3887.0,0.00454913502185237
3886.0,0.004660312722876602
3885.0,0.004578006303732113
3884.0,0.00436237750772484
3883.0,0.004235614069601032
3882.0,0.004252413720339306
3881.0,0.004294481918047299
3880.0,0.004288602172080923
3879.0,0.004221398837482225
3878.0,0.004233482166594521
3877.0,0.004409427772358454
3876.0,0.0045647408179670355
3875.0,0.004513513013920709
3874.0,0.004248327294633878
3873.0,0.003938707589325883
3872.0,0.003850317699180702
3871.0,0.004058872435179155
3870.0,0.0043051146186760866
3869.0,0.004280327811845515
3868.0,0.004110103431549725
3867.0,0.004147028860998997
3866.0,0.004293659213224152
3865.0,0.004296707718490661
3864.0,0.00422692749533766
3863.0,0.0042305317773043555
3862.0,0.0043125558476538595
3861.0,0.004399895410815478
3860.0,0.004410375874907226
3859.0,0.004347000632262784
3858.0,0.004251748800139154
3857.0,0.0041815452345744936
3856.0,0.004193644020180109
3855.0,0.004388099239054626
3854.0,0.004836168725852732
3853.0,0.005068680275162314
3852.0,0.004606688016758197
3851.0,0.004182929596354877
3850.0,0.004293618490375208
3849.0,0.004493739634546282
3848.0,0.004504562880464556
3847.0,0.00442899422679208
3846.0,0.004384501191319874
3845.0,0.004361379850354759
3844.0,0.004286357311208345
3843.0,0.0040807887336451725
3842.0,0.0037630962560479923
3841.0,0.003492118164403743
3840.0,0.003409539133664324
3839.0,0.003527880214352219
3838.0,0.003701374316205496
3837.0,0.003801529948845311
3836.0,0.0038819136432637798
3835.0,0.004073029641321344
3834.0,0.004379388259159149
3833.0,0.004711917453411691
3832.0,0.004968267165201608
3831.0,0.0050719281224510145
3830.0,0.0050307557616374576
3829.0,0.004930187395685995
3828.0,0.004836396305127626
3827.0,0.004743634623537003
3826.0,0.004603677707840013
3825.0,0.0044321769202904475
3824.0,0.0043225267104995534
3823.0,0.004295018983213784
3822.0,0.004330388862208599
3821.0,0.004392979291984808
3820.0,0.004275704354014462
3819.0,0.004170729357633081
3818.0,0.004411455108368883
3817.0,0.004765545243190729
3816.0,0.004900983076782132
3815.0,0.00476066880341647
3814.0,0.00462515096280364
3813.0,0.004758444830990352
3812.0,0.004957998544917883
3811.0,0.004945904183660891
3810.0,0.004804205990631489
3809.0,0.004754655941647947
3808.0,0.00485256007082918
3807.0,0.0049006129281001076
3806.0,0.004678522697164806
3805.0,0.004348791674048853
3804.0,0.004215821469346742
3803.0,0.004254760518811275
3802.0,0.004367173748345048
3801.0,0.00439314230899799
3800.0,0.004195746955803343
3799.0,0.004122419050904691
3798.0,0.004332664700710346
3797.0,0.004548322225363659
3796.0,0.004624424458027432
3795.0,0.004639382519582312
3794.0,0.004725521312831086
3793.0,0.004877443864283411
3792.0,0.004970310039480537
3791.0,0.004961493102246875
3790.0,0.004922553442708947
3789.0,0.004893753188993813
3788.0,0.004855231385567281
3787.0,0.004802196276835879
3786.0,0.004772250292434131
3785.0,0.004778553639062022
3784.0,0.0047836096585437415
3783.0,0.004771454121750717
3782.0,0.004772433933701933
3781.0,0.004781996083221603
3780.0,0.004779506035645007
3779.0,0.004762601851276964
3778.0,0.004732521994592547
3777.0,0.004751308161407305
3776.0,0.004841240052969015
3775.0,0.004904262607036041
3774.0,0.0048744454311753956
3773.0,0.004808559153732921
3772.0,0.00477633004749334
3771.0,0.004766331247562367
3770.0,0.004716850916212932
3769.0,0.004609065641281369
3768.0,0.004529518840352352
3767.0,0.00456403295788769
3766.0,0.004641230371941406
3765.0,0.00464030623380696
3764.0,0.004560122620839498
3763.0,0.004520579620773544
3762.0,0.004562868817262741
3761.0,0.0045777354558965335
3760.0,0.004524928390684389
3759.0,0.0044728174883068
3758.0,0.004418822820668444
3757.0,0.004307811927713673
3756.0,0.004144718733774444
3755.0,0.003972766522465173
3754.0,0.003787074807207292
3753.0,0.003583435736158847
3752.0,0.003495691559103139
3751.0,0.0036248072149783275
3750.0,0.0037279084657131922
3749.0,0.0036539953789525605
3748.0,0.0036709079791635187
3747.0,0.003986733465795582
3746.0,0.004456930184581157
3745.0,0.004822740700017569
3744.0,0.0047975943859410106
3743.0,0.004391934183062076
3742.0,0.004235456536748951
3741.0,0.004475835941299093
3740.0,0.0045757561840782356
3739.0,0.004336976972422059
3738.0,0.003975086683571105
3737.0,0.003761522175558203
3736.0,0.0038504089339582836
3735.0,0.0041348184413204925
3734.0,0.004362477226723971
3733.0,0.004494160370022761
3732.0,0.004567301607347198
3731.0,0.0045436000964850665
3730.0,0.0044756088630225795
3729.0,0.004429289504367764
3728.0,0.004357752168251803
3727.0,0.0042201917583859685
3726.0,0.00407894988991693
3725.0,0.00401624662001707
3724.0,0.004054210083091097
3723.0,0.004130640304937988
3722.0,0.004201010327562147
3721.0,0.004294973752288701
3720.0,0.00445493758776019
3719.0,0.0046626994278869075
3718.0,0.004818572503941491
3717.0,0.0048363345146405275
3716.0,0.004733240838625457
3715.0,0.004589141139222763
3714.0,0.004457722404182149
3713.0,0.004411788486674723
3712.0,0.00454069057993824
3711.0,0.004711003032423371
3710.0,0.004722922643138332
3709.0,0.004720981310914923
3708.0,0.004885298666917637
3707.0,0.005149985095533554
3706.0,0.005386541947067605
3705.0,0.005568327795993441
3704.0,0.005747612436967165
3703.0,0.005988946361116791
3702.0,0.006318169780484974
3701.0,0.00666514070455111
3700.0,0.006956670053035394
3699.0,0.007214085749770628
3698.0,0.007428388100090024
3697.0,0.007526726775034888
3696.0,0.007508284680680969
3695.0,0.007452299032229447
3694.0,0.007384252713864623
3693.0,0.0072308146233071805
3692.0,0.006960731321762753
3691.0,0.006701457068569536
3690.0,0.006592778808189358
3689.0,0.006545926089044998
3688.0,0.00638850125205496
3687.0,0.006237999281830841
3686.0,0.0062957107976023
3685.0,0.006469415654030336
3684.0,0.006526296738266284
3683.0,0.006404732413568712
3682.0,0.0062138237491900904
3681.0,0.006042922665774086
3680.0,0.005862623809481639
3679.0,0.005662082854988201
3678.0,0.005581042428797147
3677.0,0.005764477210511288
3676.0,0.006153618193515998
3675.0,0.006272418311949551
3674.0,0.005945218547933071
3673.0,0.0057995127864527915
3672.0,0.005995765204146863
3671.0,0.006150462721372511
3670.0,0.006213221157548542
3669.0,0.006220714604910093
3668.0,0.006250362016376066
3667.0,0.006472995545378659
3666.0,0.0067471777381018835
3665.0,0.006863324446446061
3664.0,0.0068464253829113066
3663.0,0.0068200165894632455
3662.0,0.006829085393717614
3661.0,0.006836803822540047
3660.0,0.006828328203338398
3659.0,0.006849958002806345
3658.0,0.006936618744970861
3657.0,0.007033334587018748
3656.0,0.007010629984223957
3655.0,0.006822077382977999
3654.0,0.006629050166904989
3653.0,0.00647805930403607
3652.0,0.006168770456502546
3651.0,0.005691893826811876
3650.0,0.005500786895162289
3649.0,0.005785379800432852
3648.0,0.006053876907517889
3647.0,0.006124620748799102
3646.0,0.006251480554475771
3645.0,0.006533192367142792
3644.0,0.00688871214080451
3643.0,0.007196814743958502
3642.0,0.007371228085752609
3641.0,0.007395702918037561
3640.0,0.007324086139115156
3639.0,0.007236278926018377
3638.0,0.007171658611970486
3637.0,0.0071474401157376605
3636.0,0.007175464064871417
3635.0,0.007213843330100396
3634.0,0.007190394605892646
3633.0,0.007109997485521919
3632.0,0.007086555643664316
3631.0,0.007183988714012362
3630.0,0.00738934894481434
3629.0,0.00765334063306863
3628.0,0.007729049232285153
3627.0,0.007683743696698241
3626.0,0.007908505639022312
3625.0,0.008265381759891256
3624.0,0.00844176278849306
3623.0,0.008448831052868153
3622.0,0.00843368904134588
3621.0,0.008458755298363867
3620.0,0.008491130183906983
3619.0,0.008465698829597601
3618.0,0.008330798946061563
3617.0,0.008170178921373486
3616.0,0.008087466604581255
3615.0,0.008034906523017898
3614.0,0.007922117836222336
3613.0,0.0077336332917686875
3612.0,0.0075580545482583465
3611.0,0.007540403225046561
3610.0,0.007731329644645291
3609.0,0.008011799234220894
3608.0,0.008197748195992876
3607.0,0.008197031878916704
3606.0,0.008099472827376872
3605.0,0.00802857453668015
3604.0,0.007980348139204462
3603.0,0.007917587431334945
3602.0,0.007859272654517194
3601.0,0.00782007385021686
3600.0,0.007769167883039888
3599.0,0.007701145520996933
3598.0,0.007659246691773727
3597.0,0.007672023810696012
3596.0,0.00774682373477998
3595.0,0.007876432765362422
3594.0,0.008026993484354605
3593.0,0.008148871881819331
3592.0,0.008223688660908241
3591.0,0.008246325297029077
3590.0,0.008222448796135312
3589.0,0.008216145478077062
3588.0,0.008327577279963942
3587.0,0.008489013157403812
3586.0,0.0085623040750352
3585.0,0.008622411100406875
3584.0,0.008746543826820337
3583.0,0.008866065559305128
3582.0,0.008933314030021447
3581.0,0.00895760361022805
3580.0,0.008940180981535852
3579.0,0.008881236387390216
3578.0,0.008827405526322388
3577.0,0.008840396126886238
3576.0,0.008938533674079726
3575.0,0.009082604558463044
3574.0,0.009215746597950748
3573.0,0.009290519855232854
3572.0,0.00926794458295662
3571.0,0.009133615976289512
3570.0,0.008939474128156625
3569.0,0.008826767425320991
3568.0,0.008954650297586096
3567.0,0.009232529851396687
3566.0,0.009327787350050517
3565.0,0.009215163682246548
3564.0,0.00917035957024968
3563.0,0.009299010670830369
3562.0,0.009519502956482769
3561.0,0.009734260760428758
3560.0,0.009883950175466847
3559.0,0.009955448411317538
3558.0,0.009974793450235936
3557.0,0.009969277743013226
3556.0,0.00994739344337385
3555.0,0.00992418026043688
3554.0,0.009931005655278834
3553.0,0.009983947893629025
3552.0,0.01004844612035566
3551.0,0.010083596122416319
3550.0,0.010091194265579171
3549.0,0.010077026357008625
3548.0,0.010031080129791928
3547.0,0.00998534404729503
3546.0,0.010008094548962036
3545.0,0.010107839825086323
3544.0,0.01022083963315203
3543.0,0.010306470840262743
3542.0,0.01039021178944352
3541.0,0.01051359909082349
3540.0,0.010669164658388734
3539.0,0.010801112524464317
3538.0,0.010866639133047307
3537.0,0.010881520621705769
3536.0,0.010883337126403086
3535.0,0.010877548145633187
3534.0,0.010852625437459015
3533.0,0.010817786010951895
3532.0,0.010796727543221404
3531.0,0.010796657934452222
3530.0,0.010808253789166552
3529.0,0.0108353877310798
3528.0,0.010906837699501046
3527.0,0.011033114005879276
3526.0,0.01117291982979635
3525.0,0.01126519143250133
3524.0,0.011293032753476675
3523.0,0.011295687493601544
3522.0,0.011321580828545449
3521.0,0.011392886811465008
3520.0,0.0115037125614307
3519.0,0.011627214405976537
3518.0,0.011723237052112243
3517.0,0.011761226987205813
3516.0,0.011752617988003138
3515.0,0.01174558236374807
3514.0,0.01177668184711254
3513.0,0.011833468019913113
3512.0,0.011873405723803371
3511.0,0.011877906889385559
3510.0,0.011877973337218031
3509.0,0.011909335691081373
3508.0,0.011964037070338465
3507.0,0.012004212519937576
3506.0,0.011999929708392403
3505.0,0.011951300201551187
3504.0,0.011900737509039559
3503.0,0.01190883022555039
3502.0,0.012007397750271862
3501.0,0.012178412325861632
3500.0,0.012358530696226694
3499.0,0.012471405717813275
3498.0,0.012489445011718281
3497.0,0.01245844195394772
3496.0,0.012450077135782132
3495.0,0.01249977608854981
3494.0,0.01259872711451835
3493.0,0.012725633362605713
3492.0,0.01285544257076884
3491.0,0.012948016384583455
3490.0,0.012971545002479243
3489.0,0.012950441313805003
3488.0,0.012956541263931247
3487.0,0.013025075874325463
3486.0,0.01309921978508247
3485.0,0.013087881128000852
3484.0,0.012975815843331281
3483.0,0.012861489102633898
3482.0,0.012871350954411647
3481.0,0.01303415171632899
3480.0,0.01326081920247529
3479.0,0.01344373385121999
3478.0,0.013544732810415662
3477.0,0.013592872480221348
3476.0,0.013635272463833528
3475.0,0.013694226478404826
3474.0,0.013756119898480496
3473.0,0.013796395467455598
3472.0,0.013807627268289564
3471.0,0.013802105293305212
3470.0,0.013801732998325
3469.0,0.013827750947408044
3468.0,0.013885945390667617
3467.0,0.013957624495206801
3466.0,0.014013021406666559
3465.0,0.014040107615621335
3464.0,0.01405359614113394
3463.0,0.014069679415421501
3462.0,0.014080525621422271
3461.0,0.014070377655207179
3460.0,0.014054793050917998
3459.0,0.014080096209371836
3458.0,0.014171914104891416
3457.0,0.01430061818242662
3456.0,0.014411943734710508
3455.0,0.01448496648011028
3454.0,0.014542403027940829
3453.0,0.014605982061858883
3452.0,0.014668774452165408
3451.0,0.014719261328645709
3450.0,0.014765879551965073
3449.0,0.014813109109488454
3448.0,0.014835946670729048
3447.0,0.014807251623010727
3446.0,0.014750885879210345
3445.0,0.014731386177309826
3444.0,0.01477728128754354
3443.0,0.014850239198410047
3442.0,0.014900259611232893
3441.0,0.01492347237211325
3440.0,0.014957357945394514
3439.0,0.015034536840099463
3438.0,0.015150986663098602
3437.0,0.015270124656255126
3436.0,0.01534474487224162
3435.0,0.015346916782176388
3434.0,0.015290858981821656
3433.0,0.015224642404763285
3432.0,0.015196385023473497
3431.0,0.015223810486687615
3430.0,0.015292130729626648
3429.0,0.015373390403022488
3428.0,0.015446464880910341
3427.0,0.01549980556312227
3426.0,0.015526267566517923
3425.0,0.01552547314632028
3424.0,0.015510473494819422
3423.0,0.015502348966570708
3422.0,0.015510465691648365
3421.0,0.015524487819474225
3420.0,0.015533687269892644
3419.0,0.01554526918864332
3418.0,0.015569415800286115
3417.0,0.01559691651606344
3416.0,0.015612163491932212
3415.0,0.015622570659447346
3414.0,0.01565360739128151
3413.0,0.01571257185757396
3412.0,0.015777884535012592
3411.0,0.01583023356057974
3410.0,0.015875991243984436
3409.0,0.015929801439433438
3408.0,0.015989717576029974
3407.0,0.016043438981850233
3406.0,0.01608601203564093
3405.0,0.016116804499137615
3404.0,0.01612690995035988
3403.0,0.016108643843867836
3402.0,0.01607984032258641
3401.0,0.016082004454209195
3400.0,0.01614089750388044
3399.0,0.016233082956610287
3398.0,0.016303365076331806
3397.0,0.016317236925906205
3396.0,0.016288294423970496
3395.0,0.016249980271413608
3394.0,0.016216760221202248
3393.0,0.01618967717136737
3392.0,0.016188016523589772
3391.0,0.016246287194837773
3390.0,0.01636930741140447
3389.0,0.016504972838009804
3388.0,0.01657594022261852
3387.0,0.016539917628566648
3386.0,0.01642001755219769
3385.0,0.01628579237576442
3384.0,0.01620819148907694
3383.0,0.016219115737909556
3382.0,0.016296273575516402
3381.0,0.016383772954359766
3380.0,0.01643752745737872
3379.0,0.016458299171128787
3378.0,0.01648187021675502
3377.0,0.01653863330489004
3376.0,0.01662560831572743
3375.0,0.016710463828915174
3374.0,0.016754272102438794
3373.0,0.016733662029855715
3372.0,0.016654396761927977
3371.0,0.016550702927157275
3370.0,0.016466920767390824
3369.0,0.0164316647710994
3368.0,0.016445049174438675
3367.0,0.016489530250961157
3366.0,0.016549650917458563
3365.0,0.01661873938497672
3364.0,0.016688971973369382
3363.0,0.01674343778421447
3362.0,0.016766199937686903
3361.0,0.016762165754307612
3360.0,0.01675873284584586
3359.0,0.016777510481697667
3358.0,0.01680691678002018
3357.0,0.016814294732727938
3356.0,0.01678737916111132
3355.0,0.016750973756188753
3354.0,0.016735686641752158
3353.0,0.01674488163050628
3352.0,0.0167662417712825
3351.0,0.016802474879890696
3350.0,0.01686654990731663
3349.0,0.01694749460039666
3348.0,0.017005767625009358
3347.0,0.017014268140592304
3346.0,0.01698765959291611
3345.0,0.016961342403113172
3344.0,0.016954301993448277
3343.0,0.016963724204282205
3342.0,0.016984562507070356
3341.0,0.01701646428287657
3340.0,0.017053399965196253
3339.0,0.017081014400141842
3338.0,0.017089799330500716
3337.0,0.01708200075853725
3336.0,0.017060304971489623
3335.0,0.01701861867284301
3334.0,0.01695440799373199
3333.0,0.016887855918161707
3332.0,0.016857601316809138
3331.0,0.016888346822865233
3330.0,0.016961635947764023
3329.0,0.017025742079298033
3328.0,0.0170402740430991
3327.0,0.017009120995283976
3326.0,0.016966320266867063
3325.0,0.016936704610710944
3324.0,0.01691994955495438
3323.0,0.016907002981785314
3322.0,0.016896526014350086
3321.0,0.01689290347926984
3320.0,0.01689978413013697
3319.0,0.01692002252503287
3318.0,0.016953238375373277
3317.0,0.016987017583886842
3316.0,0.016997623382980876
3315.0,0.01696891174819859
3314.0,0.016912224993338398
3313.0,0.01686394800222947
3312.0,0.01685813893336193
3311.0,0.01689507140958825
3310.0,0.01693391680067063
3309.0,0.016923525427982696
3308.0,0.016852564700413835
3307.0,0.016767727130691565
3306.0,0.016730981425078503
3305.0,0.016759800352388218
3304.0,0.01681740985616446
3303.0,0.016856974133516233
3302.0,0.01686200958778146
3301.0,0.01684454151374256
3300.0,0.01682342668279255
3299.0,0.01681745124546542
3298.0,0.016845165965013748
3297.0,0.016909796678204494
3296.0,0.016983900086726098
3295.0,0.01702251376125404
3294.0,0.016999867611376084
3293.0,0.01693489767448537
3292.0,0.01688099312356873
3291.0,0.016886108927094363
3290.0,0.01695501866877133
3289.0,0.017046128212084035
3288.0,0.017107499774528936
3287.0,0.017117799486264546
3286.0,0.01709000926647156
3285.0,0.01703995694154375
3284.0,0.01696636444863989
3283.0,0.016867323552789335
3282.0,0.016762817137904826
3281.0,0.01668522283470621
3280.0,0.016646634543910993
3279.0,0.01662477736773283
3278.0,0.016584755456847868
3277.0,0.01651302423445184
3276.0,0.016430383182942213
3275.0,0.016372933285944774
3274.0,0.016359373906577938
3273.0,0.01637851220950795
3272.0,0.01641031387613636
3271.0,0.016450509562302876
3270.0,0.01650220033414395
3269.0,0.016548039712142894
3268.0,0.01655345351963289
3267.0,0.016509304380656852
3266.0,0.016456190013660804
3265.0,0.01644570745628115
3264.0,0.01647975879340053
3263.0,0.01650399018267991
3262.0,0.01646594229597036
3261.0,0.016369172728540122
3260.0,0.0162628360981386
3259.0,0.016186370432173938
3258.0,0.016136541494470545
3257.0,0.01608816988481876
3256.0,0.016034020736282368
3255.0,0.0159941075759996
3254.0,0.015985689136894066
3253.0,0.015997257687259632
3252.0,0.01600351924972297
3251.0,0.015997449816197787
3250.0,0.015991192278043728
3249.0,0.015986279836805957
3248.0,0.01596207233751317
3247.0,0.01590472309151634
3246.0,0.015834981162732725
3245.0,0.01578867549189104
3244.0,0.015773266119718635
3243.0,0.015762605481038316
3242.0,0.015735644420116296
3241.0,0.015700720066722476
3240.0,0.015673577343107186
3239.0,0.015645252603375646
3238.0,0.01558851187816028
3237.0,0.01549622702349546
3236.0,0.015400688346811246
3235.0,0.015348076104877224
3234.0,0.01535584136966044
3233.0,0.015399397538906467
3232.0,0.015438318630604502
3231.0,0.015447466057971461
3230.0,0.015421501119456282
3229.0,0.015362773438502893
3228.0,0.015281410516959172
3227.0,0.015204949287185954
3226.0,0.015166332026220666
3225.0,0.015169568868452974
3224.0,0.015179637249723349
3223.0,0.015160209380597808
3222.0,0.015116282834362373
3221.0,0.01508662740315889
3220.0,0.015093414841980672
3219.0,0.01511062404945198
3218.0,0.015090106662494635
3217.0,0.015014528260108233
3216.0,0.014920857566742277
3215.0,0.014874002138892676
3214.0,0.014908819116064908
3213.0,0.014989897173093562
3212.0,0.015039571684221056
3211.0,0.015015556099996667
3210.0,0.01495296779620053
3209.0,0.014918989424853844
3208.0,0.014933205955034806
3207.0,0.01495151504580158
3206.0,0.014925482138720029
3205.0,0.014854231706270832
3204.0,0.014774654708754987
3203.0,0.01472027258360879
3202.0,0.014698074424677656
3201.0,0.014689537753389603
3200.0,0.014663498883678527
3199.0,0.014602634379303755
3198.0,0.01452992440722434
3197.0,0.014494652882428637
3196.0,0.01451631489671763
3195.0,0.014556031655892938
3194.0,0.014558815609081486
3193.0,0.014511955463684913
3192.0,0.014445989242893326
3191.0,0.014389162711679816
3190.0,0.01434399097460565
3189.0,0.014306988713343453
3188.0,0.014284717687602734
3187.0,0.014276743822388117
3186.0,0.01426082174156651
3185.0,0.014213486700729094
3184.0,0.014139566569781006
3183.0,0.014067477800497233
3182.0,0.014016528423981225
3181.0,0.013980083397129969
3180.0,0.013942265844031295
3179.0,0.013901766328231292
3178.0,0.013871542236397229
3177.0,0.013857725061733876
3176.0,0.013846376909090165
3175.0,0.01381362999268829
3174.0,0.013746059494798242
3173.0,0.013652349767264819
3172.0,0.013559245492525157
3171.0,0.013494836845233584
3170.0,0.013468162306413373
3169.0,0.013458728631687941
3168.0,0.013429743599029816
3167.0,0.013360282432545084
3166.0,0.013267117635642228
3165.0,0.013191325233995889
3164.0,0.013162552793786742
3163.0,0.013177144503178653
3162.0,0.01320552470636803
3161.0,0.013213314395358791
3160.0,0.01317871515285389
3159.0,0.013101982482456632
3158.0,0.013003356634990332
3157.0,0.01290769457590913
3156.0,0.012828926789554773
3155.0,0.012772044767372363
3154.0,0.012745802761760822
3153.0,0.012761234346902187
3152.0,0.012812958819316097
3151.0,0.01286901959307488
3150.0,0.012887053582296741
3149.0,0.012843662870408137
3148.0,0.012750944000573302
3147.0,0.012646741226538558
3146.0,0.012564755522228497
3145.0,0.01250850599908409
3144.0,0.012457868383605061
3143.0,0.01240593670316479
3142.0,0.012378234290832141
3141.0,0.012401030611883069
3140.0,0.012455966421537727
3139.0,0.012485429712208809
3138.0,0.012450394137982816
3137.0,0.01236915716066082
3136.0,0.01229084972011888
3135.0,0.01224547234063746
3134.0,0.012229106743213137
3133.0,0.012221821066435809
3132.0,0.012204001947447318
3131.0,0.012164336799362838
3130.0,0.012108422702746854
3129.0,0.012057117132400968
3128.0,0.012022410397827438
3127.0,0.011984955907760934
3126.0,0.011910047481359362
3125.0,0.011787630915043909
3124.0,0.01164727327713303
3123.0,0.011534144543787393
3122.0,0.011475899303099132
3121.0,0.011470959279301803
3120.0,0.011496403709212394
3119.0,0.011518278826872138
3118.0,0.01150455272061026
3117.0,0.01144573398806228
3116.0,0.01136630703978434
3115.0,0.011307393909830252
3114.0,0.011291207618404889
3113.0,0.011302118443845946
3112.0,0.011306010892294186
3111.0,0.011287887120261004
3110.0,0.01126473078624011
3109.0,0.011259391430588208
3108.0,0.011269442015951465
3107.0,0.011271302443540321
3106.0,0.011251051597288203
3105.0,0.01121722842901226
3104.0,0.011184528624518665
3103.0,0.011159550401335736
3102.0,0.011144945609105318
3101.0,0.011143714328358083
3100.0,0.011150631550455339
3099.0,0.01114725642561778
3098.0,0.011118148360076466
3097.0,0.011072148792299282
3096.0,0.011038392170269576
3095.0,0.011037093004762513
3094.0,0.01105845792760455
3093.0,0.011074263922518398
3092.0,0.011065778703521127
3091.0,0.011037348866165303
3090.0,0.011005024113323783
3089.0,0.010975535849312634
3088.0,0.010939292277248274
3087.0,0.010884425931432013
3086.0,0.01081498579249078
3085.0,0.010748813902474962
3084.0,0.0106971134114247
3083.0,0.010653822891553658
3082.0,0.010608883170217968
3081.0,0.01056631020053471
3080.0,0.010540648779294885
3079.0,0.010536508077316948
3078.0,0.010541299565675732
3077.0,0.010539093211350648
3076.0,0.010522267955684393
3075.0,0.010489545781975852
3074.0,0.010444110426267724
3073.0,0.010398186710732855
3072.0,0.010368245047090299
3071.0,0.010356750022312337
3070.0,0.010346023287154966
3069.0,0.010321922579779427
3068.0,0.01029872104637815
3067.0,0.010302751693289763
3066.0,0.010331928323467842
3065.0,0.010351186819714331
3064.0,0.01033639227534287
3063.0,0.010305307345394383
3062.0,0.010288438762283837
3061.0,0.01028545458752829
3060.0,0.010269875236239292
3059.0,0.010229011702124159
3058.0,0.010181104325817817
3057.0,0.01014998958762059
3056.0,0.010137985966632198
3055.0,0.010128264179879767
3054.0,0.010102633849326826
3053.0,0.01005250664578535
3052.0,0.009984547831551109
3051.0,0.009923090511957836
3050.0,0.009896134990311872
3049.0,0.009908963228200477
3048.0,0.009935171502733799
3047.0,0.009940959883946573
3046.0,0.009912906134028676
3045.0,0.00985822830280682
3044.0,0.009788821206243392
3043.0,0.009714676456920096
3042.0,0.00965016860581458
3041.0,0.009613560304453725
3040.0,0.00961342596197115
3039.0,0.009637991388448395
3038.0,0.009659240503710928
3037.0,0.009648891593243393
3036.0,0.00959516728485859
3035.0,0.009510644885656774
3034.0,0.009425136135094336
3033.0,0.009366128772829772
3032.0,0.009342677318105907
3031.0,0.00934644764525792
3030.0,0.009365364284713795
3029.0,0.00939260109803959
3028.0,0.009422854265404517
3027.0,0.009448302664650868
3026.0,0.009462427491237694
3025.0,0.009462048409177434
3024.0,0.009442757527284188
3023.0,0.009397423209628037
3022.0,0.00932445195470271
3021.0,0.009235783764083775
3020.0,0.009149491872785968
3019.0,0.00907372512296081
3018.0,0.009004564855972475
3017.0,0.008943397253917506
3016.0,0.008909663694502372
3015.0,0.008923269647873093
3014.0,0.008974018471334524
3013.0,0.00901868927186693
3012.0,0.009017529993807576
3011.0,0.008972762604270313
3010.0,0.008926035581052186
3009.0,0.00892212666414076
3008.0,0.008974787825282873
3007.0,0.009060230488930149
3006.0,0.009135900368435873
3005.0,0.009169591500112508
3004.0,0.009162243675995125
3003.0,0.009141403389069012
3002.0,0.009130173306334687
3001.0,0.009127414433213372
3000.0,0.009122253642451394
2999.0,0.009117730455074538
2998.0,0.00912738862926271
2997.0,0.009154820980352342
2996.0,0.009190071544495812
2995.0,0.009225248004792049
2994.0,0.009260187598616444
2993.0,0.009293192024899186
2992.0,0.00932211315254237
2991.0,0.009358852824231932
2990.0,0.00942821516552736
2989.0,0.009543324373830065
2988.0,0.009691520785723754
2987.0,0.009852447995468588
2986.0,0.010021525805484077
2985.0,0.010208147081340631
2984.0,0.010418625784964502
2983.0,0.010652063480855838
2982.0,0.01091025302917132
2981.0,0.011204949647538156
2980.0,0.011556067567116066
2979.0,0.01198436685695934
2978.0,0.012500059001866848
2977.0,0.013096596059922309
2976.0,0.013764216699693101
2975.0,0.014514996390894663
2974.0,0.01538906408894446
2973.0,0.0164307820093284
2972.0,0.017666586652422253
2971.0,0.019105587412975304
2970.0,0.020744539038148237
2969.0,0.022561376481281516
2968.0,0.024518599629472764
2967.0,0.02658902912015772
2966.0,0.028768579382324508
2965.0,0.031044176704282944
2964.0,0.03334390515395128
2963.0,0.03552720133810057
2962.0,0.03742650996535572
2961.0,0.03890647736956544
2960.0,0.039906670718029
2959.0,0.040458171033418894
2958.0,0.04068319551735479
2957.0,0.04077132872760291
2956.0,0.040924802699145675
2955.0,0.041298470172716865
2954.0,0.04194935954249569
2953.0,0.04280563658781065
2952.0,0.04366217975415555
2951.0,0.04422921676968141
2950.0,0.04423989815354971
2949.0,0.04354740176979921
2948.0,0.04215739087161286
2947.0,0.040190284128303805
2946.0,0.037839346114149144
2945.0,0.03535247182094282
2944.0,0.03299178187106657
2943.0,0.030961723747908947
2942.0,0.029361189721845905
2941.0,0.028203003542908174
2940.0,0.027467377446024347
2939.0,0.027133463301638235
2938.0,0.02717853162303325
2937.0,0.027571323215005054
2936.0,0.028275254063399223
2935.0,0.029254845086611803
2934.0,0.030478088940355856
2933.0,0.03192343082723494
2932.0,0.03358429194338993
2931.0,0.03545569020434787
2930.0,0.03750952602094929
2929.0,0.039686438870152975
2928.0,0.04191857110015444
2927.0,0.04415061771690369
2926.0,0.04634186491610698
2925.0,0.04847271077920403
2924.0,0.050556551904867554
2923.0,0.05261981147389027
2922.0,0.05464799499106643
2921.0,0.05654674203022349
2920.0,0.058157717762312065
2919.0,0.059299322340153525
2918.0,0.05979950216000927
2917.0,0.05954005064054755
2916.0,0.05851951704129244
2915.0,0.05688410128644352
2914.0,0.05487955708603623
2913.0,0.052770448285456836
2912.0,0.05077006489785355
2911.0,0.049002400668957745
2910.0,0.04750151003355442
2909.0,0.04623462622968445
2908.0,0.045140958249040755
2907.0,0.04415526436064653
2906.0,0.04321040905859125
2905.0,0.042233229632855675
2904.0,0.0411607324408939
2903.0,0.03997594125637348
2902.0,0.03871832265601181
2901.0,0.03745187986252534
2900.0,0.03621498479531257
2899.0,0.03501408907314563
2898.0,0.03385736678715582
2897.0,0.032779606293779996
2896.0,0.031827347456900676
2895.0,0.03102053889536708
2894.0,0.030343656279438545
2893.0,0.029770381973994405
2892.0,0.02928796595420012
2891.0,0.028895393771043984
2890.0,0.028588425739109496
2889.0,0.028356537268501028
2888.0,0.02818896888411302
2887.0,0.02807450184551207
2886.0,0.027998277925186853
2885.0,0.027954140135103434
2884.0,0.02796691414041479
2883.0,0.028085534038577897
2882.0,0.02833031117503603
2881.0,0.02864728843778036
2880.0,0.02892760524896011
2879.0,0.02907871659057977
2878.0,0.029073164667503343
2877.0,0.028937150355632414
2876.0,0.02872266459531992
2875.0,0.02849843646374521
2874.0,0.02834571060488498
2873.0,0.028332945361505393
2872.0,0.028482755510230634
2871.0,0.028768819453314012
2870.0,0.0291351211562154
2869.0,0.029504564884717338
2868.0,0.029773153564782127
2867.0,0.029817556172548818
2866.0,0.029527957089039658
2865.0,0.028848551907419036
2864.0,0.027811234341225705
2863.0,0.026549251379803535
2862.0,0.02526270367799957
2861.0,0.024144585043039842
2860.0,0.023307667817939352
2859.0,0.02277667813495561
2858.0,0.02253569559612238
2857.0,0.022565044090624355
2856.0,0.02283915046849943
2855.0,0.023321194078885773
2854.0,0.0239713697088317
2853.0,0.02473799897946655
2852.0,0.025530003252952755
2851.0,0.026213812943661124
2850.0,0.026668155073889838
2849.0,0.02685324246551026
2848.0,0.026835639530839464
2847.0,0.026760783930482528
2846.0,0.02679666393771193
2845.0,0.02707630259346298
2844.0,0.027648201365480476
2843.0,0.028459883518844112
2842.0,0.0293866577280939
2841.0,0.030284092034719108
2840.0,0.03101316051807742
2839.0,0.031435617584097734
2838.0,0.031418802836217265
2837.0,0.030870226512897447
2836.0,0.029788762599058632
2835.0,0.02828531992342829
2834.0,0.026543094940309615
2833.0,0.024747354948240926
2832.0,0.023024594462371168
2831.0,0.021443462880255646
2830.0,0.02005499928432733
2829.0,0.01890346510841991
2828.0,0.017994016345069308
2827.0,0.017275365697984754
2826.0,0.016677231705446764
2825.0,0.016159383086097993
2824.0,0.015713234756371663
2823.0,0.015328941204074298
2822.0,0.014987767664492821
2821.0,0.014682325747124407
2820.0,0.014421450372679272
2819.0,0.014205428338162348
2818.0,0.014010676190286998
2817.0,0.013809114772590156
2816.0,0.013596046332375794
2815.0,0.013394473819010301
2814.0,0.01323372352520812
2813.0,0.013122864545038249
2812.0,0.013042921878274164
2811.0,0.01296240431085182
2810.0,0.012860875379956272
2809.0,0.012738892722325973
2808.0,0.012605737244395461
2807.0,0.012465971235652911
2806.0,0.01232213933945878
2805.0,0.012180922661765034
2804.0,0.012047844520150544
2803.0,0.011920597714110458
2802.0,0.011795729239619364
2801.0,0.011678105227998786
2800.0,0.011576068817789536
2799.0,0.01149113111759766
2798.0,0.011419914099470144
2797.0,0.011360073459925712
2796.0,0.011305062533874949
2795.0,0.011239359568886545
2794.0,0.011152311858654312
2793.0,0.011054507791733325
2792.0,0.010966787646229086
2791.0,0.01089423984154663
2790.0,0.010823555478945745
2789.0,0.010745059210644985
2788.0,0.01066256148355858
2787.0,0.01057974534904908
2786.0,0.010493022268470667
2785.0,0.010403850207794538
2784.0,0.010323736015263228
2783.0,0.010258247814732557
2782.0,0.010198039067459861
2781.0,0.010135028424164954
2780.0,0.01007677518468083
2779.0,0.01003376884142441
2778.0,0.010001480295087413
2777.0,0.009967256062481182
2776.0,0.009928469890107464
2775.0,0.0098911206929053
2774.0,0.00985477073423897
2773.0,0.009814166313373871
2772.0,0.009775862787332536
2771.0,0.009756690139995848
2770.0,0.009758974177518085
2769.0,0.009759049959927024
2768.0,0.009730684574127327
2767.0,0.009675859167416897
2766.0,0.009623237528846796
2765.0,0.009597430783809927
2764.0,0.00959605823408733
2763.0,0.009597384903425788
2762.0,0.009584317274296886
2761.0,0.009556423089469001
2760.0,0.009524042894240687
2759.0,0.0094969059804061
2758.0,0.009478867230616087
2757.0,0.009469861200140957
2756.0,0.009467453596148975
2755.0,0.009465354904706437
2754.0,0.009454796390908217
2753.0,0.009431608858798119
2752.0,0.009401539823847383
2751.0,0.009375153839780423
2750.0,0.009356441243494815
2749.0,0.009338187578605075
2748.0,0.009311741422461987
2747.0,0.009281235337632723
2746.0,0.009263774807620731
2745.0,0.009272228710220091
2744.0,0.009298390641714381
2743.0,0.00931759683895217
2742.0,0.009312914235251237
2741.0,0.009292765478084001
2740.0,0.009283109143601597
2739.0,0.00930303388145371
2738.0,0.009348353058685335
2737.0,0.009396464233473777
2736.0,0.00942402802856691
2735.0,0.00942341319333262
2734.0,0.009406248588566143
2733.0,0.009392159818775685
2732.0,0.00939161959289355
2731.0,0.009399379228792077
2730.0,0.009406205920843989
2729.0,0.009413595877529247
2728.0,0.009431553651003906
2727.0,0.009462831983919673
2726.0,0.009497696867777641
2725.0,0.009527229439428955
2724.0,0.009552654445633198
2723.0,0.0095760306618604
2722.0,0.009589014631824475
2721.0,0.009579459293817276
2720.0,0.009546407182999725
2719.0,0.009499555381003846
2718.0,0.009445692129918462
2717.0,0.009384695245770366
2716.0,0.00931891700090746
2715.0,0.009257052755587058
2714.0,0.009205242728690876
2713.0,0.009160968523435039
2712.0,0.009120186744907622
2711.0,0.009085517838411366
2710.0,0.009061992202781552
2709.0,0.009047662160717165
2708.0,0.009033447409867472
2707.0,0.009012547278783357
2706.0,0.008987196978075256
2705.0,0.008966257697658804
2704.0,0.008956619235052504
2703.0,0.008955434664444923
2702.0,0.008950861235040394
2701.0,0.008932674106000878
2700.0,0.008902237471886528
2699.0,0.008869467729154966
2698.0,0.008841566620647284
2697.0,0.00882007980576465
2696.0,0.008808269758216837
2695.0,0.00881216538649333
2694.0,0.008828785579873029
2693.0,0.008840446646319165
2692.0,0.008828704895758955
2691.0,0.008792649140904024
2690.0,0.008748108379860505
2689.0,0.008711018793649168
2688.0,0.008686310914165992
2687.0,0.008670040211058964
2686.0,0.008656251301567804
2685.0,0.008642297617292877
2684.0,0.008632382413744928
2683.0,0.008635059416319408
2682.0,0.0086527948727431
2681.0,0.008675028217811317
2680.0,0.008686366204039835
2679.0,0.008680374375870574
2678.0,0.008661532709346617
2677.0,0.008637063108177063
2676.0,0.008613993414267345
2675.0,0.00860225972693711
2674.0,0.00860997899858056
2673.0,0.008631485325558335
2672.0,0.008646657551447319
2671.0,0.00863878282727144
2670.0,0.0086122906124278
2669.0,0.008591101055085789
2668.0,0.008598760274643737
2667.0,0.008638405540129243
2666.0,0.008687865590224376
2665.0,0.008715884007373777
2664.0,0.008708585364751947
2663.0,0.008680922231054699
2662.0,0.008658977986751297
2661.0,0.008651018739998954
2660.0,0.00864175226357355
2659.0,0.008614836340706549
2658.0,0.008573655966209806
2657.0,0.008535319006159944
2656.0,0.008508275464386405
2655.0,0.008481896193280412
2654.0,0.008438642637605517
2653.0,0.00837569537267499
2652.0,0.008312858970515941
2651.0,0.008275038187084898
2650.0,0.008263680979835177
2649.0,0.0082502686030147
2648.0,0.008206197798086203
2647.0,0.008136231940152592
2646.0,0.008072911057591293
2645.0,0.008037967048075792
2644.0,0.00801975695089207
2643.0,0.00799129894265146
2642.0,0.007940767360145245
2641.0,0.007880314025750453
2640.0,0.007834536054922974
2639.0,0.007824025180896714
2638.0,0.00785010665377511
2637.0,0.007889461856797597
2636.0,0.007911540389980086
2635.0,0.007907530902482657
2634.0,0.007893008541023237
2633.0,0.007877223111926976
2632.0,0.007844062554565583
2631.0,0.007775696148524908
2630.0,0.0076863141093337015
2629.0,0.007616677570704996
2628.0,0.007595798086966676
2627.0,0.007618313480196176
2626.0,0.0076558011165562285
2625.0,0.007679579812060133
2624.0,0.007674942919998916
2623.0,0.007643748968370447
2622.0,0.007597206863935162
2621.0,0.00754414847170953
2620.0,0.007488688741143584
2619.0,0.007440652313734496
2618.0,0.007417567258766409
2617.0,0.007427393936453615
2616.0,0.007457361193937443
2615.0,0.007489156520651814
2614.0,0.0075166074629080815
2613.0,0.0075363973794999334
2612.0,0.007531480652407545
2611.0,0.007482610973359156
2610.0,0.007395730779961756
2609.0,0.007302279018286648
2608.0,0.007229999008592197
2607.0,0.0071850046419920065
2606.0,0.007161385973030395
2605.0,0.00715304533355776
2604.0,0.007153642057471831
2603.0,0.007157009063153249
2602.0,0.007161980988265912
2601.0,0.007168832132428851
2600.0,0.007171222828987144
2599.0,0.0071620313559052455
2598.0,0.007146422770550978
2597.0,0.007136160957421806
2596.0,0.007128287363241722
2595.0,0.00710178046840341
2594.0,0.007040959898720171
2593.0,0.006955222780358461
2592.0,0.006875732815987603
2591.0,0.006839539104989011
2590.0,0.00687154033060448
2589.0,0.006963124320704247
2588.0,0.0070644976356685745
2587.0,0.0071182232869933075
2586.0,0.007111047768873099
2585.0,0.0070821881293767035
2584.0,0.007075450781457297
2583.0,0.0070963915480916386
2582.0,0.007123864113444178
2581.0,0.007145434722470274
2580.0,0.0071612070503500845
2579.0,0.0071635632462499575
2578.0,0.0071383553543466725
2577.0,0.00708901631233993
2576.0,0.007040569325341049
2575.0,0.007011180481689739
2574.0,0.006991352603707365
2573.0,0.006959518625851362
2572.0,0.006909621260133874
2571.0,0.006853447238199863
2570.0,0.006802618772621038
2569.0,0.006761513306389867
2568.0,0.006735996972569401
2567.0,0.006734734448781171
2566.0,0.006756308104504503
2565.0,0.006785265397931976
2564.0,0.006808425139707239
2563.0,0.006826534099561597
2562.0,0.006841654057970405
2561.0,0.00684416339514256
2560.0,0.006827245918262557
2559.0,0.006805143491576505
2558.0,0.006795638119047964
2557.0,0.006787408553486262
2556.0,0.006751777372578897
2555.0,0.006693683188230614
2554.0,0.006661589023803833
2553.0,0.006686010295885295
2552.0,0.006729612674950591
2551.0,0.006726145799531947
2550.0,0.00665984275673949
2549.0,0.00658059753452998
2548.0,0.0065428629269537915
2547.0,0.006555142185300303
2546.0,0.0065924450536689
2545.0,0.006632270231268004
2544.0,0.006665399233611568
2543.0,0.006686995164037554
2542.0,0.006692736409527358
2541.0,0.0066810160698665775
2540.0,0.006652964144544913
2539.0,0.006613183886490457
2538.0,0.0065715567721281645
2537.0,0.006537637353077242
2536.0,0.006510720636897255
2535.0,0.006481119240262553
2534.0,0.006443122312852444
2533.0,0.006402056851723056
2532.0,0.006368760620655004
2531.0,0.006352289672642494
2530.0,0.00635604379631448
2529.0,0.006373748363432274
2528.0,0.006390853799725928
2527.0,0.006397633376161803
2526.0,0.006398698804578792
2525.0,0.006401126126559282
2524.0,0.0063967703255746675
2523.0,0.006369207096817667
2522.0,0.006319160308555413
2521.0,0.006271109584970213
2520.0,0.0062501740155604755
2519.0,0.0062601957985720345
2518.0,0.0062863052573522826
2517.0,0.006309552173263663
2516.0,0.006316748317966053
2515.0,0.006306888791799874
2514.0,0.006294066524105874
2513.0,0.006297227093193074
2512.0,0.0063217447491537935
2511.0,0.006355479370799066
2510.0,0.006383945091014798
2509.0,0.006400223303187413
2508.0,0.0063967184923592515
2507.0,0.006360573200128505
2506.0,0.006291549627410534
2505.0,0.00622014455091568
2504.0,0.006190748996471344
2503.0,0.006219024390330332
2502.0,0.006273869895847257
2501.0,0.006310611400429652
2500.0,0.006318688166037437
2499.0,0.0063246093960598465
2498.0,0.0063458266235172315
2497.0,0.0063584323241090476
2496.0,0.00632689674647445
2495.0,0.0062582357374730835
2494.0,0.006203797977391299
2493.0,0.006201881881261664
2492.0,0.0062368428296081385
2491.0,0.00626497855205925
2490.0,0.006263330175907975
2489.0,0.00623750209968354
2488.0,0.006196663582400386
2487.0,0.0061441653544985556
2486.0,0.006088790282351899
2485.0,0.006044453485339291
2484.0,0.006016389567256838
2483.0,0.006001796702301748
2482.0,0.006003499131509576
2481.0,0.006026709276064791
2480.0,0.006060545869635937
2479.0,0.006079402708451292
2478.0,0.006068788108156472
2477.0,0.0060385260129257
2476.0,0.00600680538532171
2475.0,0.005983323754443751
2474.0,0.005971848868635113
2473.0,0.005974274376218918
2472.0,0.0059832604986770855
2471.0,0.00598339686811539
2470.0,0.005971262255845438
2469.0,0.005965470857465744
2468.0,0.005983364197995382
2467.0,0.006011717386328197
2466.0,0.006014055600090711
2465.0,0.005969443546585655
2464.0,0.005896744929236987
2463.0,0.005838396172245127
2462.0,0.005825402453944251
2461.0,0.005859056432588592
2460.0,0.005919561477982868
2459.0,0.005984893176976579
2458.0,0.0060400409033549395
2457.0,0.006074295715931376
2456.0,0.006078887204365648
2455.0,0.006051892256560391
2454.0,0.006003048844089838
2453.0,0.005949743616825826
2452.0,0.005907687417059538
2451.0,0.005886362868765962
2450.0,0.005890695349875315
2449.0,0.00592124742947251
2448.0,0.00596978560594118
2447.0,0.006016619066000033
2446.0,0.006037069222030526
2445.0,0.006016957528418926
2444.0,0.005966186848371353
2443.0,0.005914746796146899
2442.0,0.005890186203271265
2441.0,0.005898531196007844
2440.0,0.00592805841479783
2439.0,0.005964996390715974
2438.0,0.005997381296980421
2437.0,0.006010813722923679
2436.0,0.005997430215038067
2435.0,0.005969595908941795
2434.0,0.0059487587090803155
2433.0,0.005938572645838362
2432.0,0.005926151845237454
2431.0,0.005912278085745431
2430.0,0.005915184104197196
2429.0,0.005932479707990608
2428.0,0.005926636872309419
2427.0,0.005872998877445601
2426.0,0.005801758167671071
2425.0,0.005761239704318087
2424.0,0.005752696387507762
2423.0,0.00573788663605149
2422.0,0.0057063168467228675
2421.0,0.005692825215823664
2420.0,0.005718689664059012
2419.0,0.0057530199459495755
2418.0,0.005754129765141965
2417.0,0.005722820820094664
2416.0,0.0056907444505572965
2415.0,0.005674210731775016
2414.0,0.005666600762278888
2413.0,0.005666151505480839
2412.0,0.005681972380940634
2411.0,0.005711570617522267
2410.0,0.005736536226885603
2409.0,0.005749009124621228
2408.0,0.00576636187349059
2407.0,0.005808177393000032
2406.0,0.005867331655369562
2405.0,0.005914935285426374
2404.0,0.005931780220952062
2403.0,0.005926718235050423
2402.0,0.0059216546861450645
2401.0,0.005922891046010355
2400.0,0.0059140162422665135
2399.0,0.005879065420848983
2398.0,0.005824995756674804
2397.0,0.005772315527260259
2396.0,0.005728496420719846
2395.0,0.005686016043663342
2394.0,0.0056475749932197936
2393.0,0.00563320946479908
2392.0,0.0056506471134588
2391.0,0.005674796669589275
2390.0,0.005676562665723475
2389.0,0.005663963200636917
2388.0,0.005670229962198821
2387.0,0.0057006164766913
2386.0,0.005717003803944554
2385.0,0.005686558476154339
2384.0,0.00562772238487216
2383.0,0.005590377841869195
2382.0,0.005598255403397921
2381.0,0.005628530203743995
2380.0,0.005646809773692373
2379.0,0.005642999219605405
2378.0,0.005626266297833448
2377.0,0.0056057889870005945
2376.0,0.005591409731362398
2375.0,0.005592702498729715
2374.0,0.005593301052917615
2373.0,0.005541993373817043
2372.0,0.005409869121582565
2371.0,0.005262115192114463
2370.0,0.005233275991842524
2369.0,0.0054047967199638575
2368.0,0.005707754193211503
2367.0,0.005947791104789253
2366.0,0.005925437588026088
2365.0,0.005579749205891918
2364.0,0.005085589674988553
2363.0,0.004776798489651371
2362.0,0.004881864535232674
2361.0,0.005330103510015767
2360.0,0.005830749483125094
2359.0,0.006123984603374465
2358.0,0.0061396621086223695
2357.0,0.005965865710182147
2356.0,0.005771988859643302
2355.0,0.005724822531557066
2354.0,0.0058832866347811414
2353.0,0.006161783892286094
2352.0,0.006395163568082291
2351.0,0.006475493823283187
2350.0,0.006392884719211714
2349.0,0.006181307365710978
2348.0,0.005903128595941156
2347.0,0.00565562285211496
2346.0,0.005553165805185462
2345.0,0.00560583745654242
2344.0,0.00566165720503777
2343.0,0.005598016964793948
2342.0,0.0054591312366319466
2341.0,0.005363727541876348
2340.0,0.005365770271144561
2339.0,0.005471842853207876
2338.0,0.005668380890768856
2337.0,0.00589067762155015
2336.0,0.00605037403857293
2335.0,0.006135435681650818
2334.0,0.0062283805323814995
2333.0,0.006391072191207472
2332.0,0.006576859143688952
2331.0,0.006682435392891338
2330.0,0.00667591020741942
2329.0,0.006619844786461937
2328.0,0.00661766295397807
2327.0,0.006710871877061543
2326.0,0.006872166763421898
2325.0,0.0070231242397540816
2324.0,0.007103367731455302
2323.0,0.007108174871185728
2322.0,0.007052169824658934
2321.0,0.006930933329023612
2320.0,0.006739798107560686
2319.0,0.006526119075148674
2318.0,0.006358738024047203
2317.0,0.006266886008998182
2316.0,0.006241205048237152
2315.0,0.006263622548678385
2314.0,0.006313051221853767
2313.0,0.006337398905535098
2312.0,0.006299475761288581
2311.0,0.006223857229125607
2310.0,0.0061776676530733736
2309.0,0.0061744457107223575
2308.0,0.006178585529878409
2307.0,0.006172049084401235
2306.0,0.0061802604703853434
2305.0,0.006197904146105437
2304.0,0.0061704759943505124
2303.0,0.006066768718814745
2302.0,0.0059393287845899536
2301.0,0.005860200434692873
2300.0,0.005839278271506524
2299.0,0.00583535911645175
2298.0,0.0058369434100768655
2297.0,0.005864815673866761
2296.0,0.005915664273153201
2295.0,0.005940980284382428
2294.0,0.0059095895736111384
2293.0,0.0058474500338657216
2292.0,0.005809315904680838
2291.0,0.005815170058859609
2290.0,0.005838590041699817
2289.0,0.005845606150247151
2288.0,0.005835136862513285
2287.0,0.0058316879237063695
2286.0,0.005842610154179295
2285.0,0.005841429027460238
2284.0,0.005807580435347668
2283.0,0.005767754521168886
2282.0,0.005767168342451029
2281.0,0.00580368106383855
2280.0,0.0058259714478818515
2279.0,0.005803489573792775
2278.0,0.005758812372892841
2277.0,0.005716181921341827
2276.0,0.005664632888206968
2275.0,0.0056003264732991
2274.0,0.005560513557034845
2273.0,0.005572584680523957
2272.0,0.005603200453019513
2271.0,0.005603171065981405
2270.0,0.005575098689156623
2269.0,0.005550775629198608
2268.0,0.005521475842304753
2267.0,0.00544159024342814
2266.0,0.0052973359299907504
2265.0,0.005137221086081974
2264.0,0.005038891579716935
2263.0,0.005064166199004374
2262.0,0.005220516552211125
2261.0,0.005430841030674796
2260.0,0.005565545308213805
2259.0,0.005554565976665397
2258.0,0.005448124277262239
2257.0,0.005344204241196931
2256.0,0.005278015492486859
2255.0,0.005227073254915637
2254.0,0.0051858164907061
2253.0,0.005171961909956278
2252.0,0.0051746561892975764
2251.0,0.005165840752313393
2250.0,0.005162850603308261
2249.0,0.00522171517844993
2248.0,0.005357759342151184
2247.0,0.005517026834028557
2246.0,0.005628773423773347
2245.0,0.005652007953235624
2244.0,0.005580998203986185
2243.0,0.005454890168171093
2242.0,0.0053574362376099015
2241.0,0.005354330511439336
2240.0,0.0054128706513440865
2239.0,0.005429473048099895
2238.0,0.005352205006959055
2237.0,0.005238307722951325
2236.0,0.005178338635814542
2235.0,0.00519731540451965
2234.0,0.005255745615982247
2233.0,0.00531214953046216
2232.0,0.005354995268587263
2231.0,0.005381392609085459
2230.0,0.005370971735712005
2229.0,0.005299791581965236
2228.0,0.005189071277366276
2227.0,0.005121069052026664
2226.0,0.005170449947616101
2225.0,0.005304963381190348
2224.0,0.005389950825834267
2223.0,0.0053252023766112355
2222.0,0.005145655086289834
2221.0,0.004969687172485368
2220.0,0.004876202238569985
2219.0,0.00486761319956343
2218.0,0.004913615203979177
2217.0,0.004972684613955014
2216.0,0.00498635522363856
2215.0,0.004906476970181367
2214.0,0.004736790171568639
2213.0,0.004530308213131142
2212.0,0.0043633237230685466
2211.0,0.004320246467644523
2210.0,0.0044581485476447155
2209.0,0.004732821537436322
2208.0,0.004997100267320069
2207.0,0.005128878795224882
2206.0,0.005136446580238359
2205.0,0.005114056621120894
2204.0,0.005130816021555131
2203.0,0.005202326210863118
2202.0,0.005308700837133994
2201.0,0.005373379958780618
2200.0,0.005283519925964726
2199.0,0.005016282239267849
2198.0,0.00471339367974269
2197.0,0.004551208739780047
2196.0,0.004553415150860079
2195.0,0.004618871898313285
2194.0,0.004696378805362487
2193.0,0.0048161903268564244
2192.0,0.004965080577191754
2191.0,0.005058085965801835
2190.0,0.0050620546471154566
2189.0,0.005041096204315643
2188.0,0.005041916129358946
2187.0,0.005019231459367208
2186.0,0.004925209059657397
2185.0,0.004797196581632624
2184.0,0.004698817114745955
2183.0,0.004635469716867434
2182.0,0.004592362606123976
2181.0,0.004608838213190212
2180.0,0.004735419109106225
2179.0,0.004933113491676145
2178.0,0.005071055042435852
2177.0,0.005042220746109099
2176.0,0.00487696516665857
2175.0,0.004717106900136841
2174.0,0.004676632536622811
2173.0,0.004754255915306882
2172.0,0.004888154855686054
2171.0,0.005058852481052062
2170.0,0.005270674972515512
2169.0,0.005452690522706274
2168.0,0.005488599975875988
2167.0,0.00538692249338261
2166.0,0.005315540373458628
2165.0,0.005380742984227244
2164.0,0.005443461496583247
2163.0,0.005266818413757122
2162.0,0.004800043674490936
2161.0,0.004228272110012824
2160.0,0.0037787588671313304
2159.0,0.0035636867824723794
2158.0,0.0035940044246336985
2157.0,0.003787783685642732
2156.0,0.0039751563968275965
2155.0,0.004019410284170705
2154.0,0.003945608400492571
2153.0,0.003886380030407078
2152.0,0.003922268519374004
2151.0,0.004025445160901089
2150.0,0.004132442475167459
2149.0,0.004199526695821701
2148.0,0.004205558001587506
2147.0,0.004172412324342963
2146.0,0.004172284208178875
2145.0,0.004254417567055209
2144.0,0.004373184938498754
2143.0,0.004439883216849297
2142.0,0.0044359852092814385
2141.0,0.004426154175930485
2140.0,0.004467167021904101
2139.0,0.004538455590579449
2138.0,0.004560122472399764
2137.0,0.004460191843314895
2136.0,0.00424857610169121
2135.0,0.004042434881259741
2134.0,0.003980808864696492
2133.0,0.0040821678299486465
2132.0,0.004219241866984072
2131.0,0.004259775154911369
2130.0,0.004205727140221272
2129.0,0.004163717591641402
2128.0,0.004218394398017698
2127.0,0.004365811140849308
2126.0,0.004548022898097244
2125.0,0.004698800446478399
2124.0,0.00477293709425752
2123.0,0.004772705733693239
2122.0,0.004748033714094222
2121.0,0.004748057104965049
2120.0,0.004780930164359199
2119.0,0.004833240715699942
2118.0,0.004903138462965144
2117.0,0.004984852328764894
2116.0,0.0050473411587239145
2115.0,0.0050655376624784195
2114.0,0.005058921166858942
2113.0,0.005063740010200325
2112.0,0.005082732057765352
2111.0,0.005094417933710019
2110.0,0.005095339472908618
2109.0,0.005093217503271174
2108.0,0.005073968534570948
2107.0,0.005016282630525332
2106.0,0.004932853408356585
2105.0,0.004862724693338615
2104.0,0.004828248705272778
2103.0,0.004828540583266609
2102.0,0.004862184687627399
2101.0,0.004924622806132712
2100.0,0.004995055248698208
2099.0,0.005054059030560881
2098.0,0.005094839904080451
2097.0,0.005095459851367484
2096.0,0.0050176624177943555
2095.0,0.004871525480392677
2094.0,0.004743048964101485
2093.0,0.004710118633836089
2092.0,0.004757113426696866
2091.0,0.004818051989554129
2090.0,0.004864680352837479
2089.0,0.0049020166005667425
2088.0,0.00490883051356382
2087.0,0.00485578965647346
2086.0,0.004766731430365698
2085.0,0.0046929662692069465
2084.0,0.004632047003333482
2083.0,0.004540683372729595
2082.0,0.0044331814772672765
2081.0,0.0043988849253478466
2080.0,0.004499273636526016
2079.0,0.0046955079926012805
2078.0,0.004890039685419419
2077.0,0.004996534694213897
2076.0,0.004972512925500116
2075.0,0.004842897870741022
2074.0,0.004699117258300015
2073.0,0.004630948621685302
2072.0,0.004643451533835095
2071.0,0.004672763561706297
2070.0,0.004681214621649872
2069.0,0.004682606115685723
2068.0,0.004688114701479336
2067.0,0.004691212465909949
2066.0,0.004707547719273948
2065.0,0.004761246864918841
2064.0,0.004815502254623411
2063.0,0.004787739115659873
2062.0,0.004657017124547796
2061.0,0.004499590676955647
2060.0,0.004404654322253437
2059.0,0.004394536378791858
2058.0,0.004436316666523666
2057.0,0.004488628851811277
2056.0,0.004521077436391314
2055.0,0.004532707988881329
2054.0,0.0045605981342847655
2053.0,0.004632094131212064
2052.0,0.00471277749409858
2051.0,0.0047451069497163306
2050.0,0.00473728385447351
2049.0,0.004762083244650706
2048.0,0.0048463996233035775
2047.0,0.004927330747877311
2046.0,0.004942342511007025
2045.0,0.004893598833511227
2044.0,0.004811833531735348
2043.0,0.004709766446300161
2042.0,0.0045913740801856754
2041.0,0.004468697486709935
2040.0,0.004361652367276282
2039.0,0.004312045236023009
2038.0,0.004372080805724747
2037.0,0.004518657020630161
2036.0,0.004612382881609717
2035.0,0.00453711199036351
2034.0,0.004352183465943877
2033.0,0.004212999829747459
2032.0,0.004164109203424288
2031.0,0.004119257882811031
2030.0,0.004015787578160792
2029.0,0.003863893116392918
2028.0,0.0036815051879443067
2027.0,0.0035097796784390317
2026.0,0.0034745146815921848
2025.0,0.003679075519443878
2024.0,0.004012214724551218
2023.0,0.0042077870440185555
2022.0,0.004122645453380833
2021.0,0.003852869861697422
2020.0,0.003585450778112203
2019.0,0.003438853691053687
2018.0,0.0034634454132237732
2017.0,0.0036576280669048536
2016.0,0.003930099713711688
2015.0,0.004157359884418236
2014.0,0.004290509295965367
2013.0,0.004341599603175679
2012.0,0.004311631905395968
2011.0,0.004208169849014819
2010.0,0.004107057703196414
2009.0,0.004098317650889985
2008.0,0.004160077391510566
2007.0,0.004185968500752596
2006.0,0.004143616694404702
2005.0,0.004100675237298921
2004.0,0.004104637017205583
2003.0,0.004131155003450813
2002.0,0.004146099558612628
2001.0,0.0041352124495133615
2000.0,0.0040834199318973904
1999.0,0.00399958022504283
1998.0,0.003949017304662029
1997.0,0.003995943808040389
1996.0,0.004113935086903752
1995.0,0.0042254092857446565
1994.0,0.004309082628785557
1993.0,0.004395978037327635
1992.0,0.004477698243117121
1991.0,0.004513978284565961
1990.0,0.004526498268528318
1989.0,0.00456815759190019
1988.0,0.004612367839824113
1987.0,0.004577886234403824
1986.0,0.004469525542859013
1985.0,0.0043989050515045895
1984.0,0.004445037407766871
1983.0,0.004577912648798572
1982.0,0.004732159120703559
1981.0,0.004865060413472249
1980.0,0.004923784787101802
1979.0,0.004854663295389944
1978.0,0.004689584434300869
1977.0,0.004548182424332121
1976.0,0.0044965255763524375
1975.0,0.004486664371436929
1974.0,0.004455608758207041
1973.0,0.0043884563176404615
1972.0,0.004277405168885293
1971.0,0.004112594472725944
1970.0,0.003932426063619662
1969.0,0.003805970844919793
1968.0,0.003742641208845052
1967.0,0.003685878436233631
1966.0,0.0036185540909583302
1965.0,0.003592497058221456
1964.0,0.00364132084424945
1963.0,0.00375345161649327
1962.0,0.003918919138709315
1961.0,0.004117268766469389
1960.0,0.004273117718949523
1959.0,0.004309425038333412
1958.0,0.004242403370408747
1957.0,0.004154572400973177
1956.0,0.004083331637598188
1955.0,0.004010304820491859
1954.0,0.0039525430086582575
1953.0,0.003968304756291265
1952.0,0.00405195001177421
1951.0,0.004112339206591647
1950.0,0.004093231032622602
1949.0,0.004040855353883655
1948.0,0.0040245670322647436
1947.0,0.004049858449415762
1946.0,0.004083543564021217
1945.0,0.0041139219674323595
1944.0,0.0041443157751616805
1943.0,0.004161993126771196
1942.0,0.00415443352857295
1941.0,0.004135098780528197
1940.0,0.004116668671364853
1939.0,0.004084259041146937
1938.0,0.004026989651587343
1937.0,0.003967085576792701
1936.0,0.003932370400758258
1935.0,0.003919087668460871
1934.0,0.0039054270916479995
1933.0,0.003889741370413189
1932.0,0.003895710990227919
1931.0,0.003946119956027883
1930.0,0.004043336183038363
1929.0,0.004155174607685759
1928.0,0.004233001684642063
1927.0,0.004254428666657565
1926.0,0.004238243865554072
1925.0,0.0042181758369359236
1924.0,0.004205594535267099
1923.0,0.004204833070660314
1922.0,0.004231023775715153
1921.0,0.004287513673734503
1920.0,0.004338369669353036
1919.0,0.0043385891765120015
1918.0,0.0042966904312538865
1917.0,0.004272262484197815
1916.0,0.0042951210660232145
1915.0,0.004339169411445541
1914.0,0.004366196895463897
1913.0,0.004363747214203027
1912.0,0.004337460462559497
1911.0,0.004289195373658396
1910.0,0.0042175821182886064
1909.0,0.004131506606978014
1908.0,0.0040600435473447044
1907.0,0.004035370946033857
1906.0,0.004060235341181949
1905.0,0.004100326043627338
1904.0,0.004109370814227854
1903.0,0.004087826524257337
1902.0,0.004080066952350864
1901.0,0.004100828182846695
1900.0,0.00410572263321895
1899.0,0.004059286369927771
1898.0,0.003993242805942531
1897.0,0.003973665150022829
1896.0,0.004020528982939321
1895.0,0.004096087521414751
1894.0,0.0041583599203690895
1893.0,0.004189486866329145
1892.0,0.004179711182852835
1891.0,0.004132091730316192
1890.0,0.0040920234376405394
1889.0,0.004113553660079805
1888.0,0.004182273814676258
1887.0,0.004238592470310704
1886.0,0.004250700348583664
1885.0,0.004231561662052761
1884.0,0.004207142307777365
1883.0,0.004186651976173247
1882.0,0.004163417929227624
1881.0,0.004127273470084522
1880.0,0.004080339852371128
1879.0,0.00404208092973341
1878.0,0.004031630161860867
1877.0,0.004046973849301037
1876.0,0.004065217391122989
1875.0,0.004072234660429448
1874.0,0.004080343448432529
1873.0,0.004099952145361172
1872.0,0.004113231445136227
1871.0,0.004095513872708045
1870.0,0.004056845747466381
1869.0,0.0040374035310125215
1868.0,0.004038661764535468
1867.0,0.004033227841078719
1866.0,0.004026383744101593
1865.0,0.004029212268921442
1864.0,0.0040381193778864545
1863.0,0.004054296168618528
1862.0,0.004087746519068198
1861.0,0.004129427227356733
1860.0,0.00414571738036105
1859.0,0.004126455995354608
1858.0,0.004107947173641118
1857.0,0.004120509490560175
1856.0,0.0041423109323509046
1855.0,0.004134634240565772
1854.0,0.004096299438589198
1853.0,0.004050889945170904
1852.0,0.004009100538494734
1851.0,0.003972901477917657
1850.0,0.003945153964833775
1849.0,0.0039319573798226
1848.0,0.003926129658206379
1847.0,0.003919308190549134
1846.0,0.003921252097691601
1845.0,0.003950007357956862
1844.0,0.003985493792704573
1843.0,0.003979500567125595
1842.0,0.003952399214297698
1841.0,0.003944229463760657
1840.0,0.003945943622272769
1839.0,0.00393467072550909
1838.0,0.003917286920589471
1837.0,0.003920713214867097
1836.0,0.003943968348302218
1835.0,0.003965154702530956
1834.0,0.003976148607731588
1833.0,0.003977817059293613
1832.0,0.003958283664795317
1831.0,0.003910366271920305
1830.0,0.0038692562708441012
1829.0,0.0038796267619258112
1828.0,0.0039322825913685145
1827.0,0.003987525555958516
1826.0,0.004018565076844104
1825.0,0.004028551309320677
1824.0,0.004016840376527854
1823.0,0.00398064266313496
1822.0,0.003943796486999307
1821.0,0.00393429832227014
1820.0,0.003953878453729108
1819.0,0.003977025881707839
1818.0,0.003990650959768767
1817.0,0.004005268606039197
1816.0,0.004015534435262679
1815.0,0.004005757540532925
1814.0,0.003982179718762529
1813.0,0.003970086703356087
1812.0,0.003980487366068901
1811.0,0.003991803799572499
1810.0,0.003996575507207839
1809.0,0.004014905346872535
1808.0,0.004048519404126492
1807.0,0.004076594629195296
1806.0,0.004092996844779989
1805.0,0.00411277541606031
1804.0,0.00414276688387935
1803.0,0.004172177519714931
1802.0,0.004188895750313579
1801.0,0.004188630651673116
1800.0,0.004172401157513414
1799.0,0.004143547819356773
1798.0,0.004124293967579231
1797.0,0.0041327807507187545
1796.0,0.004166574398986673
1795.0,0.0042150458672008
1794.0,0.004274639709039779
1793.0,0.004340655686000948
1792.0,0.004374211359319691
1791.0,0.004332885445671615
1790.0,0.0042658894003562865
1789.0,0.004235611695046067
1788.0,0.004243021267693426
1787.0,0.004261207070481058
1786.0,0.004270063344606462
1785.0,0.004257601491391911
1784.0,0.004216278430689995
1783.0,0.004160757086266964
1782.0,0.004118896250795195
1781.0,0.004105763818878786
1780.0,0.004116815551470893
1779.0,0.004124910743401738
1778.0,0.004125538082735425
1777.0,0.004125709028140124
1776.0,0.0041259249660774155
1775.0,0.00411512821632314
1774.0,0.004076560876088511
1773.0,0.004028764967533266
1772.0,0.004012906098834798
1771.0,0.004026894403660531
1770.0,0.004071911300664794
1769.0,0.004143859131307648
1768.0,0.004202008228098758
1767.0,0.004212187555595427
1766.0,0.004192735108730673
1765.0,0.0041926854624097344
1764.0,0.004227282003187432
1763.0,0.004269895435178525
1762.0,0.0042875116787408855
1761.0,0.004271967032844375
1760.0,0.004256703975224451
1759.0,0.004267660421496542
1758.0,0.004308361694228731
1757.0,0.004362522740411448
1756.0,0.004401199753063125
1755.0,0.004408510761568074
1754.0,0.004399827464725835
1753.0,0.004390820997620357
1752.0,0.0043954797715151156
1751.0,0.004424370949772517
1750.0,0.00447342404637472
1749.0,0.004549199634336255
1748.0,0.0046406454220181935
1747.0,0.004714161094640796
1746.0,0.0047529393207498384
1745.0,0.0047751401726965305
1744.0,0.00480000461598876
1743.0,0.004817158539580835
1742.0,0.0048193546564171425
1741.0,0.004822155530082313
1740.0,0.00483303289091785
1739.0,0.004833630987240201
1738.0,0.0048313804791706655
1737.0,0.0048556498826169
1736.0,0.0048834649280489065
1735.0,0.004890699956522114
1734.0,0.00490888267111267
1733.0,0.004913150330640507
1732.0,0.004916100919076137
1731.0,0.004947656318639004
1730.0,0.004982810314636227
1729.0,0.005001935376938862
1728.0,0.0050028165189432506
1727.0,0.004988928901311476
1726.0,0.004965411488238728
1725.0,0.0049540731128070266
1724.0,0.004975258663257261
1723.0,0.005012997478295576
1722.0,0.005054525956526717
1721.0,0.005104536644230279
1720.0,0.005151622649413352
1719.0,0.005165890475456981
1718.0,0.005166921923384118
1717.0,0.005193385038592173
1716.0,0.005220672068441496
1715.0,0.005247061239312409
1714.0,0.0052911362704007306
1713.0,0.005349349138072822
1712.0,0.005398946359032642
1711.0,0.0054246899334575585
1710.0,0.0054314567753167104
1709.0,0.0054315219654510515
1708.0,0.0054340816840883835
1707.0,0.005445173033547605
1706.0,0.005486251997590357
1705.0,0.005569003604319002
1704.0,0.005660558002353747
1703.0,0.005744355004621517
1702.0,0.005803637772218622
1701.0,0.005875154486169906
1700.0,0.0059817878414591685
1699.0,0.006016792881866978
1698.0,0.006036453691974383
1697.0,0.006146838148588022
1696.0,0.006335987198288897
1695.0,0.0064814456720035055
1694.0,0.0065645773045698245
1693.0,0.006665983374184254
1692.0,0.006783373293219098
1691.0,0.006884176904090586
1690.0,0.00697469582498202
1689.0,0.007072441320755322
1688.0,0.007164008379459142
1687.0,0.0072168830637047605
1686.0,0.007207030405990737
1685.0,0.007255887871180531
1684.0,0.007496346924410594
1683.0,0.007716293709238186
1682.0,0.007858430239412859
1681.0,0.00799721950357588
1680.0,0.00813556733184843
1679.0,0.008262125720179047
1678.0,0.008378388965168394
1677.0,0.00850005100895646
1676.0,0.008639400552859883
1675.0,0.008762671770592824
1674.0,0.008815108647016604
1673.0,0.008837573987303818
1672.0,0.0088972072603784
1671.0,0.009013488664198988
1670.0,0.009198028323459862
1669.0,0.009391406153683547
1668.0,0.009518815157839079
1667.0,0.00959140005589387
1666.0,0.009644773823701852
1665.0,0.009703641333190032
1664.0,0.009786996018211482
1663.0,0.009903147761564849
1662.0,0.010024263295949054
1661.0,0.010118410696193717
1660.0,0.010198783271417943
1659.0,0.010260627152630764
1658.0,0.010297681057372157
1657.0,0.010321925771353865
1656.0,0.010360856149966048
1655.0,0.010379848138961359
1654.0,0.010429769338824101
1653.0,0.010564544446514407
1652.0,0.01051658154798954
1651.0,0.010425601058186382
1650.0,0.01041688259026628
1649.0,0.010426270857336982
1648.0,0.010439810022230244
1647.0,0.010509195941402552
1646.0,0.010581646148872921
1645.0,0.010599230929497062
1644.0,0.010597074258526426
1643.0,0.010595737472122637
1642.0,0.010593809987363714
1641.0,0.010580530021383296
1640.0,0.010548508664647396
1639.0,0.010494992060358938
1638.0,0.01041858637401121
1637.0,0.010351129010627368
1636.0,0.010353305931398464
1635.0,0.010365523830047596
1634.0,0.010318193843384992
1633.0,0.010269232413723335
1632.0,0.010233079499258883
1631.0,0.010194253149500138
1630.0,0.010146129283026632
1629.0,0.010087599036570576
1628.0,0.010019354957553897
1627.0,0.009946353340052784
1626.0,0.0098775715009101
1625.0,0.009805110361890301
1624.0,0.009715414457525258
1623.0,0.009608548668397282
1622.0,0.009501857319173407
1621.0,0.009418812010009093
1620.0,0.00936116282603968
1619.0,0.00929499809717959
1618.0,0.009194793474243854
1617.0,0.009074275483911383
1616.0,0.0089500701506128
1615.0,0.008849948327097837
1614.0,0.008799700869820046
1613.0,0.008770476950059027
1612.0,0.008723808085206699
1611.0,0.008657461899242729
1610.0,0.00858920874952254
1609.0,0.008528582625583696
1608.0,0.008474792446088572
1607.0,0.00842913377096108
1606.0,0.008391552349971387
1605.0,0.00835479329814781
1604.0,0.008320628624561937
1603.0,0.00829281690255818
1602.0,0.008267018876038465
1601.0,0.008232682252508486
1600.0,0.008185826196195928
1599.0,0.008134962090199795
1598.0,0.008090015016016956
1597.0,0.008050998124798632
1596.0,0.008008766430117314
1595.0,0.00796096457508705
1594.0,0.007919165115422898
1593.0,0.007891925094641587
1592.0,0.007876042059664294
1591.0,0.007868905615156309
1590.0,0.007875342273746568
1589.0,0.00789514363265708
1588.0,0.007919494752902226
1587.0,0.00794289420283767
1586.0,0.007969191474665467
1585.0,0.00799729636508864
1584.0,0.008024231047658233
1583.0,0.008055459274510969
1582.0,0.008089881592218925
1581.0,0.008123340670155424
1580.0,0.008155856213276101
1579.0,0.008188166588694737
1578.0,0.008209064836102052
1577.0,0.008230860117990166
1576.0,0.008254313137792296
1575.0,0.00824527948294507
1574.0,0.00823690170976363
1573.0,0.008256617779634224
1572.0,0.008273438761264903
1571.0,0.00826492998994186
1570.0,0.008254672850990885
1569.0,0.008251300655902015
1568.0,0.008244293258547595
1567.0,0.008241075358215463
1566.0,0.008241897643384956
1565.0,0.008239876073387128
1564.0,0.008243178572701484
1563.0,0.008255179772964366
1562.0,0.0082721073865247
1561.0,0.008235358995064954
1560.0,0.00814601419820453
1559.0,0.008219020295408549
1558.0,0.00834940923990047
1557.0,0.008407768038327683
1556.0,0.008483001398493818
1555.0,0.008574262144577172
1554.0,0.00864889614935634
1553.0,0.008705669938079136
1552.0,0.008755035386057871
1551.0,0.00881623385299716
1550.0,0.00888813470772602
1549.0,0.008957560976904087
1548.0,0.00900310235103446
1547.0,0.009032034246301333
1546.0,0.009062596758835278
1545.0,0.009131536566735344
1544.0,0.00924316461203421
1543.0,0.009339465222947547
1542.0,0.009367711798252966
1541.0,0.009386900127542766
1540.0,0.00944252763933109
1539.0,0.00943418568959605
1538.0,0.009401216906182615
1537.0,0.009418059586700106
1536.0,0.00944721250800259
1535.0,0.009438147044564638
1534.0,0.009394921984830022
1533.0,0.009353737581734916
1532.0,0.009313930521626148
1531.0,0.009265328976868664
1530.0,0.009214656988106229
1529.0,0.009176234248501768
1528.0,0.009157879613604286
1527.0,0.009157263470731395
1526.0,0.009178288086570964
1525.0,0.009217648425006313
1524.0,0.00924992734846398
1523.0,0.009243444162699756
1522.0,0.00924169567274619
1521.0,0.009301672833663361
1520.0,0.00936123122536326
1519.0,0.009377739264744438
1518.0,0.009377046472873869
1517.0,0.00940696864064832
1516.0,0.009463459856112631
1515.0,0.009498480180333415
1514.0,0.00951412535324613
1513.0,0.00952594640742109
1512.0,0.009529608489179244
1511.0,0.009507904464954902
1510.0,0.009477252834697341
1509.0,0.009457460177107989
1508.0,0.009474594219576147
1507.0,0.009530236178271586
1506.0,0.009540815272521243
1505.0,0.009539752103976317
1504.0,0.009570154763551835
1503.0,0.009604477735825125
1502.0,0.009633368349509234
1501.0,0.009670489878552454
1500.0,0.00971943215863625
1499.0,0.009762510854081764
1498.0,0.009816479885863986
1497.0,0.009956746996975983
1496.0,0.010147456067899267
1495.0,0.010264490496802251
1494.0,0.010315283646622367
1493.0,0.010370433379111166
1492.0,0.010434655475174097
1491.0,0.010469330694637182
1490.0,0.01048302605974801
1489.0,0.01053347014300761
1488.0,0.010617518982673576
1487.0,0.010699262366057833
1486.0,0.01079707612117162
1485.0,0.010925030615379281
1484.0,0.011062797942986287
1483.0,0.011198082372644719
1482.0,0.01135553988720518
1481.0,0.01155858494389108
1480.0,0.011768508849880392
1479.0,0.011954531922628246
1478.0,0.012172455382515254
1477.0,0.012515306425382153
1476.0,0.012984204377711538
1475.0,0.013509350371621638
1474.0,0.014164388089923102
1473.0,0.015136620666328728
1472.0,0.016237208484055767
1471.0,0.01709392178953092
1470.0,0.017784160035775307
1469.0,0.01851364061142979
1468.0,0.019332395431699824
1467.0,0.020262133871009686
1466.0,0.02141528278879526
1465.0,0.02282063842285079
1464.0,0.024107850175399397
1463.0,0.02491530341761372
1462.0,0.025346667252014246
1461.0,0.02562019230389681
1460.0,0.025826998374185884
1459.0,0.02599361756706129
1458.0,0.02629728916232396
1457.0,0.026851426003947756
1456.0,0.027249177159270693
1455.0,0.02732284876037016
1454.0,0.02730814467558101
1453.0,0.02727824025873011
1452.0,0.02716214747645591
1451.0,0.02689466161277021
1450.0,0.026441440575583616
1449.0,0.025711279893295705
1448.0,0.024627857527968602
1447.0,0.023362643419258408
1446.0,0.022187472488481522
1445.0,0.021172823454764116
1444.0,0.020270564569361903
1443.0,0.019477465895552923
1442.0,0.018837453511056597
1441.0,0.01836569066717793
1440.0,0.018047465930777273
1439.0,0.01787123556185096
1438.0,0.017824602771213144
1437.0,0.017827756898370368
1436.0,0.017696145060069546
1435.0,0.017356529817423718
1434.0,0.016905188856061477
1433.0,0.016402056892525867
1432.0,0.01586584902269602
1431.0,0.01535395452272997
1430.0,0.01492637962420535
1429.0,0.014595326193936758
1428.0,0.01434607660297401
1427.0,0.014173581203620198
1426.0,0.014051966965125872
1425.0,0.013932603649579031
1424.0,0.013803751973226216
1423.0,0.01369482470238776
1422.0,0.013621538187568484
1421.0,0.013554808865075733
1420.0,0.013472281767515734
1419.0,0.013391798287928055
1418.0,0.013312292749992119
1417.0,0.013214944598599808
1416.0,0.013107792190686123
1415.0,0.013003039797376152
1414.0,0.012890872821382415
1413.0,0.012751204243147091
1412.0,0.012581327698985397
1411.0,0.012399937693209004
1410.0,0.012217167255448884
1409.0,0.012031127975872361
1408.0,0.011847819082692007
1407.0,0.01168255234326681
1406.0,0.011527623914502563
1405.0,0.011351321636946316
1404.0,0.011162327278504618
1403.0,0.011004646110882541
1402.0,0.010883559138492434
1401.0,0.010759038719319632
1400.0,0.01061178931457991
1399.0,0.010471366437140403
1398.0,0.01035508817194522
1397.0,0.010238161747609395
1396.0,0.010112865880116641
1395.0,0.010007152736203798
1394.0,0.009913366340026434
1393.0,0.009798246877492653
1392.0,0.00968238978574091
1391.0,0.009610058542565381
1390.0,0.009588945975910947
1389.0,0.009606602915196393
1388.0,0.00970161636715874
1387.0,0.009950565100813241
1386.0,0.010360332964009407
1385.0,0.010923387516834155
1384.0,0.01174779087366266
1383.0,0.01298641979591038
1382.0,0.014712679149568388
1381.0,0.016965603647519617
1380.0,0.01983743628381693
1379.0,0.023260072878506864
1378.0,0.026700375224138418
1377.0,0.02931573549882833
1376.0,0.03033128833309462
1375.0,0.029208021412621174
1374.0,0.026186501186896072
1373.0,0.02256188208416042
1372.0,0.019447799109887764
1371.0,0.01699918668976853
1370.0,0.015011217264587404
1369.0,0.013409780561470207
1368.0,0.012236627480009093
1367.0,0.011472541887688953
1366.0,0.011010024164161736
1365.0,0.010749409382136607
1364.0,0.010643316688305923
1363.0,0.010690006172321855
1362.0,0.0108737436639688
1361.0,0.011110022304448559
1360.0,0.011285448769059353
1359.0,0.011318741416742856
1358.0,0.011174469475381294
1357.0,0.010860096595579745
1356.0,0.010416551545453777
1355.0,0.009907944553720663
1354.0,0.009410147106901969
1353.0,0.00898027743783328
1352.0,0.008627424092356853
1351.0,0.008331289292649438
1350.0,0.008075741191120391
1349.0,0.007853210472275251
1348.0,0.007657892184309241
1347.0,0.007484392209513755
1346.0,0.0073332403564232065
1345.0,0.00720389797435936
1344.0,0.007088702647799511
1343.0,0.006979670225285655
1342.0,0.0068775246179904066
1341.0,0.006790053890495704
1340.0,0.006725906050132759
1339.0,0.0066866899406809
1338.0,0.00666363971079002
1337.0,0.006644507996057253
1336.0,0.006622083349130644
1335.0,0.00659977218896946
1334.0,0.006588656235179485
1333.0,0.006594941707158528
1332.0,0.006611654071791033
1331.0,0.0066244148347404715
1330.0,0.006622857109750852
1329.0,0.006604507726929823
1328.0,0.006569958271355935
1327.0,0.006518957116376624
1326.0,0.006451021537373964
1325.0,0.006368693668966922
1324.0,0.006280514757054205
1323.0,0.0061968146714341706
1322.0,0.0061239640082473585
1321.0,0.00606360594669491
1320.0,0.006016855059856854
1319.0,0.0059834988401244234
1318.0,0.005956215398076928
1317.0,0.005923725341998642
1316.0,0.0058834482988578424
1315.0,0.005845669918173939
1314.0,0.005823009518244493
1313.0,0.005817525615283349
1312.0,0.005820392121471991
1311.0,0.005825930821404381
1310.0,0.005844061912589154
1309.0,0.005900431373596476
1308.0,0.006021450981783147
1307.0,0.006207459858698493
1306.0,0.006413702921200361
1305.0,0.006565822844808052
1304.0,0.0066043243279949836
1303.0,0.006522807208218731
1302.0,0.00637179102359656
1301.0,0.006222866651337616
1300.0,0.006123797875400707
1299.0,0.00607914789770201
1298.0,0.006063968274772555
1297.0,0.006050060089786523
1296.0,0.0060215809990268356
1295.0,0.005974034765861495
1294.0,0.005909540297417882
1293.0,0.005838044978118239
1292.0,0.005775838962481513
1291.0,0.005733646216992799
1290.0,0.0057063082739668945
1289.0,0.005680232413052868
1288.0,0.00564949975915346
1287.0,0.005618243639496921
1286.0,0.005590375466379987
1285.0,0.005567408495688496
1284.0,0.005555253506985036
1283.0,0.005560883446599717
1282.0,0.0055793806288142326
1281.0,0.005593693695036351
1280.0,0.005592099178750186
1279.0,0.0055787629232305095
1278.0,0.005563574962836028
1277.0,0.005549837531234477
1276.0,0.005536852353736171
1275.0,0.005528174079878734
1274.0,0.005530322917602617
1273.0,0.005546366718758176
1272.0,0.005574454255164355
1271.0,0.005610192430134152
1270.0,0.005648557799493483
1269.0,0.005686260343226881
1268.0,0.0057233157541562146
1267.0,0.005760147306886671
1266.0,0.005795210847503444
1265.0,0.005830078670493642
1264.0,0.005874380308388612
1263.0,0.005939336027259792
1262.0,0.006027439145725903
1261.0,0.006135220461297214
1260.0,0.006265629745809185
1259.0,0.006426589729872792
1258.0,0.006611301183445389
1257.0,0.006786898535728862
1256.0,0.0069083630148281585
1255.0,0.006945913012037001
1254.0,0.006903348140100242
1253.0,0.006812785385966504
1252.0,0.006712906302334553
1251.0,0.006631223729243536
1250.0,0.006579104308123744
1249.0,0.006556082851528314
1248.0,0.006556808966905128
1247.0,0.006574588796453859
1246.0,0.0066020931183294225
1245.0,0.006633203362105943
1244.0,0.006664471245504566
1243.0,0.006693808443593826
1242.0,0.006719201441282199
1241.0,0.006740312636056537
1240.0,0.006759306894727007
1239.0,0.006777752461194712
1238.0,0.006794227239523342
1237.0,0.00680757022121258
1236.0,0.006821102533967203
1235.0,0.006840542494605164
1234.0,0.0068680927114554546
1233.0,0.006900818743042679
1232.0,0.006934117086712089
1231.0,0.006964390720417005
1230.0,0.00698954587569669
1229.0,0.007009442353969643
1228.0,0.007025362605036056
1227.0,0.007038434441003761
1226.0,0.007050705670253321
1225.0,0.007068335535151276
1224.0,0.007098976660801216
1223.0,0.007141866251725144
1222.0,0.007183853640902479
1221.0,0.007210653462593456
1220.0,0.007220805558384336
1219.0,0.007224179394094874
1218.0,0.007227999833274308
1217.0,0.007229824424553038
1216.0,0.007224513429853689
1215.0,0.007212308623537824
1214.0,0.007197612690675604
1213.0,0.007183633961423935
1212.0,0.007170547310266215
1211.0,0.00715635376401642
1210.0,0.007138386898388197
1209.0,0.007117390724710888
1208.0,0.0071020062434887215
1207.0,0.007105177328813151
1206.0,0.007131790946408546
1205.0,0.007171423931684327
1204.0,0.007206215126395452
1203.0,0.007224625908535124
1202.0,0.007226752486278099
1201.0,0.007219651186450907
1200.0,0.007211302027940174
1199.0,0.007207657239642635
1198.0,0.007210575115132635
1197.0,0.007217551919524735
1196.0,0.007225772018501884
1195.0,0.007236700966029406
1194.0,0.00725439331950046
1193.0,0.00727927732043711
1192.0,0.007306681360919354
1191.0,0.00733245393316935
1190.0,0.007357723318716291
1189.0,0.007386704806682045
1188.0,0.007421925674373591
1187.0,0.007463108396677839
1186.0,0.007508604718191057
1185.0,0.00755605645764108
1184.0,0.0076037354767632456
1183.0,0.0076540154759222115
1182.0,0.007713821126470007
1181.0,0.0077884615522326
1180.0,0.007877204711306608
1179.0,0.007979891032274929
1178.0,0.008106862932826642
1177.0,0.008276254660593296
1176.0,0.00850132610966688
1175.0,0.008787333277900171
1174.0,0.009143067720829024
1173.0,0.009586490220174729
1172.0,0.010126755277662694
1171.0,0.010737308094291277
1170.0,0.011349510149984712
1169.0,0.011872434638270275
1168.0,0.012220746913931746
1167.0,0.012343095104675466
1166.0,0.01224724631107503
1165.0,0.011997487309899198
1164.0,0.011677673455691205
1163.0,0.011355801014544056
1162.0,0.01107360354120667
1161.0,0.010847525822203935
1160.0,0.010672673439908489
1159.0,0.010536070167838234
1158.0,0.010432674713522683
1157.0,0.010364711162304929
1156.0,0.010326200709579679
1155.0,0.010298962367423975
1154.0,0.010267413387556374
1153.0,0.010227734364931764
1152.0,0.01017847506918882
1151.0,0.010113715528391383
1150.0,0.010032965923088825
1149.0,0.009947604102332416
1148.0,0.0098690275213673
1147.0,0.009798099667867186
1146.0,0.009732366565115377
1145.0,0.009674784024368478
1144.0,0.00962730218626635
1143.0,0.009583193676430962
1142.0,0.009535168303824289
1141.0,0.009486949850802793
1140.0,0.009448865917956073
1139.0,0.00942506242235159
1138.0,0.009411956793814558
1137.0,0.00940733957644631
1136.0,0.009415301090976089
1135.0,0.009443125898691692
1134.0,0.00949564191727979
1133.0,0.009569065431049241
1132.0,0.009648552847947273
1131.0,0.009718311959193834
1130.0,0.009778556564056469
1129.0,0.00984543202192914
1128.0,0.00992973173168039
1127.0,0.010025067221260217
1126.0,0.010124198151734256
1125.0,0.010236972098436124
1124.0,0.010379868618530783
1123.0,0.010553026341196975
1122.0,0.010739045380636369
1121.0,0.010922170316589154
1120.0,0.011100395492437624
1119.0,0.011282941995393411
1118.0,0.011483316416635914
1117.0,0.011708457006527893
1116.0,0.011946421160733548
1115.0,0.012170897932483047
1114.0,0.012365806196963635
1113.0,0.012538092727892516
1112.0,0.012699850253166401
1111.0,0.01285081952993619
1110.0,0.012987862486653925
1109.0,0.013118204898509794
1108.0,0.013250864278695394
1107.0,0.013386268501719235
1106.0,0.013523628809961594
1105.0,0.013662859529007441
1104.0,0.013788934379933317
1103.0,0.01387244899941472
1102.0,0.013901489407394056
1101.0,0.013899319244930802
1100.0,0.01389702724341765
1099.0,0.013903213450470367
1098.0,0.013911349565130203
1097.0,0.013918733515531054
1096.0,0.013923056140043986
1095.0,0.01391634017665037
1094.0,0.0138997170480133
1093.0,0.013890361008464653
1092.0,0.013898495149774957
1091.0,0.013911282214904463
1090.0,0.013914361633941452
1089.0,0.013915340392100965
1088.0,0.013930617160980874
1087.0,0.013962400038658108
1086.0,0.014004031181439724
1085.0,0.014054444176500522
1084.0,0.014109397039017008
1083.0,0.014149976604466704
1082.0,0.014159519040817116
1081.0,0.014144358321282826
1080.0,0.014122630325966425
1079.0,0.014101658302623839
1078.0,0.014079326379074369
1077.0,0.014057000590153829
1076.0,0.014037642664102245
1075.0,0.014020377017000145
1074.0,0.014007431162944908
1073.0,0.014005522615184288
1072.0,0.014011171193860528
1071.0,0.014008277582815205
1070.0,0.013991492389655046
1069.0,0.013977439566389492
1068.0,0.013979943291882298
1067.0,0.013988288037398912
1066.0,0.013983641644385977
1065.0,0.013964072612121209
1064.0,0.013939660433177702
1063.0,0.013915859945685762
1062.0,0.01389573787325778
1061.0,0.013887357406390181
1060.0,0.013895635445691501
1059.0,0.013915285922232064
1058.0,0.013941428033766263
1057.0,0.013976736898636394
1056.0,0.014019137975520575
1055.0,0.0140559101858004
1054.0,0.01408256625588376
1053.0,0.014115842793752425
1052.0,0.01417410836124416
1051.0,0.014256380600246914
1050.0,0.014355828222117156
1049.0,0.01447780932584489
1048.0,0.014623695224988756
1047.0,0.01477222405710563
1046.0,0.014896733879899995
1045.0,0.014988252870083846
1044.0,0.015049455098033265
1043.0,0.015082798771774483
1042.0,0.015097982380879001
1041.0,0.015116310654779159
1040.0,0.015154409687180535
1039.0,0.015214475595105512
1038.0,0.015297436760462375
1037.0,0.015408689982009262
1036.0,0.015540098114556002
1035.0,0.015663944154616114
1034.0,0.01575937879207036
1033.0,0.015830286523564836
1032.0,0.01588468418911843
1031.0,0.01591442824039347
1030.0,0.0159111068164385
1029.0,0.015883372761567052
1028.0,0.015839324475738364
1027.0,0.01576753930522617
1026.0,0.015654549685928432
1025.0,0.01550850610015387
1024.0,0.015349388930442819
1023.0,0.015188407361387223
1022.0,0.015031321309074079
1021.0,0.014888975219461163
1020.0,0.014769293807311512
1019.0,0.014668568877825677
1018.0,0.01458458913609197
1017.0,0.014529107280796642
1016.0,0.014512572217919625
1015.0,0.014524841677147154
1014.0,0.014546452227469999
1013.0,0.014573366757139824
1012.0,0.014616763379375085
1011.0,0.014683675212801051
1010.0,0.014770364269229758
1009.0,0.014868978731856875
1008.0,0.014969138802227257
1007.0,0.015060011876964055
1006.0,0.0151443787075249
1005.0,0.015246480679603484
1004.0,0.015397211147252912
1003.0,0.015620253611566447
1002.0,0.015938870693075716
1001.0,0.016370916392774236
1000.0,0.01688087389493955
999.0,0.017334873986345582
998.0,0.017538573825307897
997.0,0.017350885449689893
996.0,0.016772496097601067
995.0,0.015939985193109536
994.0,0.015043200194891932
993.0,0.014227694770060625
992.0,0.013548803666666238
991.0,0.012996904385474958
990.0,0.012548019199193076
989.0,0.012187736614866579
988.0,0.011904223989554931
987.0,0.011680593710137115
986.0,0.011501206082767744
985.0,0.011357350385621018
984.0,0.011243456357703737
983.0,0.011157408086998392
982.0,0.01111147067154992
981.0,0.01113525822787242
980.0,0.011258849120164059
979.0,0.011495802511906484
978.0,0.011847374081022603
977.0,0.012312612744592732
976.0,0.012872558763764537
975.0,0.01345453090559496
974.0,0.013921253296924091
973.0,0.014109674523223755
972.0,0.013900245419581951
971.0,0.013284769767992317
970.0,0.012390719428349517
969.0,0.011422785189185334
968.0,0.010556436888736384
967.0,0.009870288521888764
966.0,0.009353819888544865
965.0,0.008958828126903986
964.0,0.008643661325264678
963.0,0.008385759676480902
962.0,0.008173566896350282
961.0,0.007996164893688942
960.0,0.007838830408559865
959.0,0.007687088035955433
958.0,0.007536480733992356
957.0,0.007395530639247097
956.0,0.007273706900437686
955.0,0.00716800396201075
954.0,0.0070672702251579796
953.0,0.006968803644823763
952.0,0.006882791077493426
951.0,0.006817809908363202
950.0,0.006768615541424853
949.0,0.006722447606979948
948.0,0.006673432822899835
947.0,0.006628342022706936
946.0,0.006602075299542124
945.0,0.006608266718898824
944.0,0.006647842150687592
943.0,0.006702826003825239
942.0,0.006745530068827102
941.0,0.006757279761025735
940.0,0.006735674595511314
939.0,0.006685748996482306
938.0,0.006612985252418099
937.0,0.006526644878820235
936.0,0.006441007124849721
935.0,0.0063670127474844875
934.0,0.006306149163473671
933.0,0.0062559727835155305
932.0,0.006217204374229563
931.0,0.006191288472517773
930.0,0.0061749496075698546
929.0,0.006161829216058273
928.0,0.0061470246239595065
927.0,0.006127681791829228
926.0,0.00610379011168698
925.0,0.006081613168977493
924.0,0.006071766052589562
923.0,0.00607968207594292
922.0,0.006100584817959354
921.0,0.006126192509578321
920.0,0.006152173931144261
919.0,0.006177079740824976
918.0,0.006200716145946066
917.0,0.006227612070546045
916.0,0.006265463535323208
915.0,0.006314313024780322
914.0,0.0063617492206739235
913.0,0.006393432754220997
912.0,0.00640294373527951
911.0,0.006387202344507037
910.0,0.006340909750021054
909.0,0.0062646990987650746
908.0,0.006174692482674323
907.0,0.0060951290130213855
906.0,0.006042232825321741
905.0,0.006021280814810716
904.0,0.006036005026619667
903.0,0.0060891138426661
902.0,0.0061694381357894484
901.0,0.006244888778396114
900.0,0.006272628149338964
899.0,0.006218460078360107
898.0,0.006073749134527582
897.0,0.005861180184241263
896.0,0.005623738226859331
895.0,0.005401105303833906
894.0,0.005209721164923976
893.0,0.0050436988920096685
892.0,0.004893900148258249
891.0,0.004761503598419684
890.0,0.004653008494083702
889.0,0.004570020747799573
888.0,0.004509736595412856
887.0,0.004471918049652846
886.0,0.004460095106872431
885.0,0.004477146667996576
884.0,0.004522787524041616
883.0,0.004594615634967561
882.0,0.004690036194920417
881.0,0.004807277087433413
880.0,0.0049438160357240715
879.0,0.005093121162671898
878.0,0.005245046218776065
877.0,0.005390643725348022
876.0,0.005524041956701904
875.0,0.0056386680394520175
874.0,0.00572303893128949
873.0,0.005757954391241278
872.0,0.005717103805776846
871.0,0.005581706581390155
870.0,0.005366811153633301
869.0,0.005127843223465097
868.0,0.004928448511002402
867.0,0.004798623281145957
866.0,0.004725853570085932
865.0,0.004682500032485744
864.0,0.0046507536834424264
863.0,0.004620278262315427
862.0,0.004579528956552172
861.0,0.004523193259596786
860.0,0.004459951757227752
859.0,0.004400538811639429
858.0,0.004341976861140438
857.0,0.004272919885177982
856.0,0.004190375787311185
855.0,0.004102125747722502
854.0,0.004017603809281653
853.0,0.003947050324914255
852.0,0.0039059540473659633
851.0,0.003907869273490349
850.0,0.003952831280075989
849.0,0.004031495953440787
848.0,0.004139411671678259
847.0,0.004284761899699082
846.0,0.004498489844619496
845.0,0.004847671538153806
844.0,0.005403770930303278
843.0,0.006139162294945008
842.0,0.006845758278106066
841.0,0.007215626606968666
840.0,0.0070616765632244265
839.0,0.0064700202433900875
838.0,0.005723953987638723
837.0,0.00508416859414898
836.0,0.004651360258824577
835.0,0.004397893494919612
834.0,0.0042604964387784215
833.0,0.0041861792658102305
832.0,0.004132509574212456
831.0,0.004069949779702537
830.0,0.003995304011774436
829.0,0.003929309032473968
828.0,0.0038920563262897613
827.0,0.003881647025832772
826.0,0.003876970931468459
825.0,0.003859666078107416
824.0,0.0038306356566141717
823.0,0.003803407976023166
822.0,0.003785788118578143
821.0,0.003774877189776602
820.0,0.003769980570083156
819.0,0.0037810157244570104
818.0,0.003818689399479407
817.0,0.0038828788460098544
816.0,0.003967735341090617
815.0,0.0040746671939117995
814.0,0.004211930272111183
813.0,0.004380269825589032
812.0,0.004564730504295976
811.0,0.004742963844614137
810.0,0.004896248580040806
809.0,0.005007599528511443
808.0,0.005055625014173519
807.0,0.005024611897330956
806.0,0.004925336624990196
805.0,0.00479624765459921
804.0,0.004677594115722841
803.0,0.004587155715135238
802.0,0.004520069990313347
801.0,0.004463902847470318
800.0,0.004409485310392635
799.0,0.004353654504904183
798.0,0.00430028732979431
797.0,0.004258374212678929
796.0,0.004233685648700546
795.0,0.004220863037302842
794.0,0.004206169558905843
793.0,0.004178599987940651
792.0,0.004136112572498263
791.0,0.004082548220228296
790.0,0.004024198927832042
789.0,0.003970589873597484
788.0,0.00393258298015262
787.0,0.0039141847195926106
786.0,0.003906988969040182
785.0,0.003896576323413169
784.0,0.0038757960431487267
783.0,0.0038513482273381285
782.0,0.0038377229196182323
781.0,0.0038437564816557407
780.0,0.0038615484589307825
779.0,0.0038676091647579
778.0,0.0038409334420794255
777.0,0.0037854331988784323
776.0,0.00373152971891289
775.0,0.0037102713283633394
774.0,0.0037258957519077877
773.0,0.0037566437283097377
772.0,0.003779952029367659
771.0,0.0037905039816468885
770.0,0.003795570285860004
769.0,0.003802689971622894
768.0,0.003816220976350061
767.0,0.0038393440419585666
766.0,0.0038722342277144484
765.0,0.003909217616606288
764.0,0.003941640758039039
763.0,0.003964435617957914
762.0,0.003980421511057685
761.0,0.0040001108575340935
760.0,0.004036506294572946
759.0,0.004094940206338693
758.0,0.004165596090700378
757.0,0.004230097917507386
756.0,0.004277600591973615
755.0,0.0043097997976953815
754.0,0.004328143778631307
753.0,0.004324927822678522
752.0,0.004296674564947572
751.0,0.0042614434529713585
750.0,0.004248534724490313
749.0,0.004267420158294078
748.0,0.004296580964651891
747.0,0.004307376658259405
746.0,0.0042913502372159355
745.0,0.004259766639802258
744.0,0.0042253248632472575
743.0,0.004193784373805395
742.0,0.004168110840659341
741.0,0.004150061929010331
740.0,0.0041375996859326775
739.0,0.00412667025332298
738.0,0.00411593386705143
737.0,0.004108365549684473
736.0,0.004113820278442532
735.0,0.004153351204553629
734.0,0.004249614541891152
733.0,0.004398959181809065
732.0,0.004555211129883923
731.0,0.004655187524850097
730.0,0.00466803752105306
729.0,0.00461678586336133
728.0,0.004552951589471312
727.0,0.004518521465127694
726.0,0.004528254073234482
725.0,0.0045724221648390465
724.0,0.0046320497945445075
723.0,0.004699177606405043
722.0,0.004781892775165043
721.0,0.0048798645872925005
720.0,0.004956925557847101
719.0,0.004964286949998904
718.0,0.0049018071252300704
717.0,0.004828663275570718
716.0,0.004804880602477586
715.0,0.004835760679847603
714.0,0.004874155901083399
713.0,0.004871490132180306
712.0,0.004819910652506695
711.0,0.004749638558564166
710.0,0.004700992875597169
709.0,0.004701588451007347
708.0,0.004759262025472699
707.0,0.00486677354540581
706.0,0.005010750950944198
705.0,0.005179698060882263
704.0,0.005367770681889974
703.0,0.005573610625147274
702.0,0.005795919104499562
701.0,0.006025289358416872
700.0,0.006235391645446349
699.0,0.0063840526435042025
698.0,0.006428964217862746
697.0,0.006348483260269587
696.0,0.006154821714730838
695.0,0.005893458098597827
694.0,0.0056239477103430385
693.0,0.005387385633004551
692.0,0.00518989267802877
691.0,0.005022263795867513
690.0,0.00488803011523781
689.0,0.004800632409899969
688.0,0.0047575882684180795
687.0,0.004737577257524444
686.0,0.004727844793167672
685.0,0.004732562117627645
684.0,0.004749838784852455
683.0,0.00476115197380486
682.0,0.004748586709627679
681.0,0.0047094434001790034
680.0,0.004652467766979824
679.0,0.004591073320496023
678.0,0.004539432158024343
677.0,0.004502646283619316
676.0,0.004474178443466216
675.0,0.0044518869244458345
674.0,0.004447681844520272
673.0,0.004471397581587863
672.0,0.004504633438905274
671.0,0.004524416807360135
670.0,0.004524967323402733
669.0,0.004543656048815795
668.0,0.004594291108565763
667.0,0.004572691352375657
666.0,0.004467338903524012
665.0,0.004361437241217649
664.0,0.004294303750414756
663.0,0.004269015836535186
662.0,0.004255572338865093
661.0,0.004229046577175641
660.0,0.004194172258671282
659.0,0.004169588325408731
658.0,0.0041650912784715385
657.0,0.004173544156140007
656.0,0.004178934742238863
655.0,0.004164672546637979
654.0,0.004123017201260791
653.0,0.004060038702083163
652.0,0.003990723104586343
651.0,0.003938252612766669
650.0,0.003930423799835572
649.0,0.003973240739156279
648.0,0.004028003045099987
647.0,0.004040810783855542
646.0,0.004006335326946438
645.0,0.003976345943108667
644.0,0.003993380710384322
643.0,0.004042190654218713
642.0,0.004081492934661254
641.0,0.004101855361384531
640.0,0.004123070372275453
639.0,0.004151356898387849
638.0,0.004171820461985776
637.0,0.004174764088794738
636.0,0.004161676743265941
635.0,0.004130710798315876
634.0,0.004082108461666491
633.0,0.0040301819893820146
632.0,0.003986973689091148
631.0,0.003942160374351793
630.0,0.0038815491351545297
629.0,0.003818638550337348
628.0,0.003784418716435969
627.0,0.003789412989644362
626.0,0.0038133672714269207
625.0,0.003834792157547
624.0,0.0038503452094815083
623.0,0.003856445571497223
622.0,0.0038381201404192895
621.0,0.0037912333722387864
620.0,0.0037400647093049806
619.0,0.0037197615046678234
618.0,0.0037428197034182174
617.0,0.003790060554972531
616.0,0.003837265422944783
615.0,0.0038825143036245666
614.0,0.003938921226580985
613.0,0.004005049112792694
612.0,0.0040529768343661975
611.0,0.004056050539385089
610.0,0.004027203995482412
609.0,0.004003876292167188
608.0,0.003991369875807414
607.0,0.003953094386450608
606.0,0.003868274926880553
605.0,0.0037690848701589993
604.0,0.003698849880916271
603.0,0.0036647457313286388
602.0,0.0036569793729356176
601.0,0.003685920007326964
600.0,0.003763171819867236
599.0,0.0038564607777224497
598.0,0.003907791555896609
597.0,0.0038958716563957264
596.0,0.0038463747159802244
595.0,0.003793568938336418
594.0,0.0037582937933976057
593.0,0.0037546387720078667
592.0,0.0037933954405716033
591.0,0.0038666234512944164
590.0,0.003942801555371495
589.0,0.00399211838815812
588.0,0.0040065453604934895
587.0,0.003997768051329141
586.0,0.003984816267028334
585.0,0.003967094527099353
584.0,0.00391171773924889
583.0,0.003799596064557235
582.0,0.003684699813711315
581.0,0.0036610872229584784
580.0,0.003755364891650414
579.0,0.0038912723921395095
578.0,0.003976282837763032
577.0,0.0039752681283728546
576.0,0.00388228978943677
575.0,0.0037089072474081365
574.0,0.0035388070449293794
573.0,0.00349962900154052
572.0,0.0036379798473242103
571.0,0.0038508563277914725
570.0,0.003976385176646457
569.0,0.003966470823495825
568.0,0.003908622144013579
567.0,0.003898489458768766
566.0,0.0039596590488151905
565.0,0.0040564423006953475
564.0,0.00412226899835089
563.0,0.004087418562563904
562.0,0.003960032669885247
561.0,0.0038524711641753848
560.0,0.0038574932905220734
559.0,0.003942409013973813
558.0,0.003997652101281017
557.0,0.003958561682479862
556.0,0.0038295252330085884
555.0,0.003646547025359898
554.0,0.0034837654712071894
553.0,0.0034373746767660633
552.0,0.00355288624213799
551.0,0.0037760434204771043
550.0,0.0040022019462957175
