cm-1,A
4000.0,0.002150408276353155
3999.0,0.002150664355354907
3998.0,0.002146900733092593
3997.0,0.002140887242119839
3996.0,0.0021360140579935122
3995.0,0.0021351863690015514
3994.0,0.002138273874345521
3993.0,0.002142218386688415
3992.0,0.002144001669629105
3991.0,0.00214375254303586
3990.0,0.0021442954829206332
3989.0,0.0021475102659527286
3988.0,0.0021521478110927894
3987.0,0.002155496032684408
3986.0,0.0021565946131605687
3985.0,0.002156447686361024
3984.0,0.002155373346499386
3983.0,0.0021522091637333355
3982.0,0.002146975441843918
3981.0,0.0021426088355083013
3980.0,0.002142796945213003
3979.0,0.0021478848524997983
3978.0,0.0021538417680830703
3977.0,0.002156466448063197
3976.0,0.0021553582572844086
3975.0,0.0021536744959366376
3974.0,0.002154207435982402
3973.0,0.0021563705572480016
3972.0,0.0021576950401696326
3971.0,0.0021568915891542247
3970.0,0.0021553133977076774
3969.0,0.0021557818389584442
3968.0,0.0021596617138417533
3967.0,0.0021650989387777394
3966.0,0.002168036879129545
3965.0,0.002165138317976845
3964.0,0.002156733246116302
3963.0,0.002147238544198863
3962.0,0.002142348684549743
3961.0,0.0021446740694096404
3960.0,0.002151516605151639
3959.0,0.0021567191048630146
3958.0,0.0021552049970930834
3957.0,0.0021476125802312564
3956.0,0.0021402227406902355
3955.0,0.002139667974586955
3954.0,0.0021479575582418614
3953.0,0.0021610418585330804
3952.0,0.00217247884607283
3951.0,0.0021776953708232292
3950.0,0.002176403203911559
3949.0,0.002171435646759809
3948.0,0.0021650337946160112
3947.0,0.00215787701520616
3946.0,0.0021499178672783397
3945.0,0.0021423221205970483
3944.0,0.0021368610277156114
3943.0,0.0021341746114093806
3942.0,0.0021339998294877685
3941.0,0.002135401879321228
3940.0,0.0021381448476108927
3939.0,0.0021430285614440735
3938.0,0.0021510857757423675
3937.0,0.0021621087541359484
3936.0,0.002173221420683301
3935.0,0.002180062310634716
3934.0,0.0021787152892370114
3933.0,0.0021694542261793456
3932.0,0.002157739979027711
3931.0,0.0021505426373093096
3930.0,0.0021513697677366713
3929.0,0.002157893499845965
3928.0,0.0021660536296259575
3927.0,0.0021733327961605993
3926.0,0.0021784893604776603
3925.0,0.0021809326374666455
3924.0,0.0021823449866808873
3923.0,0.0021860769090204547
3922.0,0.002192109349468399
3921.0,0.002196369026209322
3920.0,0.002195217519112876
3919.0,0.002188811209125908
3918.0,0.0021803652506195773
3917.0,0.0021728148772186375
3916.0,0.0021680897823087818
3915.0,0.0021673349008236266
3914.0,0.002169168679677114
3913.0,0.0021704796883545204
3912.0,0.0021698183814407353
3911.0,0.002168451959966119
3910.0,0.002168779870982824
3909.0,0.00217133638984161
3908.0,0.0021759554520163872
3907.0,0.0021834525714855228
3906.0,0.0021948867752829065
3905.0,0.0022070694062190054
3904.0,0.0022125870643700148
3903.0,0.0022055193142629407
3902.0,0.0021866855404396607
3901.0,0.002163186104813584
3900.0,0.0021435817285376134
3899.0,0.0021352655557759998
3898.0,0.0021402690699246106
3897.0,0.0021533165027604597
3896.0,0.00216674236109132
3895.0,0.002175473774003146
3894.0,0.0021785116434605515
3893.0,0.0021768792495407367
3892.0,0.0021707186645194398
3891.0,0.0021608666073047343
3890.0,0.0021519570742168847
3889.0,0.0021495794660132336
3888.0,0.0021565859311132255
3887.0,0.002168670552378138
3886.0,0.0021749072712990217
3885.0,0.0021678807643535185
3884.0,0.002151445158038723
3883.0,0.002133631796046468
3882.0,0.0021202814511509143
3881.0,0.002116895953987825
3880.0,0.002127447333528698
3879.0,0.0021474178806599057
3878.0,0.0021666327376694515
3877.0,0.002178154178424454
3876.0,0.0021801773158437966
3875.0,0.0021741340423308414
3874.0,0.0021646484397878788
3873.0,0.0021578498012520602
3872.0,0.0021553435504066973
3871.0,0.0021504269206205455
3870.0,0.00213840803968824
3869.0,0.002127361303707962
3868.0,0.0021284402299724644
3867.0,0.0021409639019830916
3866.0,0.002153231762936441
3865.0,0.002156651144963588
3864.0,0.002156911552873922
3863.0,0.002164026816667007
3862.0,0.0021774272095054937
3861.0,0.0021877178021502052
3860.0,0.0021877587036864578
3859.0,0.002176729528730355
3858.0,0.0021592575694745373
3857.0,0.0021428610930841136
3856.0,0.0021364702015355726
3855.0,0.002141172350883713
3854.0,0.002146572072492534
3853.0,0.0021435118334090075
3852.0,0.0021401412170799295
3851.0,0.0021456457863127665
3850.0,0.002156704914797627
3849.0,0.002166931221692433
3848.0,0.0021740667636455458
3847.0,0.0021791225116914274
3846.0,0.002183437170138392
3845.0,0.002187955069092402
3844.0,0.002192945641860797
3843.0,0.0021955924514257975
3842.0,0.002194376020095923
3841.0,0.0021922358136185274
3840.0,0.0021931917983828396
3839.0,0.0021971314971289202
3838.0,0.0022001530271344672
3837.0,0.002198842219902254
3836.0,0.0021946734812250644
3835.0,0.002191234393812737
3834.0,0.00219106802869068
3833.0,0.0021928803751714325
3832.0,0.0021932563866943885
3831.0,0.0021920841923014417
3830.0,0.0021933562981816352
3829.0,0.0022010996125839868
3828.0,0.002214447951366806
3827.0,0.002226111024086941
3826.0,0.002228821490524253
3825.0,0.002224208250429338
3824.0,0.002221056500762527
3823.0,0.0022246739772022114
3822.0,0.00223166833311763
3821.0,0.0022331305548690134
3820.0,0.002227836713079966
3819.0,0.002223085493352237
3818.0,0.0022232316648088694
3817.0,0.0022251973760663117
3816.0,0.0022243238541167585
3815.0,0.0022235556028021713
3814.0,0.0022289622495518567
3813.0,0.0022392270909971142
3812.0,0.002246725636161239
3811.0,0.0022475094554300686
3810.0,0.002246364966833252
3809.0,0.0022507028694040837
3808.0,0.0022587553671294435
3807.0,0.002260808952263311
3806.0,0.0022543064818612794
3805.0,0.002248712245917198
3804.0,0.0022539276400318723
3803.0,0.002267505638682211
3802.0,0.002275048336557733
3801.0,0.0022689528020176167
3800.0,0.002259989908156709
3799.0,0.002258578172184264
3798.0,0.0022619473672227447
3797.0,0.002262463663869791
3796.0,0.0022583080942983075
3795.0,0.002254739088655747
3794.0,0.002256381318876753
3793.0,0.002262261086438475
3792.0,0.002268636404899209
3791.0,0.002273706681582093
3790.0,0.002277989710358674
3789.0,0.0022821425626302193
3788.0,0.002285402853605312
3787.0,0.002287111452158463
3786.0,0.002287972349608018
3785.0,0.0022897256556756
3784.0,0.0022938633406849648
3783.0,0.00230094422697955
3782.0,0.002309341278601635
3781.0,0.0023158917823283024
3780.0,0.002318232506544447
3779.0,0.002317643599135227
3778.0,0.002318250157543023
3777.0,0.0023221477472673306
3776.0,0.0023281311380728533
3775.0,0.002333917580917071
3774.0,0.002340212916292157
3773.0,0.0023502152078034386
3772.0,0.002363753399017299
3771.0,0.002373485174917241
3770.0,0.002373711964070797
3769.0,0.00236943042564373
3768.0,0.0023697784296586233
3767.0,0.0023778758684493105
3766.0,0.0023892489802526664
3765.0,0.00239755458368098
3764.0,0.00240115971314983
3763.0,0.002403256726270538
3762.0,0.002407162446249402
3761.0,0.0024141909760506276
3760.0,0.002425637472882665
3759.0,0.0024412182826142395
3758.0,0.002456386843133319
3757.0,0.002466163500060208
3756.0,0.0024706524075126463
3755.0,0.0024743172090013373
3754.0,0.002479391841703092
3753.0,0.0024837782233976795
3752.0,0.0024847498119010478
3751.0,0.0024839162385097476
3750.0,0.00248476649304559
3749.0,0.0024835053175291787
3748.0,0.0024769865146172312
3747.0,0.0024708899485997313
3746.0,0.0024716315990990006
3745.0,0.002476701230719275
3744.0,0.0024807371534510264
3743.0,0.0024849838631202936
3742.0,0.002495050187164707
3741.0,0.0025104977484316044
3740.0,0.0025259257897714393
3739.0,0.00253904735590577
3738.0,0.002550192879678838
3737.0,0.002554707564990255
3736.0,0.0025444517064515983
3735.0,0.0025242158248076144
3734.0,0.002514627591346048
3733.0,0.0025271729382737584
3732.0,0.0025512591630548736
3731.0,0.0025725974916107133
3730.0,0.0025898100428056597
3729.0,0.0026112698578724504
3728.0,0.0026420355427881426
3727.0,0.0026764442040895587
3726.0,0.0027031693839952593
3725.0,0.002716947443320963
3724.0,0.0027213569294373702
3723.0,0.0027241179123194707
3722.0,0.002733439217691533
3721.0,0.0027557610872941986
3720.0,0.002795712911684156
3719.0,0.002855538914684503
3718.0,0.0029311533956348284
3717.0,0.0030124991436123235
3716.0,0.0030918258746475916
3715.0,0.0031706181286865536
3714.0,0.003259602413079072
3713.0,0.003372159992346885
3712.0,0.0035109494960222556
3711.0,0.0036616511232575276
3710.0,0.0038134114182042465
3709.0,0.003970353684446754
3708.0,0.004138804444654674
3707.0,0.0043211190811727855
3706.0,0.004519024300395431
3705.0,0.004736361561021021
3704.0,0.004976470400175553
3703.0,0.005236411909533936
3702.0,0.005498717707212098
3701.0,0.0057352273349626295
3700.0,0.005926416541478772
3699.0,0.0060699410826267584
3698.0,0.0061674559829192725
3697.0,0.006216874069599847
3696.0,0.006219233932417521
3695.0,0.006183861588744757
3694.0,0.0061203449005058485
3693.0,0.006031075152107849
3692.0,0.005916469376352882
3691.0,0.005783538666130836
3690.0,0.005649278744809921
3689.0,0.005536324579382485
3688.0,0.005456558300481954
3687.0,0.005402353432244584
3686.0,0.005360849341561544
3685.0,0.00532530797204904
3684.0,0.005296176908477404
3683.0,0.005277948146529741
3682.0,0.005274190158128446
3681.0,0.005283036643302572
3680.0,0.0052984479406331456
3679.0,0.005320059786906001
3678.0,0.00535621883036172
3677.0,0.005411823577282529
3676.0,0.005474544590740054
3675.0,0.005529172516093844
3674.0,0.005579961154384631
3673.0,0.005638484045348722
3672.0,0.005709265575449223
3671.0,0.005785301316354748
3670.0,0.005855706101252722
3669.0,0.005921327414541357
3668.0,0.005993005217699032
3667.0,0.006074384676033084
3666.0,0.006162694092464716
3665.0,0.0062529770202225145
3664.0,0.006341590063960831
3663.0,0.0064274822338969105
3662.0,0.0065117959603160115
3661.0,0.006595322240401618
3660.0,0.006678421528940395
3659.0,0.006763367143118568
3658.0,0.006853626026621564
3657.0,0.006947842082495593
3656.0,0.007035912385196444
3655.0,0.007109219068384708
3654.0,0.007170846345500231
3653.0,0.007231234408375668
3652.0,0.007300652671207403
3651.0,0.007384594538336389
3650.0,0.007475803854147478
3649.0,0.00755259570772728
3648.0,0.00760586504705958
3647.0,0.0076468046254819354
3646.0,0.007688915354155652
3645.0,0.007739208102447621
3644.0,0.007799947711805314
3643.0,0.007867967993291654
3642.0,0.00793564477935627
3641.0,0.007997732443470443
3640.0,0.008055908917168012
3639.0,0.008115262305844181
3638.0,0.008177947959642795
3637.0,0.008243167961245553
3636.0,0.008310558030244395
3635.0,0.00838014263721806
3634.0,0.008450339163897595
3633.0,0.00852062318140044
3632.0,0.008595486162574004
3631.0,0.008682374538423228
3630.0,0.008781548050502177
3629.0,0.008878726030859962
3628.0,0.00896414652097358
3627.0,0.009048732770828148
3626.0,0.009143205518048127
3625.0,0.009246799106494986
3624.0,0.0093509420148715
3623.0,0.00944498945033748
3622.0,0.009516151111834632
3621.0,0.009544559269464719
3620.0,0.009509874509182193
3619.0,0.009416782150399221
3618.0,0.009301560463218683
3617.0,0.009194576051876669
3616.0,0.009097254490239667
3615.0,0.008995282294521092
3614.0,0.008881837919130888
3613.0,0.008770448126434738
3612.0,0.008681028472595363
3611.0,0.008617345797252906
3610.0,0.008565643754070602
3609.0,0.008510161682546043
3608.0,0.00844838097115896
3607.0,0.008390850143982042
3606.0,0.008345975923646177
3605.0,0.008312333473779023
3604.0,0.008284352319553807
3603.0,0.008258906658334291
3602.0,0.008234513202104388
3601.0,0.008208234111848104
3600.0,0.008178580778259384
3599.0,0.008149169463554047
3598.0,0.008125390603520778
3597.0,0.008109324836073161
3596.0,0.008096836460821365
3595.0,0.008079871239278877
3594.0,0.008054214085728146
3593.0,0.008024443915202401
3592.0,0.007998169170063834
3591.0,0.007977990872074035
3590.0,0.007960356042433047
3589.0,0.007939112161755553
3588.0,0.00791276480638916
3587.0,0.007891014562889594
3586.0,0.007885566257144332
3585.0,0.007895358044844696
3584.0,0.007910736214584931
3583.0,0.007925040654975188
3582.0,0.007937615125282982
3581.0,0.007950977728101003
3580.0,0.007967948808562636
3579.0,0.007990005280660179
3578.0,0.008016412056684321
3577.0,0.008044799580144823
3576.0,0.008073236265602282
3575.0,0.008101481702704565
3574.0,0.00813002517826338
3573.0,0.008158292833024437
3572.0,0.00818471300768231
3571.0,0.00820957858259713
3570.0,0.008237004930189135
3569.0,0.008271859945757652
3568.0,0.008311932504508115
3567.0,0.008346842049143514
3566.0,0.008373094651968954
3565.0,0.008399101577509484
3564.0,0.008431554717498846
3563.0,0.008469135977495323
3562.0,0.008505731654997668
3561.0,0.00853564645517909
3560.0,0.008558199699147935
3559.0,0.008579255857347486
3558.0,0.00860601697040093
3557.0,0.008639526549904466
3556.0,0.008674116082174593
3555.0,0.008703613955246863
3554.0,0.00872667072191164
3553.0,0.008746180030529585
3552.0,0.008765108258216359
3551.0,0.008783712485516343
3550.0,0.008800458534026626
3549.0,0.00881415846100219
3548.0,0.008824287373467514
3547.0,0.008830029041906917
3546.0,0.008830506023173815
3545.0,0.00882685068056185
3544.0,0.008823122783359047
3543.0,0.008823001042848833
3542.0,0.008826390800625205
3541.0,0.008829447940758116
3540.0,0.008827826995832438
3539.0,0.008820344867586299
3538.0,0.008809574777743261
3537.0,0.00879967570015118
3536.0,0.008794546590927507
3535.0,0.008796640623028157
3534.0,0.008805082458169744
3533.0,0.00881422821223044
3532.0,0.00881594832081186
3531.0,0.008805328928605702
3530.0,0.008785220685274809
3529.0,0.00876457731439569
3528.0,0.008751816511982528
3527.0,0.00874900867661892
3526.0,0.008750843391319287
3525.0,0.008747932846325987
3524.0,0.008733509299662021
3523.0,0.008710197089841212
3522.0,0.00868832181592773
3521.0,0.008675677265148032
3520.0,0.008670730789799335
3519.0,0.00866659668016212
3518.0,0.008659102693892397
3517.0,0.008649390263647472
3516.0,0.008640076286873606
3515.0,0.00863225915967737
3514.0,0.008626589212741217
3513.0,0.008624005339060015
3512.0,0.008623298125577678
3511.0,0.008620436907089309
3510.0,0.00861346501961996
3509.0,0.008606574908653202
3508.0,0.008606265735951428
3507.0,0.008614196034826603
3506.0,0.008625922069805515
3505.0,0.008635204697826662
3504.0,0.008638025741607125
3503.0,0.00863438951955446
3502.0,0.008628693905909408
3501.0,0.00862679322751919
3500.0,0.008631177422272429
3499.0,0.008639315459176022
3498.0,0.008646573692579979
3497.0,0.008651168097601735
3496.0,0.008656014771351202
3495.0,0.008664959830666749
3494.0,0.008678372216769016
3493.0,0.008693692982473585
3492.0,0.00870896676283011
3491.0,0.00872429647713871
3490.0,0.00874033172896411
3489.0,0.008756846963575803
3488.0,0.008773764066114307
3487.0,0.008792762387269889
3486.0,0.00881597568152667
3485.0,0.008842503636980921
3484.0,0.008866818892266532
3483.0,0.008882036090634027
3482.0,0.008886882650780262
3481.0,0.008889220720675495
3480.0,0.008900963094201514
3479.0,0.008928869557304348
3478.0,0.008970157307732882
3477.0,0.009015420870423644
3476.0,0.009054832511271508
3475.0,0.009083304154491113
3474.0,0.009102434202074343
3473.0,0.00911808877140871
3472.0,0.00913530595296717
3471.0,0.00915523081141556
3470.0,0.0091769277180676
3469.0,0.009201330679426413
3468.0,0.009232430297612408
3467.0,0.00927424928030918
3466.0,0.009327136564230355
3465.0,0.009387121920686808
3464.0,0.009447681859589975
3463.0,0.009502232319796288
3462.0,0.009547644995796144
3461.0,0.009587451479015305
3460.0,0.009630706888598455
3459.0,0.009685259577888176
3458.0,0.00975081527869727
3457.0,0.009819092997690241
3456.0,0.009881238093747835
3455.0,0.009935188923193047
3454.0,0.009986175355793218
3453.0,0.010040653803614564
3452.0,0.010100096874769853
3451.0,0.010160272450073326
3450.0,0.010216405847041702
3449.0,0.010268980553697713
3448.0,0.010324677213824148
3447.0,0.010390650687523187
3446.0,0.010466548301310266
3445.0,0.010543379898728125
3444.0,0.010611260767488754
3443.0,0.010667306317773642
3442.0,0.01071548482265511
3441.0,0.010759121931197026
3440.0,0.010795137210801956
3439.0,0.010817686670166249
3438.0,0.010827142723748405
3437.0,0.01083359164478849
3436.0,0.010850578101496493
3435.0,0.010885104440153387
3434.0,0.010932355297527653
3433.0,0.010978325685178007
3432.0,0.011009011774332916
3431.0,0.011020335046819174
3430.0,0.011020994149546664
3429.0,0.011024068904078466
3428.0,0.011034632945815697
3427.0,0.01104634349244177
3426.0,0.011049280783299737
3425.0,0.011037696286340359
3424.0,0.01100964174457854
3423.0,0.01096362153436246
3422.0,0.010900189769379212
3421.0,0.010826517441638475
3420.0,0.010754760952413487
3419.0,0.01069293263258463
3418.0,0.010638172224588514
3417.0,0.010579274062705583
3416.0,0.010505988661626083
3415.0,0.010418195608676623
3414.0,0.010327735093514393
3413.0,0.010249352501221897
3412.0,0.010187863237857517
3411.0,0.010135000584661068
3410.0,0.010079877739902739
3409.0,0.010021194595372858
3408.0,0.009966715252403169
3407.0,0.009921571055686985
3406.0,0.00988032933178277
3405.0,0.00983137604361231
3404.0,0.009767286071848673
3403.0,0.009691611976120782
3402.0,0.0096179792890838
3401.0,0.009562185281840992
3400.0,0.009531876383246174
3399.0,0.009521654407815995
3398.0,0.009518252591400631
3397.0,0.009510366013023684
3396.0,0.009493074439610193
3395.0,0.009465253325251496
3394.0,0.009428333133048009
3393.0,0.009390103722117795
3392.0,0.00936451454518626
3391.0,0.009361247503400423
3390.0,0.009375609260594957
3389.0,0.009391829837514286
3388.0,0.009396279375176187
3387.0,0.009386453875663753
3386.0,0.00936861893274914
3385.0,0.009349533136492614
3384.0,0.009331544309297914
3383.0,0.009313725183298706
3382.0,0.009295130027611861
3381.0,0.009276237274465414
3380.0,0.009258350248252471
3379.0,0.00924275552273975
3378.0,0.009231008662461664
3377.0,0.009225074436141633
3376.0,0.009225303700342464
3375.0,0.009227719398078996
3374.0,0.009224844104907872
3373.0,0.009210724413914255
3372.0,0.009185227950737123
3371.0,0.009153778440555602
3370.0,0.009124312689694967
3369.0,0.009104596989542291
3368.0,0.009099729221211791
3367.0,0.009109150308674445
3366.0,0.009126006685522733
3365.0,0.009141210229679488
3364.0,0.009148667504762505
3363.0,0.00914673819325631
3362.0,0.009136830315854987
3361.0,0.009123016998414338
3360.0,0.009112043042723629
3359.0,0.009110161840194165
3358.0,0.009118220762338716
3357.0,0.009130876189574222
3356.0,0.009141446645493746
3355.0,0.009146706176562302
3354.0,0.00914678468526465
3353.0,0.009142589664206297
3352.0,0.009135350151215799
3351.0,0.009128022255382942
3350.0,0.009124975634723545
3349.0,0.009129118259322456
3348.0,0.009139537616362589
3347.0,0.009152397723701704
3346.0,0.009164014316433837
3345.0,0.009173137338689994
3344.0,0.009180991880551836
3343.0,0.009189615231072926
3342.0,0.00919990506653247
3341.0,0.009210384347675469
3340.0,0.009217546377351237
3339.0,0.00921815915072706
3338.0,0.009212209135994498
3337.0,0.009203783879873762
3336.0,0.009198564990378796
3335.0,0.009200074847049175
3334.0,0.009207944092328191
3333.0,0.009218645064992138
3332.0,0.009227006035822884
3331.0,0.009228007023010517
3330.0,0.009219026679119658
3329.0,0.009200973662078395
3328.0,0.009176923434618293
3327.0,0.009150217915510954
3326.0,0.009124500989529119
3325.0,0.009103997078046554
3324.0,0.009090994642172279
3323.0,0.0090829911131945
3322.0,0.009075138002951155
3321.0,0.009066367060486948
3320.0,0.009060536146568125
3319.0,0.009060102327922563
3318.0,0.009061193877516907
3317.0,0.009057454622688765
3316.0,0.009047375012493138
3315.0,0.009035371430150938
3314.0,0.009026579679295337
3313.0,0.009022891603534243
3312.0,0.009023516582387465
3311.0,0.009026825634449757
3310.0,0.009030974504631585
3309.0,0.009034500742703804
3308.0,0.0090373027789136
3307.0,0.009040306301527381
3306.0,0.009044034503839381
3305.0,0.00904835645290745
3304.0,0.009053347574916054
3303.0,0.009059144778077306
3302.0,0.009064941364540507
3301.0,0.009069247549421762
3300.0,0.009071202443098511
3299.0,0.00907070501292223
3298.0,0.009067548001721711
3297.0,0.009061664619056244
3296.0,0.009054254990081325
3295.0,0.009047384106626038
3294.0,0.009042433431527925
3293.0,0.009040014522895951
3292.0,0.009040911034218668
3291.0,0.009045040246412162
3290.0,0.009049028258382249
3289.0,0.009047070860587005
3288.0,0.009036240636663204
3287.0,0.009020401765195406
3286.0,0.009007271692414389
3285.0,0.009001292755881076
3284.0,0.008999978592169647
3283.0,0.008997074309884738
3282.0,0.008988574810682968
3281.0,0.008975617174893138
3280.0,0.008962287252260547
3279.0,0.00895151812561421
3278.0,0.008943149813185248
3277.0,0.008935178856410824
3276.0,0.008926069205070736
3275.0,0.008915645983701424
3274.0,0.008904389486465741
3273.0,0.008892627987492617
3272.0,0.008880479250398992
3271.0,0.008868202125656054
3270.0,0.00885645837159835
3269.0,0.008846168575633105
3268.0,0.00883788067531199
3267.0,0.008831110682857156
3266.0,0.00882458899811966
3265.0,0.008817523318900823
3264.0,0.00881043639991575
3263.0,0.008804063823079394
3262.0,0.008797165638800848
3261.0,0.008786051976699103
3260.0,0.008767216045230682
3259.0,0.008741376087571171
3258.0,0.008714765175041835
3257.0,0.00869514490339513
3256.0,0.008685381062011503
3255.0,0.008681039035973004
3254.0,0.008674877911825403
3253.0,0.00866339027795296
3252.0,0.008648341007488652
3251.0,0.008632952073499707
3250.0,0.008618772990577825
3249.0,0.008606155301959633
3248.0,0.00859543879088341
3247.0,0.008586479466103967
3246.0,0.00857830986742987
3245.0,0.008570456657213482
3244.0,0.00856352251999537
3243.0,0.00855721959976891
3242.0,0.008549075450656843
3241.0,0.008536838737220085
3240.0,0.008521501912349022
3239.0,0.008506255343501239
3238.0,0.008492653734633633
3237.0,0.008479580525252387
3236.0,0.008466180419544188
3235.0,0.008454018580672832
3234.0,0.0084451109663879
3233.0,0.008438698776704822
3232.0,0.008431307485765928
3231.0,0.008419974427773093
3230.0,0.008404973126899001
3229.0,0.008389411197565463
3228.0,0.008376544924012524
3227.0,0.00836741023593027
3226.0,0.008360297957665562
3225.0,0.00835189706660559
3224.0,0.008339123325827098
3223.0,0.008320582960932566
3222.0,0.008297017816856416
3221.0,0.008270594121089991
3220.0,0.008243726989626733
3219.0,0.0082185342800002
3218.0,0.008196784868132728
3217.0,0.008179272702958582
3216.0,0.008164761434563727
3215.0,0.008150604835405542
3214.0,0.008135489774818573
3213.0,0.008120930479831008
3212.0,0.008108828538580385
3211.0,0.008098188609136244
3210.0,0.00808597393686216
3209.0,0.008071197246906726
3208.0,0.008056385255577114
3207.0,0.008044373227373218
3206.0,0.008035016943814952
3205.0,0.00802589523556152
3204.0,0.00801513532062895
3203.0,0.008002644460807298
3202.0,0.007989349303007742
3201.0,0.00797623268477779
3200.0,0.007963628170220147
3199.0,0.007950705583911019
3198.0,0.007935791799829946
3197.0,0.007917731567365336
3196.0,0.00789684417233195
3195.0,0.007874608213709118
3194.0,0.007852839257779513
3193.0,0.007832936025364341
3192.0,0.007815034371096135
3191.0,0.007797753522238207
3190.0,0.007779574178864341
3189.0,0.007760542647867734
3188.0,0.007741912957557702
3187.0,0.007724257025366823
3186.0,0.00770708490772286
3185.0,0.007690430692821793
3184.0,0.007675187168176693
3183.0,0.0076613372145144295
3182.0,0.0076471284595796656
3181.0,0.007630998501455244
3180.0,0.0076135967024993124
3179.0,0.007597157323955663
3178.0,0.00758318193850856
3177.0,0.007570907334250495
3176.0,0.007557577739774448
3175.0,0.007540451624900503
3174.0,0.007519658648278412
3173.0,0.007499302146431982
3172.0,0.0074843873511894945
3171.0,0.007475785859613924
3170.0,0.0074690206281873995
3169.0,0.007458497564815559
3168.0,0.007442317941851011
3167.0,0.007422942207134561
3166.0,0.007404546667995487
3165.0,0.007390178973091384
3164.0,0.007379815029749484
3163.0,0.007370121348230806
3162.0,0.007357177967091793
3161.0,0.007340756280216793
3160.0,0.007325506699627858
3159.0,0.007316903653753787
3158.0,0.007315942345815372
3157.0,0.007317831929276552
3156.0,0.007315417520465422
3155.0,0.007304283043808105
3154.0,0.0072859491632076626
3153.0,0.007266662389689621
3152.0,0.00725217285308883
3151.0,0.007243101726133025
3150.0,0.007235691530146995
3149.0,0.007226660835496458
3148.0,0.007215885852827734
3147.0,0.007204589682440277
3146.0,0.007193337353328512
3145.0,0.00718285011064747
3144.0,0.007175038133326771
3143.0,0.007171796756804733
3142.0,0.007173454832075635
3141.0,0.007179043000614518
3140.0,0.007187239259836586
3139.0,0.0071965153421894145
3138.0,0.00720565809020394
3137.0,0.007215027327557449
3136.0,0.007226312192484794
3135.0,0.0072405126379644184
3134.0,0.0072571467768292024
3133.0,0.007275454994519558
3132.0,0.007294625644804483
3131.0,0.00731205015125813
3130.0,0.0073232524505888255
3129.0,0.0073249911636256715
3128.0,0.007317403909119178
3127.0,0.007302407651371384
3126.0,0.007281851218806049
3125.0,0.007258364193397017
3124.0,0.007236146797598946
3123.0,0.007218836234532212
3122.0,0.007207230305993337
3121.0,0.007200663206271621
3120.0,0.007199548186839643
3119.0,0.00720510294799297
3118.0,0.00721806846222329
3117.0,0.007239168060033857
3116.0,0.007269195190274427
3115.0,0.0073066858826993375
3114.0,0.007346963058776563
3113.0,0.007386443281776031
3112.0,0.007427237287551906
3111.0,0.0074747677528158776
3110.0,0.007531277859256761
3109.0,0.0075933124537847525
3108.0,0.007654739628305936
3107.0,0.007709462632986528
3106.0,0.007751425240478003
3105.0,0.007775677181687618
3104.0,0.007781222853147819
3103.0,0.007771081858950217
3102.0,0.007748558727831338
3101.0,0.007714833851550768
3100.0,0.007670722236254757
3099.0,0.007618997355670903
3098.0,0.007563722079030144
3097.0,0.007508918459552353
3096.0,0.007459000019248955
3095.0,0.007419465998708526
3094.0,0.007395769346583134
3093.0,0.007391076518752957
3092.0,0.007405090073294495
3091.0,0.007434518821770224
3090.0,0.007474930702872197
3089.0,0.007522977204597155
3088.0,0.007577140901857862
3087.0,0.007636049826558808
3086.0,0.007696513675381404
3085.0,0.007754064180076589
3084.0,0.007805034141910012
3083.0,0.0078473452909485
3082.0,0.007879534985787761
3081.0,0.007900118630877502
3080.0,0.007908120073137834
3079.0,0.007903638153323747
3078.0,0.007888460064094795
3077.0,0.007867188431305332
3076.0,0.007847218387974805
3075.0,0.00783566006256245
3074.0,0.007835103156233515
3073.0,0.007842726315273447
3072.0,0.007853338170824495
3071.0,0.007862468667209112
3070.0,0.007866989206245562
3069.0,0.007864537464081061
3068.0,0.007853536164021287
3067.0,0.007833301315517004
3066.0,0.0078040858751943255
3065.0,0.0077681024136480575
3064.0,0.0077309084232697195
3063.0,0.007700472613183436
3062.0,0.00768357720094396
3061.0,0.007683124568976881
3060.0,0.007698265785760239
3059.0,0.0077254878081007665
3058.0,0.007758625679510155
3057.0,0.0077893576066338215
3056.0,0.00780967525348689
3055.0,0.007813963826775423
3054.0,0.007797708231308575
3053.0,0.007754897483354235
3052.0,0.007679523529104086
3051.0,0.007570674199475692
3050.0,0.0074350200290087785
3049.0,0.007283473677240216
3048.0,0.007126107503019256
3047.0,0.006971081589028686
3046.0,0.006826304059319315
3045.0,0.006699146985405259
3044.0,0.006593413167729255
3043.0,0.006508294172240862
3042.0,0.006441238572168471
3041.0,0.006390260161270119
3040.0,0.00635273857178964
3039.0,0.006323970065062868
3038.0,0.006299531824675499
3037.0,0.0062784564636137324
3036.0,0.006262310973941117
3035.0,0.006251543763682388
3034.0,0.006244656926685032
3033.0,0.006240950444981092
3032.0,0.006241582897492147
3031.0,0.006247393398084026
3030.0,0.006257583420875604
3029.0,0.006272098963711429
3028.0,0.006293569590217034
3027.0,0.006325051244744154
3026.0,0.006365811660033341
3025.0,0.006410937654244284
3024.0,0.006455667837850296
3023.0,0.006499559020763362
3022.0,0.006546284061899032
3021.0,0.006599739752426835
3020.0,0.006660575858604743
3019.0,0.0067261547546846375
3018.0,0.006793072392344616
3017.0,0.006859884320396159
3016.0,0.006927777005653474
3015.0,0.006999084749987094
3014.0,0.007074899992596745
3013.0,0.007153342467986892
3012.0,0.007230585387393412
3011.0,0.007304541635009694
3010.0,0.007377545036851226
3009.0,0.00745423077979946
3008.0,0.007535945783839301
3007.0,0.007618445698891594
3006.0,0.0076954353296863915
3005.0,0.007763669293496025
3004.0,0.007824250270664005
3003.0,0.007880214845557556
3002.0,0.007934382848593501
3001.0,0.007988134913016318
3000.0,0.008040500925935404
2999.0,0.00808904438777884
2998.0,0.008133479388214576
2997.0,0.008178563228202037
2996.0,0.008231183160434028
2995.0,0.008294287862862616
2994.0,0.008364859664183598
2993.0,0.00843805894893904
2992.0,0.008512313151727631
2991.0,0.008590051671790448
2990.0,0.008675286472603934
2989.0,0.00877062697469587
2988.0,0.008875771904422831
2987.0,0.00898837215780469
2986.0,0.009106980593288601
2985.0,0.00923273725661593
2984.0,0.009367097659204553
2983.0,0.009509139798698543
2982.0,0.009656887932097397
2981.0,0.009810949179288514
2980.0,0.009974129913307189
2979.0,0.010147666050311635
2978.0,0.010330572737058674
2977.0,0.010523660079126234
2976.0,0.010730792256435693
2975.0,0.010953737570058932
2974.0,0.011187483427522201
2973.0,0.011422982985452357
2972.0,0.01165350139362026
2971.0,0.011876799602419729
2970.0,0.012092321645396035
2969.0,0.012298745454447832
2968.0,0.0124933300206083
2967.0,0.012671984941917196
2966.0,0.012830499538549072
2965.0,0.012967025984552997
2964.0,0.013082625801886105
2963.0,0.013177579096531718
2962.0,0.013248002107828939
2961.0,0.013287789717143565
2960.0,0.013293241269836567
2959.0,0.013263759569040138
2958.0,0.01319926631689618
2957.0,0.013099704349400117
2956.0,0.012966779580555294
2955.0,0.01280354944110622
2954.0,0.012611702332613781
2953.0,0.012390994501979764
2952.0,0.012141561242077964
2951.0,0.01186564064809049
2950.0,0.011566749825673347
2949.0,0.011249065924732982
2948.0,0.010918279498540412
2947.0,0.01058147421425597
2946.0,0.01024472369291917
2945.0,0.009910557634977987
2944.0,0.009579160749124358
2943.0,0.009252378294769279
2942.0,0.008936758475131902
2941.0,0.008641393474639273
2940.0,0.008372603178110933
2939.0,0.008131074346140315
2938.0,0.007913966672341234
2937.0,0.007718513616904638
2936.0,0.007543775468869038
2935.0,0.007390240218217483
2934.0,0.0072582206571613715
2933.0,0.00714522676151577
2932.0,0.007044524226078815
2931.0,0.0069483856240229215
2930.0,0.006854501907747744
2929.0,0.0067672451293093565
2928.0,0.006691314163682467
2927.0,0.006625723252915173
2926.0,0.0065660827603982695
2925.0,0.006510472771228739
2924.0,0.006460197886165272
2923.0,0.006416016359827019
2922.0,0.006377503676685494
2921.0,0.006346210435994901
2920.0,0.006326639421779974
2919.0,0.0063239359295331945
2918.0,0.006341636937315586
2917.0,0.006380814311283451
2916.0,0.006438551770448624
2915.0,0.006507668625555775
2914.0,0.006580812994554083
2913.0,0.006655248744931536
2912.0,0.0067324733513680485
2911.0,0.006812907991537935
2910.0,0.00689201456216235
2909.0,0.0069618486140990265
2908.0,0.007015001407300058
2907.0,0.007047814876429423
2906.0,0.007061443708660728
2905.0,0.007060992105257976
2904.0,0.00705270071770164
2903.0,0.007041693424769797
2902.0,0.007032268091189349
2901.0,0.0070287177234617075
2900.0,0.007035033700991636
2899.0,0.0070527943341694484
2898.0,0.007081222852867263
2897.0,0.00711824455539185
2896.0,0.007160469819996242
2895.0,0.0072029658808441515
2894.0,0.00724076375724907
2893.0,0.007271238498751487
2892.0,0.007293780156189443
2891.0,0.00730783603790644
2890.0,0.007312171672344443
2889.0,0.007305672950953742
2888.0,0.007287297387241541
2887.0,0.0072558489463878575
2886.0,0.007211470136950889
2885.0,0.007157139071171541
2884.0,0.0070970859481535135
2883.0,0.007033730599991227
2882.0,0.0069676281902430505
2881.0,0.006900039335167658
2880.0,0.006833735337122029
2879.0,0.006771188819897404
2878.0,0.0067132283519331475
2877.0,0.006659584008664201
2876.0,0.006609262138807446
2875.0,0.006560703294907738
2874.0,0.006512945396369875
2873.0,0.006466660910047826
2872.0,0.0064228555695310715
2871.0,0.006380955190069116
2870.0,0.006339357073387206
2869.0,0.006297214745457493
2868.0,0.00625435747048177
2867.0,0.006210265890802161
2866.0,0.006165196909853702
2865.0,0.006121705674566245
2864.0,0.006082894708714103
2863.0,0.006048719032044745
2862.0,0.006015832080045748
2861.0,0.005980552117452905
2860.0,0.005940631045641751
2859.0,0.005894630844462748
2858.0,0.0058418199284665465
2857.0,0.00578271139366294
2856.0,0.005718249807359771
2855.0,0.005648945201173622
2854.0,0.005576298610467012
2853.0,0.005503903623833952
2852.0,0.005435315919656526
2851.0,0.005371315446697759
2850.0,0.005311264753095809
2849.0,0.005255831894149989
2848.0,0.005206356483281438
2847.0,0.005162677996797279
2846.0,0.00512371022734882
2845.0,0.005088602445057596
2844.0,0.0050553166043510395
2843.0,0.005019972869852476
2842.0,0.004980851780524254
2841.0,0.004941777681418356
2840.0,0.0049084537807934725
2839.0,0.004881786217003359
2838.0,0.004857498270963427
2837.0,0.004831768929400128
2836.0,0.0048038821740228
2835.0,0.004774288654495635
2834.0,0.004743709875133408
2833.0,0.004714537906659564
2832.0,0.004689635522655668
2831.0,0.004668659707075529
2830.0,0.004648002336170908
2829.0,0.004625005607467942
2828.0,0.004600439517926642
2827.0,0.004576795686380377
2826.0,0.004556209098083208
2825.0,0.004540011064059338
2824.0,0.004527293861309103
2823.0,0.004513760534284368
2822.0,0.004495129495389828
2821.0,0.004472405421652154
2820.0,0.004451615614834187
2819.0,0.004437453193273549
2818.0,0.004429223180946745
2817.0,0.004423178857385419
2816.0,0.004416149495473262
2815.0,0.004406621876230478
2814.0,0.004395121604781426
2813.0,0.004384410758802332
2812.0,0.004377090213436856
2811.0,0.004372060073439735
2810.0,0.004365427788660482
2809.0,0.004355437559327088
2808.0,0.004344079791982089
2807.0,0.004333490149752347
2806.0,0.0043235904232556055
2805.0,0.00431369587778056
2804.0,0.004303108361201124
2803.0,0.004289103427569366
2802.0,0.004267746006384482
2801.0,0.004239237705330417
2800.0,0.004209994405591211
2799.0,0.004186754766724511
2798.0,0.004170625623986921
2797.0,0.004158164031616645
2796.0,0.004146166589247806
2795.0,0.004133075523224984
2794.0,0.004117302699376557
2793.0,0.004097490546602029
2792.0,0.004074606973820783
2791.0,0.004051879478755719
2790.0,0.004032289965333307
2789.0,0.004016358306967163
2788.0,0.0040019462092657125
2787.0,0.003986140186281228
2786.0,0.003968254499368653
2785.0,0.003951510216553606
2784.0,0.003940388947054878
2783.0,0.00393536355903301
2782.0,0.003931427544282907
2781.0,0.003922707213100775
2780.0,0.0039074952217282855
2779.0,0.003888323863497218
2778.0,0.003868820034196736
2777.0,0.00385147124245139
2776.0,0.003837582177170464
2775.0,0.003827716048871434
2774.0,0.0038217130608343055
2773.0,0.0038183835640416006
2772.0,0.0038151685818578586
2771.0,0.003809073429970571
2770.0,0.0037995416109048302
2769.0,0.003789958502440154
2768.0,0.0037845499561149553
2767.0,0.0037835947724375804
2766.0,0.0037832949667770807
2765.0,0.0037804219426959646
2764.0,0.003775440031818171
2763.0,0.0037705729269932224
2762.0,0.0037665428371192917
2761.0,0.0037621819301063755
2760.0,0.0037557733278487833
2759.0,0.0037461487048289508
2758.0,0.0037337378652474744
2757.0,0.0037210823247213016
2756.0,0.003710901886963075
2755.0,0.0037028876041860373
2754.0,0.003693670238707877
2753.0,0.0036805466651466797
2752.0,0.003663951653408805
2751.0,0.003646001133771219
2750.0,0.003628408407453987
2749.0,0.0036124783813753242
2748.0,0.0035992630194614282
2747.0,0.0035882842766914126
2746.0,0.0035772031826756734
2745.0,0.0035640018146163932
2744.0,0.0035491094049288213
2743.0,0.003534801028186983
2742.0,0.0035231214128673164
2741.0,0.0035144876658503516
2740.0,0.0035071812806381202
2739.0,0.0034978921629887317
2738.0,0.003484123614689058
2737.0,0.0034670583717608863
2736.0,0.0034511475642294027
2735.0,0.00343990411968675
2734.0,0.0034324194648333584
2733.0,0.003424141184871888
2732.0,0.0034107559801628785
2731.0,0.003391436406636697
2730.0,0.0033694473942350433
2729.0,0.003349626436550266
2728.0,0.0033343737302175833
2727.0,0.0033219043725471074
2726.0,0.0033089649495842994
2725.0,0.0032946266832133628
2724.0,0.00328026038618849
2723.0,0.0032668589732337697
2722.0,0.0032545834404755876
2721.0,0.003244549578884692
2720.0,0.003238411785054944
2719.0,0.0032354218610861117
2718.0,0.00323182531975927
2717.0,0.003224183948103876
2716.0,0.003212032987886802
2715.0,0.0031971873062642273
2714.0,0.0031821920341528415
2713.0,0.0031697137063093645
2712.0,0.003161044157864134
2711.0,0.0031539131658365333
2710.0,0.0031436534589501207
2709.0,0.0031282104394890573
2708.0,0.0031112807577228386
2707.0,0.003098975178742797
2706.0,0.003093889924863439
2705.0,0.0030929350214124922
2704.0,0.003090520688465454
2703.0,0.0030833740489827283
2702.0,0.0030729291783873685
2701.0,0.0030635787488790577
2700.0,0.0030582185913984065
2699.0,0.003055403929900928
2698.0,0.0030511299650495174
2697.0,0.00304309792705159
2696.0,0.003032458327972494
2695.0,0.0030222919276592947
2694.0,0.003015558123585966
2693.0,0.0030137796656737855
2692.0,0.003015549794269509
2691.0,0.003016295202808666
2690.0,0.0030118272535540405
2689.0,0.003002726484123545
2688.0,0.0029938780308351263
2687.0,0.0029890309912884733
2686.0,0.0029873928445058612
2685.0,0.002985785714114492
2684.0,0.0029822947613769
2683.0,0.0029770101264538313
2682.0,0.002970854358623441
2681.0,0.0029649475715541104
2680.0,0.0029600600264063992
2679.0,0.0029557018621109285
2678.0,0.002950581700519145
2677.0,0.0029446183868550814
2676.0,0.0029396179764810595
2675.0,0.002937322918435542
2674.0,0.0029375277217218885
2673.0,0.002938490443053417
2672.0,0.0029383783106806324
2671.0,0.0029360740721830446
2670.0,0.0029317603843937627
2669.0,0.0029273312544093088
2668.0,0.002925454993350623
2667.0,0.002927836637498185
2666.0,0.002934955430301707
2665.0,0.0029470949767983496
2664.0,0.002963989036857193
2663.0,0.0029832922493856816
2662.0,0.0030010738407391458
2661.0,0.003015112224753148
2660.0,0.0030267577565827987
2659.0,0.0030389244728593907
2658.0,0.003052950038394067
2657.0,0.003067800105096802
2656.0,0.003081349736268695
2655.0,0.003091859431477253
2654.0,0.003099372835413816
2653.0,0.0031064583186687176
2652.0,0.0031165994387645753
2651.0,0.0031307759172729075
2650.0,0.003146204719008741
2649.0,0.003159013821255093
2648.0,0.0031678594527410966
2647.0,0.0031744205496223275
2646.0,0.0031812430925917696
2645.0,0.0031897220846056236
2644.0,0.0031995962913814588
2643.0,0.0032097400493901074
2642.0,0.0032195852297650157
2641.0,0.003230045411182463
2640.0,0.00324276850386876
2639.0,0.003258538068641714
2638.0,0.003276831142313045
2637.0,0.0032966235309209897
2636.0,0.003316770940840358
2635.0,0.0033359661108173
2634.0,0.0033535873742060107
2633.0,0.003370494831747087
2632.0,0.0033876031079527608
2631.0,0.003403292666586749
2630.0,0.0034136034990515365
2629.0,0.0034157879862284574
2628.0,0.0034110468310998695
2627.0,0.0034034246963869008
2626.0,0.0033966348130239814
2625.0,0.0033920641691887743
2624.0,0.003388760931171888
2623.0,0.00338505510962133
2622.0,0.003380588336533331
2621.0,0.0033767521345607326
2620.0,0.003374675840153915
2619.0,0.0033733566629648533
2618.0,0.003370792496506566
2617.0,0.003366446611830062
2616.0,0.0033614480410192786
2615.0,0.0033569005709434482
2614.0,0.0033534358955054503
2613.0,0.00335207330132803
2612.0,0.0033536840462683546
2611.0,0.003357434589678224
2610.0,0.0033609820455720663
2609.0,0.0033623498627914352
2608.0,0.0033608467403184747
2607.0,0.0033566329863039084
2606.0,0.003350761594874195
2605.0,0.0033454065920722155
2604.0,0.003342622585896398
2603.0,0.0033428768480083465
2602.0,0.003345472052654756
2601.0,0.0033495808381845795
2600.0,0.0033539189689978516
2599.0,0.0033569137957840493
2598.0,0.003358954919216014
2597.0,0.003363232057371048
2596.0,0.0033720465495139474
2595.0,0.003383137319683576
2594.0,0.003392262012314502
2593.0,0.0033986348398921456
2592.0,0.0034052140470397473
2591.0,0.0034139801095671362
2590.0,0.003423814825576782
2589.0,0.0034332824994146686
2588.0,0.003442711525979924
2587.0,0.003452643816858461
2586.0,0.003462451690074507
2585.0,0.0034715291956524622
2584.0,0.003480443426313485
2583.0,0.0034899049117726186
2582.0,0.003499215362213616
2581.0,0.0035060092729962697
2580.0,0.003507428670521954
2579.0,0.0035024311454660683
2578.0,0.0034937821269443448
2577.0,0.003486683473723759
2576.0,0.0034841431681419018
2575.0,0.0034847664929701042
2574.0,0.003486063733010274
2573.0,0.0034880462887275244
2572.0,0.0034918615696509572
2571.0,0.003496801721948108
2570.0,0.0035009556995800554
2569.0,0.0035033291388960625
2568.0,0.0035031665749329557
2567.0,0.003499007901637246
2566.0,0.0034910859575895117
2565.0,0.0034831195336115428
2564.0,0.003478925404962461
2563.0,0.0034785232962390826
2562.0,0.003479852131030835
2561.0,0.003482212458567247
2560.0,0.00348509825851406
2559.0,0.0034859618918300795
2558.0,0.003483048240131901
2557.0,0.003478917357821367
2556.0,0.0034773333031833335
2555.0,0.0034780308827538735
2554.0,0.0034784135468546315
2553.0,0.003478830126404305
2552.0,0.003481354210701364
2551.0,0.003484281788947363
2550.0,0.0034828740427862246
2549.0,0.003475836065790415
2548.0,0.0034669990125812088
2547.0,0.003460266070052796
2546.0,0.0034564137502453565
2545.0,0.003454840033797051
2544.0,0.0034548162458638747
2543.0,0.003455005132377415
2542.0,0.003454929469045225
2541.0,0.003456378547334226
2540.0,0.0034600003514286297
2539.0,0.0034616372235854133
2538.0,0.003456345186557152
2537.0,0.0034454409654594113
2536.0,0.003435338162180398
2535.0,0.0034297529308070715
2534.0,0.003427317173019433
2533.0,0.003426325736040863
2532.0,0.0034268497698056967
2531.0,0.0034278974233173647
2530.0,0.0034273743875733106
2529.0,0.0034255741072391783
2528.0,0.003424379336930892
2527.0,0.0034225614273849887
2526.0,0.0034165455985625615
2525.0,0.0034067343161509516
2524.0,0.0033982734383396123
2523.0,0.0033940324279725107
2522.0,0.003391066416088168
2521.0,0.003385429710001846
2520.0,0.0033765010167351537
2519.0,0.003365135128669882
2518.0,0.0033516519559777585
2517.0,0.003337682685254745
2516.0,0.0033264954701099367
2515.0,0.0033192049221368227
2514.0,0.003313292735357364
2513.0,0.0033064260487851082
2512.0,0.0032991375452371095
2511.0,0.003292498291357691
2510.0,0.0032858569364481805
2509.0,0.0032782537960746776
2508.0,0.003269818217655625
2507.0,0.0032607852474800273
2506.0,0.0032513448076634975
2505.0,0.003243073271031951
2504.0,0.0032379484461477256
2503.0,0.0032350913995258567
2502.0,0.003230757492739559
2501.0,0.0032222939566339155
2500.0,0.0032103036795278206
2499.0,0.0031968966017529906
2498.0,0.0031839699271394174
2497.0,0.0031728454666268835
2496.0,0.0031631016541812853
2495.0,0.0031520760096698033
2494.0,0.003138268145259063
2493.0,0.0031246167737033264
2492.0,0.0031150640628013603
2491.0,0.003108267994471182
2490.0,0.0030985669856890274
2489.0,0.003083435003312253
2488.0,0.0030662846807890474
2487.0,0.0030512455999563096
2486.0,0.00303865856801648
2485.0,0.0030266139358056873
2484.0,0.003013763676408705
2483.0,0.002999587460296784
2482.0,0.0029845357037924835
2481.0,0.0029707198932267583
2480.0,0.0029601105532197237
2479.0,0.0029516514581017367
2478.0,0.0029425016653076303
2477.0,0.002932134664863354
2476.0,0.0029224833965235423
2475.0,0.0029140163621594415
2474.0,0.0029048456970717923
2473.0,0.002894301916025672
2472.0,0.002884427340923235
2471.0,0.002876940609781743
2470.0,0.0028710951880262167
2469.0,0.002865448526977627
2468.0,0.0028598302358045415
2467.0,0.002854772626078631
2466.0,0.0028503348075901496
2465.0,0.002845876570539394
2464.0,0.0028403038068158318
2463.0,0.0028332221806382655
2462.0,0.0028266726708696833
2461.0,0.0028241514364349294
2460.0,0.0028264781843689354
2459.0,0.0028305132227634767
2458.0,0.002833523500236695
2457.0,0.0028361350920247316
2456.0,0.002838737392759848
2455.0,0.002838382083296117
2454.0,0.0028330604481932925
2453.0,0.0028262184872415667
2452.0,0.0028224704660060286
2451.0,0.0028211990769917957
2450.0,0.002819521692021762
2449.0,0.002819412417225803
2448.0,0.0028254741299112863
2447.0,0.002836220208741024
2446.0,0.002843939438773796
2445.0,0.0028440875989973035
2444.0,0.0028396666125382244
2443.0,0.0028353782639548124
2442.0,0.0028322284625959242
2441.0,0.002829202847707335
2440.0,0.002826130293622134
2439.0,0.002823497794028299
2438.0,0.0028225974598525437
2437.0,0.0028262668937971804
2436.0,0.0028360137617676716
2435.0,0.0028482868567233106
2434.0,0.0028574626275734627
2433.0,0.0028628628215383554
2432.0,0.002868899093203755
2431.0,0.0028777124336248463
2430.0,0.0028858040366234097
2429.0,0.0028891585349589384
2428.0,0.002888244517057311
2427.0,0.0028867327945913245
2426.0,0.00288810463844558
2425.0,0.0028941889982068243
2424.0,0.0029041162233573526
2423.0,0.0029140762951114204
2422.0,0.0029207051632514193
2421.0,0.002924965273927306
2420.0,0.0029303856602665487
2419.0,0.0029382517419760607
2418.0,0.002947641804856866
2417.0,0.0029589831649322294
2416.0,0.002973093626332417
2415.0,0.00298690282425528
2414.0,0.0029950927057018507
2413.0,0.002997439239154319
2412.0,0.0030005459541116285
2411.0,0.0030099603102843025
2410.0,0.003022820625191296
2409.0,0.003030001432558614
2408.0,0.003024631485545488
2407.0,0.003008620049053076
2406.0,0.002992388437656794
2405.0,0.002987378618435033
2404.0,0.0029963147684715597
2403.0,0.0030111522486549105
2402.0,0.0030222338430287423
2401.0,0.003027962455444449
2400.0,0.003033144000179811
2399.0,0.0030401937236516994
2398.0,0.0030464564117323387
2397.0,0.003049403817095066
2396.0,0.003049867695597697
2395.0,0.003049685598429326
2394.0,0.0030499107627669836
2393.0,0.0030517568083982573
2392.0,0.0030559324820326516
2391.0,0.00306062200328301
2390.0,0.00306294393610211
2389.0,0.003062520840273735
2388.0,0.0030610419347400046
2387.0,0.0030586782961790912
2386.0,0.00305383744073999
2385.0,0.003045811254446932
2384.0,0.0030339753926810946
2383.0,0.003014158087570962
2382.0,0.0029793473123054396
2381.0,0.0029254593635354665
2380.0,0.0028549077180752454
2379.0,0.002775080221959005
2378.0,0.002696658781991887
2377.0,0.0026328226413652586
2376.0,0.0025937328355790036
2375.0,0.0025784650474302076
2374.0,0.0025760972294476925
2373.0,0.0025768175981129506
2372.0,0.002577209009561101
2371.0,0.0025738370472410993
2370.0,0.0025606392201529713
2369.0,0.002537673280489026
2368.0,0.002514340345115053
2367.0,0.002499016579660469
2366.0,0.002492706090389733
2365.0,0.0024945570300572285
2364.0,0.0025012509941578346
2363.0,0.0024990058633762137
2362.0,0.0024723933926665688
2361.0,0.0024266348195019576
2360.0,0.0023876729400030346
2359.0,0.0023714834445435363
2358.0,0.0023674899878753037
2357.0,0.002359940535449184
2356.0,0.002345639952572942
2355.0,0.0023267761094284602
2354.0,0.002298178082253555
2353.0,0.0022626506573834517
2352.0,0.0022401226055130757
2351.0,0.0022468594901686777
2350.0,0.0022761091091351186
2349.0,0.002305900310829391
2348.0,0.0023198892260063077
2347.0,0.0023157497988513668
2346.0,0.0023048371994421916
2345.0,0.0023034429932580593
2344.0,0.0023172901148045726
2343.0,0.0023377171683721266
2342.0,0.0023458239658593854
2341.0,0.0023394055705976296
2340.0,0.002334947329054467
2339.0,0.0023392175645106394
2338.0,0.002340537580440935
2337.0,0.0023305792761501277
2336.0,0.0023198395486302525
2335.0,0.002315821463110225
2334.0,0.002311054341525762
2333.0,0.002296519562307634
2332.0,0.002280931173807692
2331.0,0.0022757312797525584
2330.0,0.0022891035522193876
2329.0,0.0023292748312302557
2328.0,0.002415094885308176
2327.0,0.0025493750039776732
2326.0,0.0027026025232434283
2325.0,0.0028224866727344115
2324.0,0.0028665236066509683
2323.0,0.002830089157503713
2322.0,0.0027507221770858383
2321.0,0.002681197245871262
2320.0,0.0026505085604337396
2319.0,0.0026478240769442366
2318.0,0.002648009210120552
2317.0,0.0026374344579628965
2316.0,0.0026214063764820497
2315.0,0.002606870156363125
2314.0,0.0025990994562680547
2313.0,0.002599648575142981
2312.0,0.002610641900939374
2311.0,0.002627661400818539
2310.0,0.0026461396891625326
2309.0,0.0026647060370198453
2308.0,0.0026861977207257295
2307.0,0.0027093743785658224
2306.0,0.0027328681564867973
2305.0,0.0027587581127701366
2304.0,0.002790458985174331
2303.0,0.002823562563697673
2302.0,0.0028507366159579075
2301.0,0.0028709380480154132
2300.0,0.0028920816532927553
2299.0,0.0029198213966149587
2298.0,0.0029552569304638846
2297.0,0.00299804940386531
2296.0,0.0030488355111425195
2295.0,0.0031027036287882264
2294.0,0.003151686550992695
2293.0,0.003193060441856083
2292.0,0.0032326140775224242
2291.0,0.0032756678872754895
2290.0,0.0033205534907981274
2289.0,0.0033620588252592327
2288.0,0.0033964792279015405
2287.0,0.0034222027823567255
2286.0,0.003438767770528842
2285.0,0.003447123181506336
2284.0,0.0034460771845836458
2283.0,0.003430116053031682
2282.0,0.003395468248651304
2281.0,0.003349011104799825
2280.0,0.00330444921158131
2279.0,0.003270494082060765
2278.0,0.0032477722278560365
2277.0,0.003234478669881982
2276.0,0.003226219631359657
2275.0,0.003212480077023007
2274.0,0.0031857322882593115
2273.0,0.0031540334552922246
2272.0,0.0031340113006280068
2271.0,0.003129236947009532
2270.0,0.003127930103696542
2269.0,0.0031222308645942947
2268.0,0.003116975937599638
2267.0,0.003114767564667896
2266.0,0.003106937823076584
2265.0,0.003087319840195257
2264.0,0.00306544943160127
2263.0,0.003057724702320604
2262.0,0.003070859305876166
2261.0,0.0030988553830372818
2260.0,0.0031292305964593726
2259.0,0.0031491251944814986
2258.0,0.0031512439431177833
2257.0,0.003138371330742993
2256.0,0.003117518302138921
2255.0,0.0030897731998344915
2254.0,0.003053456297911407
2253.0,0.003016386497531113
2252.0,0.0029940263094219025
2251.0,0.002992628969256991
2250.0,0.0030038403735871133
2249.0,0.0030168297718528555
2248.0,0.003027081091179903
2247.0,0.003032645673874509
2246.0,0.003032249740977004
2245.0,0.0030298242088782597
2244.0,0.003031245945747638
2243.0,0.0030344588482002716
2242.0,0.0030323978565817006
2241.0,0.0030262955001603515
2240.0,0.003025305591120392
2239.0,0.003031384898643964
2238.0,0.003036473352943321
2237.0,0.003036804300571066
2236.0,0.0030379447499848345
2235.0,0.0030425500237930892
2234.0,0.0030451321449141895
2233.0,0.0030428893224566708
2232.0,0.003040360298067384
2231.0,0.003039301721212387
2230.0,0.003035118204378597
2229.0,0.003027060359267721
2228.0,0.003020719873433349
2227.0,0.003017091182396377
2226.0,0.0030110562990833365
2225.0,0.003003918365906531
2224.0,0.0030050074690422686
2223.0,0.0030159097050912378
2222.0,0.0030249449089276726
2221.0,0.0030223836607733423
2220.0,0.003011456929880456
2219.0,0.0029998102973801018
2218.0,0.0029903507792411795
2217.0,0.00298431809482706
2216.0,0.0029834786109978915
2215.0,0.002986190121877295
2214.0,0.002989755456924712
2213.0,0.0029968745069156168
2212.0,0.003009840714228911
2211.0,0.0030203829356825504
2210.0,0.0030182412747779756
2209.0,0.0030086766548194878
2208.0,0.0030062961359638993
2207.0,0.0030115670980205927
2206.0,0.003009721619417599
2205.0,0.002993616605909734
2204.0,0.002971499475770339
2203.0,0.0029508387892974814
2202.0,0.002932168773727123
2201.0,0.0029209184117324296
2200.0,0.0029256575727924254
2199.0,0.002941079513882122
2198.0,0.0029508259596116118
2197.0,0.0029513827901037418
2196.0,0.002955332935022311
2195.0,0.0029664404945280547
2194.0,0.002971211803742026
2193.0,0.002962194014901526
2192.0,0.002951078145987832
2191.0,0.0029500626070825047
2190.0,0.002957392442351533
2189.0,0.0029691124800185244
2188.0,0.002988446868114454
2187.0,0.0030147372092803534
2186.0,0.0030370541034248797
2185.0,0.0030455320076967444
2184.0,0.003036366114046437
2183.0,0.0030039106866861605
2182.0,0.002947473011289979
2181.0,0.002889980998159148
2180.0,0.0028657028431406844
2179.0,0.00288002615577455
2178.0,0.00290278946005974
2177.0,0.002908006204756126
2176.0,0.002900939543142379
2175.0,0.0028995020492861914
2174.0,0.002910707953493604
2173.0,0.0029371051928590106
2172.0,0.002986519267207918
2171.0,0.003061054780849081
2170.0,0.003148890422957551
2169.0,0.0032362895801303225
2168.0,0.003316758883295386
2167.0,0.0033828461058179587
2166.0,0.003427606353663769
2165.0,0.003465338669643025
2164.0,0.00352830900406085
2163.0,0.0036184943972977024
2162.0,0.003669970033578056
2161.0,0.0035823040625453636
2160.0,0.0033066678767129072
2159.0,0.002907167786397347
2158.0,0.0025343752065748997
2157.0,0.0023182978924935604
2156.0,0.0022776288105888325
2155.0,0.0023360489017807836
2154.0,0.002412261565436464
2153.0,0.0024763669470064943
2152.0,0.002534342424055161
2151.0,0.0025879227796972762
2150.0,0.002629472500600266
2149.0,0.0026624656388274004
2148.0,0.0026987377136857035
2147.0,0.0027350143292713468
2146.0,0.002752598320765007
2145.0,0.0027432838814736523
2144.0,0.0027194347630419553
2143.0,0.0026979394533668175
2142.0,0.0026889291743712783
2141.0,0.002697223182473294
2140.0,0.0027176401817338987
2139.0,0.002729375952539612
2138.0,0.0027108949833349236
2137.0,0.002661066903758948
2136.0,0.0025966115124486165
2135.0,0.0025332923165552915
2134.0,0.002483382798996829
2133.0,0.0024623809927346208
2132.0,0.0024783624026418686
2131.0,0.002517353567537333
2130.0,0.002556243103492889
2129.0,0.0025872123525972936
2128.0,0.002617883970262816
2127.0,0.002651788178212378
2126.0,0.0026844276649693956
2125.0,0.002716175411779348
2124.0,0.0027530396602653173
2123.0,0.0027935326203062123
2122.0,0.002828617295308748
2121.0,0.0028559933128684055
2120.0,0.0028827016316437205
2119.0,0.002913068129037454
2118.0,0.0029459521200327697
2117.0,0.002982541032190796
2116.0,0.0030233622633743695
2115.0,0.003058132349763593
2114.0,0.003073671872046124
2113.0,0.0030734443552615947
2112.0,0.003074988336018871
2111.0,0.0030855084079889597
2110.0,0.003094516189119997
2109.0,0.00309259667590264
2108.0,0.003082640347139886
2107.0,0.0030692746401640002
2106.0,0.003052318544607066
2105.0,0.003034731343563871
2104.0,0.0030228287966490444
2103.0,0.0030150234702763044
2102.0,0.003003914564741719
2101.0,0.0029918218315288336
2100.0,0.002989219473358351
2099.0,0.0029935851476751633
2098.0,0.002984653266526363
2097.0,0.0029462915934406948
2096.0,0.0028832265617367925
2095.0,0.00281390570305031
2094.0,0.0027590940653247236
2093.0,0.0027362716105496453
2092.0,0.0027495780798109976
2091.0,0.0027819299709224803
2090.0,0.00280916029707421
2089.0,0.002823758617806795
2088.0,0.0028341567281977187
2087.0,0.0028438396814711928
2086.0,0.0028469512597936435
2085.0,0.002843851006255535
2084.0,0.002843138514377771
2083.0,0.002845747331780524
2082.0,0.002843272631227757
2081.0,0.002834202872407755
2080.0,0.0028260800915962366
2079.0,0.0028194511719564675
2078.0,0.0028068796786734143
2077.0,0.0027895008052950627
2076.0,0.002777199359616841
2075.0,0.0027703293299737404
2074.0,0.0027595513186040284
2073.0,0.0027453860125228073
2072.0,0.0027375141533968793
2071.0,0.002732804228424432
2070.0,0.00271651711154206
2069.0,0.0026891421296581625
2068.0,0.0026705677582328628
2067.0,0.0026707221931418115
2066.0,0.002676831482661883
2065.0,0.0026750424184203143
2064.0,0.0026654786216513677
2063.0,0.0026491303700185973
2062.0,0.0026205180431614805
2061.0,0.0025819646887905935
2060.0,0.002548402510428193
2059.0,0.002531577547472839
2058.0,0.002531548176381857
2057.0,0.002543324875523824
2056.0,0.0025586079923352236
2055.0,0.002568979446866711
2054.0,0.0025862789047441633
2053.0,0.0026461520435108817
2052.0,0.0027596662597175
2051.0,0.0028693286487643595
2050.0,0.002890761967950628
2049.0,0.0028089525635222657
2048.0,0.0026996074716187997
2047.0,0.00263516800619087
2046.0,0.0026147859451092783
2045.0,0.0026057263457582103
2044.0,0.0025995224013532596
2043.0,0.0025990488680673568
2042.0,0.0025942110261144443
2041.0,0.0025820696413103336
2040.0,0.0025809517779802273
2039.0,0.002599184178607166
2038.0,0.0026177769890542474
2037.0,0.002620429816852915
2036.0,0.0026106247366140998
2035.0,0.0025870058731261407
2034.0,0.0025382677010143953
2033.0,0.00247972538059236
2032.0,0.0024536339432354067
2031.0,0.002471517938518745
2030.0,0.0024955946901869556
2029.0,0.0024933120960320904
2028.0,0.0024741238402929467
2027.0,0.002458011957413701
2026.0,0.0024462839765993544
2025.0,0.002442155625689053
2024.0,0.002459924057564607
2023.0,0.002495459860528718
2022.0,0.0025225710299726463
2021.0,0.0025326038176217134
2020.0,0.002545254018337646
2019.0,0.0025682998827645303
2018.0,0.0025833346533815156
2017.0,0.0025853691080405575
2016.0,0.0025980335389333203
2015.0,0.0026316305625350644
2014.0,0.0026667586926899774
2013.0,0.002692761696531718
2012.0,0.0027235856043774493
2011.0,0.0027612437099863033
2010.0,0.002779164731630891
2009.0,0.0027594433743372998
2008.0,0.0027158239550869293
2007.0,0.002666306518824435
2006.0,0.002617610979569296
2005.0,0.002588818447698998
2004.0,0.002608500105903838
2003.0,0.0026743761642625255
2002.0,0.00274975355829975
2001.0,0.0028069697262865703
2000.0,0.002848755995112931
1999.0,0.0028805060727134075
1998.0,0.0028981590654285298
1997.0,0.0029139163379647438
1996.0,0.002955093313057191
1995.0,0.0030240301626261725
1994.0,0.0030917160119675793
1993.0,0.003141788169806765
1992.0,0.003190659134613972
1991.0,0.0032481748786532196
1990.0,0.0032957060830571382
1989.0,0.0033235713621380266
1988.0,0.0033494045175388376
1987.0,0.003382452018827032
1986.0,0.0034074373882416564
1985.0,0.003423938852110931
1984.0,0.0034662897640571006
1983.0,0.0035599760627455686
1982.0,0.0036851152800800547
1981.0,0.0037973803085042295
1980.0,0.003857562606976243
1979.0,0.003829483286416871
1978.0,0.0036975634300481525
1977.0,0.003513994931049045
1976.0,0.0033748405119296784
1975.0,0.003319881664334842
1974.0,0.0033095983841506392
1973.0,0.0033090778116391484
1972.0,0.003331511747458904
1971.0,0.003385218639615154
1970.0,0.0034404649490330386
1969.0,0.003476051112276527
1968.0,0.0035115717006615637
1967.0,0.0035652701197720544
1966.0,0.003620993861389145
1965.0,0.003665575995871949
1964.0,0.003712166871162846
1963.0,0.003762120253330878
1962.0,0.0037882981288843588
1961.0,0.003779527754630303
1960.0,0.003764668676886221
1959.0,0.0037693796181725173
1958.0,0.0037877451118803872
1957.0,0.0038131692718475782
1956.0,0.003854971585616526
1955.0,0.00390706009683483
1954.0,0.003939711659097597
1953.0,0.003942309150361376
1952.0,0.003937082189244487
1951.0,0.003936285140057952
1950.0,0.003922368590021802
1949.0,0.0038866485060295893
1948.0,0.0038521784274348552
1947.0,0.0038366404040560634
1946.0,0.0038256160388818686
1945.0,0.0038019235175554625
1944.0,0.003769062385558115
1943.0,0.0037276447377821206
1942.0,0.003662914252191569
1941.0,0.003578193590016135
1940.0,0.003501353324680945
1939.0,0.003443861693700493
1938.0,0.0033891869474541414
1937.0,0.003326066812337196
1936.0,0.003265553134446521
1935.0,0.0032142159515616943
1934.0,0.0031595028013693383
1933.0,0.0030965316517056946
1932.0,0.0030398796239527862
1931.0,0.0029970500898596187
1930.0,0.002955539024894793
1929.0,0.002908359259239098
1928.0,0.002868965329385477
1927.0,0.0028436487061223354
1926.0,0.002819851569310879
1925.0,0.0027900969653375336
1924.0,0.002766871451494292
1923.0,0.002759779003191498
1922.0,0.0027560561299647323
1921.0,0.0027435733373990926
1920.0,0.0027279773249916533
1919.0,0.002712936594385259
1918.0,0.0026879725982222207
1917.0,0.002650915103699645
1916.0,0.0026181511637557876
1915.0,0.0025959891364101
1914.0,0.0025740207480169103
1913.0,0.002549182255054226
1912.0,0.002532109478719692
1911.0,0.00252484791875474
1910.0,0.0025122071103705072
1909.0,0.002487390796916406
1908.0,0.0024646337170913307
1907.0,0.002450146637264706
1906.0,0.00243268131296986
1905.0,0.002408028731892877
1904.0,0.0023895565412534367
1903.0,0.002384002839068667
1902.0,0.002377082765178462
1901.0,0.0023584279631499
1900.0,0.002338734255341135
1899.0,0.00232655814566452
1898.0,0.002314196633375707
1897.0,0.002295839282649831
1896.0,0.002279534253663718
1895.0,0.0022698056825292993
1894.0,0.0022571144148911967
1893.0,0.0022394825187892274
1892.0,0.0022303811099351166
1891.0,0.002234569129875445
1890.0,0.0022357494010206967
1889.0,0.002222496374161994
1888.0,0.0022071602390954857
1887.0,0.002198447454529377
1886.0,0.002187028821832097
1885.0,0.0021688813708391503
1884.0,0.0021560084617670335
1883.0,0.0021542243981315045
1882.0,0.0021510581427703125
1881.0,0.0021391362360726135
1880.0,0.0021303939872871895
1879.0,0.0021317808100901666
1878.0,0.0021323473980307582
1877.0,0.002125343536065914
1876.0,0.002120489638390654
1875.0,0.0021251518703910496
1874.0,0.002134015245309899
1873.0,0.002146033257978768
1872.0,0.0021718746174702835
1871.0,0.0022124428078868536
1870.0,0.002246217849354458
1869.0,0.002253875069146932
1868.0,0.0022475179359226576
1867.0,0.0022432312833337706
1866.0,0.0022329386912988904
1865.0,0.0022133745924738314
1864.0,0.0022018092344628735
1863.0,0.0022081982743740263
1862.0,0.00221913272842179
1861.0,0.0022233701177015856
1860.0,0.0022318956920649898
1859.0,0.0022543174923565666
1858.0,0.0022781705027927796
1857.0,0.002291743882073008
1856.0,0.0023050547914258124
1855.0,0.0023289988536830293
1854.0,0.0023551604902494424
1853.0,0.0023741118710463656
1852.0,0.002397697274986069
1851.0,0.002435965330101938
1850.0,0.0024794700511685946
1849.0,0.0025202247905999086
1848.0,0.00256674176029711
1847.0,0.002622603908091941
1846.0,0.0026703065922003572
1845.0,0.002697890298305406
1844.0,0.0027236627525574434
1843.0,0.002763591765894743
1842.0,0.0027973660095783203
1841.0,0.002809944007716344
1840.0,0.0028222275431494886
1839.0,0.0028558820060802944
1838.0,0.002901031957350364
1837.0,0.0029353389976716875
1836.0,0.0029624516008881783
1835.0,0.0029994802223891103
1834.0,0.0030433219521259266
1833.0,0.003082090838518381
1832.0,0.003121305404198936
1831.0,0.003169302865773898
1830.0,0.0032128081438982017
1829.0,0.0032388793136843095
1828.0,0.0032627735752877073
1827.0,0.0032943562143302007
1826.0,0.0033176035870606715
1825.0,0.003319959809146725
1824.0,0.003316914065775772
1823.0,0.0033220641332808764
1822.0,0.003319687578746476
1821.0,0.0032970494868439604
1820.0,0.0032685227561683764
1819.0,0.0032477771127608643
1818.0,0.003223858771354234
1817.0,0.0031879825401410202
1816.0,0.0031626710380842507
1815.0,0.0031701965430375443
1814.0,0.0031952530648917056
1813.0,0.0032120435520884513
1812.0,0.0032200345459919393
1811.0,0.003232121470384672
1810.0,0.003241776520373145
1809.0,0.003235419358317928
1808.0,0.003224317566958914
1807.0,0.0032248522209646037
1806.0,0.003230477013420491
1805.0,0.0032332944825455936
1804.0,0.003248925509770092
1803.0,0.0032901222003577017
1802.0,0.003329556704505459
1801.0,0.0033340047226455513
1800.0,0.003318721052873125
1799.0,0.0033208457955835884
1798.0,0.0033393660402439907
1797.0,0.0033531367161685386
1796.0,0.0033665986067071547
1795.0,0.0033948961015502054
1794.0,0.003426552834941618
1793.0,0.00344070120120689
1792.0,0.003450658686762619
1791.0,0.0034791996651039095
1790.0,0.003502259197656478
1789.0,0.003496799855959374
1788.0,0.003489909493329524
1787.0,0.003515676759864065
1786.0,0.003562688030665873
1785.0,0.003596577093275098
1784.0,0.0036215354196305607
1783.0,0.0036644080567637813
1782.0,0.00371359810571066
1781.0,0.003744752904076873
1780.0,0.0037696973507855116
1779.0,0.0038128757612961818
1778.0,0.003861101144075082
1777.0,0.0038935323494263896
1776.0,0.003930914182088266
1775.0,0.004000598509043098
1774.0,0.004083833075395815
1773.0,0.004145646903282967
1772.0,0.004210562442183191
1771.0,0.00432167051700324
1770.0,0.004441174907803131
1769.0,0.004519655739396701
1768.0,0.004583986776197459
1767.0,0.00468091967015323
1766.0,0.004790788745865986
1765.0,0.004879404410135811
1764.0,0.004976274928209904
1763.0,0.005140945679402475
1762.0,0.005359629266843624
1761.0,0.005559323229653765
1760.0,0.005741057612191485
1759.0,0.00596656814806622
1758.0,0.00624903277318706
1757.0,0.006556207287922574
1756.0,0.0068860399671140235
1755.0,0.007258670938139083
1754.0,0.00766632324174534
1753.0,0.008120377000149406
1752.0,0.00871790412011812
1751.0,0.00956080686866272
1750.0,0.010589153710638177
1749.0,0.011679272519727687
1748.0,0.012857888380823345
1747.0,0.014208245352133794
1746.0,0.015744384478116488
1745.0,0.01749756647915779
1744.0,0.01954114448702267
1743.0,0.02185051636529361
1742.0,0.024333565158295947
1741.0,0.027096384976741217
1740.0,0.030353422772754914
1739.0,0.033832513865045384
1738.0,0.036866194261269455
1737.0,0.03933161801994478
1736.0,0.04192404850539315
1735.0,0.04578053446871415
1734.0,0.05102129266657513
1733.0,0.055729327230748534
1732.0,0.0591651807534864
1731.0,0.062322270420881815
1730.0,0.06583337555873985
1729.0,0.06953716461723987
1728.0,0.07310538809612031
1727.0,0.07654701524914705
1726.0,0.08004102992422824
1725.0,0.08368487639248634
1724.0,0.08748447723940715
1723.0,0.09130708445162385
1722.0,0.09482193986747732
1721.0,0.0978129411002298
1720.0,0.10062030270017279
1719.0,0.10410561042256462
1718.0,0.10859817936647752
1717.0,0.11264525172172087
1716.0,0.11502303383367782
1715.0,0.1163464854641309
1714.0,0.11698901910981481
1713.0,0.11657336028469859
1712.0,0.11502575265208295
1711.0,0.11269489501079664
1710.0,0.10974136261916705
1709.0,0.10605756952771005
1708.0,0.1016148653482767
1707.0,0.09639519317255833
1706.0,0.0903562660198733
1705.0,0.08419255247370706
1704.0,0.0791056368229919
1703.0,0.07524143683790484
1702.0,0.07146336067150966
1701.0,0.06619316373463807
1700.0,0.05992333623370393
1699.0,0.055360406771710204
1698.0,0.0525757182828582
1697.0,0.04988217545568967
1696.0,0.0464888525043813
1695.0,0.043272272338879335
1694.0,0.04107730228876448
1693.0,0.039580553623117694
1692.0,0.03824114747808918
1691.0,0.03682678359461861
1690.0,0.03539157923909618
1689.0,0.03412877500213018
1688.0,0.033154828311296236
1687.0,0.03240350246706964
1686.0,0.03167787507153925
1685.0,0.030685516025077568
1684.0,0.02940253911480924
1683.0,0.028369113129503427
1682.0,0.027700679452405706
1681.0,0.027099381022021855
1680.0,0.02642908817235271
1679.0,0.02574623128859391
1678.0,0.02512039294722433
1677.0,0.024487877618207955
1676.0,0.023712259952116902
1675.0,0.022829154894747225
1674.0,0.022082259638638375
1673.0,0.021545690921640645
1672.0,0.021066701182355773
1671.0,0.020488818994048696
1670.0,0.019773455929288336
1669.0,0.019042206933187086
1668.0,0.018433946880385906
1667.0,0.017960465146782244
1666.0,0.017565419675298666
1665.0,0.017177609813254315
1664.0,0.016723063110805774
1663.0,0.01619124563339642
1662.0,0.015681205353335014
1661.0,0.015274666208594526
1660.0,0.014940957518745992
1659.0,0.01463863640823515
1658.0,0.0143804137603772
1657.0,0.014189134709455336
1656.0,0.01404332128046072
1655.0,0.0138736504128466
1654.0,0.013576772225283902
1653.0,0.013162972020443958
1652.0,0.012904330153795019
1651.0,0.012823552458502464
1650.0,0.012777156931222814
1649.0,0.012705404073474485
1648.0,0.012565711298849135
1647.0,0.012340620370983183
1646.0,0.01211603685659005
1645.0,0.011967494303566879
1644.0,0.011854760881968362
1643.0,0.011739063612743366
1642.0,0.011621100666322083
1641.0,0.01151466526099975
1640.0,0.011425476506090548
1639.0,0.011347059389261659
1638.0,0.01126825448135374
1637.0,0.011160932853350498
1636.0,0.010990954677890874
1635.0,0.010800387666355632
1634.0,0.010674835811524352
1633.0,0.010594758890730298
1632.0,0.010507524101125083
1631.0,0.010400209731705494
1630.0,0.010282716051688165
1629.0,0.010160839639541964
1628.0,0.010030793429909509
1627.0,0.009901394062636765
1626.0,0.009788821723453741
1625.0,0.009687873300255223
1624.0,0.009572290093020495
1623.0,0.009445289154719901
1622.0,0.00936192345849124
1621.0,0.00935179511281853
1620.0,0.009390876283517317
1619.0,0.009466181061183732
1618.0,0.009610445332529518
1617.0,0.00984190334474104
1616.0,0.010066435834537807
1615.0,0.010168379968262703
1614.0,0.010137469522586727
1613.0,0.010007172602499552
1612.0,0.009794149462854125
1611.0,0.009505105476637224
1610.0,0.009161416278448032
1609.0,0.008795580213023952
1608.0,0.008427255535143131
1607.0,0.008068916312665243
1606.0,0.007735966828601294
1605.0,0.00743345603893039
1604.0,0.007146079206512649
1603.0,0.006860881778161333
1602.0,0.006589753420633961
1601.0,0.006347951108656921
1600.0,0.0061323334822545265
1599.0,0.005938488286931364
1598.0,0.005775879007115087
1597.0,0.005649862943475127
1596.0,0.00554809363484055
1595.0,0.0054622383330129075
1594.0,0.005403554102797476
1593.0,0.005380848714805223
1592.0,0.005383405446205565
1591.0,0.005402178923846402
1590.0,0.005448722210970896
1589.0,0.005540764228640376
1588.0,0.005687850975425912
1587.0,0.00590915690220563
1586.0,0.0062474431587969705
1585.0,0.006742914871415253
1584.0,0.007403696425357296
1583.0,0.008193761559028194
1582.0,0.009035188625200587
1581.0,0.009820897526819661
1580.0,0.010447299674496702
1579.0,0.010828171453194178
1578.0,0.010871452757826475
1577.0,0.010476206883735368
1576.0,0.009699919602148428
1575.0,0.008885267625588469
1574.0,0.008259671023190024
1573.0,0.00777521550414116
1572.0,0.007333076732263657
1571.0,0.0068678174569414396
1570.0,0.0063731407122676
1569.0,0.0059364536827543266
1568.0,0.0056324081951472345
1567.0,0.0054198300056531494
1566.0,0.005232515337735465
1565.0,0.005048281802422693
1564.0,0.004888573061571316
1563.0,0.004776238745182251
1562.0,0.004706096893752861
1561.0,0.004655091519073089
1560.0,0.004590376137782916
1559.0,0.004465484657253771
1558.0,0.004354458139780007
1557.0,0.004317151942360953
1556.0,0.00427385049788046
1555.0,0.004203516816126247
1554.0,0.0041282378050087574
1553.0,0.004071142358247762
1552.0,0.004028386013788522
1551.0,0.0039837256537632905
1550.0,0.003932345487424172
1549.0,0.0038764713468013804
1548.0,0.0038247543047680655
1547.0,0.003790070674532708
1546.0,0.0037847748163071853
1545.0,0.0038038222080798104
1544.0,0.003818380277439283
1543.0,0.003808106418669829
1542.0,0.003787335021091693
1541.0,0.0037651620211339876
1540.0,0.00372161151421752
1539.0,0.003682543588109894
1538.0,0.0036886666752352906
1537.0,0.003712241389655313
1536.0,0.0037313827746007317
1535.0,0.00376206413514134
1534.0,0.003831737624736462
1533.0,0.003927007828871783
1532.0,0.0039987528980117235
1531.0,0.0040387028580866485
1530.0,0.00407466621187666
1529.0,0.004124220570985307
1528.0,0.004177501901001164
1527.0,0.004215154973871288
1526.0,0.004229035196985115
1525.0,0.004221326966747782
1524.0,0.004194889788940463
1523.0,0.004158396544488567
1522.0,0.004124481725006756
1521.0,0.0040938925896577515
1520.0,0.004064890645066333
1519.0,0.004043281205421201
1518.0,0.004042404613157541
1517.0,0.004071267199271732
1516.0,0.00412132407164392
1515.0,0.0041987535753424815
1514.0,0.004335526132831878
1513.0,0.004573327906023564
1512.0,0.004938030470117571
1511.0,0.005429138058744176
1510.0,0.006050051518150417
1509.0,0.006893446216901916
1508.0,0.008227583293030208
1507.0,0.010086401185125701
1506.0,0.011432353748094325
1505.0,0.011642314973438627
1504.0,0.01109970776650231
1503.0,0.010141195114671375
1502.0,0.008950323795653322
1501.0,0.00768570316016887
1500.0,0.006498206597066639
1499.0,0.005477841485102832
1498.0,0.0046404775202510285
1497.0,0.003984713385086572
1496.0,0.0035060207576013717
1495.0,0.003177063448701169
1494.0,0.0029700559721735397
1493.0,0.0028715573262690043
1492.0,0.002853174133414821
1491.0,0.0028663213497968415
1490.0,0.0028880242857693486
1489.0,0.002934765764364214
1488.0,0.0029921839471607993
1487.0,0.0030329382807855985
1486.0,0.003075754200420079
1485.0,0.0031502539934436984
1484.0,0.0032550043784491675
1483.0,0.0033727547669096854
1482.0,0.003511152566577228
1481.0,0.0036837623057588316
1480.0,0.0038694697923313164
1479.0,0.00404432191396805
1478.0,0.004230146650606989
1477.0,0.004464235340489462
1476.0,0.004731099207105746
1475.0,0.004985908480873493
1474.0,0.005242324400934437
1473.0,0.005544500201211156
1472.0,0.005827369724987121
1471.0,0.006000567640105426
1470.0,0.006108100042032861
1469.0,0.006234469558012235
1468.0,0.006419661667831726
1467.0,0.0066870576497534365
1466.0,0.007091545716312927
1465.0,0.0076711232857447145
1464.0,0.008325770273546656
1463.0,0.008914820696540024
1462.0,0.009436079979492364
1461.0,0.009955441352714877
1460.0,0.010504099049831423
1459.0,0.011099915100929818
1458.0,0.011813703837421006
1457.0,0.012608928365178605
1456.0,0.013173118304020669
1455.0,0.013406976187749525
1454.0,0.013480562538061482
1453.0,0.013508127002471199
1452.0,0.01349836349478943
1451.0,0.013446736381971792
1450.0,0.013387690573036428
1449.0,0.013347413399878471
1448.0,0.013301372707224264
1447.0,0.013225117622122329
1446.0,0.013133398801859823
1445.0,0.01303718362683392
1444.0,0.012914376588499895
1443.0,0.012745656191118178
1442.0,0.012542938943624167
1441.0,0.012322347408765697
1440.0,0.012075960952243352
1439.0,0.011771558720689239
1438.0,0.011350075521336801
1437.0,0.010746959897290085
1436.0,0.010026068948648756
1435.0,0.009355702246695317
1434.0,0.008775272582758387
1433.0,0.00822254058819296
1432.0,0.007660361524269278
1431.0,0.0071075026302547945
1430.0,0.006608604028244322
1429.0,0.006201846237476145
1428.0,0.005911769253459778
1427.0,0.005739769586954501
1426.0,0.0056658843080340925
1425.0,0.00568398775567505
1424.0,0.005800547278764889
1423.0,0.005997417002525575
1422.0,0.006262052046615481
1421.0,0.006670787154304312
1420.0,0.007406595033776808
1419.0,0.00859710052498881
1418.0,0.010109983389390474
1417.0,0.011808204682394036
1416.0,0.013778813419110848
1415.0,0.016151218674507636
1414.0,0.01897754712068935
1413.0,0.022203479013351055
1412.0,0.02554996171917396
1411.0,0.028468940501015696
1410.0,0.030440625613262648
1409.0,0.031258994993042924
1408.0,0.030924089488487537
1407.0,0.029523206622753116
1406.0,0.02730792974065007
1405.0,0.02472289567769057
1404.0,0.022265793122394663
1403.0,0.020250644901807096
1402.0,0.018690582948502777
1401.0,0.017410832722388952
1400.0,0.016228268600944985
1399.0,0.015110753885945332
1398.0,0.014168888583598677
1397.0,0.013425871318196931
1396.0,0.012759351488126413
1395.0,0.012076133478807644
1394.0,0.011428744163505384
1393.0,0.010901625967659263
1392.0,0.01048591273413287
1391.0,0.010137980002832727
1390.0,0.00984385287718263
1389.0,0.009604391139370831
1388.0,0.009409389993775193
1387.0,0.009253047655394711
1386.0,0.009151691961516118
1385.0,0.009121506998057458
1384.0,0.009166038652365741
1383.0,0.00928987624304327
1382.0,0.009503229902976385
1381.0,0.009811564385176549
1380.0,0.010209873253386887
1379.0,0.010681602333884026
1378.0,0.011204738865890594
1377.0,0.011773191478078584
1376.0,0.01240797955335613
1375.0,0.01312231673245478
1374.0,0.013856546924279754
1373.0,0.014484404334828244
1372.0,0.014908469835149544
1371.0,0.015088519812787981
1370.0,0.014991106242423842
1369.0,0.01457836548503377
1368.0,0.013859272331175697
1367.0,0.012924493835115833
1366.0,0.011888237698993531
1365.0,0.010806724628418723
1364.0,0.009681013553519987
1363.0,0.00855078201013002
1362.0,0.007553262260738859
1361.0,0.006803114110809369
1360.0,0.0062825497678566135
1359.0,0.005917373126862089
1358.0,0.005664371283997691
1357.0,0.005510412152711141
1356.0,0.00544237123121251
1355.0,0.005444567058353874
1354.0,0.005514632732667399
1353.0,0.0056616887670632825
1352.0,0.005892619855034996
1351.0,0.006216986413724415
1350.0,0.006656554948183218
1349.0,0.007235789332243163
1348.0,0.007961660777192172
1347.0,0.008823648626245554
1346.0,0.009797026934808162
1345.0,0.010820019270271515
1344.0,0.011778674020251838
1343.0,0.01254310746806996
1342.0,0.013012948023397851
1341.0,0.013115733855734654
1340.0,0.012807037018220481
1339.0,0.012128949938882484
1338.0,0.011230661359392312
1337.0,0.010271232337147052
1336.0,0.00934879925083691
1335.0,0.008522434984907637
1334.0,0.007837474013341273
1333.0,0.007318799672121694
1332.0,0.006966382861608583
1331.0,0.0067680269556841845
1330.0,0.006708845821435501
1329.0,0.0067702199492600396
1328.0,0.006930115503602972
1327.0,0.007170173786569109
1326.0,0.0074796333875023786
1325.0,0.00784916804417203
1324.0,0.008262524542697084
1323.0,0.008700173544937663
1322.0,0.009152081971662895
1321.0,0.009619356168082722
1320.0,0.010100632434878949
1319.0,0.010585443638769973
1318.0,0.011066235949124575
1317.0,0.011547907426351155
1316.0,0.012040726104551671
1315.0,0.012555236026397902
1314.0,0.013105842602982918
1313.0,0.013703449837616
1312.0,0.014340497178689068
1311.0,0.014999867279458075
1310.0,0.015679978178371305
1309.0,0.0163906608060339
1308.0,0.017122822772698932
1307.0,0.01784738621771869
1306.0,0.01855437043593711
1305.0,0.0192721754492336
1304.0,0.02004194997794585
1303.0,0.020899350435058698
1302.0,0.021885094783839786
1301.0,0.02303836364907903
1300.0,0.02436110827774021
1299.0,0.02581272505365918
1298.0,0.027352571972643878
1297.0,0.02895901190569094
1296.0,0.03059651018151778
1295.0,0.032207228862183496
1294.0,0.03376002885201758
1293.0,0.035266296693529514
1292.0,0.03672694559820197
1291.0,0.03811095814576243
1290.0,0.0394062236674777
1289.0,0.04063746757249258
1288.0,0.04180832797901505
1287.0,0.04288342476167784
1286.0,0.04385495757645299
1285.0,0.044765938540825306
1284.0,0.045642350088219534
1283.0,0.046464816801258864
1282.0,0.047228825960642117
1281.0,0.04796934941562363
1280.0,0.048701248032126165
1279.0,0.049400104536891705
1278.0,0.050068794674516186
1277.0,0.05075957046402391
1276.0,0.051507752475931014
1275.0,0.052310852196934175
1274.0,0.05319654159098054
1273.0,0.05424038955780253
1272.0,0.05548357143806277
1271.0,0.056894502380074624
1270.0,0.058440421526628435
1269.0,0.06012661760266126
1268.0,0.061929897950489934
1267.0,0.06377254549956152
1266.0,0.06560353726095636
1265.0,0.06742872497357877
1264.0,0.06922209564038825
1263.0,0.07089696278525547
1262.0,0.07240602159706784
1261.0,0.07377381871744511
1260.0,0.07499143473296283
1259.0,0.07599159677028619
1258.0,0.07677446854037487
1257.0,0.07744223064567478
1256.0,0.07807006868988332
1255.0,0.07865679502704757
1254.0,0.07922927471721078
1253.0,0.07987355827870159
1252.0,0.08062132074423996
1251.0,0.08141762257901826
1250.0,0.08223965902582513
1249.0,0.08313473547349001
1248.0,0.08410453480388361
1247.0,0.08507264204537753
1246.0,0.08600818444709153
1245.0,0.08696005271619013
1244.0,0.08792421639645086
1243.0,0.08880283567461421
1242.0,0.08953942079615117
1241.0,0.09016166792112132
1240.0,0.09064437415610663
1239.0,0.0908657243819935
1238.0,0.09074431031942104
1237.0,0.09028393744502809
1236.0,0.08944490624931463
1235.0,0.08812164615797526
1234.0,0.08629349637704592
1233.0,0.08406184453055648
1232.0,0.08151413056589864
1231.0,0.0786871191119685
1230.0,0.07566933587212214
1229.0,0.07259854006157655
1228.0,0.06954241968390838
1227.0,0.06649047757100666
1226.0,0.06346122638350747
1225.0,0.06051895152546269
1224.0,0.057689960561366785
1223.0,0.05495404244202765
1222.0,0.05231847041475651
1221.0,0.04982530086535736
1220.0,0.047489307965656605
1219.0,0.04529376832930857
1218.0,0.0432430027613085
1217.0,0.041361728355099124
1216.0,0.0396457894231994
1215.0,0.0380627861819691
1214.0,0.03659773599234147
1213.0,0.03525589417890311
1212.0,0.03402560685586971
1211.0,0.03287905704494371
1210.0,0.03180743543812705
1209.0,0.030818859646242695
1208.0,0.029904270360401004
1207.0,0.02903837939138601
1206.0,0.028211425849463286
1205.0,0.0274297177919302
1204.0,0.02668803050771655
1203.0,0.025970375834028225
1202.0,0.025274865054601026
1201.0,0.02461062183371268
1200.0,0.02397288468235933
1199.0,0.023345938219932257
1198.0,0.022727989444391188
1197.0,0.02213071656650183
1196.0,0.02155752066685368
1195.0,0.0210038213192304
1194.0,0.020475213899747595
1193.0,0.01998520482648318
1192.0,0.01953793367748121
1191.0,0.01913110282742963
1190.0,0.018772478862866242
1189.0,0.01847664142330964
1188.0,0.018248772764964147
1187.0,0.01808768857322162
1186.0,0.01800206351469076
1185.0,0.018008123345589832
1184.0,0.018111922647223527
1183.0,0.0183067736598347
1182.0,0.018585467867347497
1181.0,0.01893976302013044
1180.0,0.01934553696947445
1179.0,0.019762953623282852
1178.0,0.020155398727177015
1177.0,0.020495030561527048
1176.0,0.020748620286719956
1175.0,0.020876601998603746
1174.0,0.02085186289008399
1173.0,0.020663530919787725
1172.0,0.020303652691172923
1171.0,0.019773933523021835
1170.0,0.019108864238594037
1169.0,0.018371580981475583
1168.0,0.01762597880657276
1167.0,0.016925048718917025
1166.0,0.016314889386162802
1165.0,0.015824339388065413
1164.0,0.01545208417885768
1163.0,0.015178248900882756
1162.0,0.01498844241086517
1161.0,0.014878508972121077
1160.0,0.014844390575942723
1159.0,0.014883324589831035
1158.0,0.015003271409777662
1157.0,0.01521797208079936
1156.0,0.015532757768182807
1155.0,0.015945890063417716
1154.0,0.01646169692949105
1153.0,0.017089150429150206
1152.0,0.01782640810201512
1151.0,0.0186603770495882
1150.0,0.01958458362491947
1149.0,0.020603427404311456
1148.0,0.02171446442651141
1147.0,0.022902068277668584
1146.0,0.02415375102942971
1145.0,0.02546368736374581
1144.0,0.026812617507713733
1143.0,0.0281662372757441
1142.0,0.029504879752975742
1141.0,0.030831922627285298
1140.0,0.03214422724627805
1139.0,0.033425419439039324
1138.0,0.03467942124554896
1137.0,0.03593312387320659
1136.0,0.03718980183580911
1135.0,0.03841701973445164
1134.0,0.03959543953849967
1133.0,0.04073851871911031
1132.0,0.04185204421168862
1131.0,0.042925215944077895
1130.0,0.043980342186625665
1129.0,0.045080170275636836
1128.0,0.0462654278441111
1127.0,0.047533894314607195
1126.0,0.048893368439509456
1125.0,0.05037059856619394
1124.0,0.05194104914940128
1123.0,0.053510440878611044
1122.0,0.05499302535698898
1121.0,0.05634453775288956
1120.0,0.05749658096125262
1119.0,0.058344909629990144
1118.0,0.05884348975492994
1117.0,0.05903633626271744
1116.0,0.05897410580283301
1115.0,0.058687883836642946
1114.0,0.05826383473661232
1113.0,0.057847172554328634
1112.0,0.05754862198990977
1111.0,0.05742812451622146
1110.0,0.05757353966793413
1109.0,0.05809662759881379
1108.0,0.0590271659653411
1107.0,0.06029277776331296
1106.0,0.06182661049691955
1105.0,0.06361566383944131
1104.0,0.0656195378760762
1103.0,0.06773769079341938
1102.0,0.06990034087342209
1101.0,0.07209798009935102
1100.0,0.07427568180059206
1099.0,0.07630482801519109
1098.0,0.07811471412524187
1097.0,0.07973780668417518
1096.0,0.08117360364854254
1095.0,0.08233936171607095
1094.0,0.08320524185705765
1093.0,0.08383300129139751
1092.0,0.08423051144698204
1091.0,0.08431818349122137
1090.0,0.08408370515626434
1089.0,0.08361684864129904
1088.0,0.08295335382315573
1087.0,0.08204078969542267
1086.0,0.08088864747797775
1085.0,0.07958884163903998
1084.0,0.07815631401540868
1083.0,0.07650509310276649
1082.0,0.07460673707520817
1081.0,0.07252699195799653
1080.0,0.07029473986048367
1079.0,0.06788208563018548
1078.0,0.0653254232573077
1077.0,0.06273307472443423
1076.0,0.06016591038285091
1075.0,0.05762448924800638
1074.0,0.05514894457127461
1073.0,0.05282223379013523
1072.0,0.050675100453744085
1071.0,0.04867955671694708
1070.0,0.04683194367705543
1069.0,0.04516139442416664
1068.0,0.043661643910748775
1067.0,0.04229032281711636
1066.0,0.04103549961509458
1065.0,0.03991979594674939
1064.0,0.03894172145828426
1063.0,0.0380728607947167
1062.0,0.03731263548103333
1061.0,0.03669218118507764
1060.0,0.036223104567118455
1059.0,0.03589284451417143
1058.0,0.03571054005616917
1057.0,0.035706395049075086
1056.0,0.03588069066725996
1055.0,0.036199859940318324
1054.0,0.036649621622585185
1053.0,0.03724643759105225
1052.0,0.03798299064517438
1051.0,0.038809470033385245
1050.0,0.039686379232286156
1049.0,0.04059922835442421
1048.0,0.0415027994051013
1047.0,0.04232144433401022
1046.0,0.04302310678350349
1045.0,0.04362669169302692
1044.0,0.04412739622393327
1043.0,0.044479905919321536
1042.0,0.04466285516535873
1041.0,0.04469802134142544
1040.0,0.04459669439599545
1039.0,0.044349818186739526
1038.0,0.04398089348137833
1037.0,0.04354810206133572
1036.0,0.043084512383085735
1035.0,0.04258982904449653
1034.0,0.04208241400994884
1033.0,0.041602519422132875
1032.0,0.041159617262493155
1031.0,0.04073279894729637
1030.0,0.04033115398839517
1029.0,0.04000777689491056
1028.0,0.03981587107317338
1027.0,0.039803541746986956
1026.0,0.04005539545939854
1025.0,0.04069315546569374
1024.0,0.04183002909001423
1023.0,0.04355842235980999
1022.0,0.04596443456813556
1021.0,0.049072217255612297
1020.0,0.05271166592700177
1019.0,0.056442571730840774
1018.0,0.059627607958142426
1017.0,0.06157902628017187
1016.0,0.061725912124935
1015.0,0.05987394308728257
1014.0,0.056416307257077435
1013.0,0.05216561677020462
1012.0,0.047907026499344786
1011.0,0.044113200367189596
1010.0,0.040946927793394115
1009.0,0.038374874186220584
1008.0,0.03627242097967351
1007.0,0.03451492344035907
1006.0,0.03303394349250554
1005.0,0.03179808625846194
1004.0,0.030758345656835877
1003.0,0.02984434617536997
1002.0,0.029008601860361402
1001.0,0.028240262348853656
1000.0,0.02753393491882515
999.0,0.026875555672327283
998.0,0.026260938994661004
997.0,0.025698517761924236
996.0,0.025187585443448846
995.0,0.02471633357653051
994.0,0.024283556492109136
993.0,0.023899275192025272
992.0,0.023561123141698354
991.0,0.023251985791615033
990.0,0.02296336019690715
989.0,0.022699846200287394
988.0,0.022459497012962425
987.0,0.022232270003255217
986.0,0.02202038813092457
985.0,0.021838468099240435
984.0,0.021689984548797153
983.0,0.021563210393271016
982.0,0.02145278147963995
981.0,0.021365244838121612
980.0,0.021299965757543924
979.0,0.02124435250694524
978.0,0.021191619672880652
977.0,0.02114315718474534
976.0,0.02108878760537613
975.0,0.021004119284532823
974.0,0.0208724785130105
973.0,0.02069231420194413
972.0,0.02046094395482889
971.0,0.020171104124853626
970.0,0.019827270404021106
969.0,0.019446764164516597
968.0,0.019041264626807518
967.0,0.018613821802688453
966.0,0.018174921861467238
965.0,0.017743524350655862
964.0,0.01732994789313879
963.0,0.016933199387258072
962.0,0.016555710175398933
961.0,0.01620547680182988
960.0,0.01588316617688428
959.0,0.015581615262543324
958.0,0.015299073421823173
957.0,0.015040290660673094
956.0,0.014804661679183422
955.0,0.014585845796837194
954.0,0.01438267765169459
953.0,0.01419801840196604
952.0,0.0140275217818862
951.0,0.013862610733023722
950.0,0.013704382944764119
949.0,0.013561690548256723
948.0,0.013435466239107272
947.0,0.01331749040556611
946.0,0.013204443073121748
945.0,0.01310058811720526
944.0,0.013006355374345656
943.0,0.012916639285505523
942.0,0.012830934819042468
941.0,0.01275319533622148
940.0,0.012680958097788804
939.0,0.01260620658022684
938.0,0.01252769052855307
937.0,0.012450952602859448
936.0,0.01237560157669726
935.0,0.012294178508541993
934.0,0.012204290964177755
933.0,0.012110537142025653
932.0,0.01201387259373313
931.0,0.011910478736080601
930.0,0.011801789858318684
929.0,0.011694481345643506
928.0,0.011589726107719163
927.0,0.011483044149335101
926.0,0.011375268006987342
925.0,0.011273247118641475
924.0,0.011179519958499416
923.0,0.01109194966452829
922.0,0.01101385469499671
921.0,0.01095390695241317
920.0,0.010915456726966916
919.0,0.010896165115149301
918.0,0.01089880474100876
917.0,0.010932467452670208
916.0,0.011002169135520969
915.0,0.011106863288826839
914.0,0.011248987854886499
913.0,0.01143666538300622
912.0,0.011674805302563714
911.0,0.011962888591131066
910.0,0.01230257826077668
909.0,0.012697331340907718
908.0,0.013141877042520705
907.0,0.01362112419266788
906.0,0.014120340151136265
905.0,0.014624918225454493
904.0,0.015109129349577546
903.0,0.015540819677488542
902.0,0.015903120604472652
901.0,0.016198503183693404
900.0,0.016428371181190275
899.0,0.016585312072378348
898.0,0.016669412590703904
897.0,0.016694479258515627
896.0,0.01667294971113151
895.0,0.016611385788774462
894.0,0.016524286171748972
893.0,0.0164347416638303
892.0,0.016357353266407606
891.0,0.01629623065398922
890.0,0.016262229801033513
889.0,0.016275836648238947
888.0,0.01634989986120903
887.0,0.016485242583370554
886.0,0.016686892413001465
885.0,0.016969484086544164
884.0,0.01734333639614227
883.0,0.017811816274496458
882.0,0.01838787272921391
881.0,0.01909581059888101
880.0,0.01994718085664718
879.0,0.020927970900592122
878.0,0.022014172779864834
877.0,0.023177279403593584
876.0,0.02435634594514513
875.0,0.025436731237255004
874.0,0.026268220465739376
873.0,0.02669634759209196
872.0,0.026595887626815223
871.0,0.025933864177787085
870.0,0.02481965357286558
869.0,0.02345339632919105
868.0,0.022012834368309222
867.0,0.020606596254401012
866.0,0.01930396248777088
865.0,0.01815501037473043
864.0,0.017178875942640705
863.0,0.016366363894888953
862.0,0.015704227329712817
861.0,0.015182871768474254
860.0,0.014783362675546235
859.0,0.01447792546979024
858.0,0.01424712668022345
857.0,0.014081397836954456
856.0,0.013964852696767123
855.0,0.01387439412013896
854.0,0.013798011537441156
853.0,0.013738593288419788
852.0,0.013697457216573877
851.0,0.013669615615477106
850.0,0.01365657173719527
849.0,0.013666120476602841
848.0,0.01369553432906686
847.0,0.013730662048786379
846.0,0.013764787935315461
845.0,0.013802137566144946
844.0,0.01383952249464385
843.0,0.01386107880405359
842.0,0.013854914413997946
841.0,0.013819260541209407
840.0,0.013749634056729517
839.0,0.013637568100189484
838.0,0.013485803408810657
837.0,0.01330803430798844
836.0,0.013110426764236717
835.0,0.012889521702221608
834.0,0.012650343082421918
833.0,0.012409361718654418
832.0,0.012176456048742637
831.0,0.011949876237348098
830.0,0.011731463713357312
829.0,0.011530312952355057
828.0,0.011347760883693069
827.0,0.011175863998222112
826.0,0.011015237535907187
825.0,0.010876465058269886
824.0,0.01076036880973595
823.0,0.01065753137397553
822.0,0.010569322779697654
821.0,0.010506776509541588
820.0,0.01046842781505454
819.0,0.010440298412828456
818.0,0.010416739875875216
817.0,0.010403370337173066
816.0,0.010400317489832262
815.0,0.010399356362391268
814.0,0.010398552568418325
813.0,0.010403882540927133
812.0,0.010414479790571978
811.0,0.010421169416812724
810.0,0.01042094761717686
809.0,0.010417964990402158
808.0,0.010409519276495683
807.0,0.010387079288733177
806.0,0.010352114179043857
805.0,0.010313621250392688
804.0,0.010267731694821793
803.0,0.010197511326554925
802.0,0.010100554391787418
801.0,0.010009806736645593
800.0,0.009990799926415902
799.0,0.01012758241541973
798.0,0.010492856762996617
797.0,0.011093790528728859
796.0,0.011830849464156114
795.0,0.012523589432502945
794.0,0.012995962455669675
793.0,0.013146873390719651
792.0,0.012960214540767435
791.0,0.012488175328109495
790.0,0.011833226259530847
789.0,0.011108044230508391
788.0,0.010387202103664207
787.0,0.009701122184720948
786.0,0.009067653915664933
785.0,0.008505816048815206
784.0,0.008020030033588638
783.0,0.007595822056420162
782.0,0.007218796561531347
781.0,0.006883346353734162
780.0,0.006581103445665254
779.0,0.0062985179057448975
778.0,0.006030705859203065
777.0,0.0057829415412874036
776.0,0.005554715150857741
775.0,0.005336120117674108
774.0,0.005122831193654177
773.0,0.004920540383352837
772.0,0.004731124487869257
771.0,0.004547901626428329
770.0,0.004367853567806527
769.0,0.004195596211468981
768.0,0.004032137450408695
767.0,0.0038724474697637845
766.0,0.003716954131121438
765.0,0.003572662834637721
764.0,0.0034401800271096662
763.0,0.003312046061901613
762.0,0.003186076227119368
761.0,0.0030679682263346593
760.0,0.002958536726442006
759.0,0.0028510036749078366
758.0,0.002743109293842903
757.0,0.002639513569149334
756.0,0.002540990556443747
755.0,0.002444769085767645
754.0,0.002357061740885403
753.0,0.0022911793679124964
752.0,0.002251895790745807
751.0,0.002236503034475039
750.0,0.0022529261293817715
749.0,0.002322166337890323
748.0,0.002462487727773263
747.0,0.0026884061942126
746.0,0.0030282749868217676
745.0,0.00352662854296173
744.0,0.004227278485842515
743.0,0.005172293654061709
742.0,0.006418384073713623
741.0,0.008026394038925327
740.0,0.010018154705175294
739.0,0.012357364492251457
738.0,0.014978445523036978
737.0,0.017812083253582783
736.0,0.02077877862352558
735.0,0.023798621232090773
734.0,0.026838191934686173
733.0,0.02992454212439359
732.0,0.033095200960036875
731.0,0.03636705120163488
730.0,0.039769147101101236
729.0,0.04335386183404832
728.0,0.04712869800143306
727.0,0.05098564235727388
726.0,0.05468350989102505
725.0,0.05783578374377256
724.0,0.05992420243413914
723.0,0.06043375155357357
722.0,0.05906726499400593
721.0,0.05591013903884447
720.0,0.05148107669276546
719.0,0.046562528993003255
718.0,0.04183328960770751
717.0,0.037649230949699936
716.0,0.034122022426919106
715.0,0.03126551750481106
714.0,0.029042463958287378
713.0,0.02735616713276222
712.0,0.026066534717379224
711.0,0.025032268932554533
710.0,0.024145747635647193
709.0,0.023342562977284768
708.0,0.0225891337275121
707.0,0.021867754839400306
706.0,0.02117223132404893
705.0,0.020503233351532372
704.0,0.01985370377089627
703.0,0.01919921910438493
702.0,0.01850887402232078
701.0,0.017766782034459704
700.0,0.01698383482750456
699.0,0.016194074135429413
698.0,0.01544228074332957
697.0,0.014766092875691295
696.0,0.014180168622272973
695.0,0.013676373199294649
694.0,0.013239191741807647
693.0,0.012858430450708898
692.0,0.0125271721689496
691.0,0.01223509397571743
690.0,0.011972793786510158
689.0,0.011740476262211051
688.0,0.0115465369814516
687.0,0.011398688629848015
686.0,0.011298982752920923
685.0,0.011243392923949012
684.0,0.011221315858864489
683.0,0.011217556408212231
682.0,0.011215634412807839
681.0,0.01119473761051559
680.0,0.011126828173038884
679.0,0.010987945918399168
678.0,0.010776522310261532
677.0,0.010516791487570355
676.0,0.010238889500496562
675.0,0.009962757099561067
674.0,0.00970101318587208
673.0,0.009465614564952502
672.0,0.009258601718157433
671.0,0.009063466229230169
670.0,0.008851133406254756
669.0,0.008595828023206074
668.0,0.008340393345094335
667.0,0.008202508282237663
666.0,0.008144135236137448
665.0,0.008072670680899664
664.0,0.00796944078415264
663.0,0.007843847182347322
662.0,0.007715351597447266
661.0,0.0076053437741448356
660.0,0.007520918132174214
659.0,0.007453561233168466
658.0,0.007394585931074969
657.0,0.0073451880813158
656.0,0.007301916978566244
655.0,0.007246104631888121
654.0,0.007159998573125374
653.0,0.007047412352268962
652.0,0.006927303383014342
651.0,0.006815085216107908
650.0,0.006716542018205245
649.0,0.006630976685148416
648.0,0.006551423663978973
647.0,0.0064668443627127585
646.0,0.006372012564911931
645.0,0.006271671064972924
644.0,0.0061733737455580105
643.0,0.00608177395488242
642.0,0.005999267027709625
641.0,0.005925708071704349
640.0,0.005855229400864416
639.0,0.00578023443953804
638.0,0.00570809245980753
637.0,0.005675503807588826
636.0,0.005742592063816087
635.0,0.005956949440872357
634.0,0.00629317716283332
633.0,0.006627061735918909
632.0,0.006787066690472392
631.0,0.006662424827818987
630.0,0.006303172084463226
629.0,0.005879048757491635
628.0,0.005522527621393455
627.0,0.005253906933921373
626.0,0.005034434224330666
625.0,0.004840789249967642
624.0,0.004674747469435579
623.0,0.004532760534260353
622.0,0.0044016400204142814
621.0,0.004279260787251694
620.0,0.004176559548251661
619.0,0.004098090034670952
618.0,0.004032042455659444
617.0,0.003963650057861206
616.0,0.0038933268253000287
615.0,0.003838848715715699
614.0,0.0038226092321393366
613.0,0.003853002969527784
612.0,0.003913558917885196
611.0,0.00397229326612797
610.0,0.004010421371062008
609.0,0.004034873795753426
608.0,0.004054368212709578
607.0,0.004062440849856415
606.0,0.004053851139617372
605.0,0.0040384788051322645
604.0,0.004028264341879211
603.0,0.004026301131318813
602.0,0.004030971945243872
601.0,0.004032236338348828
600.0,0.0040044407070553255
599.0,0.003931661979465626
598.0,0.0038449035624594508
597.0,0.003797628060335557
596.0,0.0037987169042987406
595.0,0.00379938088284517
594.0,0.0037564614096813314
593.0,0.003683231586640596
592.0,0.003614980726230888
591.0,0.00355656204537594
590.0,0.0034898368036209142
589.0,0.003405641935793926
588.0,0.0032999937986500725
587.0,0.0031639012584564283
586.0,0.003005115415168888
585.0,0.0028581849963029635
584.0,0.002748618099024108
583.0,0.002663784815546584
582.0,0.002574030992843432
581.0,0.002477865925416956
580.0,0.002404287363531504
579.0,0.0023723340005000985
578.0,0.0023656713193082506
577.0,0.0023492370709880077
576.0,0.0022993024283498205
575.0,0.002218798458826861
574.0,0.0021373035065726815
573.0,0.0020867953505353245
572.0,0.0020763835808787516
571.0,0.0020926047611198933
570.0,0.0021126010639882058
569.0,0.0021229098234761944
568.0,0.0021218777616092543
567.0,0.00211609344594122
566.0,0.002130364026513898
565.0,0.0021909680163251562
564.0,0.0022842908346231844
563.0,0.0023492978111432864
562.0,0.002340554121803463
561.0,0.0022869096767301426
560.0,0.002250089247980031
559.0,0.002258826817300847
558.0,0.0023012050894379663
557.0,0.0023528671239150065
556.0,0.0023847708659255947
555.0,0.0023653843646694265
554.0,0.002295916680991498
553.0,0.0022180934529496214
552.0,0.0021625291205567485
551.0,0.002130532342385928
550.0,0.002128988917011604
