cm-1,A
4000.0,0.0013371253674771544
3999.0,0.0013406672255205482
3998.0,0.0013393289315763628
3997.0,0.001331518101915332
3996.0,0.0013213053635782977
3995.0,0.0013150404124626434
3994.0,0.0013157762755991488
3993.0,0.001321537480851751
3992.0,0.0013278073913229557
3991.0,0.0013314731719369847
3990.0,0.0013324849840062446
3989.0,0.0013332065849676771
3988.0,0.0013368006893575688
3987.0,0.001345154047420461
3986.0,0.0013572392270387967
3985.0,0.0013691493756808073
3984.0,0.0013768544136450673
3983.0,0.0013792603237430074
3982.0,0.0013790881266335783
3981.0,0.0013800556784989023
3980.0,0.001383304136732788
3979.0,0.001387448425499785
3978.0,0.0013909322838014755
3977.0,0.0013936547703494837
3976.0,0.0013963344451147007
3975.0,0.0013987420012337702
3974.0,0.001399081075097548
3973.0,0.001395021340179858
3972.0,0.00138544924997662
3971.0,0.0013719661258970576
3970.0,0.0013584158357846697
3969.0,0.0013483879671503675
3968.0,0.0013426427949112742
3967.0,0.0013392675542811643
3966.0,0.001337046706798056
3965.0,0.0013374135296068531
3964.0,0.0013426438075501996
3963.0,0.001351951715044191
3962.0,0.001360051437660925
3961.0,0.0013615910490158167
3960.0,0.0013558994313638273
3959.0,0.0013473692016715815
3958.0,0.0013417172836264085
3957.0,0.0013413805514049457
3956.0,0.00134511470021478
3955.0,0.0013499328936556827
3954.0,0.0013530500283377473
3953.0,0.0013532250443623705
3952.0,0.001350675167827399
3951.0,0.0013468384048688884
3950.0,0.0013437539689959642
3949.0,0.0013430850358437628
3948.0,0.0013456065064605697
3947.0,0.001350333203961484
3946.0,0.0013546580167767721
3945.0,0.0013559709623055848
3944.0,0.0013527630279784875
3943.0,0.0013457762172409387
3942.0,0.001339108393055451
3941.0,0.001338429818914561
3940.0,0.0013461994279516886
3939.0,0.0013590548536461665
3938.0,0.001370663040707913
3937.0,0.001376908694138586
3936.0,0.0013791726776221022
3935.0,0.0013825440484969845
3934.0,0.0013905227478148928
3933.0,0.0014007871609121709
3932.0,0.0014068979641065488
3931.0,0.001406547284497196
3930.0,0.0014034039360411492
3929.0,0.0014010224985906584
3928.0,0.0013985483628491742
3927.0,0.0013931462161658283
3926.0,0.0013856424492464745
3925.0,0.0013801035046024923
3924.0,0.0013799754984979728
3923.0,0.0013854017712402631
3922.0,0.0013932929599718034
3921.0,0.0014004788020444232
3920.0,0.0014067117897274884
3919.0,0.0014147555643178075
3918.0,0.0014258157224651398
3917.0,0.0014356969667463416
3916.0,0.001439670182646176
3915.0,0.001438289887245866
3914.0,0.0014361472510642085
3913.0,0.0014365698577993953
3912.0,0.001438194043113905
3911.0,0.0014374474417726333
3910.0,0.0014326776575322824
3909.0,0.0014251315894254013
3908.0,0.001417649677554751
3907.0,0.0014126148109415183
3906.0,0.0014106673877706099
3905.0,0.0014100003550886037
3904.0,0.0014079698557266152
3903.0,0.0014053908800573068
3902.0,0.001405409142502753
3901.0,0.0014071021418948317
3900.0,0.0014060854505098474
3899.0,0.0014018292939815464
3898.0,0.001399926076045914
3897.0,0.0014048771641226466
3896.0,0.001414807293415925
3895.0,0.0014243455555389283
3894.0,0.0014306014147633032
3893.0,0.001433497979920376
3892.0,0.0014317250644820061
3891.0,0.001423949767192529
3890.0,0.0014138847515431751
3889.0,0.00140725815012053
3888.0,0.0014088901806457166
3887.0,0.0014228829444434396
3886.0,0.001444660156635367
3885.0,0.0014595785984646316
3884.0,0.001459256180296944
3883.0,0.0014487929935363586
3882.0,0.00143629030052507
3881.0,0.0014271422539559376
3880.0,0.001424781500042045
3879.0,0.0014301905357620146
3878.0,0.0014393021906685933
3877.0,0.001444934908420504
3876.0,0.001444718784985752
3875.0,0.0014425703556539757
3874.0,0.0014415739665641818
3873.0,0.0014406292498252088
3872.0,0.0014366774585749136
3871.0,0.001426892213883776
3870.0,0.0014134670930029763
3869.0,0.0014053289484437471
3868.0,0.001410159996337472
3867.0,0.0014253946820218188
3866.0,0.0014411191987925539
3865.0,0.0014464949215808559
3864.0,0.0014356064857219348
3863.0,0.0014138670680120158
3862.0,0.0013936916549411775
3861.0,0.001381099651919425
3860.0,0.0013736805640883853
3859.0,0.0013663407691692077
3858.0,0.001354677873194544
3857.0,0.0013380960953812736
3856.0,0.0013224815656615288
3855.0,0.001320988284317029
3854.0,0.0013359993967840193
3853.0,0.0013427760949311662
3852.0,0.0013382135589023545
3851.0,0.0013431765419651674
3850.0,0.0013567320352807
3849.0,0.001370034584947197
3848.0,0.0013780050350134312
3847.0,0.0013805814629739106
3846.0,0.0013802669885712537
3845.0,0.0013796379387157613
3844.0,0.0013805591785241685
3843.0,0.0013818443704033756
3842.0,0.001379656198873902
3841.0,0.001371273016697789
3840.0,0.0013584013810899044
3839.0,0.0013463809178970404
3838.0,0.0013405477312598314
3837.0,0.0013425012349080685
3836.0,0.0013496817104543726
3835.0,0.0013585204973326896
3834.0,0.0013654577627988267
3833.0,0.0013681555373663977
3832.0,0.0013675050357865562
3831.0,0.0013682069862354703
3830.0,0.0013751896599560015
3829.0,0.0013877774650007824
3828.0,0.0013991042869888667
3827.0,0.0014027453813850203
3826.0,0.001397884157254256
3825.0,0.0013883494765530953
3824.0,0.0013780383659567925
3823.0,0.0013707887450394797
3822.0,0.0013698868533677266
3821.0,0.0013734211222525094
3820.0,0.0013799158635065876
3819.0,0.0013926908397294494
3818.0,0.0014069999741144882
3817.0,0.0014151344853947393
3816.0,0.0014147616396737494
3815.0,0.0014099643543847313
3814.0,0.0014082362614507584
3813.0,0.0014122677975913545
3812.0,0.0014173149764648216
3811.0,0.001416624763845114
3810.0,0.001409296880336058
3809.0,0.001401299193049621
3808.0,0.00139938228743362
3807.0,0.0014024011069479593
3806.0,0.0014030081924276397
3805.0,0.0013983889826556769
3804.0,0.0013908186774685021
3803.0,0.0013838077854738426
3802.0,0.001379003512529604
3801.0,0.0013712566777457215
3800.0,0.001358882808981532
3799.0,0.0013450878111136043
3798.0,0.0013300141538364835
3797.0,0.0013164655587199875
3796.0,0.001309727763403626
3795.0,0.0013117416023622867
3794.0,0.0013192735090640992
3793.0,0.0013281421613708828
3792.0,0.0013369596730564647
3791.0,0.0013469392155375354
3790.0,0.0013589809155961034
3789.0,0.0013709568608043766
3788.0,0.0013782870755676825
3787.0,0.0013780182164271353
3786.0,0.0013714058505549043
3785.0,0.0013627815279247486
3784.0,0.0013566423051000857
3783.0,0.0013552099738042334
3782.0,0.0013576786478534078
3781.0,0.0013608707225590314
3780.0,0.0013603579627248564
3779.0,0.001354375939214651
3778.0,0.0013474753466580789
3777.0,0.0013453708701466273
3776.0,0.0013489295409188926
3775.0,0.0013557415807249687
3774.0,0.0013634063355949639
3773.0,0.001369342328117001
3772.0,0.0013711464806011246
3771.0,0.0013679728321549043
3770.0,0.001361894763026888
3769.0,0.0013576071991746796
3768.0,0.0013581562285719896
3767.0,0.0013612123973321456
3766.0,0.001362920205852926
3765.0,0.001362285681217627
3764.0,0.001360211068390718
3763.0,0.001357996369891327
3762.0,0.0013571342249438113
3761.0,0.0013580991275305124
3760.0,0.0013577601764160519
3759.0,0.001351488161905767
3758.0,0.0013421420544459679
3757.0,0.0013376859353695886
3756.0,0.0013407942048725436
3755.0,0.001349300799982629
3754.0,0.0013601701595841024
3753.0,0.0013708411375411384
3752.0,0.0013770883177603882
3751.0,0.0013749890172362234
3750.0,0.001371169645879175
3749.0,0.0013750834433787947
3748.0,0.001380626952829954
3747.0,0.0013773440335471984
3746.0,0.0013677537011145048
3745.0,0.0013636798548853236
3744.0,0.0013669524962633042
3743.0,0.0013718496927240904
3742.0,0.001377846518418087
3741.0,0.0013837253551368662
3740.0,0.0013869286311536354
3739.0,0.0013882588634451668
3738.0,0.0013943416135314278
3737.0,0.0014102069221912056
3736.0,0.0014249117003888394
3735.0,0.0014187372051611353
3734.0,0.0013959123350104751
3733.0,0.001381814192231517
3732.0,0.0013887859632258932
3731.0,0.0014092174567374937
3730.0,0.001430887452169054
3729.0,0.0014469174800172424
3728.0,0.0014560194769961312
3727.0,0.0014597780609258404
3726.0,0.0014614864466688813
3725.0,0.0014659134048297926
3724.0,0.0014759618563932684
3723.0,0.0014891961358557632
3722.0,0.00150132537672026
3721.0,0.0015120173664107234
3720.0,0.0015245217879575421
3719.0,0.001541516879333852
3718.0,0.0015634401073997837
3717.0,0.0015880787584406108
3716.0,0.0016130289716480622
3715.0,0.001641804576954849
3714.0,0.0016850234229214551
3713.0,0.0017519412927887393
3712.0,0.0018339349566327237
3711.0,0.0019073474479640831
3710.0,0.001967827788616943
3709.0,0.0020335919551140585
3708.0,0.0021153980120481248
3707.0,0.002207758848906509
3706.0,0.0023007490249540327
3705.0,0.0023921564308300174
3704.0,0.0024908819344137377
3703.0,0.002609437231975675
3702.0,0.0027459121979640554
3701.0,0.002876798810366233
3700.0,0.0029774571470942146
3699.0,0.003039915511747724
3698.0,0.003068429521417013
3697.0,0.003070260360272182
3696.0,0.0030502778974499578
3695.0,0.003012461645765562
3694.0,0.0029601366474261643
3693.0,0.002894673256843624
3692.0,0.0028165870845182402
3691.0,0.0027309934767285006
3690.0,0.0026495036165123925
3689.0,0.0025844917075419733
3688.0,0.00254059900233263
3687.0,0.0025103440527632984
3686.0,0.0024835662134337928
3685.0,0.002457945142044995
3684.0,0.0024366824061459475
3683.0,0.0024216959423040206
3682.0,0.002412343993256134
3681.0,0.0024082627783842776
3680.0,0.0024094469862153112
3679.0,0.002416752135428039
3678.0,0.002432915798559995
3677.0,0.0024598602630587947
3676.0,0.002484375282764179
3675.0,0.002489255835073199
3674.0,0.002488529086093272
3673.0,0.002500408216477278
3672.0,0.0025206479448104087
3671.0,0.002541441440210089
3670.0,0.0025567417201685936
3669.0,0.0025649386981718408
3668.0,0.0025757560195601515
3667.0,0.0025953800452100696
3666.0,0.002621667590330351
3665.0,0.002653143557414121
3664.0,0.0026871215993303933
3663.0,0.0027171173837805263
3662.0,0.002737140820472301
3661.0,0.002747682326539578
3660.0,0.002755755824472762
3659.0,0.0027709444029585762
3658.0,0.0028002730480053946
3657.0,0.002840997236741965
3656.0,0.002878076426144899
3655.0,0.002898414723279924
3654.0,0.0029023411217548303
3653.0,0.00289804278281486
3652.0,0.0028984147743595636
3651.0,0.0029185160414049362
3650.0,0.002954525316244558
3649.0,0.00297424862426027
3648.0,0.0029646647688075026
3647.0,0.002952389108466235
3646.0,0.002959747171232004
3645.0,0.0029848800158660755
3644.0,0.003014518204272088
3643.0,0.003036960484406699
3642.0,0.003047407127508819
3641.0,0.003048261236997244
3640.0,0.0030458860939638274
3639.0,0.003046083197259823
3638.0,0.003051462336642303
3637.0,0.0030617458895926394
3636.0,0.0030749126027208532
3635.0,0.003088220344429255
3634.0,0.003098814588117297
3633.0,0.003105716763939349
3632.0,0.0031129821210817317
3631.0,0.0031323266198942604
3630.0,0.003178201584353852
3629.0,0.0032438046885090773
3628.0,0.0033021641854600117
3627.0,0.0033501810228060242
3626.0,0.003397881265441296
3625.0,0.0034463154027594076
3624.0,0.003492813181281998
3623.0,0.0035330812423753763
3622.0,0.003562162738681051
3621.0,0.003575014161925967
3620.0,0.0035668126500227916
3619.0,0.0035394298065077523
3618.0,0.0035077939235528518
3617.0,0.003485720188705044
3616.0,0.00347208874096731
3615.0,0.003460554424520983
3614.0,0.0034510828520023127
3613.0,0.0034501743470752187
3612.0,0.0034636472969588354
3611.0,0.003491252748883766
3610.0,0.0035283581652166144
3609.0,0.003567880761726928
3608.0,0.0035999864833132075
3607.0,0.003617207353463654
3606.0,0.0036212903369617615
3605.0,0.003619110386857247
3604.0,0.0036158722384179425
3603.0,0.0036120902344579453
3602.0,0.0036022717545454884
3601.0,0.003578293729140404
3600.0,0.003537569161292697
3599.0,0.003486198054873966
3598.0,0.0034315274255300038
3597.0,0.0033757905808863052
3596.0,0.0033193430827786145
3595.0,0.0032666653263706017
3594.0,0.003224451223850687
3593.0,0.0031951901076569204
3592.0,0.003174515821555298
3591.0,0.003155054330628103
3590.0,0.003132922932072439
3589.0,0.0031094723761857486
3588.0,0.00308729018628388
3587.0,0.0030688114052026304
3586.0,0.0030595221333832015
3585.0,0.0030603650481822774
3584.0,0.003063928683705022
3583.0,0.0030644345555661525
3582.0,0.0030630866577225193
3581.0,0.003063653285074904
3580.0,0.003066875548240201
3579.0,0.003071010275736293
3578.0,0.003074861329206589
3577.0,0.0030792189777561867
3576.0,0.003085205904962687
3575.0,0.003093094083361043
3574.0,0.003101748809090926
3573.0,0.003108474013781075
3572.0,0.00311019648338879
3571.0,0.003105389144398755
3570.0,0.0030960329219444725
3569.0,0.00308748106723782
3568.0,0.0030838679446634947
3567.0,0.0030843284633745756
3566.0,0.0030901058454117034
3565.0,0.003105929346418972
3564.0,0.0031289558798200025
3563.0,0.0031497969147248703
3562.0,0.0031615701461026845
3561.0,0.0031639746644000315
3560.0,0.0031619303289175723
3559.0,0.003161600920943369
3558.0,0.0031663683599878886
3557.0,0.003175342091802925
3556.0,0.003186152593633808
3555.0,0.0031985442952316614
3554.0,0.0032139565580661606
3553.0,0.0032309867565307807
3552.0,0.003244622002518947
3551.0,0.0032519291344726003
3550.0,0.0032552585052305905
3549.0,0.0032597211309027176
3548.0,0.003269334724753271
3547.0,0.0032835389013637544
3546.0,0.0032968341920762275
3545.0,0.0033045513638583247
3544.0,0.0033094414165507485
3543.0,0.0033194473026877513
3542.0,0.003339137471160435
3541.0,0.0033649300102114813
3540.0,0.003388958628186893
3539.0,0.003406708381303176
3538.0,0.0034204587474176004
3537.0,0.003434815328894944
3536.0,0.003451121782669519
3535.0,0.0034675004402101505
3534.0,0.003481973697235975
3533.0,0.003493666987066678
3532.0,0.003502645403296906
3531.0,0.0035103996218429833
3530.0,0.003519642857005079
3529.0,0.003532514239058964
3528.0,0.003549155758026003
3527.0,0.003568087664736209
3526.0,0.0035863393933252335
3525.0,0.00359921652490066
3524.0,0.003603085527646859
3523.0,0.003599888590432648
3522.0,0.003596134665639403
3521.0,0.003595904272976798
3520.0,0.0035980587514858713
3519.0,0.0036012263989371905
3518.0,0.003607820674840145
3517.0,0.003620569391015736
3516.0,0.003637524651087705
3515.0,0.0036535267438423105
3514.0,0.003665369342378915
3513.0,0.0036737452235211156
3512.0,0.0036809006785810247
3511.0,0.003688200663443315
3510.0,0.0036956137741122764
3509.0,0.0037025049692711526
3508.0,0.003708834894388487
3507.0,0.0037161764226444167
3506.0,0.0037270601552868224
3505.0,0.003742457026617639
3504.0,0.0037597336859590434
3503.0,0.00377439905361118
3502.0,0.0037841558132178663
3501.0,0.0037896425828074717
3500.0,0.0037920917429120626
3499.0,0.0037935663532525383
3498.0,0.0037982074837291328
3497.0,0.0038098049407043902
3496.0,0.003828330157760267
3495.0,0.0038501746463714577
3494.0,0.0038711681234859406
3493.0,0.0038886139707251105
3492.0,0.0039016005657428405
3491.0,0.00391067088113033
3490.0,0.003916950663909363
3489.0,0.0039210928064952275
3488.0,0.003923840616325335
3487.0,0.0039277360498901764
3486.0,0.003936142303106325
3485.0,0.003949547394751193
3484.0,0.003964523539773701
3483.0,0.003976981212263235
3482.0,0.0039853954169404085
3481.0,0.003991093083333105
3480.0,0.003997476263209215
3479.0,0.004009503945597552
3478.0,0.004030746064700476
3477.0,0.004058717604220086
3476.0,0.0040847454137042044
3475.0,0.0041011043856861995
3474.0,0.004108217188458952
3473.0,0.004113074100245055
3472.0,0.004121841975988304
3471.0,0.004135959476298308
3470.0,0.004153687138786735
3469.0,0.0041727378901795726
3468.0,0.0041918887896754894
3467.0,0.004211412141560767
3466.0,0.004231589480757294
3465.0,0.004250548883239136
3464.0,0.004265108237702884
3463.0,0.004274135900532607
3462.0,0.004279252632446667
3461.0,0.0042821546195283815
3460.0,0.004284194630076164
3459.0,0.004289345821672511
3458.0,0.0043029452635007705
3457.0,0.0043243957130558695
3456.0,0.004344692635838883
3455.0,0.004354935046661363
3454.0,0.0043555060143304365
3453.0,0.004354176452341287
3452.0,0.004357167608906237
3451.0,0.004365746608650761
3450.0,0.0043798513052417274
3449.0,0.004400177098162413
3448.0,0.004425390906307942
3447.0,0.004450558585390896
3446.0,0.004470323870444339
3445.0,0.004482136636786893
3444.0,0.004486274038559331
3443.0,0.004485359037570771
3442.0,0.004483427381305255
3441.0,0.004483020681533816
3440.0,0.004483839946749338
3439.0,0.004485449953924434
3438.0,0.004489436647571366
3437.0,0.004497023661692639
3436.0,0.00450621542366264
3435.0,0.004513539874748516
3434.0,0.00451771969397587
3433.0,0.0045197325544213485
3432.0,0.004520315541583318
3431.0,0.0045196968685612005
3430.0,0.004518693456887001
3429.0,0.004518214740094273
3428.0,0.004518674673938506
3427.0,0.004521481805887267
3426.0,0.0045292556582967915
3425.0,0.004541923893358182
3424.0,0.004553919762008615
3423.0,0.004558335440552343
3422.0,0.004554374957990347
3421.0,0.004548745859194419
3420.0,0.004548841118126963
3419.0,0.004555744330324084
3418.0,0.004564141912687787
3417.0,0.004567841048820434
3416.0,0.004565591401828229
3415.0,0.004562576999673372
3414.0,0.004565470111141426
3413.0,0.004575215811615535
3412.0,0.00458600352479263
3411.0,0.004591984074603514
3410.0,0.0045932716169738985
3409.0,0.00459425168355502
3408.0,0.0045980445217099096
3407.0,0.0046049100999003825
3406.0,0.0046143889554233425
3405.0,0.004625796970729248
3404.0,0.004637004772802145
3403.0,0.004645388226738292
3402.0,0.004650665005455624
3401.0,0.0046554408694175495
3400.0,0.004662540043418461
3399.0,0.004672533467876864
3398.0,0.004683505413860607
3397.0,0.004692524872059494
3396.0,0.004697811400763796
3395.0,0.004700257729522695
3394.0,0.0047026785966558385
3393.0,0.004707397182872121
3392.0,0.004714764764550483
3391.0,0.004723434158206831
3390.0,0.0047309118047602515
3389.0,0.004734561675466782
3388.0,0.004734188111096587
3387.0,0.004733359117465625
3386.0,0.0047358667742796595
3385.0,0.004741176211331121
3384.0,0.004746516837126496
3383.0,0.004753010387585234
3382.0,0.0047648922094807806
3381.0,0.00478165628505657
3380.0,0.004795692348109657
3379.0,0.004800624845109659
3378.0,0.004798765394798345
3377.0,0.004797312406667735
3376.0,0.004799935627789347
3375.0,0.00480522331571516
3374.0,0.004810638341246863
3373.0,0.004814192432177326
3372.0,0.004814153747072248
3371.0,0.004810655370599572
3370.0,0.004806642339676436
3369.0,0.004804686868348895
3368.0,0.004804207991671453
3367.0,0.004804046606145559
3366.0,0.004805490271919054
3365.0,0.004809387437182545
3364.0,0.004812370259099981
3363.0,0.004810154071465133
3362.0,0.00480395387243982
3361.0,0.004800058922833831
3360.0,0.004802727911759925
3359.0,0.004809810812878009
3358.0,0.004815460790348244
3357.0,0.004815370281393667
3356.0,0.00480984314505525
3355.0,0.004803528569024849
3354.0,0.0048015235755245675
3353.0,0.0048043717562079305
3352.0,0.004807694741356158
3351.0,0.00480752208022032
3350.0,0.004804222322938825
3349.0,0.00480009571861535
3348.0,0.004795937663003306
3347.0,0.004792383604517384
3346.0,0.004791852259214168
3345.0,0.004795283689156578
3344.0,0.004798660599447781
3343.0,0.004796848409087462
3342.0,0.004790200872531328
3341.0,0.004783917976462381
3340.0,0.004780914546129008
3339.0,0.004778283405590016
3338.0,0.004771348182653061
3337.0,0.004759095457109397
3336.0,0.004745193350886375
3335.0,0.004734889909082835
3334.0,0.004730690705768856
3333.0,0.004730014306950574
3332.0,0.00472773870198367
3331.0,0.00472199520955977
3330.0,0.004716164896914984
3329.0,0.00471407778948691
3328.0,0.004715253884558753
3327.0,0.004716772074306448
3326.0,0.004717731305755055
3325.0,0.004718701458666275
3324.0,0.004717949717119317
3323.0,0.0047117587692346394
3322.0,0.004698772431418264
3321.0,0.0046821376312713705
3320.0,0.004667556285229195
3319.0,0.004660388197951719
3318.0,0.004662957940781895
3317.0,0.0046721468619159694
3316.0,0.004680565815677865
3315.0,0.004682552242708042
3314.0,0.004678669031720505
3313.0,0.00467303397615033
3312.0,0.004667815286987164
3311.0,0.004662743249890954
3310.0,0.0046586800067164825
3309.0,0.004658355568725153
3308.0,0.0046635108856252
3307.0,0.004673415850270078
3306.0,0.004685720300030561
3305.0,0.004696780939816232
3304.0,0.004702265750007824
3303.0,0.00470030687679278
3302.0,0.00469382506756244
3301.0,0.004687431381661096
3300.0,0.004682477633940757
3299.0,0.004677294357417699
3298.0,0.004671420205735289
3297.0,0.004666697453498571
3296.0,0.004664213302290072
3295.0,0.004662829636362308
3294.0,0.004661115086981491
3293.0,0.0046586930070503345
3292.0,0.0046553382445405165
3291.0,0.004650585453934834
3290.0,0.004644815661331689
3289.0,0.004639424377295029
3288.0,0.00463541664526851
3287.0,0.00463253295001247
3286.0,0.004629626395129765
3285.0,0.004625226843395434
3284.0,0.004618332240017084
3283.0,0.004609715232094
3282.0,0.004601985388554901
3281.0,0.004597366889571417
3280.0,0.0045957210788874605
3279.0,0.004595117441997588
3278.0,0.004593519921135001
3277.0,0.0045895431471787715
3276.0,0.0045829960762632915
3275.0,0.004575531842643697
3274.0,0.004569232274597449
3273.0,0.004563597875734021
3272.0,0.0045555892522877095
3271.0,0.0045435876178689305
3270.0,0.004529368147086186
3269.0,0.004515000596963659
3268.0,0.004500061650435436
3267.0,0.004483865855535093
3266.0,0.0044685307695815375
3265.0,0.004457286521970987
3264.0,0.0044506742633961625
3263.0,0.004446425566961
3262.0,0.004442170914624141
3261.0,0.004436527303858365
3260.0,0.004428542493837527
3259.0,0.004417885446487532
3258.0,0.004405159339639201
3257.0,0.0043909049098884165
3256.0,0.004375179699136807
3255.0,0.004358877727884403
3254.0,0.004343863292354404
3253.0,0.00433061278020263
3252.0,0.004317469651664624
3251.0,0.0043034667048906195
3250.0,0.004289927412231151
3249.0,0.004278053483399317
3248.0,0.004267041848412764
3247.0,0.004256179698100356
3246.0,0.004246428806030889
3245.0,0.004237740221366095
3244.0,0.004227243270540962
3243.0,0.004213122413474285
3242.0,0.004198490785881209
3241.0,0.0041882343255100025
3240.0,0.004182683491457022
3239.0,0.0041767801572506445
3238.0,0.004165396114723415
3237.0,0.004148295299712247
3236.0,0.004130782574675979
3235.0,0.004120194622549506
3234.0,0.004119615076266703
3233.0,0.004123302241484955
3232.0,0.004120490826621681
3231.0,0.004106125534067992
3230.0,0.004086229461776809
3229.0,0.004070816794448623
3228.0,0.004063565026771561
3227.0,0.004060540007195478
3226.0,0.004056391367716792
3225.0,0.004048330805572221
3224.0,0.004035840948853914
3223.0,0.0040205772305712964
3222.0,0.00400629650522326
3221.0,0.00399586312342528
3220.0,0.00398821976459227
3219.0,0.00398035579832227
3218.0,0.00397173266361333
3217.0,0.003964641958970129
3216.0,0.003960787497408175
3215.0,0.003959138249861974
3214.0,0.003956319959761062
3213.0,0.003947876619805782
3212.0,0.0039310607578598375
3211.0,0.00390883460994255
3210.0,0.0038896562053249506
3209.0,0.003880100241918041
3208.0,0.003877924745731701
3207.0,0.0038748906069196315
3206.0,0.0038660560999199843
3205.0,0.003854020443875749
3204.0,0.00384441881146995
3203.0,0.003839548935110293
3202.0,0.003836684717814483
3201.0,0.0038310231705954443
3200.0,0.0038198555969800483
3199.0,0.0038046363076627626
3198.0,0.0037891233205935362
3197.0,0.0037754236420017235
3196.0,0.0037626371384082797
3195.0,0.0037490627709617
3194.0,0.003734102425819591
3193.0,0.0037182166749219108
3192.0,0.0037031816020339815
3191.0,0.0036921091288072833
3190.0,0.003686153639909281
3189.0,0.003681019487585354
3188.0,0.0036706030387699618
3187.0,0.003655359718249814
3186.0,0.003642842238794612
3185.0,0.00363770670327666
3184.0,0.0036354057857772805
3183.0,0.003628945986942353
3182.0,0.003617979886090931
3181.0,0.0036070740509549903
3180.0,0.0035983712205158516
3179.0,0.0035904406445742146
3178.0,0.0035819845239904403
3177.0,0.0035722638089376348
3176.0,0.00355947376212902
3175.0,0.0035429764723474613
3174.0,0.003526208004123726
3173.0,0.003513460299069609
3172.0,0.0035043358354778743
3171.0,0.003494773378563248
3170.0,0.0034828180141137045
3169.0,0.0034701720594908026
3168.0,0.003458986448153802
3167.0,0.0034504561046791475
3166.0,0.003445338089140111
3165.0,0.0034422192099306057
3164.0,0.003436326784980205
3163.0,0.0034239405778627675
3162.0,0.0034078719570938536
3161.0,0.003395045031783301
3160.0,0.0033885559558371357
3159.0,0.0033853319760081355
3158.0,0.0033814669420214076
3157.0,0.0033762134025057964
3156.0,0.0033703053137260535
3155.0,0.003363714984954273
3154.0,0.0033560931826518746
3153.0,0.0033471512082860616
3152.0,0.0033360988300513436
3151.0,0.0033227042146223565
3150.0,0.003309276746753057
3149.0,0.0032996079360667445
3148.0,0.0032953462739602783
3147.0,0.003294754061389878
3146.0,0.003294598725056901
3145.0,0.0032914923581370183
3144.0,0.0032825004427024214
3143.0,0.0032675781792684787
3142.0,0.0032516104836678474
3141.0,0.00324120221818968
3140.0,0.00323826351153689
3139.0,0.0032383716981478437
3138.0,0.0032362934962208052
3137.0,0.003231337676931262
3136.0,0.0032262412164527268
3135.0,0.003222589511554916
3134.0,0.0032191434009877958
3133.0,0.00321464468815867
3132.0,0.003211011204550397
3131.0,0.00321212874186426
3130.0,0.0032185492569098287
3129.0,0.0032242412370339897
3128.0,0.0032207756482911035
3127.0,0.0032058594991589426
3126.0,0.0031862940573657503
3125.0,0.0031715981562844553
3124.0,0.0031660260122261903
3123.0,0.0031672590239575846
3122.0,0.0031708434823288128
3121.0,0.0031740361817798168
3120.0,0.0031767695806684745
3119.0,0.003180994540985655
3118.0,0.003188429085194746
3117.0,0.003197963067512297
3116.0,0.0032064523847234547
3115.0,0.0032129969759351062
3114.0,0.0032206098565398106
3113.0,0.003231761623810019
3112.0,0.0032441000570559136
3111.0,0.0032530221740421994
3110.0,0.00325741724131556
3109.0,0.0032609875603176065
3108.0,0.003268274729103354
3107.0,0.0032809881790739097
3106.0,0.0032979096429419054
3105.0,0.003316674033988826
3104.0,0.003335482980709739
3103.0,0.0033540620700316303
3102.0,0.0033732030972879468
3101.0,0.0033935498376949143
3100.0,0.003415646322049365
3099.0,0.003440855090935448
3098.0,0.0034703963385406674
3097.0,0.0035032217576996885
3096.0,0.0035364732478300985
3095.0,0.003568248217294623
3094.0,0.003598090887094667
3093.0,0.0036243429137486384
3092.0,0.0036440004055927214
3091.0,0.003656645491832716
3090.0,0.003665960442843826
3089.0,0.0036756802794878276
3088.0,0.0036857775955667195
3087.0,0.003694394481206725
3086.0,0.0037018290234661425
3085.0,0.003710305687005153
3084.0,0.0037208608178552127
3083.0,0.0037319863237208093
3082.0,0.0037407886344616647
3081.0,0.0037449529336068352
3080.0,0.00374487079204088
3079.0,0.003744438790824924
3078.0,0.0037481807368651768
3077.0,0.003756915527136569
3076.0,0.003767535760179393
3075.0,0.003777113929362459
3074.0,0.003784972109895225
3073.0,0.0037907030923616455
3072.0,0.003793420041486071
3071.0,0.0037941535835015238
3070.0,0.0037964707190037902
3069.0,0.0038028991324046656
3068.0,0.00381274262375349
3067.0,0.003824362388595514
3066.0,0.0038371542945641306
3065.0,0.003850223324028853
3064.0,0.00386183391455082
3063.0,0.003872187402941432
3062.0,0.0038840975314019576
3061.0,0.003899070982172472
3060.0,0.003914660617912008
3059.0,0.003927134937097157
3058.0,0.00393498193762093
3057.0,0.003938591693992825
3056.0,0.0039393657332211
3055.0,0.00394078160472627
3054.0,0.003947770118901855
3053.0,0.003962622461075916
3052.0,0.003983128331646832
3051.0,0.004005877403040495
3050.0,0.00402933235927116
3049.0,0.004052631709765905
3048.0,0.004074317783215368
3047.0,0.004094703136789005
3046.0,0.004117113285058641
3045.0,0.004144568154912104
3044.0,0.0041763346493475136
3043.0,0.004209105978407055
3042.0,0.004239761662671418
3041.0,0.004266198840055431
3040.0,0.004288191856383125
3039.0,0.004308656878789814
3038.0,0.004331301476501455
3037.0,0.00435571429251523
3036.0,0.004377649257747533
3035.0,0.004395502178108701
3034.0,0.004412817540445435
3033.0,0.004432106382530805
3032.0,0.0044504524202988085
3031.0,0.004464182628360972
3030.0,0.004474788599996823
3029.0,0.004486239331174452
3028.0,0.004499448540059726
3027.0,0.004512931481360467
3026.0,0.004526365462949532
3025.0,0.004540006533615577
3024.0,0.004552568290648957
3023.0,0.0045630766585939885
3022.0,0.004573081580242951
3021.0,0.004584015170967103
3020.0,0.0045944302909073954
3019.0,0.004603093979474709
3018.0,0.004612771201341304
3017.0,0.00462728248064419
3016.0,0.004646092566629802
3015.0,0.0046654596535908276
3014.0,0.004683664755717894
3013.0,0.004701981643077587
3012.0,0.004721297191705956
3011.0,0.004741281883443227
3010.0,0.004762491310643171
3009.0,0.004786644392096823
3008.0,0.004814739533065431
3007.0,0.004846447048765068
3006.0,0.004880730941426122
3005.0,0.004915880462154092
3004.0,0.004950307348697605
3003.0,0.004984593256471812
3002.0,0.005021397790189964
3001.0,0.005062087964929592
3000.0,0.005105236105037214
2999.0,0.005149640077789518
2998.0,0.005196433836481688
2997.0,0.00524670295111822
2996.0,0.005299389364997733
2995.0,0.005353606756609321
2994.0,0.005410624478454815
2993.0,0.0054713655031984896
2992.0,0.005534311125514315
2991.0,0.005598512134047791
2990.0,0.005666612229341136
2989.0,0.005742219569667459
2988.0,0.0058261147085258945
2987.0,0.005917465216146377
2986.0,0.006016738409165666
2985.0,0.0061243989602839735
2984.0,0.006238485803743325
2983.0,0.006356638299936621
2982.0,0.0064798514907241644
2981.0,0.006611940342958203
2980.0,0.006756437196620945
2979.0,0.006915712738476355
2978.0,0.007091209552673531
2977.0,0.0072821838071388985
2976.0,0.0074857568463829564
2975.0,0.007700551272769824
2974.0,0.007928810429028432
2973.0,0.00817288638197653
2972.0,0.008431678428462043
2971.0,0.008703213731039381
2970.0,0.008988759498847136
2969.0,0.009291004146448454
2968.0,0.009609429695689025
2967.0,0.009941047806623327
2966.0,0.010285417837110736
2965.0,0.01064629143409255
2964.0,0.011027892457181682
2963.0,0.011431224626689607
2962.0,0.01185331404565294
2961.0,0.012288273031680643
2960.0,0.012729157905109043
2959.0,0.013169913875583653
2958.0,0.013606151565026646
2957.0,0.014034718036247711
2956.0,0.014455057797414428
2955.0,0.01487181251839239
2954.0,0.01529468144579146
2953.0,0.015735847899816604
2952.0,0.01621058932661482
2951.0,0.01674137945786817
2950.0,0.01735877636927918
2949.0,0.018096176560572667
2948.0,0.018982818285461212
2947.0,0.020041932867415346
2946.0,0.02129222398987834
2945.0,0.022749483993805237
2944.0,0.024428284524184246
2943.0,0.026341364317551946
2942.0,0.02849670046037124
2941.0,0.030896984549712236
2940.0,0.033545559467557474
2939.0,0.03645456340375871
2938.0,0.03964571736900353
2937.0,0.043146195330246544
2936.0,0.0469893757271884
2935.0,0.051216472816868946
2934.0,0.05587149321558767
2933.0,0.060996469276110715
2932.0,0.06663881420322333
2931.0,0.07286430379252479
2930.0,0.07976219412482856
2929.0,0.08744772158829354
2928.0,0.09607838229956062
2927.0,0.10586894802281989
2926.0,0.1170727086421945
2925.0,0.12994101881785478
2924.0,0.14469419005638026
2923.0,0.16150820951261788
2922.0,0.18051163872082435
2921.0,0.20178709918579396
2920.0,0.22533592703153132
2919.0,0.2508935591890953
2918.0,0.27751093336915916
2917.0,0.30310666251262436
2916.0,0.3244021666519219
2915.0,0.33766145054371727
2914.0,0.3402134851169548
2913.0,0.33190641354693046
2912.0,0.3151897067401988
2911.0,0.293736215854331
2910.0,0.2709056829118375
2909.0,0.24895867428886556
2908.0,0.2291168473254247
2907.0,0.21184704944853783
2906.0,0.1971382956619917
2905.0,0.1847313355538334
2904.0,0.17428383940889697
2903.0,0.16546050780529759
2902.0,0.15794215199717826
2901.0,0.15143755331157657
2900.0,0.14570392794214548
2899.0,0.1405495624842469
2898.0,0.13581380598113624
2897.0,0.13135873433485737
2896.0,0.12708161338790955
2895.0,0.12291689702192717
2894.0,0.11882172217377264
2893.0,0.11476284008038531
2892.0,0.11071962195146141
2891.0,0.10668627749498963
2890.0,0.10266307297137
2889.0,0.09865407249599553
2888.0,0.09466891689199454
2887.0,0.0907174244614066
2886.0,0.08680037140446555
2885.0,0.08291124748231683
2884.0,0.0790469199422242
2883.0,0.07520869338177348
2882.0,0.07139393337556015
2881.0,0.06759837258866822
2880.0,0.06383114993175618
2879.0,0.06012555221911066
2878.0,0.05653505762316244
2877.0,0.05312432713521556
2876.0,0.04996299963636289
2875.0,0.047115895881721506
2874.0,0.04463020657546409
2873.0,0.04252828124433496
2872.0,0.040813831797112225
2871.0,0.039481993727897687
2870.0,0.03852758733792261
2869.0,0.0379515197665833
2868.0,0.03776821919528502
2867.0,0.03800827795147969
2866.0,0.038713182411127305
2865.0,0.03993334228581891
2864.0,0.04173826914952504
2863.0,0.04422636909078379
2862.0,0.047519971339680354
2861.0,0.05176181747852726
2860.0,0.05713415235513719
2859.0,0.0638917876776419
2858.0,0.07238464884081339
2857.0,0.08305995809579206
2856.0,0.09647161375319332
2855.0,0.1132645116559753
2854.0,0.1341104168145788
2853.0,0.15956066186733836
2852.0,0.18970857160972873
2851.0,0.22352157954074497
2850.0,0.25777542242020857
2849.0,0.2864033266492142
2848.0,0.30196154121604607
2847.0,0.29975894839982187
2846.0,0.28124738739578176
2845.0,0.2527320262462093
2844.0,0.2210727980491792
2843.0,0.19093919997070358
2842.0,0.1645180299872475
2841.0,0.14235243674894338
2840.0,0.12416266962298383
2839.0,0.10936510933065503
2838.0,0.09730507109129935
2837.0,0.08740061620982101
2836.0,0.0791874329237071
2835.0,0.07231372164830854
2834.0,0.06651321353332387
2833.0,0.06157478390625593
2832.0,0.057334656963885504
2831.0,0.05366135755421573
2830.0,0.050450569286925276
2829.0,0.04761936553027711
2828.0,0.04510454026662529
2827.0,0.04285820680497374
2826.0,0.040841605110929435
2825.0,0.0390205392967605
2824.0,0.037364622383148534
2823.0,0.03584890948926554
2822.0,0.034456269063362015
2821.0,0.033175317422880025
2820.0,0.03199588991225649
2819.0,0.030906081882685392
2818.0,0.02989366868446887
2817.0,0.02894902219506743
2816.0,0.028065737628273177
2815.0,0.02723919642617
2814.0,0.026464730691621394
2813.0,0.025736413318467325
2812.0,0.025047602150207512
2811.0,0.024393319697708808
2810.0,0.02377201567139702
2809.0,0.023183613901073385
2808.0,0.0226261467509085
2807.0,0.022095277230966926
2806.0,0.021586963589548803
2805.0,0.021099345955751893
2804.0,0.020632036228493716
2803.0,0.02018460242195561
2802.0,0.019755679305175675
2801.0,0.01934244554874075
2800.0,0.01894109213550569
2799.0,0.018548826295623693
2798.0,0.018164895304659867
2797.0,0.017789280953202678
2796.0,0.01742154730054485
2795.0,0.01706176811003913
2794.0,0.01671061306370941
2793.0,0.016366727950563934
2792.0,0.01602589269028664
2791.0,0.015685652960262225
2790.0,0.015349504402188775
2789.0,0.015023493146999328
2788.0,0.014709625406700151
2787.0,0.014405342353064728
2786.0,0.014108726499922026
2785.0,0.013820875278685262
2784.0,0.013542827270553996
2783.0,0.013273466376368379
2782.0,0.01301151852012668
2781.0,0.012757452155622196
2780.0,0.012512833881265544
2779.0,0.012279339167870586
2778.0,0.012058410594299407
2777.0,0.011849726416075243
2776.0,0.011650019314218742
2775.0,0.011455608987759774
2774.0,0.01126627934320046
2773.0,0.011084914598584452
2772.0,0.010913344623898919
2771.0,0.010750491177341203
2770.0,0.010594312453578093
2769.0,0.010443510411738752
2768.0,0.010297459422613451
2767.0,0.01015639293919297
2766.0,0.0100215681521738
2765.0,0.00989331129754894
2764.0,0.009769156186215372
2763.0,0.009645899355608611
2762.0,0.009523409926127737
2761.0,0.009404304763599847
2760.0,0.00929011783753302
2759.0,0.009180071645033863
2758.0,0.009073376899994193
2757.0,0.008970310485560117
2756.0,0.00887069450990176
2755.0,0.008773709814342449
2754.0,0.008680043984363457
2753.0,0.008592477714612114
2752.0,0.008513582945271748
2751.0,0.008443689059681854
2750.0,0.008381404502106463
2749.0,0.008325289961514574
2748.0,0.008275100117114667
2747.0,0.008231968081667736
2746.0,0.008196558016765372
2745.0,0.008166118016490798
2744.0,0.008134502871131767
2743.0,0.008096639742300541
2742.0,0.008052079398414388
2741.0,0.008003185644034433
2740.0,0.007951138437271004
2739.0,0.007895379478893157
2738.0,0.00783555140959781
2737.0,0.007771728036500161
2736.0,0.0077038133931206405
2735.0,0.007632971324586749
2734.0,0.007562817930635764
2733.0,0.007496797861611105
2732.0,0.007434549378732209
2731.0,0.007372782679038412
2730.0,0.007309209546056607
2729.0,0.007243670988205929
2728.0,0.007176208741099048
2727.0,0.007106538834078853
2726.0,0.007035407808126862
2725.0,0.006964539984924851
2724.0,0.006895298368489945
2723.0,0.006828781068329065
2722.0,0.006766532376037974
2721.0,0.006709232371288229
2720.0,0.006655060583501806
2719.0,0.0066012353071651575
2718.0,0.006546940976226844
2717.0,0.006493278338267615
2716.0,0.00644092647545239
2715.0,0.006389578848368499
2714.0,0.006339144207809255
2713.0,0.006289688189033808
2712.0,0.006240464862784555
2711.0,0.006190597159749086
2710.0,0.006140530232710927
2709.0,0.006091572511457669
2708.0,0.006044440906454346
2707.0,0.005999169123629658
2706.0,0.005955348277032389
2705.0,0.005911205332170568
2704.0,0.005863778694817117
2703.0,0.005811770356843805
2702.0,0.005757418100964171
2701.0,0.005704087476940001
2700.0,0.005653161248434102
2699.0,0.005604737791003038
2698.0,0.005559714409026927
2697.0,0.0055189319154855705
2696.0,0.005481382476874705
2695.0,0.005445778394294636
2694.0,0.0054132630359824295
2693.0,0.0053862499099644875
2692.0,0.005364994574319802
2691.0,0.005347268253394476
2690.0,0.005331137543170898
2689.0,0.005316376012828183
2688.0,0.0053034541537069725
2687.0,0.0052925258355105784
2686.0,0.005283125247218001
2685.0,0.005273995189447572
2684.0,0.00526422055685402
2683.0,0.0052555537634910495
2682.0,0.00525207122256017
2681.0,0.005256027053448709
2680.0,0.005265240309732933
2679.0,0.005276163459500223
2678.0,0.005288204506931516
2677.0,0.005303441536644251
2676.0,0.005323557716826046
2675.0,0.005348833893153371
2674.0,0.005378845711223737
2673.0,0.005412214012126705
2672.0,0.005446788048389241
2671.0,0.005481788749878254
2670.0,0.0055185719075694795
2669.0,0.00555761165425797
2668.0,0.00559622666994277
2667.0,0.005631390304155741
2666.0,0.0056636084988058435
2665.0,0.005696008956297406
2664.0,0.00573042555438016
2663.0,0.005765974028497798
2662.0,0.005800269726717125
2661.0,0.005830291630350423
2660.0,0.0058531324544835815
2659.0,0.0058677075347945175
2658.0,0.0058751922612922565
2657.0,0.005876662267495899
2656.0,0.005871690231949876
2655.0,0.0058605881935568215
2654.0,0.005846213580452019
2653.0,0.00583173255284441
2652.0,0.005817983395277635
2651.0,0.00580485830716577
2650.0,0.005793688495858293
2649.0,0.005786219792728765
2648.0,0.005782803126458833
2647.0,0.005783729976105203
2646.0,0.0057909094889745496
2645.0,0.005806095183471472
2644.0,0.0058288172332931175
2643.0,0.005857753647158247
2642.0,0.005892096599300006
2641.0,0.005929367896891897
2640.0,0.00596408992108314
2639.0,0.005991829878550335
2638.0,0.00601320561707373
2637.0,0.006031080159709736
2636.0,0.006045034787020953
2635.0,0.006050915079101553
2634.0,0.006044422517393981
2633.0,0.006022689480505146
2632.0,0.005984272072446375
2631.0,0.005931066252780723
2630.0,0.005869293903844555
2629.0,0.0058056723339477345
2628.0,0.005742660118800564
2627.0,0.0056790078643947075
2626.0,0.0056134789782825685
2625.0,0.0055457036946210125
2624.0,0.005475270878920942
2623.0,0.005403091956686413
2622.0,0.00533282171436338
2621.0,0.00526848887137426
2620.0,0.005211245815908061
2619.0,0.005159938637212991
2618.0,0.00511293176513731
2617.0,0.00506744596716171
2616.0,0.005019747308316585
2615.0,0.004968790459971971
2614.0,0.00491771382442246
2613.0,0.004869204694191681
2612.0,0.004821822098611921
2611.0,0.004773562929910602
2610.0,0.004726121879217119
2609.0,0.004682167561772813
2608.0,0.004641063424571736
2607.0,0.004601188711770615
2606.0,0.004564054866764802
2605.0,0.0045320930900657405
2604.0,0.004504485485787434
2603.0,0.004479057312664513
2602.0,0.004455861078733731
2601.0,0.004434452192088797
2600.0,0.004410096668663066
2599.0,0.004378071610372228
2598.0,0.004340560073952867
2597.0,0.004304618667008162
2596.0,0.004273885010455513
2595.0,0.004245945593069591
2594.0,0.00421675953038256
2593.0,0.004183557741146576
2592.0,0.0041447382794044
2591.0,0.004101419806115376
2590.0,0.004058421734802251
2589.0,0.00401999095910571
2588.0,0.003985196086514507
2587.0,0.003950696462418422
2586.0,0.003916558980942639
2585.0,0.0038856223985680085
2584.0,0.0038584370801602727
2583.0,0.0038326408809779633
2582.0,0.003806268660342958
2581.0,0.00377831236330754
2580.0,0.003747418772136286
2579.0,0.003713725621595888
2578.0,0.003681024874422875
2577.0,0.003653797520004127
2576.0,0.003632904100416773
2575.0,0.003616454580657527
2574.0,0.00360282500530738
2573.0,0.0035899697526153122
2572.0,0.0035743427415840393
2571.0,0.003554150336586826
2570.0,0.0035317626806748107
2569.0,0.0035099176549561193
2568.0,0.003487835523486263
2567.0,0.003463973879033297
2566.0,0.003439829426792598
2565.0,0.0034175953328852903
2564.0,0.0033967946398471985
2563.0,0.0033766213383608972
2562.0,0.0033584418407789944
2561.0,0.003342277443694233
2560.0,0.0033242871189279734
2559.0,0.003302199163075242
2558.0,0.0032803080202017084
2557.0,0.0032646042629933614
2556.0,0.003255416047868924
2555.0,0.0032487917009885047
2554.0,0.0032423332105104845
2553.0,0.0032354782566458053
2552.0,0.0032269724886312746
2551.0,0.003216409041793451
2550.0,0.0032053393606293447
2549.0,0.0031928228296503767
2548.0,0.0031733535879674164
2547.0,0.0031436054825351176
2546.0,0.003107555832112737
2545.0,0.003070244177293451
2544.0,0.0030306174318903015
2543.0,0.002986262464608859
2542.0,0.0029414767211631745
2541.0,0.0029038364509231425
2540.0,0.0028749753651156396
2539.0,0.0028510809334076227
2538.0,0.0028303257579175584
2537.0,0.0028134929849438833
2536.0,0.002799226766875812
2535.0,0.0027851575356796945
2534.0,0.002772873938144455
2533.0,0.002766087889446229
2532.0,0.002764303989571299
2531.0,0.0027629545660097076
2530.0,0.002758815562231808
2529.0,0.002751151392876317
2528.0,0.0027392747403387468
2527.0,0.002723508964191036
2526.0,0.002707143443875083
2525.0,0.0026931506630969034
2524.0,0.0026802662068230298
2523.0,0.0026657225661867795
2522.0,0.002649447307214725
2521.0,0.0026320151979953906
2520.0,0.0026118369362929683
2519.0,0.0025890747383209233
2518.0,0.0025692964313209004
2517.0,0.002557865340930506
2516.0,0.002552714070776379
2515.0,0.0025473117923897957
2514.0,0.0025383398343216436
2513.0,0.002526036227512787
2512.0,0.0025104702473364277
2511.0,0.0024931727693460765
2510.0,0.0024796930017411123
2509.0,0.0024743005860877842
2508.0,0.002473429325357458
2507.0,0.0024695171882069015
2506.0,0.002459905757382677
2505.0,0.0024473288334197567
2504.0,0.0024338031046809952
2503.0,0.002419421358465995
2502.0,0.0024057060639633056
2501.0,0.0023950498838940263
2500.0,0.002387737402156309
2499.0,0.0023833550611479046
2498.0,0.0023831760291013575
2497.0,0.002386981148515878
2496.0,0.0023898392191330476
2495.0,0.002386877638280202
2494.0,0.002379611441443842
2493.0,0.002373187770559424
2492.0,0.0023689698015217833
2491.0,0.0023639535972064074
2490.0,0.0023558641255648103
2489.0,0.0023450385312048442
2488.0,0.0023330827876363413
2487.0,0.0023229553993810103
2486.0,0.002317950916279811
2485.0,0.0023173127121291744
2484.0,0.0023157770863139015
2483.0,0.0023107944540624765
2482.0,0.0023066177112710715
2481.0,0.0023073921932789698
2480.0,0.0023101284417733937
2479.0,0.002309377381973196
2478.0,0.002305541877404157
2477.0,0.0023033605681546778
2476.0,0.0023046442966347187
2475.0,0.0023070658954139843
2474.0,0.0023074700196343933
2473.0,0.002301996046030033
2472.0,0.0022859800145826055
2471.0,0.002258641523989743
2470.0,0.002225748002408178
2469.0,0.0021939837951273594
2468.0,0.0021655372522176863
2467.0,0.002141285689519955
2466.0,0.0021244304548070055
2465.0,0.0021158067141304584
2464.0,0.0021098481051715847
2463.0,0.0021012304016563518
2462.0,0.0020923319672244926
2461.0,0.0020884822212632608
2460.0,0.0020890693553712114
2459.0,0.0020893891468794163
2458.0,0.002088508279868022
2457.0,0.0020890412903575026
2456.0,0.0020910615244890524
2455.0,0.0020919246731066076
2454.0,0.002090633572657528
2453.0,0.002087452617774809
2452.0,0.0020809048631581714
2451.0,0.0020698190602470934
2450.0,0.002056691594665233
2449.0,0.002044947537997732
2448.0,0.002034947866417211
2447.0,0.002026345795171849
2446.0,0.002021304259215509
2445.0,0.0020210825609560177
2444.0,0.0020224718385501166
2443.0,0.00202189666297025
2442.0,0.0020199446880282633
2441.0,0.002017891220385463
2440.0,0.002013723379714194
2439.0,0.0020062817748152982
2438.0,0.0019992608053577953
2437.0,0.0019957714718415107
2436.0,0.0019926563222617505
2435.0,0.0019857288477406424
2434.0,0.001977173710729541
2433.0,0.0019720938204089056
2432.0,0.0019709207803000994
2431.0,0.0019709337599528682
2430.0,0.0019721682739559927
2429.0,0.0019758738319853395
2428.0,0.001979893000581851
2427.0,0.001981578664778777
2426.0,0.0019832236373140176
2425.0,0.0019892663940179038
2424.0,0.001999990101601525
2423.0,0.0020124380847520865
2422.0,0.0020249006872219612
2421.0,0.002035958754868999
2420.0,0.0020423796344290913
2419.0,0.0020431616778965565
2418.0,0.0020428125494580144
2417.0,0.002045645589437118
2416.0,0.0020493446042148147
2415.0,0.0020484464271065036
2414.0,0.0020412053240402243
2413.0,0.002028890060464243
2412.0,0.002012069341123631
2411.0,0.0019924196895516285
2410.0,0.001974350126971412
2409.0,0.001959112420421477
2408.0,0.0019405527679357054
2407.0,0.0019129706224717512
2406.0,0.0018808827471495327
2405.0,0.0018552433881042422
2404.0,0.0018419163385312996
2403.0,0.0018384396435105832
2402.0,0.0018392038914138613
2401.0,0.0018388231939117572
2400.0,0.0018332510188352911
2399.0,0.0018229152796916102
2398.0,0.0018128943834214285
2397.0,0.0018059173018415637
2396.0,0.0017980616311819588
2395.0,0.0017857767366839935
2394.0,0.0017732827200446551
2393.0,0.0017671510450280527
2392.0,0.001766820091964234
2391.0,0.0017667251991765843
2390.0,0.001765763789451944
2389.0,0.0017685613245933159
2388.0,0.001778115025784159
2387.0,0.0017925656370664997
2386.0,0.0018091741694391717
2385.0,0.0018271340881117933
2384.0,0.0018462674856089835
2383.0,0.001865921399548167
2382.0,0.0018847105642040862
2381.0,0.0018992444253753409
2380.0,0.0019047697068627911
2379.0,0.0018996344729617547
2378.0,0.0018867175856878138
2377.0,0.0018670307539489744
2376.0,0.0018377217996416347
2375.0,0.0018031250076117958
2374.0,0.0017804728525630158
2373.0,0.0017836790934361926
2372.0,0.0018045436091255608
2371.0,0.0018232463335781214
2370.0,0.0018348607143065117
2369.0,0.0018497920332954183
2368.0,0.0018733493683179884
2367.0,0.0019044448123256875
2366.0,0.0019482065931106557
2365.0,0.0020047134662172757
2364.0,0.0020518750985369844
2363.0,0.0020740752687281034
2362.0,0.0020913987328930756
2361.0,0.0021262721799958297
2360.0,0.002168108909166191
2359.0,0.002189790267688333
2358.0,0.002188731732991542
2357.0,0.0021833714145906547
2356.0,0.002177142313949826
2355.0,0.002170936325911249
2354.0,0.0021771301940891135
2353.0,0.0022056733760388017
2352.0,0.0022469846418082147
2351.0,0.0022805764251121897
2350.0,0.0023045656409379418
2349.0,0.002324654191657058
2348.0,0.0023459404823086717
2347.0,0.0023703504067008156
2346.0,0.0023959731860494302
2345.0,0.0024227537130322384
2344.0,0.002442926885491142
2343.0,0.0024614513769325485
2342.0,0.0024868490848227293
2341.0,0.002514894485401185
2340.0,0.0025354988505219356
2339.0,0.002542079072237603
2338.0,0.0025442354714989854
2337.0,0.0025500152147879137
2336.0,0.002557624587881686
2335.0,0.0025644997839972482
2334.0,0.002577774984444864
2333.0,0.00260257581009616
2332.0,0.0026316748978856544
2331.0,0.0026501840313505813
2330.0,0.0026618927081520447
2329.0,0.0026786009918608428
2328.0,0.002713740586935752
2327.0,0.002779215822565764
2326.0,0.0028718807961229326
2325.0,0.002969281198490524
2324.0,0.003023177525423907
2323.0,0.0030074905122939415
2322.0,0.0029376771489032743
2321.0,0.0028532394664283834
2320.0,0.0027783221089754282
2319.0,0.002714476543474914
2318.0,0.0026638757768338863
2317.0,0.0026281149059701327
2316.0,0.002606225140950202
2315.0,0.002593685891259081
2314.0,0.002591781559187006
2313.0,0.002599260079336825
2312.0,0.002607076169788949
2311.0,0.002606500592992978
2310.0,0.0025978966325872705
2309.0,0.0025849590213427656
2308.0,0.002563809711586763
2307.0,0.002532120604049756
2306.0,0.00249573051278798
2305.0,0.0024646401154117103
2304.0,0.002440832486982415
2303.0,0.00242331335954284
2302.0,0.0024135874819650204
2301.0,0.0024110283330605223
2300.0,0.0024070607831403025
2299.0,0.0023944518118472116
2298.0,0.0023779233806745766
2297.0,0.002367675822656966
2296.0,0.002365524821442931
2295.0,0.0023667710486006506
2294.0,0.002369099418067357
2293.0,0.002374315865622021
2292.0,0.002380933820877321
2291.0,0.002387385198537004
2290.0,0.0023955466424533094
2289.0,0.002407747485824761
2288.0,0.0024197813414331424
2287.0,0.0024260221724615454
2286.0,0.0024257133981560874
2285.0,0.002419742808580057
2284.0,0.002405160153518697
2283.0,0.002380685780984469
2282.0,0.0023526164071552167
2281.0,0.0023281384216652045
2280.0,0.0023070601581050565
2279.0,0.002286418065532353
2278.0,0.002268110084839029
2277.0,0.0022547303647110044
2276.0,0.002245677962096923
2275.0,0.0022426812455902364
2274.0,0.002250573694504506
2273.0,0.002263282121660713
2272.0,0.0022612914414900753
2271.0,0.0022347487628197583
2270.0,0.002198139785860063
2269.0,0.0021699489894316565
2268.0,0.0021479738674055684
2267.0,0.0021197993745240462
2266.0,0.002086526696111373
2265.0,0.0020588854700652544
2264.0,0.0020387063968629843
2263.0,0.0020223149745529742
2262.0,0.002015353210248402
2261.0,0.0020258831192769364
2260.0,0.002046285121115676
2259.0,0.0020590993473291646
2258.0,0.002057316598072212
2257.0,0.0020457136694304358
2256.0,0.0020278790175898413
2255.0,0.0020062376380121615
2254.0,0.001989772950298423
2253.0,0.0019859512263794895
2252.0,0.0019900026494824212
2251.0,0.001994262313675685
2250.0,0.0020014779694841195
2249.0,0.00201517921684924
2248.0,0.0020258520569054555
2247.0,0.002023183380658656
2246.0,0.002014846377770234
2245.0,0.0020171236429471014
2244.0,0.0020312448884759046
2243.0,0.0020439895495051722
2242.0,0.0020460751879812084
2241.0,0.002036018715186664
2240.0,0.0020133581068392404
2239.0,0.0019828476634298456
2238.0,0.001958862901960937
2237.0,0.0019515767361759613
2236.0,0.001954702739411752
2235.0,0.0019584903132598254
2234.0,0.0019641253210030836
2233.0,0.001972128457610167
2232.0,0.0019705714745570074
2231.0,0.0019524634789425065
2230.0,0.0019319462802834218
2229.0,0.0019238404782074285
2228.0,0.001920356642251674
2227.0,0.001908694314900778
2226.0,0.001897906354800508
2225.0,0.0019039864176745428
2224.0,0.0019197306514229175
2223.0,0.001925954955817061
2222.0,0.0019239361285728232
2221.0,0.0019300634143505102
2220.0,0.0019442587134687593
2219.0,0.0019501625067022857
2218.0,0.001943173928147782
2217.0,0.001933937857383832
2216.0,0.0019267612563736779
2215.0,0.001916989652661569
2214.0,0.0019075029486476497
2213.0,0.0019068567141663348
2212.0,0.0019133360645715012
2211.0,0.0019192144167569881
2210.0,0.0019259649107311815
2209.0,0.0019371827603208332
2208.0,0.001943986558165689
2207.0,0.0019374205909174162
2206.0,0.0019282919634736012
2205.0,0.0019342109223232685
2204.0,0.001952663687938218
2203.0,0.0019671138395906717
2202.0,0.0019727190006938716
2201.0,0.00197568011121831
2200.0,0.00197517244842077
2199.0,0.001966281163582491
2198.0,0.001954872868724628
2197.0,0.0019509068403466044
2196.0,0.0019533374605556833
2195.0,0.0019584959421134816
2194.0,0.0019736972222615034
2193.0,0.0020047004980842434
2192.0,0.002040954164366188
2191.0,0.0020711128810350548
2190.0,0.002099147161336455
2189.0,0.0021266864482537215
2188.0,0.0021374780871740956
2187.0,0.0021222712711486858
2186.0,0.0021011118247851535
2185.0,0.0020943448922756203
2184.0,0.0020872992547878227
2183.0,0.0020536483490294507
2182.0,0.0020009261206345307
2181.0,0.001961609663219352
2180.0,0.0019497788941578798
2179.0,0.001955313040909858
2178.0,0.0019673545093014866
2177.0,0.0019738397408113964
2176.0,0.0019538161357638014
2175.0,0.0019032795552667544
2174.0,0.0018573588059427383
2173.0,0.0018565801370230635
2172.0,0.001900988556900731
2171.0,0.0019638900945988308
2170.0,0.0020343081735201595
2169.0,0.0021161427571303243
2168.0,0.0021999607524947878
2167.0,0.002266306694444749
2166.0,0.0023109651625524783
2165.0,0.0023443946388698677
2164.0,0.002375919826496791
2163.0,0.0024128275864542946
2162.0,0.0024474637610813767
2161.0,0.0024213334155781785
2160.0,0.0022453543134001077
2159.0,0.0019149519189990112
2158.0,0.0015700513205948276
2157.0,0.0013654096645357818
2156.0,0.0013175775661003022
2155.0,0.0013429702474409824
2154.0,0.0013849903073580362
2153.0,0.001438027222172397
2152.0,0.0014961537985977529
2151.0,0.0015420711505079523
2150.0,0.00157324121463559
2149.0,0.0015963045164310292
2148.0,0.0016036284780365246
2147.0,0.001587714156549596
2146.0,0.0015659581150542603
2145.0,0.001559634092329903
2144.0,0.0015613266076859769
2143.0,0.0015527491373516908
2142.0,0.0015394215831570643
2141.0,0.0015371762220150445
2140.0,0.0015390085092239182
2139.0,0.0015261833279996732
2138.0,0.0014988615546526196
2137.0,0.0014660526075475
2136.0,0.001419048667653188
2135.0,0.0013485355840259913
2134.0,0.0012785066555139194
2133.0,0.0012488719973287679
2132.0,0.0012678138663839923
2131.0,0.0013080887344205617
2130.0,0.001344579740543936
2129.0,0.0013711627047440988
2128.0,0.001388791300594547
2127.0,0.0014006125603105769
2126.0,0.0014163383011455738
2125.0,0.0014425961627958367
2124.0,0.001470258978298244
2123.0,0.001485893152449656
2122.0,0.0014909290660435452
2121.0,0.0014965162069103441
2120.0,0.0015065246820974876
2119.0,0.0015201694421034273
2118.0,0.0015429509386481832
2117.0,0.001578112744090338
2116.0,0.0016139597543854405
2115.0,0.001636438005140802
2114.0,0.0016489919561882098
2113.0,0.0016642902732917774
2112.0,0.0016824204314051041
2111.0,0.001693071513156923
2110.0,0.0016932410064711989
2109.0,0.0016873340481395706
2108.0,0.001676186671728977
2107.0,0.0016616810923679507
2106.0,0.001654790077191497
2105.0,0.0016626239378982578
2104.0,0.0016749975378808095
2103.0,0.0016797779950394453
2102.0,0.0016824279105577425
2101.0,0.0016925703678305542
2100.0,0.0017011166619727513
2099.0,0.0016904636041895215
2098.0,0.001659580981638325
2097.0,0.0016207504833855326
2096.0,0.0015802396895962972
2095.0,0.0015426351439140412
2094.0,0.0015245622217488503
2093.0,0.001539637145011053
2092.0,0.0015752972345548727
2091.0,0.0016048337906993749
2090.0,0.0016178182361819365
2089.0,0.0016227494731351109
2088.0,0.00162752899785175
2087.0,0.0016353177052316414
2086.0,0.0016523688877647374
2085.0,0.0016810752437495244
2084.0,0.0017107086495438018
2083.0,0.0017314314872897514
2082.0,0.0017495865236225193
2081.0,0.001772892791178716
2080.0,0.001791378433120725
2079.0,0.0017924018097326203
2078.0,0.0017835232146795736
2077.0,0.0017785740709838481
2076.0,0.0017719618283081819
2075.0,0.0017514122750419802
2074.0,0.0017265686981985117
2073.0,0.0017175352770456085
2072.0,0.0017213200666913204
2071.0,0.0017174024561726535
2070.0,0.0017027961526035274
2069.0,0.0016952525496196282
2068.0,0.001703840234217793
2067.0,0.0017203313910042807
2066.0,0.0017371534980720057
2065.0,0.0017513068545094664
2064.0,0.0017554757299473977
2063.0,0.0017471056158835266
2062.0,0.0017399145489797143
2061.0,0.0017463921309854237
2060.0,0.0017575301439341762
2059.0,0.0017599108487960247
2058.0,0.001760210791760912
2057.0,0.0017689772861784125
2056.0,0.0017762994485494247
2055.0,0.0017758440708082505
2054.0,0.0017999141727840064
2053.0,0.001889169892564243
2052.0,0.0020289069980887553
2051.0,0.00214996501727401
2050.0,0.0021952483090005998
2049.0,0.002165197057606248
2048.0,0.0021004811363075256
2047.0,0.0020420441637794386
2046.0,0.0020124616521465504
2045.0,0.0020111663973181935
2044.0,0.0020178504307198173
2043.0,0.002018023255048343
2042.0,0.0020239812140413396
2041.0,0.00205343151572313
2040.0,0.002097672530875432
2039.0,0.0021352951016457293
2038.0,0.0021631480660514253
2037.0,0.002185393614039708
2036.0,0.0021892456815784966
2035.0,0.002163214759254758
2034.0,0.0021261402011754243
2033.0,0.0021049985070725054
2032.0,0.0020962626853829737
2031.0,0.0020825001064358243
2030.0,0.0020692096896546947
2029.0,0.0020698887750122312
2028.0,0.0020741340363096632
2027.0,0.002068461343316936
2026.0,0.002069902355910027
2025.0,0.002098566501991832
2024.0,0.002134783581539157
2023.0,0.0021440524680595725
2022.0,0.0021288259511891548
2021.0,0.002118054184428718
2020.0,0.0021206139742660003
2019.0,0.002124443210561176
2018.0,0.0021264656948567764
2017.0,0.0021271860516995852
2016.0,0.0021117036470343175
2015.0,0.0020717030926085418
2014.0,0.0020286574545209427
2013.0,0.0020043100780095468
2012.0,0.0019874399496742855
2011.0,0.001959006686816262
2010.0,0.0019274658990439718
2009.0,0.0019045500003502533
2008.0,0.0018711513424899211
2007.0,0.0018095735794848643
2006.0,0.001747653941845085
2005.0,0.0017260438107274615
2004.0,0.0017410267326179105
2003.0,0.0017605006268544905
2002.0,0.0017745228575559591
2001.0,0.0017915850019483528
2000.0,0.0018066548393512183
1999.0,0.0018106582806952942
1998.0,0.001815540536039291
1997.0,0.00183465605248608
1996.0,0.0018536827345302378
1995.0,0.0018539474033892312
1994.0,0.0018480247559717977
1993.0,0.0018600321760462715
1992.0,0.0018835218523733611
1991.0,0.0018962513114567218
1990.0,0.0019019335513341413
1989.0,0.001915384046219928
1988.0,0.0019275664974022578
1987.0,0.0019256671001971907
1986.0,0.0019284538864802725
1985.0,0.0019624447263798094
1984.0,0.0020197004142935653
1983.0,0.0020785976011381004
1982.0,0.002146166959448121
1981.0,0.0022325829085130607
1980.0,0.0022983997987860616
1979.0,0.002280084733817865
1978.0,0.0021707649578446985
1977.0,0.002031392106674664
1976.0,0.001916332047946911
1975.0,0.0018356797341027783
1974.0,0.0017882368413318973
1973.0,0.0017732833337265814
1972.0,0.0017718130788953027
1971.0,0.001764552883109961
1970.0,0.0017625052100103482
1969.0,0.001782243164649132
1968.0,0.0018027478544911362
1967.0,0.001788585309975117
1966.0,0.0017467957276907568
1965.0,0.0017132005918161837
1964.0,0.001696406639515575
1963.0,0.0016811619659929011
1962.0,0.0016673039150202418
1961.0,0.0016642930857116817
1960.0,0.001662149810456255
1959.0,0.001646997389822264
1958.0,0.0016330015970036627
1957.0,0.0016416634093243286
1956.0,0.0016631765779325466
1955.0,0.001672337373341106
1954.0,0.0016686169855637074
1953.0,0.0016677394712634385
1952.0,0.0016676875166510023
1951.0,0.0016570488203825442
1950.0,0.001644179595098605
1949.0,0.0016447245486229034
1948.0,0.0016510126375457416
1947.0,0.0016447498596663
1946.0,0.0016296292050301782
1945.0,0.0016211867673529723
1944.0,0.0016148993808393147
1943.0,0.00159577331148579
1942.0,0.0015729778658899597
1941.0,0.0015682126888671084
1940.0,0.001577810791567067
1939.0,0.0015834612205258593
1938.0,0.0015842025017420848
1937.0,0.0015882390245866174
1936.0,0.0015883473982085574
1935.0,0.0015735988802055725
1934.0,0.00155656972218865
1933.0,0.0015591783231106411
1932.0,0.001577816301177617
1931.0,0.001591323131565777
1930.0,0.0015958383646808361
1929.0,0.0016037435448127597
1928.0,0.00161595405939368
1927.0,0.0016211387388888187
1926.0,0.0016182737593546288
1925.0,0.0016168568820775955
1924.0,0.0016188599133825632
1923.0,0.0016210555157649652
1922.0,0.0016295326795153296
1921.0,0.0016487868797606703
1920.0,0.0016646977057760703
1919.0,0.0016605391086276355
1918.0,0.0016448310929612453
1917.0,0.0016413325203482672
1916.0,0.0016523268494223005
1915.0,0.001661509895115271
1914.0,0.0016652160121738463
1913.0,0.0016730487257737147
1912.0,0.0016862759799998476
1911.0,0.0016965051401887628
1910.0,0.0017031520509501645
1909.0,0.001713427484433383
1908.0,0.0017273943030479127
1907.0,0.0017396539745404124
1906.0,0.0017526632117584142
1905.0,0.0017720644759358529
1904.0,0.0017941939795900939
1903.0,0.0018134853164426317
1902.0,0.001834326542028037
1901.0,0.0018617022631652706
1900.0,0.0018881135528372507
1899.0,0.001903817794416288
1898.0,0.0019121017510329167
1897.0,0.001919942865556942
1896.0,0.0019216100983810414
1895.0,0.0019085251731904688
1894.0,0.001888518547264859
1893.0,0.001874747160978093
1892.0,0.0018633690898601449
1891.0,0.001840667752216733
1890.0,0.001805580766418563
1889.0,0.0017703246088255685
1888.0,0.001739746272549327
1887.0,0.0017076893463335797
1886.0,0.0016731140917681977
1885.0,0.001640869508090288
1884.0,0.0016096707681573926
1883.0,0.0015761621289463535
1882.0,0.0015467549763111077
1881.0,0.0015295557635273617
1880.0,0.0015194255998609108
1879.0,0.001506348079465326
1878.0,0.0014932732455928144
1877.0,0.0014892776202843066
1876.0,0.0014905648805793035
1875.0,0.001486407544785677
1874.0,0.0014783212721980628
1873.0,0.0014754375890988591
1872.0,0.0014773695010069986
1871.0,0.0014768954295794519
1870.0,0.0014745571783566674
1869.0,0.0014737346037843981
1868.0,0.001467160738117753
1867.0,0.0014498162626843398
1866.0,0.0014317744277492325
1865.0,0.0014227564632570263
1864.0,0.0014180523826527298
1863.0,0.0014087412907451693
1862.0,0.001398444326297285
1861.0,0.001397356499193033
1860.0,0.0014036092555748004
1859.0,0.001406731799644095
1858.0,0.001405302551050622
1857.0,0.0014050997761977683
1856.0,0.0014051942868458763
1855.0,0.0014005243586486123
1854.0,0.001393825440932895
1853.0,0.0013905720608439864
1852.0,0.0013877038813058888
1851.0,0.0013797335694197446
1850.0,0.0013711515845393318
1849.0,0.0013696126516443165
1848.0,0.0013708502553565816
1847.0,0.001365840201167899
1846.0,0.0013572859313905606
1845.0,0.001354908911907094
1844.0,0.0013567321155585033
1843.0,0.0013559456805728165
1842.0,0.0013565914845483891
1841.0,0.0013617442531051829
1840.0,0.001364620430050827
1839.0,0.0013589809875174342
1838.0,0.0013506419782544391
1837.0,0.0013492376381595889
1836.0,0.0013512494980658842
1835.0,0.0013482762625246344
1834.0,0.001344655945215196
1833.0,0.001349741367369441
1832.0,0.001360282871385306
1831.0,0.0013632711292171434
1830.0,0.0013564512279798234
1829.0,0.0013531350123850974
1828.0,0.001357229538193565
1827.0,0.0013580020976067357
1826.0,0.0013541773487865166
1825.0,0.0013551003929545766
1824.0,0.0013610556275603983
1823.0,0.00136438353705394
1822.0,0.0013644288766862217
1821.0,0.0013644028900967533
1820.0,0.0013594138574182292
1819.0,0.00134250641294153
1818.0,0.0013209132368692622
1817.0,0.0013098944017595467
1816.0,0.0013119945002889875
1815.0,0.0013187726141973078
1814.0,0.0013270642221235392
1813.0,0.0013386877610398838
1812.0,0.0013478123503110446
1811.0,0.0013460706004837055
1810.0,0.0013393297267972515
1809.0,0.0013385623655710007
1808.0,0.0013408678066098743
1807.0,0.0013382507976538456
1806.0,0.0013345431459338417
1805.0,0.0013386624980630901
1804.0,0.0013481475258409
1803.0,0.0013529301630614392
1802.0,0.0013517756474443116
1801.0,0.001352573344012085
1800.0,0.0013563988107881731
1799.0,0.0013572217793357984
1798.0,0.0013552443587863834
1797.0,0.0013544984213623881
1796.0,0.0013538309160489868
1795.0,0.0013514149115906788
1794.0,0.0013530635463800946
1793.0,0.0013643355323938481
1792.0,0.0013730611873962028
1791.0,0.0013672963010320349
1790.0,0.001358472543187418
1789.0,0.0013584367208765579
1788.0,0.001362438796430708
1787.0,0.0013615775658583774
1786.0,0.001357509312219626
1785.0,0.0013597779377049297
1784.0,0.0013689564160492846
1783.0,0.001376850836797948
1782.0,0.0013813053174588218
1781.0,0.001387388507905408
1780.0,0.0013937454229918523
1779.0,0.0013937478778150746
1778.0,0.0013888202791869518
1777.0,0.0013853757509869422
1776.0,0.0013850331624992696
1775.0,0.0013859959962501112
1774.0,0.0013929165707174368
1773.0,0.0014131451912399206
1772.0,0.0014342745684187514
1771.0,0.0014383922559116826
1770.0,0.0014319970941622574
1769.0,0.0014299989411541653
1768.0,0.001435825853481108
1767.0,0.0014451510798343357
1766.0,0.001457156044063989
1765.0,0.0014747269632657536
1764.0,0.0014959432478739393
1763.0,0.0015158683406266552
1762.0,0.0015359508128122072
1761.0,0.0015649108831661239
1760.0,0.0016018474511216563
1759.0,0.0016378673230455806
1758.0,0.001676747075751656
1757.0,0.0017309997118764295
1756.0,0.0017992643949380099
1755.0,0.0018677156525792528
1754.0,0.0019347991452986376
1753.0,0.0020142820602990982
1752.0,0.0021131017546176037
1751.0,0.002214457268132193
1750.0,0.0023014290821066347
1749.0,0.0023785610483933396
1748.0,0.0024478275772177663
1747.0,0.0025027697340188493
1746.0,0.002547615624883991
1745.0,0.002592993866984006
1744.0,0.002637649915610801
1743.0,0.0026741229423814386
1742.0,0.00270858596463858
1741.0,0.0027531636670504087
1740.0,0.0027978218417312496
1739.0,0.002819078206322694
1738.0,0.0028182111121860475
1737.0,0.0028136672629308994
1736.0,0.0028118306280755013
1735.0,0.002807417242666698
1734.0,0.0027989629018752597
1733.0,0.00280185957808628
1732.0,0.002817028034127251
1731.0,0.0028296304855544028
1730.0,0.002845914233741468
1729.0,0.0028777963922744913
1728.0,0.0029190932183310414
1727.0,0.0029562477929358406
1726.0,0.0029855579801937966
1725.0,0.0030042459716793104
1724.0,0.0029921290765755177
1723.0,0.002929998759465851
1722.0,0.0028305775043959707
1721.0,0.002721440563316485
1720.0,0.0026124754531705995
1719.0,0.0024981231369881705
1718.0,0.0023898138797683165
1717.0,0.002317635348164039
1716.0,0.00227575755117757
1715.0,0.002232871321202781
1714.0,0.0021886893349902987
1713.0,0.0021576807608593503
1712.0,0.0021346099664745553
1711.0,0.0021060488895333737
1710.0,0.002074447023570262
1709.0,0.002052140395710271
1708.0,0.0020387500578357017
1707.0,0.0020223119400907762
1706.0,0.0020032665577680033
1705.0,0.001994491901450724
1704.0,0.001994393725047564
1703.0,0.001990381412200117
1702.0,0.0019867594385957073
1701.0,0.0020090787293420465
1700.0,0.0020493323608348156
1699.0,0.0020699504424456948
1698.0,0.002070666852144107
1697.0,0.0020722153521006634
1696.0,0.002077537166540601
1695.0,0.002081719529943919
1694.0,0.0020883401028893188
1693.0,0.002096398613446827
1692.0,0.002100414689924072
1691.0,0.002100928721713218
1690.0,0.0021065522508301516
1689.0,0.002125650198824953
1688.0,0.002149879219841742
1687.0,0.0021652380625430787
1686.0,0.0021748037366100237
1685.0,0.002199395129453862
1684.0,0.00222845364065132
1683.0,0.0022449305479293855
1682.0,0.0022619827769504402
1681.0,0.002281363566931867
1680.0,0.0022977122625355475
1679.0,0.0023091630690866313
1678.0,0.0023218053872805216
1677.0,0.0023488161777876215
1676.0,0.00238777565576918
1675.0,0.002416931309368507
1674.0,0.002429351026381006
1673.0,0.002440887532049828
1672.0,0.0024572655390142297
1671.0,0.002475509189478876
1670.0,0.0024994660312357203
1669.0,0.0025348877365544238
1668.0,0.002571976778035587
1667.0,0.0025946464475252546
1666.0,0.0026065705465791508
1665.0,0.002623463922678142
1664.0,0.00264935049570189
1663.0,0.0026721258402402927
1662.0,0.0026879231834335293
1661.0,0.0027079683541279377
1660.0,0.002731072968359536
1659.0,0.002746383028624751
1658.0,0.0027547988286192385
1657.0,0.0027641735123095754
1656.0,0.0027760197045710836
1655.0,0.0027835590043239792
1654.0,0.002792291804669442
1653.0,0.002811779002949011
1652.0,0.002843240038663778
1651.0,0.0028625160823693508
1650.0,0.0028567363092018407
1649.0,0.0028530228621213064
1648.0,0.0028645340389147483
1647.0,0.0028689506088700463
1646.0,0.002862777657512299
1645.0,0.0028699882847806183
1644.0,0.0028808431503766973
1643.0,0.0028775483637988944
1642.0,0.0028693347077570447
1641.0,0.002871160711614638
1640.0,0.0028808574840968482
1639.0,0.0028847697469003963
1638.0,0.002882073239512711
1637.0,0.0028882108708746385
1636.0,0.002898380680453183
1635.0,0.002893884737381184
1634.0,0.002886894364840429
1633.0,0.0028856917227572513
1632.0,0.0028791760614222226
1631.0,0.002863135959212106
1630.0,0.0028436377699166443
1629.0,0.002829242330016555
1628.0,0.0028142345449490703
1627.0,0.002788810766452585
1626.0,0.002759466228075331
1625.0,0.0027365799831580093
1624.0,0.002710740527612504
1623.0,0.002666212082288265
1622.0,0.00261857346227427
1621.0,0.002590813283833085
1620.0,0.0025742025519807908
1619.0,0.0025491296785803957
1618.0,0.0025136261170457773
1617.0,0.002479791115135353
1616.0,0.0024502548434368644
1615.0,0.0024179833452329445
1614.0,0.0023858711136603436
1613.0,0.002361543308212408
1612.0,0.0023415209713338533
1611.0,0.0023152233339902755
1610.0,0.002284411664611007
1609.0,0.0022611995614443482
1608.0,0.0022442472294060605
1607.0,0.002223686807011892
1606.0,0.002203935418247974
1605.0,0.0021948581866870626
1604.0,0.002188669205858295
1603.0,0.0021706148960161003
1602.0,0.0021468013819614705
1601.0,0.002134188648529455
1600.0,0.0021301983943184167
1599.0,0.0021209370021791746
1598.0,0.0021091407372861057
1597.0,0.0021071122293270313
1596.0,0.0021102419170413475
1595.0,0.0021046121100524342
1594.0,0.002095097438621844
1593.0,0.0020967318169179947
1592.0,0.0021054362772321656
1591.0,0.0021067556431066726
1590.0,0.0021041619752869205
1589.0,0.002110944142882654
1588.0,0.0021225145002180834
1587.0,0.0021250938999748973
1586.0,0.0021239931954422863
1585.0,0.0021339526417249927
1584.0,0.002149863623010144
1583.0,0.0021542792638212806
1582.0,0.0021493705297365687
1581.0,0.002151503414343443
1580.0,0.002159957882791187
1579.0,0.002159716064599139
1578.0,0.0021486916378574226
1577.0,0.00213791848740214
1576.0,0.002120684345204492
1575.0,0.002091389594061062
1574.0,0.00207044445403273
1573.0,0.0020686503648303955
1572.0,0.002073647138293897
1571.0,0.002065276469771807
1570.0,0.0020409505292176455
1569.0,0.0020251030040690527
1568.0,0.0020244304140528964
1567.0,0.0020197550588209345
1566.0,0.002011343047193858
1565.0,0.002015631087523041
1564.0,0.0020275878709411768
1563.0,0.002024999419213076
1562.0,0.002012751991542166
1561.0,0.0020135420043267084
1560.0,0.0020464557612046887
1559.0,0.0020502013718515944
1558.0,0.002030549002873295
1557.0,0.0020651311762695437
1556.0,0.0021037617596655644
1555.0,0.002108479103802358
1554.0,0.00210924067651974
1553.0,0.0021315429500743987
1552.0,0.002163596937120039
1551.0,0.002176785371029475
1550.0,0.0021816426379831664
1549.0,0.0022040739915984674
1548.0,0.0022368502598122475
1547.0,0.0022541987302176587
1546.0,0.0022620353314588204
1545.0,0.0022891656774977694
1544.0,0.002329299322145849
1543.0,0.002342066905705035
1542.0,0.0023249303585066304
1541.0,0.0023167597602672266
1540.0,0.002295366111427596
1539.0,0.0022401645871714944
1538.0,0.002209375869889547
1537.0,0.002215857023199929
1536.0,0.0022235507213904915
1535.0,0.0022050053644134477
1534.0,0.0021656784876819537
1533.0,0.0021452566918189688
1532.0,0.002144217261235598
1531.0,0.0021304305624364394
1530.0,0.0021087485203349805
1529.0,0.002107636109085826
1528.0,0.0021221007802897916
1527.0,0.0021165002981349264
1526.0,0.002095476334606083
1525.0,0.002099170918013747
1524.0,0.0021198053034926796
1523.0,0.0021100069743158227
1522.0,0.0020751179983020214
1521.0,0.0020776553455468996
1520.0,0.002113323370818747
1519.0,0.0021215126018759942
1518.0,0.0021070064455120294
1517.0,0.00211433177570142
1516.0,0.0021321865778420723
1515.0,0.0021239288277397125
1514.0,0.0021085122023567055
1513.0,0.0021260461554203787
1512.0,0.0021618861337126477
1511.0,0.0021696336737838146
1510.0,0.0021562549352161864
1509.0,0.0021828019463360914
1508.0,0.002256822217962316
1507.0,0.0022623894723869426
1506.0,0.0022255631498190515
1505.0,0.002273329355746336
1504.0,0.0023349518933041707
1503.0,0.002337288351709036
1502.0,0.0023179115364291825
1501.0,0.0023337638557678437
1500.0,0.0023810388225957713
1499.0,0.0023923818640362816
1498.0,0.0023765029721091947
1497.0,0.0024317492155317504
1496.0,0.0025426738862754203
1495.0,0.002593700691746301
1494.0,0.0026052427657641455
1493.0,0.0026722634540928764
1492.0,0.0027867750565464307
1491.0,0.0028585649709685487
1490.0,0.002902982679585214
1489.0,0.0030402069279818087
1488.0,0.003233771642005562
1487.0,0.0033725999213339497
1486.0,0.0035066873650802127
1485.0,0.003734348674967668
1484.0,0.0040395879848268215
1483.0,0.004377086856219962
1482.0,0.00482945974275775
1481.0,0.005519592992167296
1480.0,0.006446636019861676
1479.0,0.007717455128579895
1478.0,0.009952904368856293
1477.0,0.014115263242864697
1476.0,0.02080819637221397
1475.0,0.02985565916063753
1474.0,0.040496315281765
1473.0,0.04976867498890294
1472.0,0.05290483415697514
1471.0,0.05004817876492931
1470.0,0.04551397633669467
1469.0,0.04161348580930689
1468.0,0.038748975253122445
1467.0,0.037170199546935644
1466.0,0.037611248427589596
1465.0,0.04044330843243901
1464.0,0.043930788059464806
1463.0,0.04527330553166002
1462.0,0.04335144904193167
1461.0,0.03879597926012532
1460.0,0.03281275225033073
1459.0,0.02663765484523478
1458.0,0.021150268361209014
1457.0,0.016973401027892653
1456.0,0.014433206481749042
1455.0,0.013070026730530827
1454.0,0.012123091783167268
1453.0,0.011191763686456543
1452.0,0.010262284169711023
1451.0,0.009500068770630225
1450.0,0.008931112122991983
1449.0,0.008431198886376196
1448.0,0.007967940236361246
1447.0,0.007627986013888577
1446.0,0.007403322392822172
1445.0,0.007195503648286444
1444.0,0.0069840064723644055
1443.0,0.006814562544870305
1442.0,0.0066801376644430345
1441.0,0.006527521580069891
1440.0,0.006359996638815841
1439.0,0.0062245734814153
1438.0,0.006110146176160957
1437.0,0.005939256771742111
1436.0,0.005718932704007301
1435.0,0.005538771497273357
1434.0,0.005387775416995438
1433.0,0.005196595152661488
1432.0,0.004962068615926888
1431.0,0.004730084470215555
1430.0,0.004508866285041369
1429.0,0.004270626654853774
1428.0,0.0040394537727367055
1427.0,0.0038613436169484617
1426.0,0.003718430827378599
1425.0,0.0035592641278420836
1424.0,0.0033927374104191564
1423.0,0.0032738167970379007
1422.0,0.00319981537432291
1421.0,0.003118456363902144
1420.0,0.003021380036669642
1419.0,0.002951213730293034
1418.0,0.0029070775401623195
1417.0,0.00284666558046399
1416.0,0.002780796114951061
1415.0,0.0027442707717451483
1414.0,0.0027257686847905445
1413.0,0.0026906145663757115
1412.0,0.0026422434984221498
1411.0,0.0026125302985951634
1410.0,0.002598882104953124
1409.0,0.002573141257452204
1408.0,0.0025387029120919223
1407.0,0.002521068729392409
1406.0,0.002512665337634375
1405.0,0.002482660441662422
1404.0,0.002442075797112017
1403.0,0.0024261342211601283
1402.0,0.002425322728184082
1401.0,0.0024064355414770205
1400.0,0.0023750058203782067
1399.0,0.002365042014648613
1398.0,0.0023729574329625115
1397.0,0.0023647149709483005
1396.0,0.0023434475491381284
1395.0,0.0023401090342837928
1394.0,0.0023512458977769887
1393.0,0.002351857582629204
1392.0,0.0023491480092644656
1391.0,0.002365223374987719
1390.0,0.002395155890847093
1389.0,0.0024170821726980565
1388.0,0.0024332437314503936
1387.0,0.002466787204231349
1386.0,0.0025160426054585145
1385.0,0.0025659211119219245
1384.0,0.0026311855092588446
1383.0,0.0027373697649208995
1382.0,0.002877053863726834
1381.0,0.003017772742956043
1380.0,0.0031406800293610013
1379.0,0.0032370369977791887
1378.0,0.0032846169815808628
1377.0,0.003270456867202826
1376.0,0.003224305013735535
1375.0,0.0031994979332858886
1374.0,0.0032196059173951377
1373.0,0.003269358014327048
1372.0,0.0033364892767705225
1371.0,0.0034184836901808954
1370.0,0.0034960471696336187
1369.0,0.003539754241509278
1368.0,0.0035426216424189884
1367.0,0.0035192997881673205
1366.0,0.0034741979926751847
1365.0,0.0034014110020318383
1364.0,0.0033115522930882626
1363.0,0.0032302568286113583
1362.0,0.00316533559063402
1361.0,0.003105967283502075
1360.0,0.0030548904713844196
1359.0,0.0030242485001958862
1358.0,0.003010484760453083
1357.0,0.0030013001981796803
1356.0,0.002998584941600198
1355.0,0.003011115496950552
1354.0,0.0030287257860249603
1353.0,0.003031084604725043
1352.0,0.0030170110378616895
1351.0,0.002999294257986157
1350.0,0.0029769383837306316
1349.0,0.0029392339582317854
1348.0,0.0028912835719626688
1347.0,0.002847868936157973
1346.0,0.002807584524176588
1345.0,0.002759116026347411
1344.0,0.002707347871198166
1343.0,0.0026675828519268563
1342.0,0.0026384116185520644
1341.0,0.002603117580606973
1340.0,0.002557578347939471
1339.0,0.0025150099716544473
1338.0,0.0024791031509554962
1337.0,0.002441014623470886
1336.0,0.0024031058711630094
1335.0,0.002376492975068857
1334.0,0.0023597137525206893
1333.0,0.0023420935548648268
1332.0,0.002324676002449432
1331.0,0.002318293653020132
1330.0,0.002323011360695803
1329.0,0.0023295127710484522
1328.0,0.002338423289934694
1327.0,0.00235807718072719
1326.0,0.002385385226185534
1325.0,0.002409242900716506
1324.0,0.0024305613919887396
1323.0,0.0024600041198384933
1322.0,0.002498645408555491
1321.0,0.0025385998872276606
1320.0,0.0025797934428425373
1319.0,0.0026277274152352913
1318.0,0.0026771065352894654
1317.0,0.0027177222652539058
1316.0,0.0027537479366908026
1315.0,0.0027978056707048094
1314.0,0.0028495907329662957
1313.0,0.002897143362187415
1312.0,0.0029366308529036795
1311.0,0.0029738984810711564
1310.0,0.0030089285620780335
1309.0,0.003036297201758932
1308.0,0.0030582286573893245
1307.0,0.0030815457219209603
1306.0,0.0031037044840600474
1305.0,0.003117045427335986
1304.0,0.003123995413893138
1303.0,0.0031332771796253045
1302.0,0.0031445085443911236
1301.0,0.0031511579972760876
1300.0,0.0031552507440636922
1299.0,0.003163950503721637
1298.0,0.003174549996869053
1297.0,0.003177765983780018
1296.0,0.0031734934850360225
1295.0,0.00316865920501688
1294.0,0.0031623893331024365
1293.0,0.0031480722830246046
1292.0,0.0031272501499445765
1291.0,0.0031071660191314817
1290.0,0.003087415253520352
1289.0,0.003063643458142351
1288.0,0.0030421977687313086
1287.0,0.00303565476286841
1286.0,0.0030448193047630362
1285.0,0.003059493285546813
1284.0,0.003074560241528221
1283.0,0.003091318544289014
1282.0,0.0031064344010293585
1281.0,0.0031141170660972132
1280.0,0.0031174737385670204
1279.0,0.0031242053566218194
1278.0,0.003133027037231211
1277.0,0.0031373029864664344
1276.0,0.0031393777384514923
1275.0,0.0031479453468264695
1274.0,0.0031637781450932078
1273.0,0.0031813136020663797
1272.0,0.0032018255762516924
1271.0,0.0032314045646459687
1270.0,0.0032680123026247614
1269.0,0.0033047789290303457
1268.0,0.003344309335450521
1267.0,0.003395694759607112
1266.0,0.00345903074175247
1265.0,0.003525484801366244
1264.0,0.0035905431161065635
1263.0,0.003654931924547733
1262.0,0.0037155316906719556
1261.0,0.003768350946407057
1260.0,0.003818256295872181
1259.0,0.0038733265413088552
1258.0,0.003932306781117014
1257.0,0.003989584486446234
1256.0,0.00404862855300412
1255.0,0.004118269238879909
1254.0,0.004199228866448959
1253.0,0.0042861084661469885
1252.0,0.004379069882278956
1251.0,0.004481092148366246
1250.0,0.004586934234788009
1249.0,0.004687524554081082
1248.0,0.00478295018703044
1247.0,0.004879736643809714
1246.0,0.0049780551520426115
1245.0,0.00507244993886452
1244.0,0.005162377186804759
1243.0,0.005251269124024645
1242.0,0.005337785403412888
1241.0,0.005418276187603303
1240.0,0.005495211507577615
1239.0,0.005573506466157997
1238.0,0.0056512700499268325
1237.0,0.005723397415477626
1236.0,0.005791102360390054
1235.0,0.005858451945585711
1234.0,0.005922806151087317
1233.0,0.00597838069749241
1232.0,0.006026215309048366
1231.0,0.006071054607817396
1230.0,0.006111341663873992
1229.0,0.006142025604410129
1228.0,0.006164945343882137
1227.0,0.006187117573295475
1226.0,0.006210517369031218
1225.0,0.006232006189338668
1224.0,0.006251332525471892
1223.0,0.006270700019122756
1222.0,0.006288448333112525
1221.0,0.006301592101906232
1220.0,0.00631277091319007
1219.0,0.006326795841111221
1218.0,0.00634251544356547
1217.0,0.0063559271637793945
1216.0,0.00636865241265076
1215.0,0.00638516543791696
1214.0,0.006404472638033406
1213.0,0.006422980465926231
1212.0,0.00644283729438615
1211.0,0.006468642017468038
1210.0,0.006498233426900412
1209.0,0.006525480766314122
1208.0,0.006549815211214278
1207.0,0.006574572074144087
1206.0,0.006598463621799656
1205.0,0.00661718575313922
1204.0,0.006631273557663158
1203.0,0.0066442068123745085
1202.0,0.006655070273831899
1201.0,0.006661132605160224
1200.0,0.006665317725851561
1199.0,0.006673041618301751
1198.0,0.006683601987646204
1197.0,0.0066923657942149235
1196.0,0.00669942232018775
1195.0,0.00670851716432655
1194.0,0.006719543903912242
1193.0,0.006729529003866512
1192.0,0.006739029030780311
1191.0,0.006750478525911689
1190.0,0.006762615407889471
1189.0,0.006773515232070006
1188.0,0.006786184380552897
1187.0,0.006803732170127653
1186.0,0.006821998073754612
1185.0,0.006834812399701835
1184.0,0.006843960431951654
1183.0,0.0068563302067724975
1182.0,0.0068740405355486416
1181.0,0.006895080925620636
1180.0,0.006920678082069571
1179.0,0.006952748026063034
1178.0,0.006985595286077637
1177.0,0.007009246572473736
1176.0,0.007020798419271622
1175.0,0.007025751769416125
1174.0,0.0070293752427537225
1173.0,0.007032936282420892
1172.0,0.007036551555329017
1171.0,0.007039031972811669
1170.0,0.007036314187050527
1169.0,0.00702620062079046
1168.0,0.007012817757915257
1167.0,0.007000648152206636
1166.0,0.006987017829826292
1165.0,0.006967295399070047
1164.0,0.006944706288306941
1163.0,0.0069271856311584395
1162.0,0.0069165036436796305
1161.0,0.00690828386957544
1160.0,0.006901089395859208
1159.0,0.0068973982204437725
1158.0,0.006896677303246695
1157.0,0.006895622446475389
1156.0,0.00689522847302036
1155.0,0.006900371908426461
1154.0,0.006911853728264047
1153.0,0.006924873231948665
1152.0,0.006935569847472753
1151.0,0.006944039215372009
1150.0,0.0069515573415141725
1149.0,0.006959416202180544
1148.0,0.006969443772126063
1147.0,0.006981745798039727
1146.0,0.006993920742694033
1145.0,0.007006040698309462
1144.0,0.007022965485861304
1143.0,0.0070473593311419285
1142.0,0.007074398872206841
1141.0,0.007098710878667699
1140.0,0.007122640098977353
1139.0,0.007152013207208594
1138.0,0.007187450926313247
1137.0,0.007225419893663109
1136.0,0.007263789100089315
1135.0,0.007300667307076056
1134.0,0.0073321768921995115
1133.0,0.007357332084150042
1132.0,0.00738078718170148
1131.0,0.007405099431216601
1130.0,0.007425121346882199
1129.0,0.007436328621204481
1128.0,0.007443821724924735
1127.0,0.007456199329876846
1126.0,0.007475274370504422
1125.0,0.0074992661563016635
1124.0,0.007531121919780433
1123.0,0.007574763489899544
1122.0,0.00762691766111547
1121.0,0.007681689714064443
1120.0,0.00774020678437479
1119.0,0.007807311764830981
1118.0,0.007881613056794221
1117.0,0.007957013114041641
1116.0,0.008031729069439577
1115.0,0.00810817183190522
1114.0,0.008186126430155639
1113.0,0.008263347628556182
1112.0,0.008340943659801345
1111.0,0.008421386544732718
1110.0,0.008502891897042045
1109.0,0.008581633237524967
1108.0,0.008657253623908925
1107.0,0.008731273291461483
1106.0,0.008803172395010704
1105.0,0.008872928739911856
1104.0,0.008943867312569763
1103.0,0.009017797352927145
1102.0,0.009090587898752122
1101.0,0.009157715146654031
1100.0,0.009220661268065177
1099.0,0.009283369707440564
1098.0,0.009345078644813777
1097.0,0.009401384566507357
1096.0,0.009449631919160777
1095.0,0.00948954245311685
1094.0,0.009522351016800903
1093.0,0.009552912094095983
1092.0,0.009588486673285644
1091.0,0.009631010098005469
1090.0,0.009673861253780155
1089.0,0.00971012390508905
1088.0,0.009740436066470435
1087.0,0.009769018936580533
1086.0,0.009796028093764765
1085.0,0.009818050769287625
1084.0,0.009832452183647878
1083.0,0.009837122964497031
1082.0,0.0098298037914421
1081.0,0.009812154081572521
1080.0,0.009791267891784552
1079.0,0.009772605160208418
1078.0,0.00975355363884309
1077.0,0.009727588354034903
1076.0,0.009692274618696926
1075.0,0.009649659527787628
1074.0,0.00960171586488477
1073.0,0.009549871405833828
1072.0,0.009497299431693898
1071.0,0.009447543650012286
1070.0,0.009401630917520503
1069.0,0.009359020810210809
1068.0,0.009319423441263661
1067.0,0.009281036980231354
1066.0,0.009239826597256747
1065.0,0.009194046795686006
1064.0,0.009146896137117723
1063.0,0.009101063555123403
1062.0,0.009052846344533252
1061.0,0.008995374818537401
1060.0,0.008925888923960953
1059.0,0.00884660496427407
1058.0,0.008760831419525033
1057.0,0.008672029487381572
1056.0,0.008584641973876596
1055.0,0.008501366619690852
1054.0,0.00842025649121238
1053.0,0.008337870754584024
1052.0,0.008253818531131895
1051.0,0.008168402344982692
1050.0,0.008078614754253552
1049.0,0.007982462944016963
1048.0,0.007884372652593145
1047.0,0.007789365224396187
1046.0,0.007694771968553577
1045.0,0.007594301145756219
1044.0,0.007487650039283602
1043.0,0.007380286926629148
1042.0,0.007275946914740733
1041.0,0.007175201551339243
1040.0,0.007079868823160707
1039.0,0.006992198158950855
1038.0,0.006910235840238176
1037.0,0.006830506166332358
1036.0,0.006754949789118308
1035.0,0.006688599392288558
1034.0,0.006630218794568089
1033.0,0.006571812321867474
1032.0,0.006507702021125176
1031.0,0.006437409674202495
1030.0,0.006359539134861386
1029.0,0.006270584448163107
1028.0,0.006171916299253526
1027.0,0.0060714919992905115
1026.0,0.0059758572616454095
1025.0,0.005885276876101545
1024.0,0.005798325020023713
1023.0,0.005715891867956715
1022.0,0.005638641062585501
1021.0,0.005565433790018543
1020.0,0.005496314855253918
1019.0,0.005432763070755964
1018.0,0.0053736062998608345
1017.0,0.00531501316174123
1016.0,0.005255486968858521
1015.0,0.005196786965741112
1014.0,0.00513987639963004
1013.0,0.005084626522168214
1012.0,0.005033265100506764
1011.0,0.00498851431824871
1010.0,0.004947764857762161
1009.0,0.00490438809205141
1008.0,0.00485554839000734
1007.0,0.004803775218505771
1006.0,0.004750199435357178
1005.0,0.004691272060612031
1004.0,0.004623065498443249
1003.0,0.004544336174397842
1002.0,0.004455089602490668
1001.0,0.004356941646391582
1000.0,0.004255343554961988
999.0,0.004156754600543269
998.0,0.004062975279752593
997.0,0.003972267943601959
996.0,0.0038854965692647044
995.0,0.003806246710777935
994.0,0.0037355958339688033
993.0,0.003672290564237843
992.0,0.003617181790230432
991.0,0.00357098138989854
990.0,0.003528308033640781
989.0,0.0034813860435447316
988.0,0.003430318463676453
987.0,0.003383567708140454
986.0,0.003348003015860895
985.0,0.00332388441839651
984.0,0.003308432758142971
983.0,0.0032973421693655923
982.0,0.0032833875494774935
981.0,0.003260874859972268
980.0,0.003231755139062893
979.0,0.003201464632915749
978.0,0.0031702001315627422
977.0,0.0031353990643637033
976.0,0.003100867777494304
975.0,0.0030744975495321848
974.0,0.00305740428494325
973.0,0.003043851811061363
972.0,0.0030313743784390274
971.0,0.0030219276099182207
970.0,0.0030133093797313497
969.0,0.0029992646972261143
968.0,0.0029793296496952704
967.0,0.00295964596819977
966.0,0.0029427350377894666
965.0,0.0029252927567336544
964.0,0.0029074017343534613
963.0,0.002894349434097688
962.0,0.002886897139391342
961.0,0.002878747262087044
960.0,0.002866395507822488
959.0,0.0028532812176815933
958.0,0.002841891224109305
957.0,0.0028300370435841494
956.0,0.0028174574621167296
955.0,0.0028076277464800536
954.0,0.002799731106784428
953.0,0.0027868039499175244
952.0,0.0027657154846240516
951.0,0.002742235679435052
950.0,0.0027230413305179254
949.0,0.0027091301479559796
948.0,0.002699544217288392
947.0,0.002694512174972984
946.0,0.0026922122568833456
945.0,0.0026891820139960283
944.0,0.002686390402902408
943.0,0.0026885422438678876
942.0,0.0026953731001506565
941.0,0.0026999127017198143
940.0,0.002696947497860718
939.0,0.0026871564843993323
938.0,0.00267259084838399
937.0,0.0026555382348938087
936.0,0.002642274640480115
935.0,0.0026390221310704743
934.0,0.0026421869308639917
933.0,0.002640828973087494
932.0,0.0026304719079247377
931.0,0.0026161329901828252
930.0,0.0026008172028331796
929.0,0.002581382944846974
928.0,0.0025587394781879528
927.0,0.002541492719913263
926.0,0.002534123362578338
925.0,0.0025302817544494522
924.0,0.0025232622357176035
923.0,0.0025153227628830505
922.0,0.0025115971702163163
921.0,0.0025122130989470933
920.0,0.0025152780342313787
919.0,0.002520569674136959
918.0,0.0025259696822481294
917.0,0.0025276861495741945
916.0,0.002528361385475038
915.0,0.0025369121722748204
914.0,0.0025546547702944167
913.0,0.0025689681258632977
912.0,0.002566985995578358
911.0,0.0025490210020454604
910.0,0.002522389457427045
909.0,0.0024887439169162663
908.0,0.002445134381303123
907.0,0.0023923327006230796
906.0,0.0023344663768084793
905.0,0.002274276539189011
904.0,0.0022151678373137913
903.0,0.002163945426618568
902.0,0.0021249245336015586
901.0,0.002094159813204752
900.0,0.002064328595624526
899.0,0.0020319449551371746
898.0,0.001996265316219376
897.0,0.0019565213961982315
896.0,0.0019154221412984378
895.0,0.0018808597757976643
894.0,0.0018586276640739446
893.0,0.0018464378813157403
892.0,0.0018384942570088027
891.0,0.001831585195680564
890.0,0.0018235129171246685
889.0,0.0018109255203084189
888.0,0.0017928939253391753
887.0,0.001772105641311572
886.0,0.00174905323908092
885.0,0.0017202425213166993
884.0,0.0016860098638408452
883.0,0.0016545144212504748
882.0,0.001633121933332181
881.0,0.0016206497245165642
880.0,0.0016122357955115163
879.0,0.001605881991556829
878.0,0.001599632610031977
877.0,0.0015889689060139768
876.0,0.0015729182013757778
875.0,0.0015571608563041475
874.0,0.0015457557258266473
873.0,0.0015351773782592358
872.0,0.0015208671788310183
871.0,0.0015037365622799239
870.0,0.0014863033137777098
869.0,0.001468830305742378
868.0,0.0014531239901461226
867.0,0.0014435776037054677
866.0,0.0014404593234619103
865.0,0.0014382943612296394
864.0,0.0014342511325503614
863.0,0.0014314682066692706
862.0,0.001430742110207603
861.0,0.0014263866101434587
860.0,0.0014149443820216357
859.0,0.0014012712543250909
858.0,0.0013912538146056582
857.0,0.0013847715975334371
856.0,0.0013804299148488179
855.0,0.0013806337073632587
854.0,0.001386645689050145
853.0,0.0013944847544248775
852.0,0.0014006211557706996
851.0,0.0014062056872010701
850.0,0.0014117989935479385
849.0,0.001414417236236687
848.0,0.0014138553439862495
847.0,0.0014149827618483177
846.0,0.001419811468555473
845.0,0.0014251544541836756
844.0,0.0014323360676239364
843.0,0.0014497490086406116
842.0,0.0014794169759489283
841.0,0.001510080879569189
840.0,0.0015311839639470825
839.0,0.001545552787991974
838.0,0.001560816060652171
837.0,0.0015768720263072795
836.0,0.0015910911202954706
835.0,0.0016078105247336965
834.0,0.00163118175906252
833.0,0.0016541129044747238
832.0,0.0016660067763533885
831.0,0.0016682446287667107
830.0,0.0016716690710820471
829.0,0.0016819709367767682
828.0,0.0016986331366293864
827.0,0.0017245181651645478
826.0,0.0017615782745534292
825.0,0.0017984292226647866
824.0,0.0018184503421557565
823.0,0.0018208025535270955
822.0,0.0018190100323276404
821.0,0.0018213628993614243
820.0,0.00182784460377039
819.0,0.0018414393133892853
818.0,0.0018660279680806436
817.0,0.0018948104091411873
816.0,0.001914809021285946
815.0,0.0019242794683426716
814.0,0.0019345668843484625
813.0,0.0019523330994203167
812.0,0.001970382883010083
811.0,0.001979475908717717
810.0,0.00197999716871817
809.0,0.0019778853422043278
808.0,0.0019769915889018223
807.0,0.0019797946055192823
806.0,0.0019885858584760066
805.0,0.0020016704009205026
804.0,0.0020139080702594463
803.0,0.002023440511646026
802.0,0.00203215748167949
801.0,0.0020386211355557207
800.0,0.0020385389647594844
799.0,0.0020344817689575954
798.0,0.002035867930148489
797.0,0.002044559768200207
796.0,0.0020493892281038774
795.0,0.002041622963716073
794.0,0.0020281213830447556
793.0,0.002020861667206102
792.0,0.002019067061972871
791.0,0.0020106548759221475
790.0,0.0019882992702029067
789.0,0.001956465569003896
788.0,0.0019247307155142745
787.0,0.0019011502803874636
786.0,0.001890438882505295
785.0,0.0018910110748385635
784.0,0.0018929059063663048
783.0,0.0018843733160760542
782.0,0.001863197497487749
781.0,0.0018392276230939017
780.0,0.001824615749238383
779.0,0.001822686436850547
778.0,0.0018257390887024142
777.0,0.0018222834562687954
776.0,0.001807210368007448
775.0,0.001786201552457044
774.0,0.0017695514042711403
773.0,0.001761459554534345
772.0,0.0017573815467211017
771.0,0.0017514897908825996
770.0,0.0017429325689549686
769.0,0.0017338257297037302
768.0,0.0017254893198286113
767.0,0.0017194368929324424
766.0,0.001718666817704619
765.0,0.0017247723401433556
764.0,0.0017358418722626151
763.0,0.0017490987532310849
762.0,0.0017634784401286368
761.0,0.0017788045361990428
760.0,0.001795178403494939
759.0,0.0018132513849462078
758.0,0.0018312827304218207
757.0,0.001842671953832572
756.0,0.001842658481931532
755.0,0.0018375766210563128
754.0,0.0018396498514053347
753.0,0.0018517487026837613
752.0,0.0018671198790057865
751.0,0.001885505884420343
750.0,0.0019158109651326027
749.0,0.0019571390584589253
748.0,0.001991731879930058
747.0,0.002007763864702102
746.0,0.002018082070854129
745.0,0.0020444765967087743
744.0,0.0020941582846587025
743.0,0.0021647672132442783
742.0,0.0022605832593187228
741.0,0.002387816726591573
740.0,0.0025463789134059257
739.0,0.0027458665500382823
738.0,0.003020672419888298
737.0,0.003422979284153172
736.0,0.004044984975945012
735.0,0.005094090159198108
734.0,0.0068898088352920455
733.0,0.009627744308528002
732.0,0.013004754601964652
731.0,0.01608049378727872
730.0,0.017735853915944753
729.0,0.017529543357901203
728.0,0.016060326798733673
727.0,0.014403303958837392
726.0,0.013354605446063636
725.0,0.013215809941880461
724.0,0.014062576823106299
723.0,0.016051429988198626
722.0,0.01940014564565716
721.0,0.023976920823051768
720.0,0.028829003260129552
719.0,0.032364935133524474
718.0,0.033388541842222466
717.0,0.03181953115451872
716.0,0.028369215856589778
715.0,0.0239751648137107
714.0,0.01952505539135401
713.0,0.01567938492535996
712.0,0.01273567348092325
711.0,0.010645289146135769
710.0,0.009176426713979264
709.0,0.00810229632819591
708.0,0.007285979524474026
707.0,0.006649394960213455
706.0,0.006130612296643936
705.0,0.005691410790739097
704.0,0.005326240133542964
703.0,0.005031761604904394
702.0,0.004783447962952108
701.0,0.004558581420949347
700.0,0.004360675447651413
699.0,0.004200790220417887
698.0,0.004071204816950712
697.0,0.00395629486809423
696.0,0.0038540985237535495
695.0,0.003766580096945557
694.0,0.003680773190525852
693.0,0.00358080273956768
692.0,0.003471577427508665
691.0,0.0033732271673685686
690.0,0.0032971707940933712
689.0,0.0032394620723531047
688.0,0.0031895932529918372
687.0,0.0031348453085020414
686.0,0.0030677047964783677
685.0,0.0030012626609449574
684.0,0.002962611834344636
683.0,0.002958606228774748
682.0,0.002962453057008946
681.0,0.0029448490017184043
680.0,0.0029041058463252912
679.0,0.0028544139850041196
678.0,0.0028019997266233495
677.0,0.002749925463545847
676.0,0.0027068474690250936
675.0,0.0026713763083653307
674.0,0.0026261643715223063
673.0,0.002566706694945094
672.0,0.0025171159498031843
671.0,0.0024998736787057298
670.0,0.0025108664301306304
669.0,0.002515523727354109
668.0,0.0024633070458740334
667.0,0.002387613793482281
666.0,0.002351819393950473
665.0,0.002339728981977096
664.0,0.0023427296976007554
663.0,0.002369434971307419
662.0,0.0023995949737757637
661.0,0.0023970359626199495
660.0,0.0023590779330241473
659.0,0.002315475281970593
658.0,0.0022795780186365836
657.0,0.002238340996061705
656.0,0.0021907218955218286
655.0,0.002158802607590829
654.0,0.0021520027677238785
653.0,0.0021530807815719833
652.0,0.0021493156005398893
651.0,0.0021487949619530887
650.0,0.002159130314674845
649.0,0.0021737263044952675
648.0,0.00218314287613008
647.0,0.002177759060328104
646.0,0.0021443157720054825
645.0,0.0020872528130842258
644.0,0.002047007434066725
643.0,0.0020640747301799893
642.0,0.0021217302767333763
641.0,0.0021587905259360376
640.0,0.002140480155679503
639.0,0.002084411961247051
638.0,0.0020213716214881948
637.0,0.0019680191686730084
636.0,0.0019438638383445631
635.0,0.0019673791589917165
634.0,0.002016717713409494
633.0,0.002041098124608017
632.0,0.002027619429057917
631.0,0.0020146335120193597
630.0,0.0020288996222712716
629.0,0.002045578554202904
628.0,0.0020246116990858434
627.0,0.001956948456236791
626.0,0.0018650661506268368
625.0,0.001782105243795587
624.0,0.0017412594861897332
623.0,0.0017559004835062978
622.0,0.001794923497154247
621.0,0.001812479377574543
620.0,0.0018095706021759262
619.0,0.0018242155336290213
618.0,0.0018547068161752487
617.0,0.0018508897152816673
616.0,0.0017994661862938263
615.0,0.0017495485883989494
614.0,0.0017334049224684215
613.0,0.0017289942462231107
612.0,0.0017182690619444315
611.0,0.0017205235358187772
610.0,0.0017512725069578927
609.0,0.00179531257067902
608.0,0.0018377914946697323
607.0,0.0018732380696168676
606.0,0.0018805836727113423
605.0,0.0018461299542828309
604.0,0.001805183428245284
603.0,0.0018111174997971296
602.0,0.0018644241765261044
601.0,0.0019213514691192217
600.0,0.001967784313552978
599.0,0.002023834323313668
598.0,0.0020808458621640663
597.0,0.002095462547876456
596.0,0.0020575751003413184
595.0,0.0020115636044787623
594.0,0.0019849292995284314
593.0,0.0019446088068056436
592.0,0.0018649879162468525
591.0,0.0017967936604870631
590.0,0.0018131113127110333
589.0,0.0019145669822130148
588.0,0.002041379711227026
587.0,0.0021357686703098707
586.0,0.002173333065110343
585.0,0.0021620480396026247
584.0,0.0021091073220413413
583.0,0.0019947091545164898
582.0,0.0017985546617263685
581.0,0.0015723383360772595
580.0,0.0014601762046272638
579.0,0.0015766745752341757
578.0,0.0018530150033616404
577.0,0.002094047445652216
576.0,0.0021910381873030105
575.0,0.002186619983601036
574.0,0.002152450674613469
573.0,0.0021096100945921336
572.0,0.0020729355095943773
571.0,0.0020589529961630524
570.0,0.002024644245493838
569.0,0.0018982139407991141
568.0,0.0017174790044400816
567.0,0.0016458649961473342
566.0,0.0017975400228791133
565.0,0.002116713920498471
564.0,0.0024584525508296548
563.0,0.0026635230798154556
562.0,0.0025933137890856734
561.0,0.0022346298140135694
560.0,0.0017438343122367383
559.0,0.0013385866142603352
558.0,0.0011150662014264628
557.0,0.0009882337419186776
556.0,0.0008853508340648821
555.0,0.0008778771997193227
554.0,0.00102332941489712
553.0,0.0012363425615766592
552.0,0.0014171965788533744
551.0,0.0015364152165241946
550.0,0.0015357541085848523
