cm-1,A
4000.0,0.002366311220026715
3999.0,0.0023807013678738675
3998.0,0.002393960725207315
3997.0,0.0024025174699578026
3996.0,0.002406192364644794
3995.0,0.0024068215972941707
3994.0,0.00240641460849857
3993.0,0.0024067619839965894
3992.0,0.002408808561745547
3991.0,0.002411282405076374
3990.0,0.002410559476940654
3989.0,0.0024035867664985453
3988.0,0.002391909351366686
3987.0,0.0023820135145265244
3986.0,0.0023794953890989177
3985.0,0.002383643823101156
3984.0,0.0023881776499018632
3983.0,0.0023869652019639087
3982.0,0.0023795377542193477
3981.0,0.0023702106808428415
3980.0,0.002363976963952543
3979.0,0.002364141938230635
3978.0,0.0023717147665269526
3977.0,0.002384683716294928
3976.0,0.0023969859969904432
3975.0,0.0024009899912967965
3974.0,0.002393569113928712
3973.0,0.0023799156395053044
3972.0,0.0023693194426795084
3971.0,0.0023668410130674453
3970.0,0.002370307510005198
3969.0,0.0023744107802342066
3968.0,0.002376738267366821
3967.0,0.002378452231777287
3966.0,0.0023800778135020344
3965.0,0.0023794758498498682
3964.0,0.0023748783220338254
3963.0,0.002369004257334169
3962.0,0.0023681774245722905
3961.0,0.002375118361834825
3960.0,0.0023846231976391123
3959.0,0.0023888867058745843
3958.0,0.0023854731093244713
3957.0,0.002379267566038442
3956.0,0.0023764760485752885
3955.0,0.0023783144605153623
3954.0,0.0023813727003447367
3953.0,0.0023819614275171546
3952.0,0.0023787426659063757
3951.0,0.002372895167294952
3950.0,0.002366890949004985
3949.0,0.0023640718910644147
3948.0,0.0023681939171871884
3947.0,0.002380376414499485
3946.0,0.0023957060691083684
3945.0,0.0024035468107640673
3944.0,0.0023974425059772745
3943.0,0.002384831835218668
3942.0,0.0023799657941210514
3941.0,0.0023879709545682193
3940.0,0.0024007339654284233
3939.0,0.0024078517803318433
3938.0,0.002408015316011384
3937.0,0.00240794454242355
3936.0,0.0024117835981093483
3935.0,0.002416067761282778
3934.0,0.002416315505422122
3933.0,0.002414764365622043
3932.0,0.0024180506138001953
3931.0,0.0024273863131226035
3930.0,0.0024375099173723604
3929.0,0.0024448933745646164
3928.0,0.002449600730005423
3927.0,0.0024513124881575168
3926.0,0.002449071400955933
3925.0,0.0024444767009894784
3924.0,0.0024395612796313335
3923.0,0.002432065656530258
3922.0,0.002419933019200061
3921.0,0.0024079633316102644
3920.0,0.0024050506677660956
3919.0,0.00241460934124831
3918.0,0.0024294353206992855
3917.0,0.0024392912573494453
3916.0,0.002441210407490615
3915.0,0.002436479280864879
3914.0,0.0024263008373074284
3913.0,0.0024127826393271212
3912.0,0.0024010650692275195
3911.0,0.002396589291305833
3910.0,0.0024000502126701826
3909.0,0.0024090905162886724
3908.0,0.0024204270857381242
3907.0,0.002428798552263871
3906.0,0.0024272605052213366
3905.0,0.002417236867969381
3904.0,0.002412489683712691
3903.0,0.0024242061101882872
3902.0,0.00244715042359868
3901.0,0.002464758545910747
3900.0,0.002467517308853048
3899.0,0.002459722789433936
3898.0,0.002449886505383165
3897.0,0.002441937056690782
3896.0,0.002437968690778427
3895.0,0.0024397534563975034
3894.0,0.002445103600322039
3893.0,0.0024439182363122803
3892.0,0.0024291145642262937
3891.0,0.002410397538710184
3890.0,0.00240639983342869
3889.0,0.002424189646996224
3888.0,0.002444321949060732
3887.0,0.0024400077308811795
3886.0,0.0024188319541995212
3885.0,0.002414465653273754
3884.0,0.0024387115667206328
3883.0,0.002471577206596998
3882.0,0.0024853344961614553
3881.0,0.002473613747668319
3880.0,0.002454946704091367
3879.0,0.002445725270754732
3878.0,0.0024457146990591056
3877.0,0.0024404672464209158
3876.0,0.0024144670995533465
3875.0,0.00237856723253789
3874.0,0.002368487705294074
3873.0,0.002400293783351849
3872.0,0.0024429445136013063
3871.0,0.002453001599376372
3870.0,0.0024343248861672774
3869.0,0.0024270634849900006
3868.0,0.0024475095217125816
3867.0,0.0024710556018621623
3866.0,0.0024677649503776385
3865.0,0.0024426553716738074
3864.0,0.0024252949702366607
3863.0,0.0024255251588785045
3862.0,0.0024309674100668095
3861.0,0.002430756977721653
3860.0,0.002423751396701912
3859.0,0.002416990386527383
3858.0,0.002421792327685927
3857.0,0.002444724012624977
3856.0,0.002467286705895277
3855.0,0.0024559108327177233
3854.0,0.002434156384491659
3853.0,0.0024494006733271545
3852.0,0.002479946626431623
3851.0,0.002489543058934756
3850.0,0.0024734798783393854
3849.0,0.0024431801151348
3848.0,0.00241389105607502
3847.0,0.002393861669293622
3846.0,0.002383602861425728
3845.0,0.002381645505377745
3844.0,0.002388817390980137
3843.0,0.0024060996896457026
3842.0,0.0024311740965476713
3841.0,0.002454262318363972
3840.0,0.0024645664948642733
3839.0,0.002464690940389043
3838.0,0.002467320563569678
3837.0,0.0024792222755001796
3836.0,0.0024959851464204704
3835.0,0.002509999950190904
3834.0,0.0025136540573964753
3833.0,0.0025034914390974494
3832.0,0.0024880467916557165
3831.0,0.002481716871315192
3830.0,0.0024890938914159423
3829.0,0.0024973753629984018
3828.0,0.002487278233123018
3827.0,0.0024586397641310157
3826.0,0.0024395561176916132
3825.0,0.0024561993963253866
3824.0,0.0024984994369123175
3823.0,0.0025237171925747226
3822.0,0.0025119765941528658
3821.0,0.0025004311502846
3820.0,0.0025200351275049106
3819.0,0.002558072542730408
3818.0,0.00257704137628311
3817.0,0.0025536205676376777
3816.0,0.0025167710596289148
3815.0,0.002506699723040605
3814.0,0.0025187774983891995
3813.0,0.0025235242609911663
3812.0,0.002509675207659375
3811.0,0.0024922215669598707
3810.0,0.002487484354258853
3809.0,0.0024855238994554354
3808.0,0.002470209580919443
3807.0,0.0024580310474352964
3806.0,0.00248077204271638
3805.0,0.0025416632549150678
3804.0,0.0026044212531559745
3803.0,0.002619799252233865
3802.0,0.0025896104336816453
3801.0,0.002568329235945962
3800.0,0.0025806641768481185
3799.0,0.002603315677267761
3798.0,0.0026066355512401303
3797.0,0.0025876014590952134
3796.0,0.0025689171740853143
3795.0,0.0025659407734826114
3794.0,0.002570665320602224
3793.0,0.002569064607343817
3792.0,0.0025590485634673747
3791.0,0.002549250714097193
3790.0,0.0025472683469895474
3789.0,0.0025529976987718594
3788.0,0.0025614018664596545
3787.0,0.0025681459234271203
3786.0,0.0025739402219383967
3785.0,0.002585129395515414
3784.0,0.002607718632890257
3783.0,0.002638155871651963
3782.0,0.0026633167642301564
3781.0,0.002670553321096317
3780.0,0.0026634044574635482
3779.0,0.0026590856770790927
3778.0,0.002666578536507201
3777.0,0.0026783050485903433
3776.0,0.0026822868985531554
3775.0,0.0026784358674239363
3774.0,0.002680116711885363
3773.0,0.0026955090676857724
3772.0,0.002715442978761584
3771.0,0.0027295042883406766
3770.0,0.0027437854071251638
3769.0,0.0027671166838053006
3768.0,0.002793185745778552
3767.0,0.002806382704256854
3766.0,0.002801898770861245
3765.0,0.0027941812143522935
3764.0,0.002799839334675921
3763.0,0.0028172963620633476
3762.0,0.0028307536808890293
3761.0,0.0028328910431520025
3760.0,0.0028357364426834257
3759.0,0.0028490916018519873
3758.0,0.002866261440534313
3757.0,0.0028807286631431306
3756.0,0.002895000019334613
3755.0,0.002907786663163996
3754.0,0.002909001134804391
3753.0,0.0028950180307825172
3752.0,0.0028829305691148513
3751.0,0.0028891371124448346
3750.0,0.0029056757100888314
3749.0,0.0029291174641058815
3748.0,0.0029728794597882477
3747.0,0.003027336866500998
3746.0,0.003041619861734109
3745.0,0.0030023674904385766
3744.0,0.002968563308434584
3743.0,0.002973197831699359
3742.0,0.0029941690178205485
3741.0,0.0030059224195657305
3740.0,0.0030054857733161477
3739.0,0.0030042721153935676
3738.0,0.0030026739079455998
3737.0,0.0029986500931592965
3736.0,0.00301165432674152
3735.0,0.0030556065924195446
3734.0,0.0031057810418346123
3733.0,0.0031289467128243808
3732.0,0.0031250007504873513
3731.0,0.003119739898186507
3730.0,0.0031316208858345037
3729.0,0.0031533341450289886
3728.0,0.003163992643426667
3727.0,0.0031601730070139914
3726.0,0.0031620778088821385
3725.0,0.0031833157131873468
3724.0,0.0032150908588989124
3723.0,0.003242122858625857
3722.0,0.0032603624820217334
3721.0,0.003274106190576531
3720.0,0.003285635833052641
3719.0,0.0032932262932762113
3718.0,0.003298903236485024
3717.0,0.0033133982671517057
3716.0,0.003344732702003521
3715.0,0.0033854186108554663
3714.0,0.0034180792548646572
3713.0,0.0034367130052635787
3712.0,0.003459302929375359
3711.0,0.0035056114600927196
3710.0,0.0035720499207414344
3709.0,0.003641216960758353
3708.0,0.003699713246281707
3707.0,0.003747149555245662
3706.0,0.003794056603945081
3705.0,0.003850173854780513
3704.0,0.003916823812323986
3703.0,0.003989722533954451
3702.0,0.004064921055435024
3701.0,0.004136912272715904
3700.0,0.004198928362136156
3699.0,0.004246955776510087
3698.0,0.004281817513595562
3697.0,0.00431234917787354
3696.0,0.004350166818583764
3695.0,0.004395880712076974
3694.0,0.00444012857571847
3693.0,0.00447779493210498
3692.0,0.004513173424968362
3691.0,0.00455226255391532
3690.0,0.004594013383548211
3689.0,0.00463130622422121
3688.0,0.004658912459397273
3687.0,0.004681954544750317
3686.0,0.004708374248778719
3685.0,0.004739556964545986
3684.0,0.004776076098643712
3683.0,0.004823336832111897
3682.0,0.0048833382041076415
3681.0,0.00495245936216583
3680.0,0.005032681320794247
3679.0,0.005132280760926442
3678.0,0.005245489222326285
3677.0,0.005347095789934349
3676.0,0.00543392669229311
3675.0,0.005521001139168089
3674.0,0.0056126249803243895
3673.0,0.0057121893612061036
3672.0,0.005810349708552269
3671.0,0.005900837455318414
3670.0,0.006002713018022729
3669.0,0.006118149197912523
3668.0,0.006227970349234804
3667.0,0.006329437634467786
3666.0,0.006433970684946062
3665.0,0.0065509514293890375
3664.0,0.0066796668926026
3663.0,0.006811437824002283
3662.0,0.0069403146468161175
3661.0,0.007071337970951165
3660.0,0.0072146596271833695
3659.0,0.007373879778169166
3658.0,0.007542355368278698
3657.0,0.007709569326919954
3656.0,0.007866203281106463
3655.0,0.008007853162424508
3654.0,0.0081433728662108
3653.0,0.008285641476749794
3652.0,0.008443083431545314
3651.0,0.008633223166344394
3650.0,0.008871697057750113
3649.0,0.009126515103966148
3648.0,0.009341585883771307
3647.0,0.009504985412908252
3646.0,0.009643953120740362
3645.0,0.009785774808289936
3644.0,0.009943063614936246
3643.0,0.010117647911651173
3642.0,0.010306852441634191
3641.0,0.010504898159562355
3640.0,0.010702746287846567
3639.0,0.010894973100242247
3638.0,0.011085886330174998
3637.0,0.011284297914311603
3636.0,0.011492784399037084
3635.0,0.011705743611660931
3634.0,0.01192000949810688
3633.0,0.01213954879397328
3632.0,0.012371089199777032
3631.0,0.012616035822245823
3630.0,0.012879164223854584
3629.0,0.013156878652259202
3628.0,0.013402062346133897
3627.0,0.013589710788891287
3626.0,0.013752792336205768
3625.0,0.013925643127207621
3624.0,0.014124233685560993
3623.0,0.014352552152050342
3622.0,0.01460651819687031
3621.0,0.014874454149336185
3620.0,0.015136577510777446
3619.0,0.015368068562683943
3618.0,0.015559843013999625
3617.0,0.015732924119911167
3616.0,0.015915046201560465
3615.0,0.016119276445505377
3614.0,0.01634432734286852
3613.0,0.016577539801767623
3612.0,0.01680198862152514
3611.0,0.01701301771980408
3610.0,0.017223789951239812
3609.0,0.017450251836736298
3608.0,0.01768875961428113
3607.0,0.017917043467964563
3606.0,0.01812379534594864
3605.0,0.018318746948905933
3604.0,0.018516241424985896
3603.0,0.018725000399538106
3602.0,0.01894755847367092
3601.0,0.019180072515456895
3600.0,0.01941210779197344
3599.0,0.019634900889746083
3598.0,0.019852343424750347
3597.0,0.020076855468103713
3596.0,0.02031270256587382
3595.0,0.020549349717075643
3594.0,0.020772878962390728
3593.0,0.020979498084003775
3592.0,0.021177917691354697
3591.0,0.021383243679490866
3590.0,0.021609530955740808
3589.0,0.0218644418883506
3588.0,0.02213600926753406
3587.0,0.022388584724571912
3586.0,0.022600229538487022
3585.0,0.022786117670972605
3584.0,0.02297132694559149
3583.0,0.023169653089274826
3582.0,0.023385430132216282
3581.0,0.023615237971656343
3580.0,0.02384887668957423
3579.0,0.02407666466874806
3578.0,0.024299369855380722
3577.0,0.024525666116789684
3576.0,0.02476077175628995
3575.0,0.02500201474028841
3574.0,0.0252434681048812
3573.0,0.025479628362829777
3572.0,0.025707082290796025
3571.0,0.02592938897972673
3570.0,0.026158653625768857
3569.0,0.026409233520933464
3568.0,0.026682845593602362
3567.0,0.02695342907877962
3566.0,0.027189223988082777
3565.0,0.027392676766596465
3564.0,0.027590311841919204
3563.0,0.027801361202997216
3562.0,0.02803019663198594
3561.0,0.02827091514814254
3560.0,0.028513434148181128
3559.0,0.02875185541958804
3558.0,0.028988773818789823
3557.0,0.029229594113252058
3556.0,0.029476178325419614
3555.0,0.029727689007560787
3554.0,0.02998245960001028
3553.0,0.03023444254343656
3552.0,0.03047243459704453
3551.0,0.030692735245828183
3550.0,0.03090843147507171
3549.0,0.031138526475742584
3548.0,0.031390713814407945
3547.0,0.03165569480420912
3546.0,0.03191586629220267
3545.0,0.03215854631557028
3544.0,0.0323829967243014
3543.0,0.03259877043038837
3542.0,0.03281902902284738
3541.0,0.033052401984114986
3540.0,0.03329852481519822
3539.0,0.03355213650203072
3538.0,0.03380909660846304
3537.0,0.03406565613767244
3536.0,0.034315283273031356
3535.0,0.03455367638884719
3534.0,0.03478512185537115
3533.0,0.035017543926279066
3532.0,0.03525406034976005
3531.0,0.035493499502770434
3530.0,0.03573603700496503
3529.0,0.03598126580639875
3528.0,0.036223352758226864
3527.0,0.03645724845009226
3526.0,0.03668846187300832
3525.0,0.03692781609446246
3524.0,0.03717591428098721
3523.0,0.0374211779677827
3522.0,0.03765552065321657
3521.0,0.037883713041639816
3520.0,0.03811462295157566
3519.0,0.03835107338659708
3518.0,0.0385902625870016
3517.0,0.03882881406173395
3516.0,0.03906512605922869
3515.0,0.039300065932121604
3514.0,0.03953615054047663
3513.0,0.03977364026910714
3512.0,0.04000892553301286
3511.0,0.04023955660994368
3510.0,0.04046806701362651
3509.0,0.040697397982735944
3508.0,0.040926870697552374
3507.0,0.041157215581153955
3506.0,0.04139468223909279
3505.0,0.041644639586735296
3504.0,0.041902912935740014
3503.0,0.042158300159421264
3502.0,0.04240385291098606
3501.0,0.04264085371810077
3500.0,0.04287320510896238
3499.0,0.043105314609836035
3498.0,0.0433430495746227
3497.0,0.04358802137924737
3496.0,0.043832127979251324
3495.0,0.044065519403537264
3494.0,0.04428921678404061
3493.0,0.04451285612614825
3492.0,0.04474171963457351
3491.0,0.044973430959916516
3490.0,0.04520596329908963
3489.0,0.04544056400111529
3488.0,0.04567622173664861
3487.0,0.045908297002803945
3486.0,0.04613437649089252
3485.0,0.046356920382626586
3484.0,0.04658004491716086
3483.0,0.046807679169439516
3482.0,0.047042623801637345
3481.0,0.04728225855015597
3480.0,0.047517854274006434
3479.0,0.047743999059639726
3478.0,0.04796631157475377
3477.0,0.04819454207572798
3476.0,0.048430026306580665
3475.0,0.04866506124228787
3474.0,0.04889352614783071
3473.0,0.04911621562891566
3472.0,0.049336295403831394
3471.0,0.04955613506401795
3470.0,0.04977887936300092
3469.0,0.050006568047046326
3468.0,0.05023538134583976
3467.0,0.05045777958443992
3466.0,0.050670626490959866
3465.0,0.050877898839506365
3464.0,0.05108581886683811
3463.0,0.051298202595742984
3462.0,0.05151481202411507
3461.0,0.05173143727841127
3460.0,0.051943203051175044
3459.0,0.052150366985427916
3458.0,0.052358165754916836
3457.0,0.05256861905888864
3456.0,0.05277712200809113
3455.0,0.05298044081070107
3454.0,0.05318230128317052
3453.0,0.05338606658471549
3452.0,0.05358768216316953
3451.0,0.053782736505126744
3450.0,0.05397642276039347
3449.0,0.05417845200150589
3448.0,0.054389419962564516
3447.0,0.05459924028057222
3446.0,0.05480014291175283
3445.0,0.05499470620420834
3444.0,0.05518910586498649
3443.0,0.05538519193031889
3442.0,0.05558066039778013
3441.0,0.05577257423422032
3440.0,0.05596030542757862
3439.0,0.05614700911235948
3438.0,0.05633699813597944
3437.0,0.05653014558404317
3436.0,0.05672118924750535
3435.0,0.056906373128947474
3434.0,0.05708701786851323
3433.0,0.057264062268987836
3432.0,0.05743425202967662
3431.0,0.057596038049386476
3430.0,0.057755216653253214
3429.0,0.05791896878710068
3428.0,0.05808648882176721
3427.0,0.05825075036611098
3426.0,0.05840802587257571
3425.0,0.05856123536058038
3424.0,0.058715228446024316
3423.0,0.058872258744426476
3422.0,0.05903028092789935
3421.0,0.05918301068085529
3420.0,0.059324464588176494
3419.0,0.059456449055989694
3418.0,0.05958867565265003
3417.0,0.05972888095349532
3416.0,0.059875814786740554
3415.0,0.06002380264454481
3414.0,0.06016978865268872
3413.0,0.06031209101048425
3412.0,0.06044675890577085
3411.0,0.060571120172630555
3410.0,0.0606886739310455
3409.0,0.06080529549851194
3408.0,0.060921665147589274
3407.0,0.061033717014915764
3406.0,0.061139573443381875
3405.0,0.06124224178028759
3404.0,0.06134616208574202
3403.0,0.06145383179601582
3402.0,0.06156441638756398
3401.0,0.06167297759260791
3400.0,0.061772765318276926
3399.0,0.061861096630158444
3398.0,0.06194196289496638
3397.0,0.062021236068309116
3396.0,0.06210140825628156
3395.0,0.062182340207652634
3394.0,0.06226326444910124
3393.0,0.062340993387970015
3392.0,0.06241005466944306
3391.0,0.062469010898985516
3390.0,0.06252403105368079
3389.0,0.06258279364361095
3388.0,0.06264689175494825
3387.0,0.06271220519319752
3386.0,0.06277389736154641
3385.0,0.0628287369070809
3384.0,0.0628757908312534
3383.0,0.06291820607717981
3382.0,0.06296153942496338
3381.0,0.06300716157068066
3380.0,0.06304999231904453
3379.0,0.06308553667307447
3378.0,0.06311604682759424
3377.0,0.06314622769224347
3376.0,0.0631762050046442
3375.0,0.06320318204813792
3374.0,0.06322735392735006
3373.0,0.06325142890212256
3372.0,0.06327576247577986
3371.0,0.06329767343503176
3370.0,0.06331444956484726
3369.0,0.06332450899413507
3368.0,0.06332741642119932
3367.0,0.06332551307115852
3366.0,0.0633235230580989
3365.0,0.06332377565709622
3364.0,0.06332364696986971
3363.0,0.06331966673524106
3362.0,0.06331168507825324
3361.0,0.06330105972686184
3360.0,0.06328794232491174
3359.0,0.0632731940229018
3358.0,0.06325986943667011
3357.0,0.06324885095648433
3356.0,0.06323483039236791
3355.0,0.06321048444616864
3354.0,0.06317422269267368
3353.0,0.06313188045668035
3352.0,0.0630918361390399
3351.0,0.06305921464773223
3350.0,0.06303225275023513
3349.0,0.06300280755044747
3348.0,0.06296311025550393
3347.0,0.0629140389299804
3346.0,0.062864567727596
3345.0,0.06282163443536858
3344.0,0.06278307195716287
3343.0,0.06274169051967754
3342.0,0.06269302211830347
3341.0,0.06263710234750426
3340.0,0.06257577606681311
3339.0,0.06251100081368777
3338.0,0.06244400312568371
3337.0,0.062374085994917824
3336.0,0.06229980319212354
3335.0,0.062222346083496693
3334.0,0.06214551007064567
3333.0,0.06207161902727876
3332.0,0.06200034504651136
3331.0,0.06193198428712961
3330.0,0.06186790321347739
3329.0,0.06180621535159202
3328.0,0.06174064223815319
3327.0,0.06166619811938839
3326.0,0.06158415637465414
3325.0,0.06150012111167831
3324.0,0.06141937682035581
3323.0,0.06134469593650191
3322.0,0.06127539797098627
3321.0,0.06120728872240863
3320.0,0.06113668877278022
3319.0,0.06106572681802397
3318.0,0.061000383685466064
3317.0,0.0609423111881061
3316.0,0.060886231433511816
3315.0,0.06082633320664635
3314.0,0.0607610739139217
3313.0,0.060690404684305824
3312.0,0.060613077141256126
3311.0,0.06052975441221301
3310.0,0.06044535848170763
3309.0,0.06036506901600984
3308.0,0.0602900892278084
3307.0,0.06021934886715472
3306.0,0.060152594707583024
3305.0,0.060089481493536455
3304.0,0.06002819168795854
3303.0,0.05996735020183481
3302.0,0.05990728428066954
3301.0,0.05984763114558178
3300.0,0.05978567567244399
3299.0,0.05971834220884309
3298.0,0.05964399441053473
3297.0,0.0595621193631048
3296.0,0.059474384166769916
3295.0,0.05938657167016385
3294.0,0.05930568951987173
3293.0,0.05923322899681844
3292.0,0.059163818746022376
3291.0,0.05909165892009721
3290.0,0.05901537582940684
3289.0,0.05893600533805593
3288.0,0.05885438413451183
3287.0,0.05877216521177407
3286.0,0.0586915531146797
3285.0,0.0586117995189234
3284.0,0.05852901526410552
3283.0,0.05844147507988467
3282.0,0.05835216412247293
3281.0,0.05826406583068307
3280.0,0.05817595896244106
3279.0,0.058085013238096984
3278.0,0.05799049816896915
3277.0,0.05789266219626209
3276.0,0.05779087596834923
3275.0,0.05768548773909133
3274.0,0.057578984468907
3273.0,0.05747251976664648
3272.0,0.05736330684370509
3271.0,0.05724802679828863
3270.0,0.05712732921905324
3269.0,0.05700498882196081
3268.0,0.05688386585089506
3267.0,0.05676408007334585
3266.0,0.05664387896371022
3265.0,0.05652088057243349
3264.0,0.05639327971093823
3263.0,0.05626093507572169
3262.0,0.056125078706525014
3261.0,0.0559873128604816
3260.0,0.05585011936632654
3259.0,0.055717444192717736
3258.0,0.055591778779893505
3257.0,0.0554701679022785
3256.0,0.05534534485878832
3255.0,0.0552114629294395
3254.0,0.055067700842176784
3253.0,0.05491751747526037
3252.0,0.05476705283936641
3251.0,0.054623188635142234
3250.0,0.05448917842100076
3249.0,0.05436135296560886
3248.0,0.054232595846969156
3247.0,0.0540988135013904
3246.0,0.053959476762573025
3245.0,0.05381369544550114
3244.0,0.05366121953047926
3243.0,0.05350738505155252
3242.0,0.053360814968088484
3241.0,0.053223653392699875
3240.0,0.05308831417767145
3239.0,0.05294641745753918
3238.0,0.052797483915460304
3237.0,0.052646566775836894
3236.0,0.05249705750672396
3235.0,0.05234901710984046
3234.0,0.052201824346678465
3233.0,0.052054952002486325
3232.0,0.051907314886895664
3231.0,0.0517582370504145
3230.0,0.05160832271636855
3229.0,0.05145831872192138
3228.0,0.05130867227829968
3227.0,0.051160734566826904
3226.0,0.051015820865872474
3225.0,0.05087190911073248
3224.0,0.0507238353026832
3223.0,0.050568616244122955
3222.0,0.05040889709382878
3221.0,0.050249663596009325
3220.0,0.050093176021666866
3219.0,0.04993844815131379
3218.0,0.0497838146658178
3217.0,0.049628210193280994
3216.0,0.04947113146928759
3215.0,0.049312657298860106
3214.0,0.04915252707511275
3213.0,0.04898888970586266
3212.0,0.04881975789148596
3211.0,0.048646152743030614
3210.0,0.04847191392688936
3209.0,0.048299806042825875
3208.0,0.0481296184417008
3207.0,0.04796029236871437
3206.0,0.04779124125704389
3205.0,0.0476206216741084
3204.0,0.04744510169695485
3203.0,0.04726335234390118
3202.0,0.04707814881631671
3201.0,0.04689339645641781
3200.0,0.04671015599898773
3199.0,0.04652642195119424
3198.0,0.04633938592239036
3197.0,0.046147157215096185
3196.0,0.0459496353990467
3195.0,0.04574862310802004
3194.0,0.04554652684090662
3193.0,0.045345058516162516
3192.0,0.04514579012568067
3191.0,0.044950486565148315
3190.0,0.0447585884262671
3189.0,0.04456513820365627
3188.0,0.044364276483244924
3187.0,0.04415512410950132
3186.0,0.04394169780945354
3185.0,0.04372718195603807
3184.0,0.043511812839620356
3183.0,0.043296826742426735
3182.0,0.04308590070997945
3181.0,0.04288032250608362
3180.0,0.0426760120111552
3179.0,0.04246813637007298
3178.0,0.042256696236838476
3177.0,0.04204507404984649
3176.0,0.04183462323015809
3175.0,0.04162341463706209
3174.0,0.041409735896274884
3173.0,0.041194542541564544
3172.0,0.04098019152222959
3171.0,0.04076793208369119
3170.0,0.04055704036498038
3169.0,0.040346239062609805
3168.0,0.04013587692292702
3167.0,0.03992780258756097
3166.0,0.03972225896084809
3165.0,0.03951649310548988
3164.0,0.03930874176578547
3163.0,0.0391025715992035
3162.0,0.038903874704452
3161.0,0.038713065386823044
3160.0,0.03852331663438202
3159.0,0.038327786904557695
3158.0,0.03812631315936629
3157.0,0.03792402583676594
3156.0,0.03772553878883101
3155.0,0.03753135680567823
3154.0,0.037338016986941766
3153.0,0.03714111536399352
3152.0,0.036940047944339166
3151.0,0.03674001834344943
3150.0,0.03654705414508732
3149.0,0.03636065859564187
3148.0,0.036174247891536414
3147.0,0.03598338483131121
3146.0,0.035790028497162084
3145.0,0.03559767591248861
3144.0,0.03540646856626398
3143.0,0.035215586450572094
3142.0,0.0350269355690608
3141.0,0.03484271321611908
3140.0,0.034661055811269464
3139.0,0.034477802850357876
3138.0,0.03429206505603976
3137.0,0.03410677453609761
3136.0,0.03392389407040943
3135.0,0.033741683946654624
3134.0,0.03355686087194764
3133.0,0.03336804323238119
3132.0,0.03317719391610918
3131.0,0.03298866611648849
3130.0,0.032806336739919784
3129.0,0.032630452962881785
3128.0,0.03245770039995976
3127.0,0.032285146246670254
3126.0,0.03211298306637774
3125.0,0.03194262602672149
3124.0,0.03177370947578456
3123.0,0.03160439012152225
3122.0,0.03143386070918837
3121.0,0.03126337526348316
3120.0,0.031095384932798315
3119.0,0.030932314864551183
3118.0,0.03077472951272181
3117.0,0.030619784346163713
3116.0,0.03046319626110515
3115.0,0.030304117316494253
3114.0,0.0301465647216829
3113.0,0.02999459197743702
3112.0,0.029848101583274417
3111.0,0.02970508990630937
3110.0,0.029565390558612174
3109.0,0.02942934500618545
3108.0,0.02929416273280427
3107.0,0.029155340403697775
3106.0,0.02901232574147758
3105.0,0.028870148380392483
3104.0,0.028734324238143677
3103.0,0.028605102100672145
3102.0,0.02847739035667463
3101.0,0.028345987996681872
3100.0,0.02821053341873076
3099.0,0.028075420141182632
3098.0,0.027945030634211797
3097.0,0.027819545644604066
3096.0,0.02769558992557739
3095.0,0.02757042936974681
3094.0,0.027444775454750003
3093.0,0.027321630220582135
3092.0,0.02720375152284351
3091.0,0.027091991388280674
3090.0,0.026984004842692262
3089.0,0.026874398484419863
3088.0,0.026758392839000902
3087.0,0.026636724567109964
3086.0,0.026515301987502387
3085.0,0.02639883673704256
3084.0,0.026286545302374082
3083.0,0.026174737454690247
3082.0,0.026061557708905527
3081.0,0.0259473246402197
3080.0,0.025831836576486102
3079.0,0.025714274061198007
3078.0,0.02559523615471741
3077.0,0.025476868383265693
3076.0,0.025361010957824823
3075.0,0.025248380610372205
3074.0,0.02513895511243488
3073.0,0.025031675398861728
3072.0,0.02492417608788116
3071.0,0.024814057625936223
3070.0,0.024700683913265797
3069.0,0.024585183525942304
3068.0,0.024469034439443246
3067.0,0.02435319151276917
3066.0,0.024237904489781012
3065.0,0.024122835485604344
3064.0,0.024007813666863758
3063.0,0.02389367324411058
3062.0,0.023781303132806318
3061.0,0.023669542831473295
3060.0,0.023555170570091665
3059.0,0.02343597931499802
3058.0,0.0233131906145795
3057.0,0.023190067092588525
3056.0,0.023069167285242744
3055.0,0.022951320308678212
3054.0,0.022835879213979157
3053.0,0.022720687354436036
3052.0,0.02260282734123909
3051.0,0.022480902095985095
3050.0,0.022356189809320453
3049.0,0.022230682518982952
3048.0,0.022104716228087483
3047.0,0.021977942429376705
3046.0,0.02185195736154396
3045.0,0.021730550326220073
3044.0,0.021616740744691765
3043.0,0.02150970316151908
3042.0,0.02140480302929002
3041.0,0.021296779533425955
3040.0,0.021183928006212008
3039.0,0.021069397936627276
3038.0,0.020957627969771506
3037.0,0.020849994064995197
3036.0,0.020744888557756656
3035.0,0.02064157066227033
3034.0,0.02054174187001809
3033.0,0.020446714148742495
3032.0,0.02035541966017681
3031.0,0.020266184012585595
3030.0,0.020178341570279295
3029.0,0.0200907156443678
3028.0,0.02000071818937515
3027.0,0.019907262006806373
3026.0,0.019813510513148454
3025.0,0.019724742156760587
3024.0,0.01964403119712756
3023.0,0.019571058111631102
3022.0,0.019503836039536777
3021.0,0.019440149726204625
3020.0,0.019378339787038498
3019.0,0.019318328846642745
3018.0,0.019261301405298
3017.0,0.01920726417371016
3016.0,0.01915401094383978
3015.0,0.01909962677538347
3014.0,0.019044991594801636
3013.0,0.018992801085823692
3012.0,0.01894517719283264
3011.0,0.01890325390540886
3010.0,0.0188674160444921
3009.0,0.018836174137356634
3008.0,0.01880606191570942
3007.0,0.018774717529690628
3006.0,0.018744010273272948
3005.0,0.018719284968738675
3004.0,0.018705641423999025
3003.0,0.0187053605347744
3002.0,0.018717561863067472
3001.0,0.01873945814464845
3000.0,0.01876941011423261
2999.0,0.018809926147388623
2998.0,0.018866935613997972
2997.0,0.018944910793552924
2996.0,0.019043824958388186
2995.0,0.019161743857674492
2994.0,0.019298848617206717
2993.0,0.019457816673786498
2992.0,0.019641487810959264
2991.0,0.01985210743560933
2990.0,0.02009236887631468
2989.0,0.020365935260190288
2988.0,0.02067739211215378
2987.0,0.0210326598171776
2986.0,0.021438859811010246
2985.0,0.021902926232875923
2984.0,0.022431351564689162
2983.0,0.023031971008076225
2982.0,0.023714974664398945
2981.0,0.024491764973984448
2980.0,0.025374739425741377
2979.0,0.02637893998221157
2978.0,0.02752237131364583
2977.0,0.02882494895841179
2976.0,0.03030942782520018
2975.0,0.03200274489767797
2974.0,0.03393380306558045
2973.0,0.03612878581187084
2972.0,0.03860813233980214
2971.0,0.04138690351747555
2970.0,0.044474036591986406
2969.0,0.047869907589061206
2968.0,0.051566454018623004
2967.0,0.055545166850777775
2966.0,0.0597637953343219
2965.0,0.06412862076761247
2964.0,0.06847597440835586
2963.0,0.0725818286984701
2962.0,0.07620162216038462
2961.0,0.07914286018633505
2960.0,0.08133553219079749
2959.0,0.08286216509668314
2958.0,0.0839354927212922
2957.0,0.08484096799692166
2956.0,0.08586181107739069
2955.0,0.0871880095061941
2954.0,0.08883568205164583
2953.0,0.09061438813876788
2952.0,0.09215530113044361
2951.0,0.0930030657653399
2950.0,0.09273250923069203
2949.0,0.09106365955995895
2948.0,0.08795529772709693
2947.0,0.08361936033860827
2946.0,0.07846381787179105
2945.0,0.0729890455602163
2944.0,0.06768482216525655
2943.0,0.06294967150943735
2942.0,0.05904350573705224
2941.0,0.05608917862963944
2940.0,0.0540968421491045
2939.0,0.05300834381205536
2938.0,0.052738065645274675
2937.0,0.05319465519964909
2936.0,0.054296658268156696
2935.0,0.05597751139726281
2934.0,0.05817942140366347
2933.0,0.06084470109179736
2932.0,0.06390690150081714
2931.0,0.0672815348783774
2930.0,0.07085875672996446
2929.0,0.07450875972994436
2928.0,0.07810702720849146
2927.0,0.0815647292146451
2926.0,0.08484176804844593
2925.0,0.08794824420497728
2924.0,0.09093443847230336
2923.0,0.09385348035470686
2922.0,0.0967016901834521
2921.0,0.0993691997872755
2920.0,0.10163961727392905
2919.0,0.10323176743892287
2918.0,0.10388131526774567
2917.0,0.10344093050384424
2916.0,0.10196037903632126
2915.0,0.09968347487473166
2914.0,0.09695340930871922
2913.0,0.09410782398751302
2912.0,0.09140251580970563
2911.0,0.08897669078962378
2910.0,0.0868523184796408
2909.0,0.08496149968821545
2908.0,0.08318774125242452
2907.0,0.08140684553142528
2906.0,0.07951936492509704
2905.0,0.07747184009616273
2904.0,0.07526471146916909
2903.0,0.07293605638187532
2902.0,0.07053772976557421
2901.0,0.06811970902378642
2900.0,0.06572828767982855
2899.0,0.06340817879370692
2898.0,0.06120175575001517
2897.0,0.059150500032774916
2896.0,0.05729491272640339
2895.0,0.05566926211904575
2894.0,0.0542937274711926
2893.0,0.053172561661083396
2892.0,0.052298082014351786
2891.0,0.05165399001573522
2890.0,0.051216941029220295
2889.0,0.05095926306042101
2888.0,0.05085566974894364
2887.0,0.05088917316908987
2886.0,0.051051428405232135
2885.0,0.05134102782051692
2884.0,0.051760204429567185
2883.0,0.05230673818481607
2882.0,0.05295856926180692
2881.0,0.05365863004807575
2880.0,0.0543137756576289
2879.0,0.05481107670565137
2878.0,0.055054388484746516
2877.0,0.05500931275801508
2876.0,0.05473564114698652
2875.0,0.054376865621461185
2874.0,0.05410590079844394
2873.0,0.05406168715894022
2872.0,0.05430576683944135
2871.0,0.0548110058871953
2870.0,0.05546872360035811
2869.0,0.056092718022142975
2868.0,0.056430409172988104
2867.0,0.05619722987756894
2866.0,0.05514681483095845
2865.0,0.05316809563987048
2864.0,0.05035244650386249
2863.0,0.04697867286477585
2862.0,0.04341717790134064
2861.0,0.04001592504115846
2860.0,0.037020390310765296
2859.0,0.03455076153940642
2858.0,0.03262602115950209
2857.0,0.031204339879382252
2856.0,0.03022293725688812
2855.0,0.029624821550066592
2854.0,0.029368120704515617
2853.0,0.0294232659743962
2852.0,0.029768972413784647
2851.0,0.03039439651155032
2850.0,0.03130255104722594
2849.0,0.032508451312081285
2848.0,0.034031652535578806
2847.0,0.03588860708138661
2846.0,0.038082035380776515
2845.0,0.040587182100961156
2844.0,0.043339010282494796
2843.0,0.046221868203126085
2842.0,0.04906585570510227
2841.0,0.0516503055086473
2840.0,0.053722559512867044
2839.0,0.05502639445226809
2838.0,0.05534136429138616
2837.0,0.0545338268505529
2836.0,0.05261093935546819
2835.0,0.04974438854897454
2834.0,0.04624234747050572
2833.0,0.04247584018963005
2832.0,0.03878466355471647
2831.0,0.035409417770218214
2830.0,0.032469431902555385
2829.0,0.029984896260839913
2828.0,0.02791864146711175
2827.0,0.02620786681631185
2826.0,0.024785555586329725
2825.0,0.023589322118383996
2824.0,0.022566415555767414
2823.0,0.021677333407189334
2822.0,0.020895733798851363
2821.0,0.020204254288209492
2820.0,0.019589862929185978
2819.0,0.01904231326504931
2818.0,0.018553800563859506
2817.0,0.018116435966351565
2816.0,0.017720333806413493
2815.0,0.01735602834228523
2814.0,0.01701793756526554
2813.0,0.016703481354616738
2812.0,0.016409370270558443
2811.0,0.016129866905902884
2810.0,0.015857434714682712
2809.0,0.01558327111134188
2808.0,0.015298652767009188
2807.0,0.014999000992161948
2806.0,0.014686608774636761
2805.0,0.014368270467460004
2804.0,0.014051930999281701
2803.0,0.013746902313234194
2802.0,0.013464615656307938
2801.0,0.013214008829424561
2800.0,0.012996295277281855
2799.0,0.012806564395218021
2798.0,0.012638986628368005
2797.0,0.0124874298625082
2796.0,0.012342174492251317
2795.0,0.01219181311632221
2794.0,0.012029759880627856
2793.0,0.0118565065661739
2792.0,0.01167516577013755
2791.0,0.011487619023059075
2790.0,0.011295620248025296
2789.0,0.01110253665566584
2788.0,0.010912643466767428
2787.0,0.010729783019372365
2786.0,0.010556496097561685
2785.0,0.010392482321858482
2784.0,0.010234529251813057
2783.0,0.010080594838432256
2782.0,0.009933271965386382
2781.0,0.009796560215752773
2780.0,0.009670099679279858
2779.0,0.009549894419308185
2778.0,0.009434320635750148
2777.0,0.009325686733021964
2776.0,0.009225500862832095
2775.0,0.00913188143891369
2774.0,0.009043060485604038
2773.0,0.008960481866614836
2772.0,0.008886594943166765
2771.0,0.008821406579736712
2770.0,0.008762190656524891
2769.0,0.00870524128693727
2768.0,0.008647635828501837
2767.0,0.008588774034631513
2766.0,0.008530571609541609
2765.0,0.008474821255033016
2764.0,0.008420342307945585
2763.0,0.00836412194353284
2762.0,0.008304917324374064
2761.0,0.008244094271619182
2760.0,0.008183596312948769
2759.0,0.00812515145631796
2758.0,0.008071022981855405
2757.0,0.008023099009703655
2756.0,0.007980987093523262
2755.0,0.007942329920703985
2754.0,0.007904717878392956
2753.0,0.007866291539336214
2752.0,0.007825879554419317
2751.0,0.007784799353005412
2750.0,0.007747791562181347
2749.0,0.0077197555623118
2748.0,0.007701538233208044
2747.0,0.007690466810810216
2746.0,0.007684218370421858
2745.0,0.0076822653104178466
2744.0,0.007684687883708857
2743.0,0.007691850984657305
2742.0,0.007704697610254803
2741.0,0.007723456853813836
2740.0,0.007746604754517369
2739.0,0.007772540857728516
2738.0,0.007800983268081251
2737.0,0.007831169537509806
2736.0,0.007860545922679629
2735.0,0.007887725067216923
2734.0,0.007915501107206168
2733.0,0.007948656834733944
2732.0,0.007989929380178203
2731.0,0.008040430277927358
2730.0,0.008102262893882413
2729.0,0.008177365244869483
2728.0,0.008264363016601991
2727.0,0.008358215392393719
2726.0,0.008451097311173203
2725.0,0.008531180986658424
2724.0,0.008582772468150361
2723.0,0.008592114433365328
2722.0,0.00855417332665764
2721.0,0.0084727007626094
2720.0,0.008355754308119683
2719.0,0.008214181231210817
2718.0,0.008061932163227191
2717.0,0.00791193405834905
2716.0,0.007770761879677214
2715.0,0.007639402436579647
2714.0,0.007518429302710385
2713.0,0.007409280809175045
2712.0,0.007310756454383989
2711.0,0.007218719908536193
2710.0,0.007130468682197036
2709.0,0.007046583509761705
2708.0,0.00696789509779506
2707.0,0.006893357923804629
2706.0,0.006821773000028583
2705.0,0.006753421973398158
2704.0,0.006689317665153456
2703.0,0.006630364152372837
2702.0,0.006577097330187281
2701.0,0.0065285449950003285
2700.0,0.006481897875154197
2699.0,0.006435600267614413
2698.0,0.006392338784463256
2697.0,0.006356575071506177
2696.0,0.006329347302786494
2695.0,0.006307613454027923
2694.0,0.006288247977351365
2693.0,0.0062701187606505945
2692.0,0.006252646578948777
2691.0,0.006235105865919093
2690.0,0.006217758719620218
2689.0,0.006201557308481508
2688.0,0.006186233854438088
2687.0,0.006170140955733297
2686.0,0.006152122374464069
2685.0,0.006132582647895105
2684.0,0.006113191918445748
2683.0,0.006096327197939978
2682.0,0.006083515682828143
2681.0,0.0060730360538709255
2680.0,0.006060445758894174
2679.0,0.006043179778155697
2678.0,0.006023267703072322
2677.0,0.006003977419535958
2676.0,0.005985467561071214
2675.0,0.005965650956061737
2674.0,0.0059434866829902394
2673.0,0.005919200446521986
2672.0,0.005893189461973378
2671.0,0.005867398735992641
2670.0,0.0058461137793073
2669.0,0.0058324818589428114
2668.0,0.005825319242586632
2667.0,0.005821986063314415
2666.0,0.005823093971579261
2665.0,0.005831527713182228
2664.0,0.005847882592362115
2663.0,0.00586941086353658
2662.0,0.005892202929618324
2661.0,0.005911938507882741
2660.0,0.005923935712756018
2659.0,0.0059255534378951785
2658.0,0.005918112808039318
2657.0,0.005904258454791058
2656.0,0.005884667754787445
2655.0,0.005859550740500316
2654.0,0.005831437706884041
2653.0,0.0058035852392080214
2652.0,0.005776934984140218
2651.0,0.0057514910525324914
2650.0,0.005729013635006622
2649.0,0.005711127178913542
2648.0,0.00569624159718362
2647.0,0.005681517648822892
2646.0,0.00566635134454399
2645.0,0.005650904923244316
2644.0,0.005633119932601781
2643.0,0.005610799591077074
2642.0,0.00558517515537793
2641.0,0.005558954214667709
2640.0,0.005532672127180014
2639.0,0.005506588751035802
2638.0,0.005483914863207073
2637.0,0.0054678452700040745
2636.0,0.005457084142354104
2635.0,0.005448557825266272
2634.0,0.005442810344004094
2633.0,0.005442183501542031
2632.0,0.005445687741463416
2631.0,0.005450648356770149
2630.0,0.005457549024307891
2629.0,0.005467800857071383
2628.0,0.005478159548166966
2627.0,0.005483374551701545
2626.0,0.005483581156820192
2625.0,0.005483496738481468
2624.0,0.0054847808646963005
2623.0,0.00548488049127208
2622.0,0.005483215509095745
2621.0,0.005482576687350878
2620.0,0.005483721348647954
2619.0,0.005483752525572359
2618.0,0.0054807251499631
2617.0,0.005475435026307159
2616.0,0.005468058242746688
2615.0,0.005457045644874952
2614.0,0.0054416246872316144
2613.0,0.0054216341363679
2612.0,0.005395156214293021
2611.0,0.005360310457943874
2610.0,0.005319219084233192
2609.0,0.005276649569425469
2608.0,0.005235348298271736
2607.0,0.005196289523103105
2606.0,0.005161798284301099
2605.0,0.005133430306392265
2604.0,0.005107724787365578
2603.0,0.005079264356400485
2602.0,0.005047821847239742
2601.0,0.005018329576089131
2600.0,0.004994565790394531
2599.0,0.004977141959414515
2598.0,0.004966552605501459
2597.0,0.0049631798818238725
2596.0,0.004964663292968202
2595.0,0.00496773796282902
2594.0,0.004972271757117012
2593.0,0.0049800272440525956
2592.0,0.004991025593016455
2591.0,0.0050048478280419135
2590.0,0.0050232587227484835
2589.0,0.005047110651455119
2588.0,0.005072805243449655
2587.0,0.005096483378954727
2586.0,0.0051192589454247
2585.0,0.005143561646211242
2584.0,0.005166966252756718
2583.0,0.005184533169792992
2582.0,0.005194114271965401
2581.0,0.0051939865630604605
2580.0,0.005178991179450252
2579.0,0.005146002954195853
2578.0,0.005100764147502253
2577.0,0.005052538411145762
2576.0,0.005003985954555589
2575.0,0.004952726230961652
2574.0,0.004900188800665343
2573.0,0.004851043166461117
2572.0,0.0048054267685972585
2571.0,0.004759662191279067
2570.0,0.004714260495163666
2569.0,0.004674233687908703
2568.0,0.004641809711095911
2567.0,0.004614942739059622
2566.0,0.00459216867055821
2565.0,0.004572940662860783
2564.0,0.004554392940655417
2563.0,0.004533986855182023
2562.0,0.0045142269798619725
2561.0,0.0044989578689491935
2560.0,0.00448671558145438
2559.0,0.004473421571743159
2558.0,0.004459071758803655
2557.0,0.004445326875680137
2556.0,0.004429447499784987
2555.0,0.004408049120684025
2554.0,0.004384578878796838
2553.0,0.004365235326873622
2552.0,0.0043493447058127275
2551.0,0.004331472650606868
2550.0,0.0043109614199278255
2549.0,0.0042913896649926795
2548.0,0.004272300870215998
2547.0,0.004249787069130795
2546.0,0.004224288080805787
2545.0,0.004199817065483803
2544.0,0.004176360850824685
2543.0,0.004150865345902247
2542.0,0.004124997042704902
2541.0,0.004104394740082701
2540.0,0.004090783728915766
2539.0,0.004081728373367929
2538.0,0.004076365483776069
2537.0,0.00407374766229939
2536.0,0.004067798522990057
2535.0,0.004052899421108548
2534.0,0.004033571265940241
2533.0,0.004019979405123856
2532.0,0.0040141391124991765
2531.0,0.004008584374895897
2530.0,0.00399788994523903
2529.0,0.003983347404847807
2528.0,0.003967158592830347
2527.0,0.003950437845685461
2526.0,0.00393657154842887
2525.0,0.003928050620219313
2524.0,0.003920029483640597
2523.0,0.0039052580329951994
2522.0,0.003885054458938295
2521.0,0.0038670904815497334
2520.0,0.0038528571397933413
2519.0,0.0038365220313433465
2518.0,0.003816727664214277
2517.0,0.0038000983516060073
2516.0,0.00379074368609939
2515.0,0.0037844198508724773
2514.0,0.003775807146940269
2513.0,0.003764754504194094
2512.0,0.003752964437332718
2511.0,0.003740268507927147
2510.0,0.0037262757977394477
2509.0,0.0037114931399189763
2508.0,0.00369628601320272
2507.0,0.003682531503494846
2506.0,0.0036749326574704666
2505.0,0.0036756981186642857
2504.0,0.0036796156915108813
2503.0,0.0036799054479667304
2502.0,0.003676849673740069
2501.0,0.003674810592925468
2500.0,0.0036736370634477405
2499.0,0.0036701831925520234
2498.0,0.003665871689712395
2497.0,0.003664843754847035
2496.0,0.00366614551102746
2495.0,0.0036652968043642082
2494.0,0.0036620194994415314
2493.0,0.003658752722964318
2492.0,0.0036532951196930957
2491.0,0.003641419980092239
2490.0,0.0036258345947359077
2489.0,0.0036141730702818117
2488.0,0.0036084442548364876
2487.0,0.003604069561519748
2486.0,0.0035985259019148085
2485.0,0.0035931919980240583
2484.0,0.0035876826124222154
2483.0,0.0035804343282966906
2482.0,0.0035741195242196405
2481.0,0.003572431754999942
2480.0,0.003572148780591043
2479.0,0.0035664780619370706
2478.0,0.0035556971204839874
2477.0,0.00354625151083391
2476.0,0.003539775282966606
2475.0,0.003531669235058611
2474.0,0.00352069148876844
2473.0,0.003511221412652512
2472.0,0.003505121123756826
2471.0,0.0034995307246203904
2470.0,0.0034939438391832648
2469.0,0.0034918870553724488
2468.0,0.0034941788671269776
2467.0,0.0034972528509851592
2466.0,0.003499193596091835
2465.0,0.003501328028621446
2464.0,0.003503666913760437
2463.0,0.0035051626472900905
2462.0,0.0035084710236594407
2461.0,0.003517793801345921
2460.0,0.003531706387178175
2459.0,0.00354434373928974
2458.0,0.0035535780963054106
2457.0,0.0035618007961113135
2456.0,0.003569026839113903
2455.0,0.0035718581140787506
2454.0,0.003569615070012253
2453.0,0.0035658244386578258
2452.0,0.0035636892782485406
2451.0,0.003564852472788752
2450.0,0.00357083876672139
2449.0,0.0035798525274938495
2448.0,0.0035844061145766356
2447.0,0.0035790522436045307
2446.0,0.003568660631616651
2445.0,0.0035622438188861365
2444.0,0.0035608871890804366
2443.0,0.0035591287856879842
2442.0,0.0035556645727895997
2441.0,0.0035541740204531394
2440.0,0.0035554336429149055
2439.0,0.0035574351886218675
2438.0,0.0035618314901799796
2437.0,0.0035710014756732385
2436.0,0.0035795902694599913
2435.0,0.003578675425038146
2434.0,0.003568872732871148
2433.0,0.003560609522316417
2432.0,0.0035604697284712036
2431.0,0.003565071586244731
2430.0,0.00356883809012864
2429.0,0.003569622895099993
2428.0,0.0035659149384049335
2427.0,0.0035566430492896504
2426.0,0.003545415495644714
2425.0,0.003538039379627182
2424.0,0.0035342858777272215
2423.0,0.0035279037854969147
2422.0,0.0035153309986657028
2421.0,0.00349888102747268
2420.0,0.00348207692087194
2419.0,0.0034680422014026135
2418.0,0.003461087417588769
2417.0,0.0034624068227773162
2416.0,0.0034648186471972616
2415.0,0.003459394850692403
2414.0,0.0034475521276938967
2413.0,0.003439678072951277
2412.0,0.003441523185543675
2411.0,0.003448377397591792
2410.0,0.003452500054870861
2409.0,0.0034494964860282244
2408.0,0.0034374524318831244
2407.0,0.003417249011338222
2406.0,0.0033952053285920217
2405.0,0.003379491039402914
2404.0,0.0033726348605560346
2403.0,0.003371484877914284
2402.0,0.0033731570164860884
2401.0,0.0033760093850668475
2400.0,0.003376742960828091
2399.0,0.003372861402052306
2398.0,0.0033670267951782388
2397.0,0.003363307430021307
2396.0,0.003360531786455889
2395.0,0.003355083013600331
2394.0,0.0033478786475285337
2393.0,0.0033416912746082397
2392.0,0.003334095948323376
2391.0,0.0033211323758499103
2390.0,0.0033065523427460784
2389.0,0.0032989285316963072
2388.0,0.0032990661387523115
2387.0,0.003297955995050238
2386.0,0.003288562085273462
2385.0,0.0032732243864259654
2384.0,0.0032583238270174507
2383.0,0.0032475306225058075
2382.0,0.003241465960235278
2381.0,0.0032379805677994317
2380.0,0.0032305698454057957
2379.0,0.003211871803646038
2378.0,0.003181645969239949
2377.0,0.003147426111700816
2376.0,0.003116542261225825
2375.0,0.003093977472910653
2374.0,0.0030872453738088244
2373.0,0.0031025295613263636
2372.0,0.0031335836930686156
2371.0,0.0031657020125060464
2370.0,0.0031934970479383607
2369.0,0.003221540065114495
2368.0,0.0032470426191743783
2367.0,0.0032606390460919966
2366.0,0.0032654481424579064
2365.0,0.0032738444119742873
2364.0,0.00328090071385905
2363.0,0.003265871467887952
2362.0,0.0032291831079244242
2361.0,0.003196773463883923
2360.0,0.0031848766812060526
2359.0,0.003190047078452564
2358.0,0.0032058259348966304
2357.0,0.00322683966616823
2356.0,0.003240043002080842
2355.0,0.0032369912070696182
2354.0,0.0032285785142631535
2353.0,0.003227310802387387
2352.0,0.0032323373950644664
2351.0,0.0032366523917163616
2350.0,0.003240596628576084
2349.0,0.0032484219902385127
2348.0,0.003254024806644962
2347.0,0.00324891627775463
2346.0,0.0032400446252446634
2345.0,0.0032507626038267147
2344.0,0.0032839623039083213
2343.0,0.003312979590014509
2342.0,0.003324604229007994
2341.0,0.0033239301505526854
2340.0,0.003315283837083238
2339.0,0.003302395473349175
2338.0,0.003299676878078962
2337.0,0.0033148768406441325
2336.0,0.0033306810193978226
2335.0,0.003325657900112443
2334.0,0.003304879906753846
2333.0,0.0032875649037279854
2332.0,0.0032788698016963857
2331.0,0.003270285367396599
2330.0,0.003264996152644141
2329.0,0.003285764681624186
2328.0,0.003348069291341058
2327.0,0.0034541788991477116
2326.0,0.00358927914481211
2325.0,0.003719307378474911
2324.0,0.003794812348396073
2323.0,0.0037852155717316696
2322.0,0.0037132434534666373
2321.0,0.0036301736521955003
2320.0,0.003568255016127532
2319.0,0.003528673406911021
2318.0,0.003507992938821286
2317.0,0.003505161886798139
2316.0,0.0035110063382801145
2315.0,0.0035130216392023454
2314.0,0.0035097919738250544
2313.0,0.0035090310149045144
2312.0,0.003509354029947758
2311.0,0.0035036262309578875
2310.0,0.003493636152389161
2309.0,0.0034907498690984855
2308.0,0.0034975695479244036
2307.0,0.0035076704566566223
2306.0,0.003517499229924154
2305.0,0.00352925039715829
2304.0,0.003540402904856215
2303.0,0.003545631117312594
2302.0,0.003547562044312915
2301.0,0.0035564359815124166
2300.0,0.003575940625578272
2299.0,0.0036006729093582563
2298.0,0.0036249993451136437
2297.0,0.003647947048782867
2296.0,0.0036678936112418117
2295.0,0.003684919187654675
2294.0,0.0037047014815062016
2293.0,0.003733140051687657
2292.0,0.003766425017088405
2291.0,0.003796765258461666
2290.0,0.0038245742672802178
2289.0,0.0038560356200996104
2288.0,0.0038902876948859466
2287.0,0.003918961638296826
2286.0,0.003936655050079145
2285.0,0.003941798787889026
2284.0,0.0039308283093142755
2283.0,0.003902840823785939
2282.0,0.0038687680204589096
2281.0,0.0038441022946586172
2280.0,0.0038331426130787886
2279.0,0.003830311940988305
2278.0,0.0038329846238457574
2277.0,0.003840292658937105
2276.0,0.003844260896699068
2275.0,0.00383803369930157
2274.0,0.0038299158914101147
2273.0,0.0038330151058077735
2272.0,0.0038441166742910274
2271.0,0.0038489981304428277
2270.0,0.003844964726876899
2269.0,0.003839484793153737
2268.0,0.0038304527681257425
2267.0,0.003808828807488414
2266.0,0.0037797295261266708
2265.0,0.003760173577885744
2264.0,0.003754601494415622
2263.0,0.003752866766822325
2262.0,0.003753125251335935
2261.0,0.003766650033232141
2260.0,0.0037974148108972927
2259.0,0.0038338670374864275
2258.0,0.0038627440220709557
2257.0,0.0038740742609767904
2256.0,0.0038560462609409174
2255.0,0.0038050608953758428
2254.0,0.0037424362769983835
2253.0,0.0037001843746368845
2252.0,0.0036879864666227204
2251.0,0.0036905336610534977
2250.0,0.0036959580791461194
2249.0,0.0037054271175793706
2248.0,0.0037162954891143017
2247.0,0.0037183386933514377
2246.0,0.0037107589481657054
2245.0,0.0037040158550748752
2244.0,0.0037022026969165886
2243.0,0.003701445868613448
2242.0,0.003705724780287776
2241.0,0.0037238975022165326
2240.0,0.0037498696582687644
2239.0,0.003765458260759272
2238.0,0.003763924820980139
2237.0,0.0037530962588640266
2236.0,0.0037371880178011995
2235.0,0.003716486568161966
2234.0,0.003702724850128826
2233.0,0.0037108307419272245
2232.0,0.0037337062388116396
2231.0,0.0037485862907528046
2230.0,0.0037494681610118104
2229.0,0.0037502376355859745
2228.0,0.0037562557388909363
2227.0,0.0037574895305428242
2226.0,0.003752008916040872
2225.0,0.0037502441355170444
2224.0,0.003750987689280694
2223.0,0.003736855448205085
2222.0,0.003700353703267288
2221.0,0.003656174348837119
2220.0,0.0036242269680415847
2219.0,0.0036174490305605194
2218.0,0.003642898003727282
2217.0,0.0036925892272528255
2216.0,0.003735686357195807
2215.0,0.003746313158072798
2214.0,0.0037367870396202776
2213.0,0.003739312054812675
2212.0,0.0037574935335185685
2211.0,0.0037650095037790876
2210.0,0.003751363013406014
2209.0,0.003736132746869256
2208.0,0.0037335920367191494
2207.0,0.0037347889026315704
2206.0,0.0037342408458438175
2205.0,0.0037461851343068894
2204.0,0.003780616131978925
2203.0,0.0038235515096183264
2202.0,0.0038520887053436394
2201.0,0.0038558959910171544
2200.0,0.003842539552652971
2199.0,0.003833327415554681
2198.0,0.003850235446937811
2197.0,0.0038904098958763506
2196.0,0.003919767145882182
2195.0,0.00391144311914979
2194.0,0.003881883171904331
2193.0,0.0038681288025056316
2192.0,0.003882158270071473
2191.0,0.003913437579019859
2190.0,0.003961071812404429
2189.0,0.004026112188177154
2188.0,0.004081358557507826
2187.0,0.004090074808167955
2186.0,0.0040534095847499264
2185.0,0.00400407853362255
2184.0,0.003953038978981393
2183.0,0.0038811084918518755
2182.0,0.0037883266551772795
2181.0,0.003712628228526375
2180.0,0.0036881524811169146
2179.0,0.0037138990681184827
2178.0,0.003768588345279436
2177.0,0.003827228640339529
2176.0,0.0038640331166040843
2175.0,0.003868871150132158
2174.0,0.0038606490715348777
2173.0,0.0038635917178134367
2172.0,0.003881302268466902
2171.0,0.003917478336265668
2170.0,0.00399880563809327
2169.0,0.004136918593669482
2168.0,0.004281147353778203
2167.0,0.004356248229363409
2166.0,0.004350011922720028
2165.0,0.004328572589268107
2164.0,0.004360014023642346
2163.0,0.004446147132795982
2162.0,0.004514245635500882
2161.0,0.004441961652353581
2160.0,0.004125395342912696
2159.0,0.003598289696693538
2158.0,0.003066724046321677
2157.0,0.002742198455353195
2156.0,0.0026594745451572113
2155.0,0.0027159764375965347
2154.0,0.0028207206609968
2153.0,0.002930133178124154
2152.0,0.003004827671235031
2151.0,0.003020810511437969
2150.0,0.003011486903317187
2149.0,0.003034566479419881
2148.0,0.0030928873196302232
2147.0,0.003137705764033883
2146.0,0.0031435959782663567
2145.0,0.003130255411108034
2144.0,0.003112987002055068
2143.0,0.003083024106760388
2142.0,0.0030429499111795464
2141.0,0.0030181642133065055
2140.0,0.0030236385805696908
2139.0,0.003047856575216511
2138.0,0.0030701797343480053
2137.0,0.003068000389528199
2136.0,0.0030189195169127918
2135.0,0.0029290376665323955
2134.0,0.0028512202624224048
2133.0,0.0028378491139215327
2132.0,0.002882045839642404
2131.0,0.0029348801031597064
2130.0,0.0029700132508837245
2129.0,0.002996771891277205
2128.0,0.0030230997918975554
2127.0,0.0030428162210337333
2126.0,0.003058553467479584
2125.0,0.0030837596055782596
2124.0,0.003118001610498065
2123.0,0.0031463982833946796
2122.0,0.0031656416669836266
2121.0,0.0031874972806781175
2120.0,0.003216747822651732
2119.0,0.003248717388770137
2118.0,0.0032867649744962395
2117.0,0.0033375500163515264
2116.0,0.00338926905369216
2115.0,0.003419013400752478
2114.0,0.0034232775005785974
2113.0,0.003419548088129333
2112.0,0.003418745502281085
2111.0,0.0034184403470237123
2110.0,0.0034215826709391175
2109.0,0.003435899291084394
2108.0,0.003454366595874983
2107.0,0.0034611556362301307
2106.0,0.0034577932396710116
2105.0,0.003459299732309702
2104.0,0.003465502444881032
2103.0,0.0034616373389496804
2102.0,0.0034471600891620856
2101.0,0.0034373044065209384
2100.0,0.0034351498408421834
2099.0,0.003426331672956047
2098.0,0.003402207342095325
2097.0,0.0033651632233801625
2096.0,0.003314694847001953
2095.0,0.003254763781937357
2094.0,0.003210920109110543
2093.0,0.003209520678688493
2092.0,0.003242227275412878
2091.0,0.003278183314102198
2090.0,0.0033063008562196745
2089.0,0.003337045237475017
2088.0,0.0033679992839946967
2087.0,0.0033816513394261897
2086.0,0.0033776600362735946
2085.0,0.0033754131517084265
2084.0,0.003381955533918547
2083.0,0.003386287525144427
2082.0,0.003387932733807325
2081.0,0.0034003104563018432
2080.0,0.003422170284261957
2079.0,0.003435610654020043
2078.0,0.0034370365085093575
2077.0,0.003440257726551093
2076.0,0.0034465922422060005
2075.0,0.0034422532336057994
2074.0,0.003427676066720434
2073.0,0.0034172713315098963
2072.0,0.003407585744531714
2071.0,0.0033803214692110658
2070.0,0.003341307768483304
2069.0,0.0033212728192696557
2068.0,0.0033312119788077967
2067.0,0.0033511187131433067
2066.0,0.0033679547856518307
2065.0,0.003388113940071179
2064.0,0.0034067195415365707
2063.0,0.0034028204617545087
2062.0,0.0033751910326677275
2061.0,0.0033485148206804905
2060.0,0.0033385047455153417
2059.0,0.0033400290859446034
2058.0,0.0033502986565602075
2057.0,0.0033689801446288806
2056.0,0.00337884664588209
2055.0,0.0033704809610534156
2054.0,0.003386446586360388
2053.0,0.0034867549526119844
2052.0,0.0036575048129807806
2051.0,0.0038007054329728006
2050.0,0.003831967012986645
2049.0,0.003758367051741756
2048.0,0.0036467615260452066
2047.0,0.0035494058259723914
2046.0,0.003488582168818101
2045.0,0.003473343692887865
2044.0,0.0034904871861130967
2043.0,0.0035072741852625803
2042.0,0.003509540853090588
2041.0,0.003514882993240692
2040.0,0.0035374120395850793
2039.0,0.003569782254813897
2038.0,0.0036057438162373917
2037.0,0.0036406086240903814
2036.0,0.003647455090649795
2035.0,0.003598414977263289
2034.0,0.003515251271528262
2033.0,0.0034521457869390757
2032.0,0.0034219689237355946
2031.0,0.003392031574596468
2030.0,0.003352696202381861
2029.0,0.0033287013992434693
2028.0,0.0033187631242583716
2027.0,0.003289178902022738
2026.0,0.0032391091117842507
2025.0,0.003211577384273219
2024.0,0.0032257801887389482
2023.0,0.003254198714695677
2022.0,0.0032760368749622302
2021.0,0.0032968317181753305
2020.0,0.0033079545272272242
2019.0,0.003283261173390517
2018.0,0.0032289160651166947
2017.0,0.003186087463418401
2016.0,0.003169881815312405
2015.0,0.0031576654949142667
2014.0,0.0031443368734880898
2013.0,0.0031518037422387825
2012.0,0.0031803011678143626
2011.0,0.0032016680211498054
2010.0,0.0032026792319166547
2009.0,0.0031855922680609377
2008.0,0.00313133894564855
2007.0,0.0030228067964671495
2006.0,0.0029029994347148456
2005.0,0.0028449640977176176
2004.0,0.00285857229872654
2003.0,0.0028876042149424824
2002.0,0.0028973229910932165
2001.0,0.0029050700517394344
2000.0,0.002927464193714882
1999.0,0.002953734840984739
1998.0,0.002980892260277023
1997.0,0.0030243691902588576
1996.0,0.0030817943993658938
1995.0,0.003128268979852671
1994.0,0.0031535269035802248
1993.0,0.003167802690936611
1992.0,0.003170790677627576
1991.0,0.0031547886714392934
1990.0,0.003138291029524947
1989.0,0.0031498996613061572
1988.0,0.0031827027287569744
1987.0,0.0032080267037131473
1986.0,0.0032282532951597403
1985.0,0.0032710604020614975
1984.0,0.0033400050728861824
1983.0,0.003419649718291225
1982.0,0.003515473729004787
1981.0,0.0036253589966160054
1980.0,0.0036806327622099628
1979.0,0.003590765459369412
1978.0,0.003366712560453253
1977.0,0.0031319140346746134
1976.0,0.0029798131133025457
1975.0,0.002896959691381591
1974.0,0.0028461090933313534
1973.0,0.00282762935734134
1972.0,0.0028373149129331666
1971.0,0.002846802207898681
1970.0,0.0028491500707808785
1969.0,0.0028623183493496096
1968.0,0.0028753362227777355
1967.0,0.0028516586604053367
1966.0,0.002798200297101234
1965.0,0.0027629889667785523
1964.0,0.0027566881148779645
1963.0,0.0027425086381364845
1962.0,0.002701942437206848
1961.0,0.0026546013098215416
1960.0,0.0026115217719833435
1959.0,0.002564661507421548
1958.0,0.0025268391521695863
1957.0,0.002524791854666872
1956.0,0.0025490961945697265
1955.0,0.002563020365629011
1954.0,0.002560407412491618
1953.0,0.002566059569223409
1952.0,0.002580847441047189
1951.0,0.002580464269390813
1950.0,0.0025665862112141252
1949.0,0.0025660545892054938
1948.0,0.0025786355339825844
1947.0,0.0025755111118997915
1946.0,0.0025521484768891876
1945.0,0.0025335815391279303
1944.0,0.0025238031084665142
1943.0,0.00250058116663647
1942.0,0.0024687405633862804
1941.0,0.002460438561154923
1940.0,0.002475443410149462
1939.0,0.002482985122021321
1938.0,0.0024758779969540176
1937.0,0.002476167509494052
1936.0,0.0024894492340872213
1935.0,0.0024956347022137785
1934.0,0.002488972743833524
1933.0,0.002485129638249451
1932.0,0.002483105186318886
1931.0,0.0024655194818692092
1930.0,0.0024390474419556706
1929.0,0.0024306377214993423
1928.0,0.002443453830594756
1927.0,0.002453330411452472
1926.0,0.0024533458529126325
1925.0,0.0024591706874288453
1924.0,0.0024707567001614086
1923.0,0.0024704120878941685
1922.0,0.002461766928261152
1921.0,0.0024650726348477464
1920.0,0.0024752895161018152
1919.0,0.0024665829286742787
1918.0,0.002441298546550786
1917.0,0.0024337615064464638
1916.0,0.0024501239066190704
1915.0,0.0024623240260952094
1914.0,0.0024626613956247327
1913.0,0.002473141485360283
1912.0,0.0025001229834920404
1911.0,0.0025196461334157515
1910.0,0.0025175075337506205
1909.0,0.002507721181489742
1908.0,0.0025005772112802315
1907.0,0.002487052767946763
1906.0,0.002469554145701987
1905.0,0.0024661331438965116
1904.0,0.0024756919489466213
1903.0,0.0024754831149980047
1902.0,0.002459084266942084
1901.0,0.0024457789436836902
1900.0,0.002447080670195542
1899.0,0.0024530399496606715
1898.0,0.002460416981187993
1897.0,0.002479343476421301
1896.0,0.0025047323966334153
1895.0,0.0025140292972884617
1894.0,0.00250333235156038
1893.0,0.002492688652776772
1892.0,0.002489735559079229
1891.0,0.0024799090641204
1890.0,0.002457763470491854
1889.0,0.0024415772810653796
1888.0,0.002439338140005644
1887.0,0.0024358846823004632
1886.0,0.0024243105272328414
1885.0,0.0024149453723316403
1884.0,0.002410236157548934
1883.0,0.002401344449852
1882.0,0.0023921479677590884
1881.0,0.002397500854740182
1880.0,0.0024137275947875934
1879.0,0.0024187855198730705
1878.0,0.0024068336270377114
1877.0,0.002394783387050185
1876.0,0.002389962425988294
1875.0,0.0023829063604604503
1874.0,0.0023748249267036806
1873.0,0.002379441741296409
1872.0,0.0023954862154287123
1871.0,0.002405607183697082
1870.0,0.002403697932099602
1869.0,0.002403029769578542
1868.0,0.002408533354779727
1867.0,0.002407658051995473
1866.0,0.0024015101187255927
1865.0,0.002405518555351881
1864.0,0.0024183516752397157
1863.0,0.002422177271933453
1862.0,0.0024142944864489323
1861.0,0.00241210888423103
1860.0,0.002420500883579516
1859.0,0.002423805539806445
1858.0,0.0024172424798221638
1857.0,0.002414575365981405
1856.0,0.002419639245272462
1855.0,0.002419832389464892
1854.0,0.0024151163678793395
1853.0,0.0024204087710365634
1852.0,0.0024369280539085075
1851.0,0.002445695456515627
1850.0,0.002439220480774179
1849.0,0.0024315642089162686
1848.0,0.002427584068636898
1847.0,0.002411711842002145
1846.0,0.002378234959691456
1845.0,0.0023470358019655945
1844.0,0.0023358829658817006
1843.0,0.0023408971911788906
1842.0,0.0023565020254333055
1841.0,0.0023837437827494467
1840.0,0.0024154520246730516
1839.0,0.0024343877121792137
1838.0,0.002435343197256052
1837.0,0.002431839571233628
1836.0,0.0024317831191384637
1835.0,0.002428520328627635
1834.0,0.0024219967423188384
1833.0,0.0024236949739363457
1832.0,0.0024357838838110187
1831.0,0.002439441216792866
1830.0,0.00242584422668488
1829.0,0.0024214111442292957
1828.0,0.00243684795460252
1827.0,0.0024479759841265496
1826.0,0.0024427697797862924
1825.0,0.002438731159034628
1824.0,0.002447859603236799
1823.0,0.0024550291172012436
1822.0,0.0024492805450515996
1821.0,0.0024390742444912812
1820.0,0.002426457984049297
1819.0,0.002397435256838889
1818.0,0.0023535566366783807
1817.0,0.002323286142848924
1816.0,0.0023249633716157336
1815.0,0.0023467424464307125
1814.0,0.002372723748965112
1813.0,0.0024017437537246842
1812.0,0.002428136892472368
1811.0,0.0024359361607191607
1810.0,0.002428787973097096
1809.0,0.0024296415777576505
1808.0,0.002442990747681581
1807.0,0.002451768206314809
1806.0,0.0024512443156441835
1805.0,0.0024565485957724347
1804.0,0.0024731370477697728
1803.0,0.0024867458725272586
1802.0,0.0024873943907535354
1801.0,0.0024878205225058454
1800.0,0.0024987803740593563
1799.0,0.002512357011370799
1798.0,0.002524122174177765
1797.0,0.002538492761240648
1796.0,0.0025484433335406756
1795.0,0.0025390365832526894
1794.0,0.0025151106916781246
1793.0,0.0025049131976690652
1792.0,0.002520198923885572
1791.0,0.002542596743434751
1790.0,0.0025617487970817877
1789.0,0.0025840219836471123
1788.0,0.0026071525542550418
1787.0,0.0026187210255325193
1786.0,0.0026178361751756736
1785.0,0.0026220877026228166
1784.0,0.0026410603025647916
1783.0,0.0026644940262340933
1782.0,0.0026823327350646692
1781.0,0.0027003365986367003
1780.0,0.002720644402325812
1779.0,0.0027317886475001244
1778.0,0.002732016806127663
1777.0,0.0027334535607793147
1776.0,0.002739282372790977
1775.0,0.0027365665123540535
1774.0,0.002722449339110816
1773.0,0.002717274884759276
1772.0,0.0027350883824622356
1771.0,0.0027616886303202886
1770.0,0.0027860712942650995
1769.0,0.0028159768321207607
1768.0,0.0028534408497967244
1767.0,0.0028886955312630936
1766.0,0.0029189665044976635
1765.0,0.0029528133364535828
1764.0,0.002991067962198602
1763.0,0.0030231173930394457
1762.0,0.0030484645763268177
1761.0,0.003090881094206142
1760.0,0.0031536843093461
1759.0,0.003211357064565648
1758.0,0.003256016943060599
1757.0,0.003309761511762274
1756.0,0.0033851413708766236
1755.0,0.0034599998228269065
1754.0,0.003520462855002035
1753.0,0.0035863896963538233
1752.0,0.0036808344950143134
1751.0,0.0037899424805085723
1750.0,0.0038904898233486085
1749.0,0.003990357512271691
1748.0,0.00409362868207974
1747.0,0.004181885182219553
1746.0,0.00425267373802956
1745.0,0.004327361642410467
1744.0,0.0044062086698902336
1743.0,0.004460862756324862
1742.0,0.004487580158266296
1741.0,0.00452484735054723
1740.0,0.004591667097101369
1739.0,0.004656499111943114
1738.0,0.004693957472201868
1737.0,0.004718236126533786
1736.0,0.004752791107471066
1735.0,0.004804060886063258
1734.0,0.00486797334727936
1733.0,0.0049670765750042785
1732.0,0.005088086466596557
1731.0,0.005180953957264131
1730.0,0.005237566633885776
1729.0,0.00529435853673346
1728.0,0.00537228484437064
1727.0,0.005453984504255816
1726.0,0.005528690543109296
1725.0,0.0056153201359683495
1724.0,0.0057188259703122215
1723.0,0.005809231045184784
1722.0,0.005870706315714896
1721.0,0.0059312989163161555
1720.0,0.0060258921267300185
1719.0,0.0061507127031084005
1718.0,0.006274507469773095
1717.0,0.006407611661037086
1716.0,0.006560336780853437
1715.0,0.006698160531658814
1714.0,0.006819066221035908
1713.0,0.006958047868069233
1712.0,0.007120369419029264
1711.0,0.007276677131550547
1710.0,0.007413384579496068
1709.0,0.007553514983864543
1708.0,0.007722517364346818
1707.0,0.007918572075802797
1706.0,0.00813130223907083
1705.0,0.008352448084465398
1704.0,0.008544100449571254
1703.0,0.008670342687120932
1702.0,0.008785189490601239
1701.0,0.009059639124524864
1700.0,0.009530056971727183
1699.0,0.009969858682230666
1698.0,0.010292140095739841
1697.0,0.010617419122969814
1696.0,0.011032554971581694
1695.0,0.01146505891432427
1694.0,0.011826672720879177
1693.0,0.012150832612577852
1692.0,0.012491772564168469
1691.0,0.012861244480973954
1690.0,0.013245172528818374
1689.0,0.013621195590860745
1688.0,0.01395875893053831
1687.0,0.014240535640611673
1686.0,0.014526862740445757
1685.0,0.014961346188440075
1684.0,0.015533848890284148
1683.0,0.016019482115562124
1682.0,0.01638241505551717
1681.0,0.016732969062967153
1680.0,0.017095283811443044
1679.0,0.01741832292861045
1678.0,0.017683611006929764
1677.0,0.017964342375082848
1676.0,0.018345594090826586
1675.0,0.01879305321497608
1674.0,0.01919292072987151
1673.0,0.01952885270533601
1672.0,0.019854126977842942
1671.0,0.02019932848636762
1670.0,0.020567663631748362
1669.0,0.02095494660172134
1668.0,0.021332013986096566
1667.0,0.021652325255436027
1666.0,0.021917029852020924
1665.0,0.022186075681242638
1664.0,0.02251450841486314
1663.0,0.022880836788308198
1662.0,0.023218206728354417
1661.0,0.023520306878621246
1660.0,0.023813946918619194
1659.0,0.024086613031270434
1658.0,0.024311243071857197
1657.0,0.024492020264150424
1656.0,0.024652568739741653
1655.0,0.024816221430658782
1654.0,0.024971758849542
1653.0,0.025110977738973216
1652.0,0.02527943440041067
1651.0,0.025444463854278752
1650.0,0.025567147661857744
1649.0,0.025672829028453106
1648.0,0.025765039116078626
1647.0,0.025783182344921822
1646.0,0.025732821459047883
1645.0,0.025718270672371906
1644.0,0.02576238428306125
1643.0,0.02580908573937494
1642.0,0.025822830931437883
1641.0,0.02581401511357494
1640.0,0.02580628616607941
1639.0,0.02579320425943585
1638.0,0.025748147036103074
1637.0,0.025646244168769733
1636.0,0.025476142184035544
1635.0,0.02529522496763232
1634.0,0.025180233319833146
1633.0,0.025126143537621708
1632.0,0.02508170394950754
1631.0,0.025003472413143494
1630.0,0.024868319542081047
1629.0,0.024677566359966055
1628.0,0.024450745411693217
1627.0,0.02421433581626306
1626.0,0.02398140454696145
1625.0,0.023741269980451736
1624.0,0.02345591715620703
1623.0,0.023104454394810868
1622.0,0.022746748965559782
1621.0,0.02245289069607319
1620.0,0.02221479235055618
1619.0,0.021968760769549057
1618.0,0.02163388788226452
1617.0,0.02117397609870026
1616.0,0.02069527417449145
1615.0,0.02032573667743476
1614.0,0.020051624755910026
1613.0,0.01979914488369148
1612.0,0.019524496746151594
1611.0,0.01922066326205775
1610.0,0.018900180646050473
1609.0,0.018575661272629797
1608.0,0.018256337130909742
1607.0,0.0179550835329414
1606.0,0.017681824764107654
1605.0,0.01743194933623928
1604.0,0.0171906025103594
1603.0,0.016946717266670696
1602.0,0.01670172057300795
1601.0,0.01646284969954858
1600.0,0.016235181273778907
1599.0,0.01602193084979247
1598.0,0.015822911317881952
1597.0,0.01563050712216862
1596.0,0.015433881475133634
1595.0,0.015232366181087875
1594.0,0.015036868814942029
1593.0,0.014854183002095908
1592.0,0.014680189162398103
1591.0,0.014510933748276531
1590.0,0.01434894485112952
1589.0,0.014196806096267778
1588.0,0.014053861672497687
1587.0,0.013920507581724743
1586.0,0.013798591626703792
1585.0,0.013684697933120233
1584.0,0.01357515618849696
1583.0,0.01347254757687541
1582.0,0.013382323181533503
1581.0,0.013304348263952074
1580.0,0.013234859329850098
1579.0,0.013170358825159266
1578.0,0.013102672939516268
1577.0,0.013009921732324854
1576.0,0.012892255791896349
1575.0,0.012806902146162171
1574.0,0.012779881123602645
1573.0,0.012775942465764769
1572.0,0.012763105478591283
1571.0,0.01273738300423314
1570.0,0.012705102893297012
1569.0,0.012678159853135532
1568.0,0.012673030827087785
1567.0,0.012691190765272848
1566.0,0.012724911873163948
1565.0,0.012761988333220198
1564.0,0.01278867396453746
1563.0,0.01279268725546015
1562.0,0.012777741892041639
1561.0,0.012772839729611142
1560.0,0.012828620694164263
1559.0,0.012855070165661795
1558.0,0.012876525571906114
1557.0,0.012974905597446433
1556.0,0.013092240398372642
1555.0,0.013184143834839337
1554.0,0.013256906089554519
1553.0,0.013327528856458378
1552.0,0.013395998640958253
1551.0,0.013445633366820552
1550.0,0.013467272614049028
1549.0,0.013469362045288985
1548.0,0.013467369166611199
1547.0,0.013468645708207532
1546.0,0.013473592620496844
1545.0,0.013467673201316026
1544.0,0.013431187715912278
1543.0,0.013368707428230464
1542.0,0.013307036427617512
1541.0,0.013222509835843266
1540.0,0.013050214617298286
1539.0,0.012871501979222426
1538.0,0.012788026138463316
1537.0,0.012761600894472985
1536.0,0.012729123360931035
1535.0,0.012656858565669954
1534.0,0.012527037456014994
1533.0,0.012371979856939391
1532.0,0.01225303021168783
1531.0,0.012174186512986953
1530.0,0.012105352887479182
1529.0,0.01203013930198817
1528.0,0.011934043808393621
1527.0,0.011804489252086256
1526.0,0.011658516187464886
1525.0,0.011534864177399603
1524.0,0.011442012621999363
1523.0,0.011351248129370864
1522.0,0.011235827047678238
1521.0,0.011124144786631948
1520.0,0.01106005389276865
1519.0,0.011025815457796562
1518.0,0.010976649098218853
1517.0,0.01087964127715793
1516.0,0.010738599370751849
1515.0,0.010588936332360313
1514.0,0.010449210331081623
1513.0,0.010319105562900508
1512.0,0.010191554407993887
1511.0,0.010063800482302316
1510.0,0.009946704750952952
1509.0,0.009845764479938722
1508.0,0.009693904962358762
1507.0,0.009370134550684823
1506.0,0.00904069477060651
1505.0,0.008913473331250898
1504.0,0.008897136795158921
1503.0,0.008873066991803102
1502.0,0.008817665265786886
1501.0,0.00875046089986775
1500.0,0.008688526385394288
1499.0,0.0086197279526149
1498.0,0.008537540217555161
1497.0,0.008462135980151338
1496.0,0.008401506912662239
1495.0,0.00834240586252309
1494.0,0.008296285181115044
1493.0,0.008286236543779718
1492.0,0.008303495448276672
1491.0,0.008304715498422611
1490.0,0.008272315149102016
1489.0,0.008252340466460756
1488.0,0.00826161338901493
1487.0,0.008275909632929119
1486.0,0.008310221751496897
1485.0,0.008391166550921302
1484.0,0.008507781256410574
1483.0,0.008638282046593294
1482.0,0.008798192042932843
1481.0,0.009013040669520899
1480.0,0.009262563870193407
1479.0,0.00952498576822601
1478.0,0.009849710523983233
1477.0,0.010301695952148795
1476.0,0.010852561026016323
1475.0,0.011457100171974275
1474.0,0.012259271286931026
1473.0,0.013501442063806622
1472.0,0.01505825068344531
1471.0,0.016546607671556125
1470.0,0.017911607525909982
1469.0,0.019301032472521826
1468.0,0.0207780501520967
1467.0,0.02239073965179203
1466.0,0.024268105517110918
1465.0,0.026397066316483538
1464.0,0.02835951717174964
1463.0,0.029784547790194935
1462.0,0.030758970696709527
1461.0,0.03149988426641596
1460.0,0.032102581340147915
1459.0,0.03261264565266971
1458.0,0.03315700078794981
1457.0,0.033752998898002394
1456.0,0.0341539206970866
1455.0,0.03429581577558484
1454.0,0.03432150402234573
1453.0,0.0342441028082016
1452.0,0.03396679139481586
1451.0,0.03341871943761192
1450.0,0.03254529101943669
1449.0,0.031204273838930374
1448.0,0.02933220240577541
1447.0,0.027215387325226104
1446.0,0.025230300337453507
1445.0,0.023475805609770077
1444.0,0.021905619505422087
1443.0,0.020547867279494352
1442.0,0.01947593086107729
1441.0,0.01869602638746757
1440.0,0.018162749571148468
1439.0,0.017849707794182514
1438.0,0.017741654188513898
1437.0,0.01771514964876212
1436.0,0.0175253274318357
1435.0,0.01705289996900441
1434.0,0.016344098115785875
1433.0,0.015453379110880967
1432.0,0.014473963770994181
1431.0,0.013568559074577099
1430.0,0.01285084871279871
1429.0,0.012320818290866925
1428.0,0.011952263759946742
1427.0,0.011727208378713256
1426.0,0.011584739733262085
1425.0,0.01144496373014726
1424.0,0.011293667965030275
1423.0,0.011176276141172286
1422.0,0.011095533173457054
1421.0,0.011007029101948864
1420.0,0.010902524700348137
1419.0,0.01081726479548282
1418.0,0.010759352739541518
1417.0,0.010695887138764308
1416.0,0.010624949029106668
1415.0,0.010571421217393621
1414.0,0.010528377033763225
1413.0,0.01046489931808538
1412.0,0.010379649168390948
1411.0,0.010301211578802294
1410.0,0.01023059894050915
1409.0,0.010142672464356855
1408.0,0.01004173516927292
1407.0,0.009956236378490167
1406.0,0.009875448566691857
1405.0,0.009755379900172499
1404.0,0.009608368725164506
1403.0,0.0094927619228932
1402.0,0.009411589058717038
1401.0,0.009320949294886083
1400.0,0.009215858582640754
1399.0,0.009137843300649689
1398.0,0.009091774765643885
1397.0,0.009033927553557598
1396.0,0.008962395068780982
1395.0,0.008926134382708199
1394.0,0.008935482162669647
1393.0,0.0089594944555785
1392.0,0.009006186621347079
1391.0,0.009112230360768532
1390.0,0.009288418984255833
1389.0,0.009546046480863261
1388.0,0.009968984638003674
1387.0,0.010668870764742678
1386.0,0.011664788920736817
1385.0,0.012970122453333448
1384.0,0.014742553467990166
1383.0,0.017184481861774334
1382.0,0.020375748565280585
1381.0,0.02433041517705707
1380.0,0.029090948150207192
1379.0,0.03445043264522477
1378.0,0.03961766168893384
1377.0,0.043439539870793964
1376.0,0.0448573827568893
1375.0,0.04320263258041231
1374.0,0.038882983778353974
1373.0,0.03354786095923039
1372.0,0.028643928856662344
1371.0,0.02453378634005747
1370.0,0.02109923250538055
1369.0,0.018318997300467103
1368.0,0.01626992684422429
1367.0,0.014924240286175488
1366.0,0.014130241389004249
1365.0,0.013741977669776242
1364.0,0.013673830414552697
1363.0,0.013870803630251794
1362.0,0.014255619294800109
1361.0,0.014702554730392975
1360.0,0.01505990530540546
1359.0,0.015190323176471926
1358.0,0.015009913587303705
1357.0,0.014515685917006894
1356.0,0.013778621516694475
1355.0,0.012916096862850274
1354.0,0.012060436018859363
1353.0,0.01131041789566715
1352.0,0.010691950334113362
1351.0,0.01017961428947095
1350.0,0.009745788846832632
1349.0,0.009377833953945569
1348.0,0.009064774329322981
1347.0,0.008792342879301758
1346.0,0.008553660162048879
1345.0,0.00835043318972219
1344.0,0.008183227250156865
1343.0,0.008048183238019395
1342.0,0.007940122866930232
1341.0,0.007849994269030549
1340.0,0.007763768381245277
1339.0,0.007675844310714542
1338.0,0.007598173224033876
1337.0,0.007545867142406331
1336.0,0.0075230963401534245
1335.0,0.007527982107890191
1334.0,0.00756034516245066
1333.0,0.0076178240349048625
1332.0,0.007686797436280644
1331.0,0.007742797503636508
1330.0,0.007762587973440115
1329.0,0.007736154039014325
1328.0,0.007667758355170194
1327.0,0.0075690083312510165
1326.0,0.007450472149971264
1325.0,0.007318899473030773
1324.0,0.00718224834050284
1323.0,0.007053392941934326
1322.0,0.006944371102558225
1321.0,0.0068572265829148285
1320.0,0.006784094075033652
1319.0,0.006715557079316422
1318.0,0.00664716007494328
1317.0,0.006579482045109048
1316.0,0.00651578878511928
1315.0,0.006460082971206243
1314.0,0.006415209594748575
1313.0,0.006383643201574462
1312.0,0.00637177489149897
1311.0,0.006392662125264105
1310.0,0.0064646384514042855
1309.0,0.006608730990456094
1308.0,0.006838939283329628
1307.0,0.007139670350789839
1306.0,0.007447503929360385
1305.0,0.007669421917981346
1304.0,0.0077362296108640805
1303.0,0.007648346904456406
1302.0,0.007473157007509857
1301.0,0.007295331994768664
1300.0,0.007168184031869192
1299.0,0.007101669209378296
1298.0,0.007076859374648343
1297.0,0.007064632629935319
1296.0,0.00704019404328147
1295.0,0.006991553311439053
1294.0,0.006919524131463014
1293.0,0.0068316910137308975
1292.0,0.006738043071919058
1291.0,0.006649549176627981
1290.0,0.0065746325206097935
1289.0,0.006514909506442809
1288.0,0.006466513518766337
1287.0,0.006425555335641859
1286.0,0.006390641535873895
1285.0,0.006361855881563893
1284.0,0.006340266526115803
1283.0,0.006327556890094267
1282.0,0.006323845577291168
1281.0,0.006326308119939792
1280.0,0.006331685899423404
1279.0,0.006338995624980321
1278.0,0.0063485556867207416
1277.0,0.006360198630489488
1276.0,0.006374196781608563
1275.0,0.006392335863144204
1274.0,0.006416030347594958
1273.0,0.00644470141828923
1272.0,0.0064775065475756646
1271.0,0.006515335607747034
1270.0,0.006559742942798957
1269.0,0.0066114211751555525
1268.0,0.006671088678500621
1267.0,0.0067399452198847395
1266.0,0.0068181803166789505
1265.0,0.0069052469822840825
1264.0,0.007003004168449222
1263.0,0.007117184452369205
1262.0,0.007255345510307383
1261.0,0.0074250076551841074
1260.0,0.007633018473309263
1259.0,0.007879896313046295
1258.0,0.008147530006953611
1257.0,0.0083915210863409
1256.0,0.00855175182610132
1255.0,0.008582989853912676
1254.0,0.008485678495489233
1253.0,0.00830692878992143
1252.0,0.008110013338929379
1251.0,0.00794195197703899
1250.0,0.00782077716258231
1249.0,0.007741977000204965
1248.0,0.0076928760708609364
1247.0,0.00766313751778286
1246.0,0.007647240358706991
1245.0,0.00764225794538103
1244.0,0.007645280300556676
1243.0,0.007652601463062366
1242.0,0.007660787764470527
1241.0,0.007668390073445089
1240.0,0.007676232671752025
1239.0,0.007685644610398005
1238.0,0.007696540907302913
1237.0,0.007707555684050118
1236.0,0.007717750975964943
1235.0,0.007727502830546518
1234.0,0.007737719628251283
1233.0,0.007748814907349038
1232.0,0.007760616063996162
1231.0,0.007772826778205006
1230.0,0.007785520685333704
1229.0,0.007799616157355707
1228.0,0.00781702614732921
1227.0,0.007840272981627032
1226.0,0.007871850788939948
1225.0,0.00791336812723717
1224.0,0.007963991878058789
1223.0,0.008018848885848112
1222.0,0.008069638120467917
1221.0,0.008107781240791714
1220.0,0.008127241887847556
1219.0,0.008125210594160976
1218.0,0.0081019855502507
1217.0,0.008061119300930602
1216.0,0.00800885542472927
1215.0,0.007952037391557473
1214.0,0.007895651668040893
1213.0,0.007842442124479461
1212.0,0.007794616609500817
1211.0,0.007754564419991897
1210.0,0.007723343133727864
1209.0,0.007699700098257321
1208.0,0.007681383320013977
1207.0,0.0076665911925734
1206.0,0.007654096897122887
1205.0,0.007643445147176117
1204.0,0.007635715963084174
1203.0,0.007632888563855866
1202.0,0.007635519740660868
1201.0,0.007641774498551784
1200.0,0.007649220330965673
1199.0,0.007656723109270512
1198.0,0.007664413222062811
1197.0,0.007673023577377768
1196.0,0.007683777065732353
1195.0,0.007698034364563108
1194.0,0.00771627350915779
1193.0,0.007737738369396721
1192.0,0.007761298124291306
1191.0,0.007786231219994558
1190.0,0.007812524331712622
1189.0,0.007841394135016309
1188.0,0.007875468358576764
1187.0,0.007917391082306935
1186.0,0.007968039617491606
1185.0,0.008026960810596142
1184.0,0.008094694902066617
1183.0,0.008174116241155223
1182.0,0.008269936233748778
1181.0,0.008388044130249643
1180.0,0.008535531356772876
1179.0,0.008720658718948737
1178.0,0.008953198842114363
1177.0,0.009246009264484975
1176.0,0.009616736265873326
1175.0,0.01008764798354072
1174.0,0.010682864931421891
1173.0,0.01141976569771939
1172.0,0.012291287565644456
1171.0,0.013245462216361668
1170.0,0.014181184982152324
1169.0,0.01497039457166606
1168.0,0.015496854654682288
1167.0,0.015701197280963287
1166.0,0.015610281191738542
1165.0,0.015319806473996927
1164.0,0.014939152008696676
1163.0,0.014550539949176124
1162.0,0.01420425499512254
1161.0,0.013925192903283212
1160.0,0.013716351394871124
1159.0,0.013567053678692199
1158.0,0.013466485068954072
1157.0,0.01340843802130624
1156.0,0.01338430062313508
1155.0,0.013379094676627453
1154.0,0.013376219242385823
1153.0,0.013359827278860606
1152.0,0.013312338630631674
1151.0,0.013219623798259117
1150.0,0.013083336975031357
1149.0,0.01292088458692947
1148.0,0.012750545038994327
1147.0,0.012582635173606277
1146.0,0.012424222116940753
1145.0,0.012282495132543201
1144.0,0.012160090186054975
1143.0,0.012054026287452137
1142.0,0.011962645171167977
1141.0,0.011888771749460028
1140.0,0.011833917827977533
1139.0,0.011794719143498377
1138.0,0.01176789024097907
1137.0,0.011753930347118025
1136.0,0.011753161856362953
1135.0,0.011762675298546299
1134.0,0.011780191956520046
1133.0,0.011806805755545774
1132.0,0.011843123220510024
1131.0,0.011886759821626076
1130.0,0.01193627254760959
1129.0,0.011993235297117901
1128.0,0.012057338911149417
1127.0,0.012123473988375473
1126.0,0.012186792152030916
1125.0,0.012246802042589586
1124.0,0.012304065526242133
1123.0,0.012357760179070441
1122.0,0.012409374493429553
1121.0,0.012463682111151597
1120.0,0.012522763916430781
1119.0,0.01258353997327384
1118.0,0.012643638234409074
1117.0,0.012704641405755753
1116.0,0.012767150066214764
1115.0,0.012828528552360382
1114.0,0.012888914189962089
1113.0,0.012953995599096157
1112.0,0.01302836324059885
1111.0,0.01311133811115463
1110.0,0.01320229377361534
1109.0,0.013304744336991851
1108.0,0.013421651801315226
1107.0,0.013550920080095504
1106.0,0.013686844141454449
1105.0,0.013819094733567194
1104.0,0.013927942423857476
1103.0,0.013989133542911425
1102.0,0.013989243051896649
1101.0,0.01393268870378049
1100.0,0.013833180215825185
1099.0,0.01370687991152883
1098.0,0.01357325529348791
1097.0,0.013449742905817873
1096.0,0.013341663183895213
1095.0,0.013243639669220732
1094.0,0.013151462654814114
1093.0,0.013065568488666206
1092.0,0.012984325881825423
1091.0,0.012903991192075743
1090.0,0.012826357947501222
1089.0,0.012757033665105187
1088.0,0.012694446420821535
1087.0,0.012629681707038907
1086.0,0.012559580052739824
1085.0,0.012490812937571365
1084.0,0.012427542416805971
1083.0,0.012363332157938622
1082.0,0.012289041907143031
1081.0,0.012201746668850343
1080.0,0.012102876910641481
1079.0,0.011994707456734853
1078.0,0.011881865690089692
1077.0,0.011769918203226586
1076.0,0.011659382772278326
1075.0,0.011545875657424078
1074.0,0.011427612781609241
1073.0,0.011307720664811323
1072.0,0.011188499928620916
1071.0,0.011069300787040635
1070.0,0.010951033556005497
1069.0,0.010836862905829912
1068.0,0.01072696599274758
1067.0,0.010617876789191282
1066.0,0.010508772484188732
1065.0,0.010404088401253796
1064.0,0.01030845105165241
1063.0,0.010222642808651329
1062.0,0.010145415869808895
1061.0,0.010075734133252254
1060.0,0.01001210511572095
1059.0,0.009952739714985873
1058.0,0.009897521031779362
1057.0,0.009847551299640538
1056.0,0.009802827062949921
1055.0,0.00976338313591013
1054.0,0.009732551196484293
1053.0,0.009715070521677582
1052.0,0.009710970593934491
1051.0,0.009715381779251908
1050.0,0.009725988307943186
1049.0,0.009745033563811754
1048.0,0.009770346479421594
1047.0,0.009788920166385103
1046.0,0.009782170762895236
1045.0,0.009734229384497682
1044.0,0.009635975861799938
1043.0,0.009489178744854389
1042.0,0.009310180882253685
1041.0,0.009124239284664392
1040.0,0.008951962883932704
1039.0,0.008801023502052757
1038.0,0.0086690201927503
1037.0,0.008550659273875051
1036.0,0.008441532901025157
1035.0,0.00833821179923267
1034.0,0.008237902542209075
1033.0,0.008138377445848189
1032.0,0.008037681402915194
1031.0,0.007934235912067182
1030.0,0.00782747169438992
1029.0,0.007717764731481447
1028.0,0.0076057077104897935
1027.0,0.007492212291191737
1026.0,0.007379354412320686
1025.0,0.007270262653816797
1024.0,0.007167666069778625
1023.0,0.007072554030493476
1022.0,0.0069841142311004144
1021.0,0.006900814088253288
1020.0,0.006821604705794418
1019.0,0.006746424687542399
1018.0,0.006676127027259948
1017.0,0.006612212724542387
1016.0,0.006556320214626156
1015.0,0.006509617913119395
1014.0,0.006473063364856273
1013.0,0.0064486934395975425
1012.0,0.006440055497300661
1011.0,0.006450611723156604
1010.0,0.006482322030914922
1009.0,0.006536996893555301
1008.0,0.006619180542066845
1007.0,0.006737840597519853
1006.0,0.006907347572979587
1005.0,0.007149909732677659
1004.0,0.007498792113472442
1003.0,0.00799720175689688
1002.0,0.00868324552377245
1001.0,0.00955199650220609
1000.0,0.010504922878221773
999.0,0.011332977379680195
998.0,0.011785136403699058
997.0,0.011699893281954586
996.0,0.011097771021230832
995.0,0.010162152819869697
994.0,0.009131490197802407
993.0,0.008187914382742205
992.0,0.007414004015534353
991.0,0.006816529656751023
990.0,0.006367126765015281
989.0,0.006030146072565726
988.0,0.005778243299614232
987.0,0.00559770360888741
986.0,0.005483806129892018
985.0,0.005434828960926374
984.0,0.005452977616344818
983.0,0.00554808183544069
982.0,0.005737432613524869
981.0,0.006043737639806755
980.0,0.006492949488626935
979.0,0.007107027049380946
978.0,0.007891466235761584
977.0,0.008824146960232123
976.0,0.009843401468931716
975.0,0.010830459114729834
974.0,0.011603433518462606
973.0,0.011954548163592352
972.0,0.011738663237359814
971.0,0.010969660344998472
970.0,0.009839384469260266
969.0,0.008618799100189284
968.0,0.007521893177106855
967.0,0.006641921639767465
966.0,0.005975088473464273
965.0,0.005476160935393982
964.0,0.005097800972525675
963.0,0.004802899387958862
962.0,0.004563924974491458
961.0,0.004361964629288286
960.0,0.004186406225929733
959.0,0.004032046705651286
958.0,0.0038951011857291185
957.0,0.003772248191863352
956.0,0.0036623328662548837
955.0,0.003566468259687262
954.0,0.0034855725010015243
953.0,0.0034187156590962465
952.0,0.0033636210127798013
951.0,0.0033173453745426592
950.0,0.0032771282886969707
949.0,0.003242828223937586
948.0,0.0032183296858031884
947.0,0.003208467931517898
946.0,0.003214844022894967
945.0,0.0032364373667079713
944.0,0.0032725695753612572
943.0,0.0033208208741518494
942.0,0.0033712458808727846
941.0,0.0034060750747070476
940.0,0.0034076882068425794
939.0,0.003368109132686277
938.0,0.0032932278383117257
937.0,0.0032000460306905506
936.0,0.0031085620319031516
935.0,0.0030323170182456893
934.0,0.0029738665625251553
933.0,0.002928689123514268
932.0,0.002892164222602086
931.0,0.002861494337429109
930.0,0.0028338349514774345
929.0,0.0028072927822737044
928.0,0.002783563590470557
927.0,0.0027657797361039203
926.0,0.0027534936811106307
925.0,0.0027430575056619413
924.0,0.0027329464353623278
923.0,0.0027252483878472053
922.0,0.0027217923261271095
921.0,0.0027222119480171973
920.0,0.0027259757547873345
919.0,0.002732910467583111
918.0,0.0027415084896925497
917.0,0.0027500673357935077
916.0,0.0027597785041490967
915.0,0.0027735872595584955
914.0,0.0027918675380449167
913.0,0.0028123002548765506
912.0,0.0028339106221803093
911.0,0.0028579045459897054
910.0,0.002885017428039524
909.0,0.0029166185852451043
908.0,0.0029597338570207772
907.0,0.0030281827592993256
906.0,0.0031385172974214863
905.0,0.003306817357290324
904.0,0.0035453422294829525
903.0,0.0038517260451595
902.0,0.0041949479429608085
901.0,0.004513906152474533
900.0,0.004734905503795813
899.0,0.004799961771534317
898.0,0.004692812457860704
897.0,0.004447420759816417
896.0,0.004131708033841685
895.0,0.0038164663527734477
894.0,0.003548516804393314
893.0,0.0033432228190878746
892.0,0.0031956581477738076
891.0,0.003094343073425469
890.0,0.003026791621340963
889.0,0.0029812535453371267
888.0,0.002949460360762937
887.0,0.002927171681629489
886.0,0.0029114501851205832
885.0,0.0028997986200363316
884.0,0.0028921827730157045
883.0,0.002890685414311365
882.0,0.0028962838741772596
881.0,0.0029083842895850876
880.0,0.002927161712406482
879.0,0.002952686850449425
878.0,0.0029817390017917843
877.0,0.0030094170025857774
876.0,0.0030341386558296168
875.0,0.003057551616899294
874.0,0.0030799706543256696
873.0,0.0030999258112076496
872.0,0.003117897072975122
871.0,0.0031365258667845064
870.0,0.0031572542471329434
869.0,0.0031798852171179195
868.0,0.0032045402310192095
867.0,0.003230917881113244
866.0,0.0032570933203450916
865.0,0.0032823739393862145
864.0,0.003309568710286661
863.0,0.003341016718356602
862.0,0.003374582375576793
861.0,0.0034074241643457888
860.0,0.0034411103293657784
859.0,0.0034785788975741187
858.0,0.003518986152840492
857.0,0.00356067174745051
856.0,0.003606176618208793
855.0,0.0036585070178858474
854.0,0.0037155995926580294
853.0,0.00377536199030101
852.0,0.00384377726125857
851.0,0.003931526669778409
850.0,0.0040458120357954016
849.0,0.004193183654272373
848.0,0.004389866321672865
847.0,0.004668935312556195
846.0,0.00508930290276113
845.0,0.005736522317564873
844.0,0.006668386536087761
843.0,0.007795661809351744
842.0,0.008810842464748916
841.0,0.009313015382851307
840.0,0.00908768361093278
839.0,0.008282697707679927
838.0,0.007287289444473863
837.0,0.0064409902837558024
836.0,0.00586459343677123
835.0,0.005510683580997815
834.0,0.005293108130220029
833.0,0.0051530881087235424
832.0,0.0050565841043227495
831.0,0.004983897388033572
830.0,0.004929432221133975
829.0,0.004892997241828189
828.0,0.004867762199343014
827.0,0.0048452568862947226
826.0,0.00482773999328865
825.0,0.004823168091890911
824.0,0.004831038753779325
823.0,0.00484522654050136
822.0,0.004866750505934386
821.0,0.004901940791788958
820.0,0.004952224941092959
819.0,0.005015917464193647
818.0,0.005097241545466957
817.0,0.005206935778766025
816.0,0.005356532769119978
815.0,0.00555631988688389
814.0,0.005813562085170445
813.0,0.006122897092316918
812.0,0.006456076209291355
811.0,0.006765684742332677
810.0,0.007002048167781201
809.0,0.007127844608410223
808.0,0.007125132882643227
807.0,0.007003063194222678
806.0,0.006801158870571415
805.0,0.0065734035029506015
804.0,0.006362601951288642
803.0,0.006189620056527069
802.0,0.006059709457077659
801.0,0.005969191052366211
800.0,0.005907093253445617
799.0,0.00585977826567002
798.0,0.005818861521505065
797.0,0.005782893891388826
796.0,0.00575190628322771
795.0,0.0057245221301276804
794.0,0.005700223876703103
793.0,0.005679769182934913
792.0,0.005662501988426712
791.0,0.0056464971138471196
790.0,0.005631318300230703
789.0,0.005617581726452527
788.0,0.005604427966767404
787.0,0.00559071465593583
786.0,0.005577880526919642
785.0,0.005568232322876874
784.0,0.005561424758101107
783.0,0.005555890655436236
782.0,0.005552225307666466
781.0,0.005551481611985459
780.0,0.005551925996544563
779.0,0.005551939284225829
778.0,0.005554536866061022
777.0,0.005564057855961592
776.0,0.00557935020653484
775.0,0.0055950299685460225
774.0,0.005608734947589719
773.0,0.005622412289409878
772.0,0.005637248776528181
771.0,0.005652495279488693
770.0,0.005668874014945641
769.0,0.0056879765928785665
768.0,0.00570844447795143
767.0,0.005727664448295535
766.0,0.005746786992482012
765.0,0.005768807931872014
764.0,0.005792263237706008
763.0,0.00581263798812043
762.0,0.005829903915740793
761.0,0.005848675039943572
760.0,0.005870525827068278
759.0,0.005892181536382712
758.0,0.005912077266865658
757.0,0.005932723385918912
756.0,0.005955490094986382
755.0,0.005978898524024008
754.0,0.006003263098733563
753.0,0.006031164735890502
752.0,0.006061887967423039
751.0,0.00609105930423426
750.0,0.006117229782748201
749.0,0.0061432667823909486
748.0,0.006170026357413219
747.0,0.006194561490614182
746.0,0.006216204578917608
745.0,0.006238251013676151
744.0,0.006261251865202547
743.0,0.006280436392285213
742.0,0.006292630075912697
741.0,0.006300691000981726
740.0,0.00630854559256715
739.0,0.00631677389799085
738.0,0.006325267637102972
737.0,0.006335214989761782
736.0,0.006346246506884321
735.0,0.006356009124924324
734.0,0.006364167849257869
733.0,0.006372610706552118
732.0,0.006381152212371394
731.0,0.006388391677618463
730.0,0.006397318993805514
729.0,0.006413561149792057
728.0,0.006436728519624473
727.0,0.006460074387022738
726.0,0.006480318594121371
725.0,0.006500727931830843
724.0,0.006522554308294754
723.0,0.006541183423337864
722.0,0.006553885804074646
721.0,0.0065648412086173474
720.0,0.006578466166424849
719.0,0.006593215303551303
718.0,0.006606543859684132
717.0,0.006620064572415551
716.0,0.006635351052530991
715.0,0.006650084653002538
714.0,0.006661930613112413
713.0,0.006671925256103406
712.0,0.006681432078241534
711.0,0.0066905942196930045
710.0,0.00670212501978653
709.0,0.006720940997297661
708.0,0.006747131268714571
707.0,0.006773947284152489
706.0,0.006795315829224406
705.0,0.006811276296971374
704.0,0.006824366090019162
703.0,0.006835988440257484
702.0,0.006848071118786991
701.0,0.006862187271693656
700.0,0.006875185980762127
699.0,0.006881644753594776
698.0,0.006881706345776346
697.0,0.0068800007528607866
696.0,0.006876011206189249
695.0,0.006864081759817366
694.0,0.00684502441451354
693.0,0.006828350051235237
692.0,0.006819934313310088
691.0,0.0068162111378425715
690.0,0.00681381897047564
689.0,0.00681537588349832
688.0,0.0068199477986347675
687.0,0.00681859981998148
686.0,0.006808072919684827
685.0,0.00679818174353408
684.0,0.006797919393590222
683.0,0.006803953607497259
682.0,0.006808521728458703
681.0,0.0068102161491153616
680.0,0.006811511893045526
679.0,0.006812816367678554
678.0,0.006813947844144094
677.0,0.0068164385383420074
676.0,0.006819738611421825
675.0,0.006820510935746109
674.0,0.006818428431121574
673.0,0.006815185869101532
672.0,0.006806301996762947
671.0,0.006786100777564304
670.0,0.006760178971364612
669.0,0.0067472436922455855
668.0,0.006750099179433682
667.0,0.006751192797714561
666.0,0.006747291374174357
665.0,0.006739979948855205
664.0,0.006729390046476599
663.0,0.0067136130310459455
662.0,0.006694955651924787
661.0,0.006681216315570029
660.0,0.006675528856187359
659.0,0.006670713822160194
658.0,0.006661100955432183
657.0,0.006649853180085671
656.0,0.006638593442396425
655.0,0.006620855875982478
654.0,0.006594989185918644
653.0,0.006570066319181401
652.0,0.006551478687282451
651.0,0.0065334769807883514
650.0,0.0065127330599062845
649.0,0.006495394203324661
648.0,0.006482678201531112
647.0,0.0064631671848514385
646.0,0.006427812180870256
645.0,0.0063791470255315594
644.0,0.0063198098670084624
643.0,0.006248471074784429
642.0,0.006173173484051648
641.0,0.006112396232114618
640.0,0.006075570397428308
639.0,0.006053784994974684
638.0,0.00603470147709167
637.0,0.006015706229138116
636.0,0.005996963881249824
635.0,0.005975490541364266
634.0,0.005952909126234626
633.0,0.005934387784278327
632.0,0.0059145848885873015
631.0,0.005880931725949827
630.0,0.005835488592723226
629.0,0.005794462725754634
628.0,0.005760582387727106
627.0,0.005714965714798185
626.0,0.005643467989924534
625.0,0.005552371375477615
624.0,0.005448951271152304
623.0,0.005331347466981872
622.0,0.005208087121640422
621.0,0.00510152881508991
620.0,0.005023081274756966
619.0,0.004966979255590335
618.0,0.004932507323508363
617.0,0.004927628245232763
616.0,0.004941904121614009
615.0,0.004943979216548025
614.0,0.004920717001900391
613.0,0.004892739741721596
612.0,0.00488136714073752
611.0,0.004886635167691968
610.0,0.0049037551663191955
609.0,0.004935110351663148
608.0,0.00497488125728361
607.0,0.005005877030414151
606.0,0.005028135312442257
605.0,0.00506505974191024
604.0,0.00512233753377187
603.0,0.005169024118605656
602.0,0.0051784462276634885
601.0,0.0051600903181109326
600.0,0.0051332066372017145
599.0,0.005097371711302938
598.0,0.00504507997062285
597.0,0.004980484249077221
596.0,0.004910024448866282
595.0,0.004833282024865947
594.0,0.004752090208726601
593.0,0.004669245643173179
592.0,0.004574313175521405
591.0,0.004456764332375688
590.0,0.00433893390461196
589.0,0.00426209277226027
588.0,0.004235125335954486
587.0,0.00422165370403039
586.0,0.004181873512579306
585.0,0.004111323671158669
584.0,0.004023491245348168
583.0,0.003917211476359921
582.0,0.003784986044774067
581.0,0.0036341648774470383
580.0,0.0034834510207540116
579.0,0.0033488050729074577
578.0,0.003234722880665869
577.0,0.003132909176610278
576.0,0.0030322903853201803
575.0,0.0029364650149050295
574.0,0.002863653890360243
573.0,0.002824467425560845
572.0,0.0028115350018515627
571.0,0.0028096518977741023
570.0,0.002809325538135418
569.0,0.0028111868053846256
568.0,0.0028162019266208945
567.0,0.002819099903998353
566.0,0.002815486206943372
565.0,0.002803130082575116
564.0,0.0027757822210257785
563.0,0.002730489751819309
562.0,0.0026831394352058967
561.0,0.002657048800380036
560.0,0.0026536895228809095
559.0,0.0026471086095845647
558.0,0.0026105732559001255
557.0,0.0025447148870423935
556.0,0.0024731052784486415
555.0,0.00242632187369355
554.0,0.002425001926763054
553.0,0.0024560301198482794
552.0,0.0024708535049898055
551.0,0.00242420273865444
550.0,0.0023283158239954856
