cm-1,A
4000.0,0.003713413002673728
3999.0,0.0037177627734482164
3998.0,0.0037112386873487477
3997.0,0.00370019096493847
3996.0,0.003694141370140548
3995.0,0.00369797656104664
3994.0,0.0037071952789367313
3993.0,0.003712734908861856
3992.0,0.0037095961991186147
3991.0,0.003700308596666046
3990.0,0.003691005982448795
3989.0,0.0036848741993833426
3988.0,0.0036812758175448525
3987.0,0.0036795435430714597
3986.0,0.003681079845423362
3985.0,0.003687837546598932
3984.0,0.003698959504211551
3983.0,0.0037098713605971563
3982.0,0.0037152193832057524
3981.0,0.0037124735256691185
3980.0,0.0037043069051192496
3979.0,0.0036968008983997245
3978.0,0.003695055328313242
3977.0,0.003699184749676211
3976.0,0.0037044201937875988
3975.0,0.003706279579247679
3974.0,0.0037042230838960806
3973.0,0.003701168860678292
3972.0,0.003699836052819424
3971.0,0.0037010791940761036
3970.0,0.003704780533258149
3969.0,0.003709695513508811
3968.0,0.003712842018376912
3967.0,0.0037108170662219515
3966.0,0.003703640486278661
3965.0,0.0036955576603964653
3964.0,0.00369124315811257
3963.0,0.0036916406642301097
3962.0,0.0036937805016748343
3961.0,0.0036953446066696396
3960.0,0.0036966187227903333
3959.0,0.0036988699620527712
3958.0,0.0037026436439234114
3957.0,0.0037068745420369403
3956.0,0.003709345942860983
3955.0,0.003707428468693378
3954.0,0.0036997264335104103
3953.0,0.0036882307152929054
3952.0,0.0036787305062162858
3951.0,0.0036777951705609484
3950.0,0.003687482951791365
3949.0,0.0037026746920604866
3948.0,0.0037171172190852645
3947.0,0.003727998498435626
3946.0,0.0037337475323399386
3945.0,0.003732774454644752
3944.0,0.0037242942330709718
3943.0,0.0037115705907324603
3942.0,0.0037018229371174067
3941.0,0.0037000397637540275
3940.0,0.003704526654226341
3939.0,0.0037105769406873997
3938.0,0.0037172850814931845
3937.0,0.0037264949763472603
3936.0,0.003737270051938777
3935.0,0.00374566551079121
3934.0,0.0037497113238994014
3933.0,0.003750763979613228
3932.0,0.0037499397239456403
3931.0,0.003748203198483832
3930.0,0.0037461804261396826
3929.0,0.0037431514472131035
3928.0,0.003735355387791706
3927.0,0.0037178228357169427
3926.0,0.003693071329104125
3925.0,0.003673021668779657
3924.0,0.003670184566706595
3923.0,0.003683958725443269
3922.0,0.003700736643623005
3921.0,0.00371148577405128
3920.0,0.0037193864345895344
3919.0,0.0037301191140291113
3918.0,0.0037410432698890845
3917.0,0.003744030946441993
3916.0,0.003738408868310967
3915.0,0.003730193588823408
3914.0,0.003722306291847879
3913.0,0.003715694967564709
3912.0,0.0037114153689950455
3911.0,0.003710211385848799
3910.0,0.003711239611930676
3909.0,0.0037125806233521876
3908.0,0.0037141160177161115
3907.0,0.003715887584606229
3906.0,0.0037172436646857408
3905.0,0.0037159204553541634
3904.0,0.0037107443382403665
3903.0,0.0037030596918152317
3902.0,0.0036930018241414283
3901.0,0.003679317570695227
3900.0,0.0036682679566781666
3899.0,0.0036732267958999674
3898.0,0.0036983426089833536
3897.0,0.0037315042122872608
3896.0,0.0037566336254781854
3895.0,0.0037675995350019975
3894.0,0.003766517287909381
3893.0,0.003755702454202184
3892.0,0.003737384038863468
3891.0,0.0037246973507390375
3890.0,0.003733558780325519
3889.0,0.0037537198385347303
3888.0,0.0037609284940888655
3887.0,0.0037505252885537323
3886.0,0.0037363900221151665
3885.0,0.0037301589387819713
3884.0,0.003728403081814387
3883.0,0.0037143332468700177
3882.0,0.003683887441149043
3881.0,0.0036579592782478073
3880.0,0.0036605686846258624
3879.0,0.0036953927185845135
3878.0,0.003737187441543737
3877.0,0.0037551281576986614
3876.0,0.003745776382079187
3875.0,0.003729513479921155
3874.0,0.0037248113176362174
3873.0,0.003730874158297405
3872.0,0.0037312273735325124
3871.0,0.0037171335504691
3870.0,0.0037054711071945034
3869.0,0.0037209070182445143
3868.0,0.0037577272801013733
3867.0,0.003780153578537197
3866.0,0.0037756851729605044
3865.0,0.0037672190760686085
3864.0,0.0037703272658543285
3863.0,0.0037774544159274327
3862.0,0.003780369912850346
3861.0,0.003781541591275566
3860.0,0.00378570367191052
3859.0,0.003792091109426649
3858.0,0.003796792523788282
3857.0,0.0037977344680989907
3856.0,0.0037991071338501457
3855.0,0.003810760921075129
3854.0,0.0038258477580483553
3853.0,0.0038184444995021088
3852.0,0.0038087481603545047
3851.0,0.00381224170182321
3850.0,0.0038079234746961465
3849.0,0.003800827570482085
3848.0,0.0038019380273544047
3847.0,0.00380894636362796
3846.0,0.003811653351160009
3845.0,0.0038057452800267667
3844.0,0.003796736861871408
3843.0,0.00379408111202568
3842.0,0.0038008362262580055
3841.0,0.0038094978957102944
3840.0,0.0038105420147899055
3839.0,0.0038036818397155364
3838.0,0.0037981334935082867
3837.0,0.003802382200653886
3836.0,0.0038155540543578087
3835.0,0.0038297445863286726
3834.0,0.003841361052832514
3833.0,0.0038525365734831517
3832.0,0.0038650576342959524
3831.0,0.0038763795448791064
3830.0,0.003880004719321555
3829.0,0.0038700640626801053
3828.0,0.0038487084964361103
3827.0,0.003830194571155415
3826.0,0.003832402064392568
3825.0,0.0038589290114807127
3824.0,0.0038940167857315477
3823.0,0.003924153948179411
3822.0,0.003947574621886508
3821.0,0.003960312396561593
3820.0,0.003968868318099731
3819.0,0.00397562893396719
3818.0,0.003962653175328493
3817.0,0.003939126394117075
3816.0,0.003935793117736406
3815.0,0.00396053772893163
3814.0,0.00398899788070653
3813.0,0.003991372946987872
3812.0,0.003971465004526676
3811.0,0.003955810944359308
3810.0,0.0039586055564591275
3809.0,0.003970947078493985
3808.0,0.0039789834501802405
3807.0,0.00398613668979262
3806.0,0.004006760995381451
3805.0,0.00403658975879405
3804.0,0.00404924888615832
3803.0,0.004035137083238952
3802.0,0.004012807783550891
3801.0,0.004004439688249805
3800.0,0.004019489980785135
3799.0,0.004032723044221588
3798.0,0.004015710859126236
3797.0,0.00398037339844951
3796.0,0.0039557892900638335
3795.0,0.003954977757216744
3794.0,0.003965929577659576
3793.0,0.003973203878263757
3792.0,0.003976493179335527
3791.0,0.003982100226310627
3790.0,0.003990177214235351
3789.0,0.003997039583818678
3788.0,0.004000911514761044
3787.0,0.004002612968292961
3786.0,0.004002875342598418
3785.0,0.0040028512295813435
3784.0,0.004006216662287251
3783.0,0.004013758686895288
3782.0,0.004018998563576846
3781.0,0.004017402239005291
3780.0,0.004012565616665284
3779.0,0.00401270851412357
3778.0,0.00402210413536319
3777.0,0.00403354836354812
3776.0,0.004037346862562994
3775.0,0.004036342163535834
3774.0,0.004042472008082252
3773.0,0.004058063850756265
3772.0,0.004072751769041974
3771.0,0.004077683270408311
3770.0,0.004075968702857766
3769.0,0.004076648023961743
3768.0,0.004082072024556113
3767.0,0.004086456196822999
3766.0,0.004091059997188635
3765.0,0.004103933775578446
3764.0,0.004125087424110481
3763.0,0.004141989933697219
3762.0,0.004143750857776629
3761.0,0.0041368108714865525
3760.0,0.004133748062844776
3759.0,0.004133726647261663
3758.0,0.0041322521077115145
3757.0,0.004132161681431828
3756.0,0.004134855704424465
3755.0,0.00413548806478781
3754.0,0.004134123882096854
3753.0,0.004145769067489539
3752.0,0.004181617253651159
3751.0,0.004220772015707025
3750.0,0.004240466351090391
3749.0,0.004250932458865309
3748.0,0.0042582262069858
3747.0,0.004250018349567005
3746.0,0.004231254276872256
3745.0,0.004230400899181126
3744.0,0.004261171350633749
3743.0,0.004309017038598352
3742.0,0.004338614513680008
3741.0,0.004331804322220597
3740.0,0.004312651263185951
3739.0,0.004305147173324288
3738.0,0.004312180711536759
3737.0,0.004326079038825734
3736.0,0.004336461441595517
3735.0,0.0043303339749583
3734.0,0.004314767737536284
3733.0,0.004314528835524915
3732.0,0.004342307484439841
3731.0,0.004390901480346541
3730.0,0.004439709895635005
3729.0,0.004470447073712946
3728.0,0.004479552695431387
3727.0,0.004476226358325385
3726.0,0.004470159800251207
3725.0,0.004463320210213961
3724.0,0.004452164701274143
3723.0,0.004435722751094353
3722.0,0.004417338859648703
3721.0,0.004401698198299716
3720.0,0.004389594191478106
3719.0,0.004379698155294626
3718.0,0.0043740564804777265
3717.0,0.004377009569728035
3716.0,0.004387521163784647
3715.0,0.004401128339702498
3714.0,0.004426317788601178
3713.0,0.004483074723936723
3712.0,0.004567719650284309
3711.0,0.0046404121404319005
3710.0,0.004678220419708183
3709.0,0.004695608251566938
3708.0,0.004709857267890392
3707.0,0.004728890324896451
3706.0,0.004753439381522671
3705.0,0.004778610930059312
3704.0,0.004797753842146835
3703.0,0.004811013997017534
3702.0,0.004827513246263687
3701.0,0.00485763837975315
3700.0,0.004900059743895468
3699.0,0.004936413982784001
3698.0,0.004949118687455815
3697.0,0.004939579317497007
3696.0,0.00492130617505232
3695.0,0.0049023509019856856
3694.0,0.004879773134032369
3693.0,0.004848924856033587
3692.0,0.004807916010514423
3691.0,0.004756321436956328
3690.0,0.004699136069689922
3689.0,0.004657034942215539
3688.0,0.00465328947635359
3687.0,0.004679243151996807
3686.0,0.004701430400586803
3685.0,0.004702413121668511
3684.0,0.00469191082073897
3683.0,0.004685941350528857
3682.0,0.00468832212185126
3681.0,0.004692799340707748
3680.0,0.0046974550833160395
3679.0,0.004704731268956441
3678.0,0.00470910116069246
3677.0,0.0047018241673840964
3676.0,0.004679422006439983
3675.0,0.0046599427818526
3674.0,0.0046727369326537704
3673.0,0.0046965740177416365
3672.0,0.004693584919302135
3671.0,0.0046768734544777955
3670.0,0.00467391348128946
3669.0,0.004689408087951584
3668.0,0.004713070017940394
3667.0,0.004725701874509073
3666.0,0.004722820388812771
3665.0,0.004718988114883565
3664.0,0.004725951189853738
3663.0,0.00474103905315347
3662.0,0.0047551150739728685
3661.0,0.004764490078187741
3660.0,0.00477179380957847
3659.0,0.004778521952342896
3658.0,0.00478476678369086
3657.0,0.004793161636294325
3656.0,0.004808102793519705
3655.0,0.00482931034982432
3654.0,0.004843468941318091
3653.0,0.0048383203431128854
3652.0,0.00482870502897627
3651.0,0.004848916757633409
3650.0,0.004893513746098621
3649.0,0.004905163852713416
3648.0,0.004870911182102347
3647.0,0.004840103581020548
3646.0,0.00484021873684316
3645.0,0.004858710358535958
3644.0,0.004876754030434196
3643.0,0.0048874605690459386
3642.0,0.004891229156854568
3641.0,0.0048870687276414936
3640.0,0.004873096535323768
3639.0,0.00485239617579445
3638.0,0.004835348607198657
3637.0,0.004831301869291253
3636.0,0.0048401088261906325
3635.0,0.00485465444862751
3634.0,0.004867316904701949
3633.0,0.0048727556403158415
3632.0,0.0048674070115074484
3631.0,0.004859177812123014
3630.0,0.004871228344780973
3629.0,0.004906767425622481
3628.0,0.004941524908212289
3627.0,0.004964942912388852
3626.0,0.004967889057191765
3625.0,0.004951926479182814
3624.0,0.004933674542571414
3623.0,0.004918956977018099
3622.0,0.004898823485104129
3621.0,0.00486685609239049
3620.0,0.0048317199766076385
3619.0,0.004808240367719735
3618.0,0.004805567663473799
3617.0,0.004817392802545551
3616.0,0.004825499646357444
3615.0,0.004819068268336843
3614.0,0.00480153965613837
3613.0,0.004783443519035747
3612.0,0.004772467051925
3611.0,0.004766755843073043
3610.0,0.004762003843109047
3609.0,0.004757237617035772
3608.0,0.004750226555107363
3607.0,0.0047387009010794075
3606.0,0.004725321237882826
3605.0,0.004713773011096347
3604.0,0.004706964701163921
3603.0,0.004706389791809264
3602.0,0.0047096856958961306
3601.0,0.004710664286678766
3600.0,0.00470535997314139
3599.0,0.004695310871494662
3598.0,0.004687257269975115
3597.0,0.004689112072507337
3596.0,0.0047008061507704535
3595.0,0.004709920420186182
3594.0,0.004702957946647645
3593.0,0.004681440399658983
3592.0,0.00465802369580991
3591.0,0.004641901031184021
3590.0,0.004635609771940224
3589.0,0.004637375287247756
3588.0,0.00463572597718059
3587.0,0.004621373627431934
3586.0,0.004605707620306728
3585.0,0.004599257112195379
3584.0,0.00459572052333433
3583.0,0.004588086012318422
3582.0,0.004577081330842997
3581.0,0.004567259430374636
3580.0,0.0045628851400957
3579.0,0.004564957938340506
3578.0,0.004569571240761884
3577.0,0.004571361385150619
3576.0,0.004568424552419856
3575.0,0.004564831034807981
3574.0,0.004566281010977882
3573.0,0.004572895822485533
3572.0,0.00457730628430765
3571.0,0.004571060493724591
3570.0,0.00455332354761314
3569.0,0.0045339847727338106
3568.0,0.004520780517535655
3567.0,0.004504986655257115
3566.0,0.004482128485420213
3565.0,0.004465901357578678
3564.0,0.004465321024879839
3563.0,0.004477929702867691
3562.0,0.004497333574766971
3561.0,0.004516519144963944
3560.0,0.004529223821600542
3559.0,0.004533433036197371
3558.0,0.004532588429140777
3557.0,0.004531912479398478
3556.0,0.004533558560849913
3555.0,0.004534401359284613
3554.0,0.004529358258975514
3553.0,0.004517965745833448
3552.0,0.004507191440516057
3551.0,0.004504054165010266
3550.0,0.004506294916507428
3549.0,0.004506682758861307
3548.0,0.004504089124809098
3547.0,0.00450332522267699
3546.0,0.004505948733958825
3545.0,0.004507612382507471
3544.0,0.004504985932312796
3543.0,0.004500116266799333
3542.0,0.004497412044028608
3541.0,0.004499025855015543
3540.0,0.0045030891072494
3539.0,0.004506003977660673
3538.0,0.004507291110851732
3537.0,0.004509833480823474
3536.0,0.004515884840617157
3535.0,0.004524164516984371
3534.0,0.004532028067953466
3533.0,0.004538807295530519
3532.0,0.00454489052817106
3531.0,0.0045482276664320885
3530.0,0.0045450184297137555
3529.0,0.004536382568342726
3528.0,0.004529966616681072
3527.0,0.004532219419813252
3526.0,0.004540417041267444
3525.0,0.004545791615640553
3524.0,0.004542409399447578
3523.0,0.004531645523789488
3522.0,0.0045195035027324505
3521.0,0.004511148786171296
3520.0,0.004508337423426724
3519.0,0.004510430838024906
3518.0,0.004516223641135105
3517.0,0.00452458306348073
3516.0,0.004534292277904865
3515.0,0.004543691204054007
3514.0,0.004551000538023401
3513.0,0.004554891105347314
3512.0,0.004554667136226039
3511.0,0.004550204061199705
3510.0,0.004542500395779338
3509.0,0.0045346764323810195
3508.0,0.004530306774000037
3507.0,0.004529884885421824
3506.0,0.0045309501544677725
3505.0,0.0045320437522588745
3504.0,0.004533935251340252
3503.0,0.004537237955389534
3502.0,0.004541597603182946
3501.0,0.004546759016274524
3500.0,0.004552107735594307
3499.0,0.004556607453101805
3498.0,0.004559726298858259
3497.0,0.004561806790209335
3496.0,0.004563835965634269
3495.0,0.004566791047882698
3494.0,0.004571464710867612
3493.0,0.004578663953862394
3492.0,0.004588155726777203
3491.0,0.00459697644931167
3490.0,0.00460029703390084
3489.0,0.004595590155008541
3488.0,0.004585878976892168
3487.0,0.004577875002972444
3486.0,0.004576280101446544
3485.0,0.004580425618981044
3484.0,0.0045861067281693976
3483.0,0.0045890890649354175
3482.0,0.0045876186089024405
3481.0,0.004583494465364178
3480.0,0.004580732552034308
3479.0,0.0045825650313150845
3478.0,0.004589116042759174
3477.0,0.00459762026057531
3476.0,0.004604699738604065
3475.0,0.0046091109220629985
3474.0,0.004612690747641797
3473.0,0.004617749531058672
3472.0,0.004623345204793213
3471.0,0.004625541710068012
3470.0,0.0046222102718786445
3469.0,0.004616750070555757
3468.0,0.004615722127791544
3467.0,0.004622375947810984
3466.0,0.004633069835203419
3465.0,0.00464023343634532
3464.0,0.004638848843868011
3463.0,0.004630334700045431
3462.0,0.004620662885995141
3461.0,0.004615065188612089
3460.0,0.004614871488756811
3459.0,0.0046188936840544925
3458.0,0.0046257582021149105
3457.0,0.004633366736953229
3456.0,0.0046380809081842545
3455.0,0.004637144926808487
3454.0,0.004632532237510294
3453.0,0.004630233895852105
3452.0,0.0046341163531390655
3451.0,0.0046416287095815655
3450.0,0.004646742989784616
3449.0,0.004646654010651388
3448.0,0.004643710262800825
3447.0,0.004641502887437627
3446.0,0.004641107282015519
3445.0,0.004641152747390994
3444.0,0.004639875009434143
3443.0,0.004636994999453983
3442.0,0.004633975672787609
3441.0,0.0046327518147712635
3440.0,0.004633954783641505
3439.0,0.004635801356093365
3438.0,0.00463538757790794
3437.0,0.004631492688865103
3436.0,0.004625584344652503
3435.0,0.0046193235130267945
3434.0,0.004612277063678455
3433.0,0.004603245424287996
3432.0,0.004593041887700362
3431.0,0.004584596836367997
3430.0,0.004580180004506586
3429.0,0.004579809032088534
3428.0,0.004581811711378966
3427.0,0.00458429175783173
3426.0,0.0045864459817852535
3425.0,0.004589112180564372
3424.0,0.004593383198273314
3423.0,0.004597726171524288
3422.0,0.004597368310864967
3421.0,0.0045881439632254085
3420.0,0.004571170395864001
3419.0,0.004552641251153171
3418.0,0.004539641940795345
3417.0,0.004536739200182972
3416.0,0.004544053442748176
3415.0,0.004556145419053938
3414.0,0.004564288656685867
3413.0,0.004563048805824747
3412.0,0.004554909485943384
3411.0,0.004547193793960368
3410.0,0.004544722002082103
3409.0,0.004546385185683188
3408.0,0.004547919814105884
3407.0,0.004545987507123634
3406.0,0.0045398962666868825
3405.0,0.004531764863447581
3404.0,0.004525927744935893
3403.0,0.004526254426291135
3402.0,0.004532858098282076
3401.0,0.004542013897862669
3400.0,0.004549856125872023
3399.0,0.004555452678977459
3398.0,0.004559879275184656
3397.0,0.004563578982003583
3396.0,0.0045656057643739326
3395.0,0.004565096147623387
3394.0,0.004562300597360168
3393.0,0.004558105618251193
3392.0,0.0045535719720995824
3391.0,0.004550312768192174
3390.0,0.00455021480153499
3389.0,0.0045539211599504095
3388.0,0.004559807660911587
3387.0,0.00456486094612606
3386.0,0.004566796108469164
3385.0,0.004565137775301049
3384.0,0.00456057599518001
3383.0,0.004554248238881202
3382.0,0.004548028857861987
3381.0,0.004544440278129823
3380.0,0.0045449974945785225
3379.0,0.004548514230011002
3378.0,0.004551674270330536
3377.0,0.004551958223480264
3376.0,0.004550071438077324
3375.0,0.004549326297179593
3374.0,0.004552158539108427
3373.0,0.0045572620728817695
3372.0,0.0045607889462985895
3371.0,0.004560540465375733
3370.0,0.004557937464634844
3369.0,0.004555173526276596
3368.0,0.004552042184877177
3367.0,0.004547553980494681
3366.0,0.004543618258049175
3365.0,0.004543812754857995
3364.0,0.004547869717227562
3363.0,0.0045500432110612745
3362.0,0.00454460114075439
3361.0,0.004531749420143536
3360.0,0.004517095545589302
3359.0,0.004506526286815946
3358.0,0.004502754872603454
3357.0,0.004505137206724899
3356.0,0.004510261912456287
3355.0,0.004513205401150166
3354.0,0.004510696157690385
3353.0,0.004503844153175963
3352.0,0.004496777100200725
3351.0,0.004492400565686949
3350.0,0.004490401803780405
3349.0,0.004489308925040078
3348.0,0.00448891381325244
3347.0,0.0044896695995053654
3346.0,0.004490988898982506
3345.0,0.004491641651193439
3344.0,0.004491696771178109
3343.0,0.004492705704660609
3342.0,0.0044954048823737085
3341.0,0.0044980989251032985
3340.0,0.004498191034098247
3339.0,0.004495236787548597
3338.0,0.004491439379517511
3337.0,0.0044888309874416745
3336.0,0.0044871088246981
3335.0,0.004485335209042186
3334.0,0.00448485027003878
3333.0,0.0044885605007533615
3332.0,0.004497024240861512
3331.0,0.004506503279745493
3330.0,0.004511650830398962
3329.0,0.0045098669225983375
3328.0,0.004503041472699594
3327.0,0.00449572756726215
3326.0,0.00449177757263622
3325.0,0.0044917613613502105
3324.0,0.004492905643863189
3323.0,0.004491765137984896
3322.0,0.0044871967594623564
3321.0,0.004480678351759538
3320.0,0.00447431986923762
3319.0,0.004469689220818886
3318.0,0.00446817522136078
3317.0,0.004470531655430168
3316.0,0.004475280341713366
3315.0,0.004479037988814855
3314.0,0.004479548808631308
3313.0,0.004477689398123149
3312.0,0.004475807919540269
3311.0,0.004475097850892045
3310.0,0.004475364032868278
3309.0,0.004476025632881008
3308.0,0.004475909890488426
3307.0,0.004473106064073192
3306.0,0.004466877417648035
3305.0,0.004459544782568877
3304.0,0.004455076186118135
3303.0,0.004455725282597132
3302.0,0.004460876150733347
3301.0,0.0044684313062110965
3300.0,0.004475647088231418
3299.0,0.004478926414079843
3298.0,0.004475428440473932
3297.0,0.004466415211615749
3296.0,0.004457739475709186
3295.0,0.004455273280608319
3294.0,0.004459537169531003
3293.0,0.004465347949402494
3292.0,0.0044667524112785885
3291.0,0.004462003240164054
3290.0,0.0044537992037870615
3289.0,0.004445648999608216
3288.0,0.004439088101101886
3287.0,0.004434227118697669
3286.0,0.004431459080595435
3285.0,0.0044313342082696085
3284.0,0.004433131044436166
3283.0,0.004435138963620624
3282.0,0.0044367588524663135
3281.0,0.0044390817008685066
3280.0,0.004442837659245543
3279.0,0.004446924107018857
3278.0,0.004449819610765177
3277.0,0.00445137145899562
3276.0,0.0044521632071846985
3275.0,0.004451974502557096
3274.0,0.0044501354239147445
3273.0,0.00444691523136769
3272.0,0.004443320967359443
3271.0,0.004439801010081375
3270.0,0.004436297371109888
3269.0,0.004433392186652443
3268.0,0.004432166823823644
3267.0,0.0044327324556935575
3266.0,0.004433823979739555
3265.0,0.004434090546323637
3264.0,0.004432966422144614
3263.0,0.00443031712356309
3262.0,0.0044261580891928436
3261.0,0.0044210873092160475
3260.0,0.004416295600171797
3259.0,0.004412580417208807
3258.0,0.004409780599494841
3257.0,0.004407755661958739
3256.0,0.0044077326929961875
3255.0,0.004411362530898889
3254.0,0.004417589405203797
3253.0,0.004421201389038416
3252.0,0.004416373571490304
3251.0,0.004402505938116778
3250.0,0.0043857828278982686
3249.0,0.004374218451047865
3248.0,0.004371302915546762
3247.0,0.004374540946574166
3246.0,0.0043785758203154085
3245.0,0.004378463601425221
3244.0,0.004371659342549555
3243.0,0.004359895265052234
3242.0,0.004349305082382727
3241.0,0.00434606639184134
3240.0,0.004350344806747494
3239.0,0.004355677758644323
3238.0,0.0043552060713819805
3237.0,0.004347322781693934
3236.0,0.004334819265617032
3235.0,0.004320656260465967
3234.0,0.004306671801714434
3233.0,0.004295132626448954
3232.0,0.0042886815538820434
3231.0,0.004287947783572473
3230.0,0.004290656422268994
3229.0,0.004294234895685674
3228.0,0.004298524598280878
3227.0,0.004304522160887942
3226.0,0.0043103098888839005
3225.0,0.00431014110636775
3224.0,0.0042999978876209315
3223.0,0.004284196724265462
3222.0,0.004273634808673361
3221.0,0.0042751132108290076
3220.0,0.0042836591332597925
3219.0,0.004288328171842493
3218.0,0.0042849111259315
3217.0,0.004279452788803829
3216.0,0.004279277062448971
3215.0,0.004283964249930529
3214.0,0.00428668428987704
3213.0,0.004282329857907174
3212.0,0.0042725208953635005
3211.0,0.004263822741991984
3210.0,0.00426255805294852
3209.0,0.00427013938217384
3208.0,0.004281722767578013
3207.0,0.00428968876005412
3206.0,0.004289375377283761
3205.0,0.0042817295497071875
3204.0,0.004271209318215478
3203.0,0.004262586489339311
3202.0,0.004259318657944062
3201.0,0.004262049006070412
3200.0,0.004266879422242515
3199.0,0.004266881882682429
3198.0,0.004257916127659399
3197.0,0.00424289390424616
3196.0,0.004228923353795107
3195.0,0.004220343199701434
3194.0,0.004215428551083663
3193.0,0.00420904052361149
3192.0,0.00419735298613292
3191.0,0.004180684112177943
3190.0,0.0041631157752528
3189.0,0.0041493497817847134
3188.0,0.0041410787956676146
3187.0,0.004136419729900637
3186.0,0.004132800386192558
3185.0,0.004129380440207921
3184.0,0.004125924121549197
3183.0,0.004120567654453273
3182.0,0.004110888113761188
3181.0,0.004097580483089688
3180.0,0.004085582991509844
3179.0,0.004079868757660216
3178.0,0.0040800091016060715
3177.0,0.004080098030896902
3176.0,0.004074885590677936
3175.0,0.004065378639493848
3174.0,0.00405766602726944
3173.0,0.004056823964488934
3172.0,0.004063174698757416
3171.0,0.004074264866779573
3170.0,0.0040883981870461356
3169.0,0.004104938005481297
3168.0,0.0041225989731751116
3167.0,0.004139594281262244
3166.0,0.00415510678165521
3165.0,0.004169153460874438
3164.0,0.0041811345558820535
3163.0,0.00418929616011973
3162.0,0.004191052436471382
3161.0,0.004183078186521541
3160.0,0.004162611096731066
3159.0,0.004130881150324835
3158.0,0.004094878490694351
3157.0,0.004063286395388856
3156.0,0.004039554459544596
3155.0,0.004019845676170071
3154.0,0.003998026481588916
3153.0,0.003971826752485133
3152.0,0.0039443508213647515
3151.0,0.00392087631677481
3150.0,0.0039044609527627387
3149.0,0.0038938001706987566
3148.0,0.0038849472043347728
3147.0,0.0038752518655822132
3146.0,0.003865028551544497
3145.0,0.003855004580456789
3144.0,0.0038436792131590243
3143.0,0.0038289987724995887
3142.0,0.003811892791576725
3141.0,0.003796020895412134
3140.0,0.003783943688745465
3139.0,0.003774963625571776
3138.0,0.00376651941607746
3137.0,0.0037560800031083575
3136.0,0.0037422368468928643
3135.0,0.0037262464919158925
3134.0,0.003712324098844184
3133.0,0.00370419756317961
3132.0,0.003701163127552063
3131.0,0.0036992731368123647
3130.0,0.003696139283146719
3129.0,0.003692665943840606
3128.0,0.0036906659456021618
3127.0,0.0036911487371673324
3126.0,0.003694449264114885
3125.0,0.0036997488459524636
3124.0,0.0037047925480640977
3123.0,0.003708618509235151
3122.0,0.003714953447632976
3121.0,0.0037303723939569964
3120.0,0.0037586629766769783
3119.0,0.0037994981371056325
3118.0,0.003852500959603388
3117.0,0.003919554597022059
3116.0,0.004002958834064218
3115.0,0.004104964439112355
3114.0,0.00423063354997028
3113.0,0.004387627656847044
3112.0,0.0045802490209258615
3111.0,0.004805197676430454
3110.0,0.0050540886430545245
3109.0,0.005317745979341298
3108.0,0.005586006925111157
3107.0,0.005844303163373523
3106.0,0.006072601613621709
3105.0,0.006248712683820209
3104.0,0.006354605770613921
3103.0,0.006383697075289791
3102.0,0.006345124225339255
3101.0,0.0062607549744114616
3100.0,0.006156088779373367
3099.0,0.006053255656689538
3098.0,0.00597147880257873
3097.0,0.005929820648719967
3096.0,0.0059466750009524085
3095.0,0.006038198234660426
3094.0,0.006220071340990547
3093.0,0.006509479093193691
3092.0,0.006922143916503256
3091.0,0.007467424908184589
3090.0,0.008146501868971631
3089.0,0.008951008595934597
3088.0,0.009856562807944745
3087.0,0.010813832303550742
3086.0,0.011747349813780238
3085.0,0.012566596320530511
3084.0,0.013183686482783605
3083.0,0.013531501475956314
3082.0,0.013580357980862587
3081.0,0.01334815435382455
3080.0,0.012898082159516149
3079.0,0.012323306003379986
3078.0,0.01172317158606069
3077.0,0.011180146237314673
3076.0,0.01074693636397539
3075.0,0.010448244764845151
3074.0,0.01029131535070646
3073.0,0.010275116471684505
3072.0,0.010394643045151586
3071.0,0.010645368640142584
3070.0,0.011029750894416941
3069.0,0.011558088004200093
3068.0,0.012238644725895718
3067.0,0.01306507039015737
3066.0,0.014010300230105802
3065.0,0.015026202041776585
3064.0,0.016044120905261774
3063.0,0.016978324323063346
3062.0,0.017738097621484546
3061.0,0.018244348620678603
3060.0,0.018442735482540152
3059.0,0.018311857352168698
3058.0,0.01786868435071047
3057.0,0.017169440354860455
3056.0,0.016300526522293933
3055.0,0.015357919288713568
3054.0,0.014424278897844454
3053.0,0.013555915581215158
3052.0,0.012780488746636988
3051.0,0.012102025745742644
3050.0,0.011513527573608351
3049.0,0.011012237214441216
3048.0,0.010605454956011395
3047.0,0.010303437122809189
3046.0,0.010111731608756582
3045.0,0.010032185912296723
3044.0,0.010066903033235708
3043.0,0.010217326384122923
3042.0,0.010482393638757016
3041.0,0.010861964421956489
3040.0,0.011362486910857023
3039.0,0.011998778313956696
3038.0,0.012793426470800933
3037.0,0.013776607701064533
3036.0,0.014982728084435779
3035.0,0.016442101181008396
3034.0,0.018172829618296974
3033.0,0.02017466082989474
3032.0,0.0224182740280365
3031.0,0.024829952147557954
3030.0,0.02728526275275487
3029.0,0.029619810456238398
3028.0,0.031643516158514115
3027.0,0.033152655138291146
3026.0,0.03395614217381763
3025.0,0.03392169555558278
3024.0,0.033021123460900394
3023.0,0.031348683182196205
3022.0,0.029102895381018096
3021.0,0.02653958026889093
3020.0,0.023908473867774428
3019.0,0.02140245503108897
3018.0,0.019141880292216383
3017.0,0.017183478867005563
3016.0,0.015537171332250313
3015.0,0.014182812837791551
3014.0,0.013087378201518729
3013.0,0.01221888307776331
3012.0,0.011551777899831306
3011.0,0.011066509615210468
3010.0,0.010747374322928837
3009.0,0.010580567039192454
3008.0,0.010551354070827308
3007.0,0.010640070756237196
3006.0,0.010818299136902482
3005.0,0.01104637516756057
3004.0,0.011273984453359056
3003.0,0.011444502973469453
3002.0,0.011502310179530094
3001.0,0.011403806014722486
3000.0,0.011130394047858705
2999.0,0.010697281008606244
2998.0,0.010150757092771402
2997.0,0.009552117549776876
2996.0,0.008958627739461291
2995.0,0.00841191225063791
2994.0,0.0079361347668822
2993.0,0.0075406124386314215
2992.0,0.007221944511844375
2991.0,0.006967670323846934
2990.0,0.006763580612175633
2989.0,0.006600214827983411
2988.0,0.006472904317866984
2987.0,0.006377052052090833
2986.0,0.006305338203583031
2985.0,0.006250606059579425
2984.0,0.006209970013615052
2983.0,0.006184640763001247
2982.0,0.00617630907964037
2981.0,0.006184943745962715
2980.0,0.0062096890169467105
2979.0,0.006249223778644146
2978.0,0.00629979805689009
2977.0,0.006354652258727016
2976.0,0.0064080143410699605
2975.0,0.006460495310837729
2974.0,0.00651890358937675
2973.0,0.006590266453543466
2972.0,0.006677207546833623
2971.0,0.0067803392023852
2970.0,0.006903363618192012
2969.0,0.007052609101354098
2968.0,0.007230830211710483
2967.0,0.0074334294955788315
2966.0,0.007652483524717214
2965.0,0.007884052158150853
2964.0,0.008130575762911856
2963.0,0.008396207539796346
2962.0,0.008681142875747987
2961.0,0.008980851458118576
2960.0,0.00929040909336239
2959.0,0.009608752959899016
2958.0,0.009939170502816664
2957.0,0.010286571243881791
2956.0,0.010655287286674274
2955.0,0.011048694668761724
2954.0,0.011468912849239173
2953.0,0.011915869483783786
2952.0,0.012387756433528605
2951.0,0.012884259431684666
2950.0,0.013409870436372751
2949.0,0.013973871450020919
2948.0,0.014586595693444511
2947.0,0.015255561162176787
2946.0,0.01598416690997822
2945.0,0.016773205161598644
2944.0,0.017623933818569616
2943.0,0.01854000620196249
2942.0,0.01952698738813803
2941.0,0.02059008439120498
2940.0,0.021732125722912388
2939.0,0.022952288475869102
2938.0,0.024245390932272286
2937.0,0.025602200490758092
2936.0,0.02701142072164911
2935.0,0.028461890728631666
2934.0,0.029940656796142127
2933.0,0.03142883602136372
2932.0,0.03290120264989134
2931.0,0.03432952062471697
2930.0,0.035685719779145184
2929.0,0.036942578502312806
2928.0,0.03807454739992537
2927.0,0.039059777183110087
2926.0,0.03988096934715667
2925.0,0.04052470589619491
2924.0,0.040982074516419616
2923.0,0.041251089262705216
2922.0,0.04133812231598194
2921.0,0.04125749389234141
2920.0,0.041030885352465817
2919.0,0.040686388826760955
2918.0,0.0402534864378149
2917.0,0.039754834687983985
2916.0,0.03920108539674195
2915.0,0.03859371354267278
2914.0,0.03793139516142073
2913.0,0.037213526230284795
2912.0,0.03644088367275341
2911.0,0.03561767616152129
2910.0,0.03475528727517407
2909.0,0.03387034442928216
2908.0,0.03297632450390279
2907.0,0.03207649297030516
2906.0,0.0311668590812288
2905.0,0.030244699114655743
2904.0,0.029312621612929496
2903.0,0.02837580555094653
2902.0,0.027440052816325104
2901.0,0.026513468549681535
2900.0,0.02560770231779458
2899.0,0.024735608231664985
2898.0,0.023907024184815114
2897.0,0.023128909397494624
2896.0,0.022406559458470816
2895.0,0.021742787955508956
2894.0,0.0211357225692268
2893.0,0.02057918687384256
2892.0,0.020065542931970746
2891.0,0.01958810919153717
2890.0,0.019141199104913107
2889.0,0.018719129903504488
2888.0,0.018316463173889488
2887.0,0.017929458375697052
2886.0,0.01755675555674463
2885.0,0.017197995352666716
2884.0,0.01685223051915509
2883.0,0.01651810069749889
2882.0,0.016195390542974666
2881.0,0.015885427618251572
2880.0,0.015589545637794546
2879.0,0.015308545203109907
2878.0,0.015044471875771924
2877.0,0.01480258213305789
2876.0,0.014590260114934559
2875.0,0.014413053651869547
2874.0,0.01427146304699145
2873.0,0.01416103298443451
2872.0,0.014076160283298889
2871.0,0.014014609212798745
2870.0,0.01397982184722587
2869.0,0.01397940243751639
2868.0,0.014021373573495168
2867.0,0.01411185799202292
2866.0,0.014255306582935803
2865.0,0.014456181027604185
2864.0,0.01472008816052792
2863.0,0.015053377059890672
2862.0,0.015460385824755007
2861.0,0.015938948804153013
2860.0,0.016477714412713344
2859.0,0.017057525269977895
2858.0,0.017655656445788606
2857.0,0.018248900063144804
2856.0,0.018814794218525187
2855.0,0.019333401235197802
2854.0,0.019789846828089874
2853.0,0.02017599862515762
2852.0,0.020489261486032573
2851.0,0.020727969479296334
2850.0,0.02088470090960689
2849.0,0.020941786558254922
2848.0,0.020873776456347484
2847.0,0.02065670237873815
2846.0,0.020277947473941398
2845.0,0.01973992917124371
2844.0,0.01905791432071064
2843.0,0.018257090085608135
2842.0,0.017370027855361694
2841.0,0.01643353635349432
2840.0,0.015484091867538418
2839.0,0.0145551637584664
2838.0,0.013676365662235391
2837.0,0.012871691031257584
2836.0,0.012155037331415805
2835.0,0.011528267753193797
2834.0,0.010985199627131067
2833.0,0.01051788610095664
2832.0,0.010119399073267962
2831.0,0.009782526646526953
2830.0,0.009498637357049425
2829.0,0.009258193307025504
2828.0,0.00905233998641079
2827.0,0.008874460248943207
2826.0,0.008720803121779511
2825.0,0.008588999998807648
2824.0,0.008475304886700133
2823.0,0.008374057085857175
2822.0,0.008280573772204125
2821.0,0.008193526521994798
2820.0,0.008113809169355363
2819.0,0.0080416239727193
2818.0,0.007975679027407513
2817.0,0.00791465256613984
2816.0,0.007858143283704247
2815.0,0.007806028609087034
2814.0,0.007757573824780761
2813.0,0.007711438961648788
2812.0,0.007666236227343637
2811.0,0.007620913800191548
2810.0,0.007574787608804237
2809.0,0.007527766300175489
2808.0,0.007481151567581267
2807.0,0.007437599395623046
2806.0,0.0073987266629003175
2805.0,0.007362127191476258
2804.0,0.007322344004211289
2803.0,0.007276558660481422
2802.0,0.007227976378802176
2801.0,0.007181687302742599
2800.0,0.007138396907800057
2799.0,0.0070944245939651325
2798.0,0.0070474057963425055
2797.0,0.006999417426157475
2796.0,0.006954110851565947
2795.0,0.006913267012972499
2794.0,0.006876949332909624
2793.0,0.006844641790647846
2792.0,0.0068150368901239156
2791.0,0.006786563894101665
2790.0,0.006759385815768158
2789.0,0.006735691885054315
2788.0,0.006717149786004703
2787.0,0.006702819700223546
2786.0,0.006689902863353279
2785.0,0.006675611458797647
2784.0,0.00665844666506198
2783.0,0.006639413631111457
2782.0,0.006621868868148887
2781.0,0.006607884025739152
2780.0,0.006594631819283886
2779.0,0.0065767625128914375
2778.0,0.006552540829067236
2777.0,0.006525132045609705
2776.0,0.0064973597847472735
2775.0,0.00646825785137497
2774.0,0.006436337925972372
2773.0,0.006403097131746187
2772.0,0.00637083472691905
2771.0,0.006339361296707615
2770.0,0.0063075674989984225
2769.0,0.006276910707100061
2768.0,0.006250778245915443
2767.0,0.006231045747286444
2766.0,0.006216682742252077
2765.0,0.006204677482358844
2764.0,0.006191163634477378
2763.0,0.006173112279453457
2762.0,0.0061509701011103705
2761.0,0.00612868864287852
2760.0,0.006109645002829253
2759.0,0.006093681123747861
2758.0,0.006079232329607397
2757.0,0.006066315718245792
2756.0,0.006055265858253384
2755.0,0.006044246156643297
2754.0,0.006030805686001546
2753.0,0.00601537265979739
2752.0,0.006001012801430609
2751.0,0.005989975796689298
2750.0,0.005982128183185276
2749.0,0.0059760135608967965
2748.0,0.005969651877467128
2747.0,0.00596102979619852
2746.0,0.005949923209004192
2745.0,0.005938960038901649
2744.0,0.005931130084207006
2743.0,0.005926386907055112
2742.0,0.005921908509845527
2741.0,0.005915250870688305
2740.0,0.0059061989224885696
2739.0,0.005896609156378194
2738.0,0.005889902003404007
2737.0,0.005889410433021923
2736.0,0.005895112477907199
2735.0,0.0059025342723066105
2734.0,0.00590680589369821
2733.0,0.005907195979793792
2732.0,0.005906173261672518
2731.0,0.0059051983351656855
2730.0,0.005903669185999208
2729.0,0.005901309343003128
2728.0,0.005898804534231233
2727.0,0.005896072809018117
2726.0,0.005892339575927488
2725.0,0.005888150980274762
2724.0,0.005885056958263475
2723.0,0.005882944965967458
2722.0,0.005879765868042609
2721.0,0.005874205376802149
2720.0,0.005866755427951658
2719.0,0.005857928340371915
2718.0,0.005847744841253154
2717.0,0.00583767261255915
2716.0,0.005830624821795877
2715.0,0.005827616891544299
2714.0,0.0058260487427809066
2713.0,0.005822601931631718
2712.0,0.005816527580364141
2711.0,0.005808989754885332
2710.0,0.005800683464127836
2709.0,0.005791797936824513
2708.0,0.005783258231330501
2707.0,0.0057762038982767
2706.0,0.005770567674284379
2705.0,0.005765410681083966
2704.0,0.005760414367046926
2703.0,0.005755963794104981
2702.0,0.005752024288536229
2701.0,0.005748056938073948
2700.0,0.005744022035163002
2699.0,0.005740532434177102
2698.0,0.005737830934947017
2697.0,0.005735277198549689
2696.0,0.005732073741630024
2695.0,0.005728042558003696
2694.0,0.005723605983764901
2693.0,0.005719434073904848
2692.0,0.005716209965220159
2691.0,0.005714284648093995
2690.0,0.005713246595225234
2689.0,0.005711977214542174
2688.0,0.0057093176481833995
2687.0,0.005704722644936594
2686.0,0.005698420458738519
2685.0,0.005691299537176663
2684.0,0.00568462962045607
2683.0,0.005679394302824931
2682.0,0.00567553241675145
2681.0,0.005672086254394837
2680.0,0.005668446425167737
2679.0,0.005665140240916024
2678.0,0.00566288605964738
2677.0,0.005661193192385469
2676.0,0.0056588556140194
2675.0,0.005655867037201357
2674.0,0.005653722985846604
2673.0,0.0056531984489528505
2672.0,0.005652740930153031
2671.0,0.005649987115639037
2670.0,0.005644356738206973
2669.0,0.005637542556514425
2668.0,0.005632387233145714
2667.0,0.005632421830857069
2666.0,0.005641452756754508
2665.0,0.005661169690421635
2664.0,0.0056887635104260325
2663.0,0.005718604614157867
2662.0,0.005746758954413343
2661.0,0.005772776578664599
2660.0,0.005796895970554453
2659.0,0.00581785672787428
2658.0,0.0058350670614242765
2657.0,0.0058512209029106445
2656.0,0.0058702768401095295
2655.0,0.00589277938656345
2654.0,0.005914996027912506
2653.0,0.005933162623967411
2652.0,0.005947483223265474
2651.0,0.005961419601897857
2650.0,0.005977961462019085
2649.0,0.005997193515039851
2648.0,0.006016797052330977
2647.0,0.0060341706786523775
2646.0,0.006048265226938042
2645.0,0.0060602829284856895
2644.0,0.006072883792651421
2643.0,0.006088300513128539
2642.0,0.0061068596815979145
2641.0,0.006127378482599663
2640.0,0.006149072809238572
2639.0,0.006172603843537711
2638.0,0.006198939681231088
2637.0,0.006227779219917939
2636.0,0.0062579104022222765
2635.0,0.006288641866488661
2634.0,0.006319499332765032
2633.0,0.006348349749024533
2632.0,0.006371260551443703
2631.0,0.006384947757243612
2630.0,0.006388351336958847
2629.0,0.006381618411714383
2628.0,0.0063656064250354315
2627.0,0.006343616077142917
2626.0,0.006321786196380495
2625.0,0.006305409202358954
2624.0,0.006295221488307934
2623.0,0.006288969492927482
2622.0,0.006285609259691339
2621.0,0.006285843857378513
2620.0,0.006289301482534959
2619.0,0.006293741855360082
2618.0,0.0062973146364099335
2617.0,0.0062998678499710335
2616.0,0.006302173780384604
2615.0,0.006305601859828905
2614.0,0.006312248157884908
2613.0,0.006323353061153496
2612.0,0.006337897353022322
2611.0,0.006354797496557447
2610.0,0.006375709967397341
2609.0,0.006402659270514635
2608.0,0.006433094331736297
2607.0,0.006461011162745438
2606.0,0.006483678222733467
2605.0,0.0065035541716857645
2604.0,0.006521886435592034
2603.0,0.00653396622920608
2602.0,0.006534023947788096
2601.0,0.006523031249055412
2600.0,0.0065083584673766605
2599.0,0.0064960327066744435
2598.0,0.006485678830396581
2597.0,0.006473119430749854
2596.0,0.006456162034614974
2595.0,0.0064372416190785035
2594.0,0.006420892996183801
2593.0,0.0064094062494504354
2592.0,0.006401677772943225
2591.0,0.006396488661340221
2590.0,0.006395464214842198
2589.0,0.006400886197671117
2588.0,0.006411483849414888
2587.0,0.006423064847372727
2586.0,0.006433443298404146
2585.0,0.006444237978879086
2584.0,0.006457192797519733
2583.0,0.006470972369037081
2582.0,0.006482264600042328
2581.0,0.006488050822459165
2580.0,0.006486222252706602
2579.0,0.006476283821374872
2578.0,0.006460681641111474
2577.0,0.006443662732951905
2576.0,0.006427831050833882
2575.0,0.006413253607579026
2574.0,0.006400029592239785
2573.0,0.006389215388284807
2572.0,0.006380569513762683
2571.0,0.006372215126723422
2570.0,0.006363843765228446
2569.0,0.00635772584419547
2568.0,0.006355105762136113
2567.0,0.006354030571123338
2566.0,0.00635249721006695
2565.0,0.006351422903108465
2564.0,0.006352270984104173
2563.0,0.006353750009235111
2562.0,0.006353534332310456
2561.0,0.006352089783808402
2560.0,0.006352148296811751
2559.0,0.0063544417230598435
2558.0,0.006355882908134405
2557.0,0.006352626042429475
2556.0,0.006344480342630529
2555.0,0.006336209979564616
2554.0,0.006334015825385772
2553.0,0.006339795107020641
2552.0,0.006348973122785723
2551.0,0.0063546245544665765
2550.0,0.00635311397822432
2549.0,0.006345223335144817
2548.0,0.006333967003948362
2547.0,0.0063238564836109405
2546.0,0.00632023514588672
2545.0,0.006324493827916463
2544.0,0.0063296885518870395
2543.0,0.0063255397362738264
2542.0,0.006309636120297798
2541.0,0.006290357834113464
2540.0,0.006277024214194602
2539.0,0.006270690471455835
2538.0,0.006266778627232435
2537.0,0.006262994491175443
2536.0,0.0062609638391196
2535.0,0.006261780159741709
2534.0,0.006263333468496083
2533.0,0.006262222701695946
2532.0,0.006256949290868006
2531.0,0.006249368272344865
2530.0,0.006243379959005407
2529.0,0.006241498200884238
2528.0,0.006242880070834442
2527.0,0.006245789273580219
2526.0,0.00625069887002597
2525.0,0.00625826633458456
2524.0,0.006265468693560431
2523.0,0.006268018916169115
2522.0,0.006266605948716017
2521.0,0.006266033835381135
2520.0,0.006267144114848751
2519.0,0.006264580007847435
2518.0,0.006255136589717729
2517.0,0.0062440610734825
2516.0,0.006239349914684439
2515.0,0.006242576920238314
2514.0,0.006248678055854648
2513.0,0.006252427055850229
2512.0,0.00625199120018349
2511.0,0.006248110296898946
2510.0,0.00624309599865887
2509.0,0.006239810979701988
2508.0,0.006239271587175885
2507.0,0.006239623072711038
2506.0,0.006238216456848411
2505.0,0.006233163824493798
2504.0,0.006222639519397676
2503.0,0.006205914797391248
2502.0,0.006186623327072278
2501.0,0.006171668658974656
2500.0,0.00616442652849962
2499.0,0.006161429428219898
2498.0,0.006157705348460945
2497.0,0.006152176401506922
2496.0,0.006145480158318051
2495.0,0.00613639482483091
2494.0,0.0061245252360474355
2493.0,0.00611412135221674
2492.0,0.006110308437915017
2491.0,0.006112092678417634
2490.0,0.00611281802498141
2489.0,0.006107503740447037
2488.0,0.006097003991381217
2487.0,0.006085196115342776
2486.0,0.006074703103998911
2485.0,0.006065727305758941
2484.0,0.006057388159081641
2483.0,0.006049648669348031
2482.0,0.006043839413992879
2481.0,0.006040097182623778
2480.0,0.006034432261935237
2479.0,0.0060212298646713115
2478.0,0.006000101519046237
2477.0,0.0059776160444514285
2476.0,0.005960259808673145
2475.0,0.005948229047605806
2474.0,0.005938541307573477
2473.0,0.005931429944560978
2472.0,0.00592983829877625
2471.0,0.00593376567358914
2470.0,0.00593847496453653
2469.0,0.005938192473338448
2468.0,0.005929836344290767
2467.0,0.005914335826046318
2466.0,0.005896653252195048
2465.0,0.005883612280620135
2464.0,0.005879094530003796
2463.0,0.005881223500295718
2462.0,0.005885408530766894
2461.0,0.005889369565060958
2460.0,0.005894173519119399
2459.0,0.005901860242406456
2458.0,0.00591363954877893
2457.0,0.005928996711676661
2456.0,0.005944732040564556
2455.0,0.005955945297457979
2454.0,0.005959621465402928
2453.0,0.005956533430014637
2452.0,0.0059488541560995065
2451.0,0.005937608998236289
2450.0,0.0059236719148370275
2449.0,0.005909137851519695
2448.0,0.005895760430856661
2447.0,0.005883645529918401
2446.0,0.005873096808741058
2445.0,0.0058657417817883795
2444.0,0.005861914718094531
2443.0,0.0058589393247340076
2442.0,0.005854129880255498
2441.0,0.005847630928845516
2440.0,0.005840277381356803
2439.0,0.005830953260532092
2438.0,0.0058188152683920705
2437.0,0.005806193953971812
2436.0,0.005796170063293932
2435.0,0.005788564082593569
2434.0,0.0057810857148384645
2433.0,0.005772970477355643
2432.0,0.005764321674340649
2431.0,0.005753126405436711
2430.0,0.005736880078270239
2429.0,0.005717372112747929
2428.0,0.005700556064268381
2427.0,0.005690419525864347
2426.0,0.005684593674888201
2425.0,0.005676727456517976
2424.0,0.00566254192630871
2423.0,0.0056438445743556675
2422.0,0.00562712604307021
2421.0,0.005617261694979427
2420.0,0.005612012161144321
2419.0,0.0056044460351796915
2418.0,0.005591671316299649
2417.0,0.005578591422426267
2416.0,0.005570991772229181
2415.0,0.0055675191687684315
2414.0,0.005562147846711298
2413.0,0.005553362959084587
2412.0,0.005546555912514649
2411.0,0.005546169582368591
2410.0,0.0055481482388222165
2409.0,0.005542130077396108
2408.0,0.005520926561891931
2407.0,0.005487704122415383
2406.0,0.0054543137820260434
2405.0,0.005432232199122665
2404.0,0.005424144210149147
2403.0,0.0054237374466105225
2402.0,0.005422671075848226
2401.0,0.005416406329710926
2400.0,0.005404095499298989
2399.0,0.005386383063377466
2398.0,0.005365731327300069
2397.0,0.00534725241811144
2396.0,0.0053362088194925765
2395.0,0.005334033493897992
2394.0,0.005337428403730714
2393.0,0.005340880185464053
2392.0,0.00534002996722213
2391.0,0.005334490599241215
2390.0,0.00532874036029188
2389.0,0.005329136785110374
2388.0,0.005338941969133914
2387.0,0.005356986022232517
2386.0,0.005380760657548177
2385.0,0.005407427757502784
2384.0,0.005429772097875898
2383.0,0.005434213262475892
2382.0,0.005407290178331097
2381.0,0.005345340391580288
2380.0,0.005257153452080544
2379.0,0.00515848096994952
2378.0,0.005066560296787304
2377.0,0.004998668056651731
2376.0,0.004969512854879834
2375.0,0.004983626141364016
2374.0,0.005029314222945086
2373.0,0.005084058523030548
2372.0,0.005129657241801675
2371.0,0.005162013340885771
2370.0,0.005183842916806991
2369.0,0.00519083873010787
2368.0,0.0051750505812510825
2367.0,0.005144401724394213
2366.0,0.005125312104252039
2365.0,0.005134553592096405
2364.0,0.005157777798675529
2363.0,0.005169291374716665
2362.0,0.005163568587473398
2361.0,0.0051540722579278
2360.0,0.00515676711468196
2359.0,0.0051750743614263454
2358.0,0.005185455224288727
2357.0,0.0051502341246158125
2356.0,0.005065740596827911
2355.0,0.004978855806370459
2354.0,0.004924473148586794
2353.0,0.004897810060626522
2352.0,0.0049038218622800295
2351.0,0.004966780799163118
2350.0,0.005078652757570409
2349.0,0.005187302623389657
2348.0,0.005251996036486628
2347.0,0.005276912886146087
2346.0,0.005298865341193471
2345.0,0.0053455745019842255
2344.0,0.005408932144851717
2343.0,0.005461477682901492
2342.0,0.005468535012272055
2341.0,0.0054235567150105034
2340.0,0.005364611197235244
2339.0,0.0053313760459085865
2338.0,0.005326503366726342
2337.0,0.005325943880038073
2336.0,0.005315619020985983
2335.0,0.005295477826424817
2334.0,0.0052628511075704446
2333.0,0.00521597740670021
2332.0,0.005170460423712416
2331.0,0.005147416343456805
2330.0,0.005159675182549462
2329.0,0.005211789636380044
2328.0,0.0053147150670707684
2327.0,0.005471787886893134
2326.0,0.0056552455520547055
2325.0,0.005813830254906395
2324.0,0.005899142725596187
2323.0,0.005901700809708508
2322.0,0.005852665610942706
2321.0,0.005800490476966668
2320.0,0.005775657632863371
2319.0,0.005779188123651935
2318.0,0.005798852200701195
2317.0,0.005823716682862037
2316.0,0.005850798086898866
2315.0,0.0058813286033690924
2314.0,0.005918950134275349
2313.0,0.005963906422695587
2312.0,0.006011294319033076
2311.0,0.006052411655920145
2310.0,0.006079727493178578
2309.0,0.006090264873398884
2308.0,0.006083842580296012
2307.0,0.006064661498601862
2306.0,0.006042574668371249
2305.0,0.006031084015760066
2304.0,0.006036944014188984
2303.0,0.006056220511967855
2302.0,0.0060797406635063386
2301.0,0.0061016211490019946
2300.0,0.006120825468283686
2299.0,0.006138117402953497
2298.0,0.006155460066769874
2297.0,0.006174950524130047
2296.0,0.006196708067801437
2295.0,0.006218599575534341
2294.0,0.00623964134566036
2293.0,0.006262195161515329
2292.0,0.006288232323144008
2291.0,0.006316936904293139
2290.0,0.006346160074671788
2289.0,0.00637622045333446
2288.0,0.00640747984149209
2287.0,0.006436729408531407
2286.0,0.006457071956512159
2285.0,0.006463103718733267
2284.0,0.006454599099764067
2283.0,0.006436711045969889
2282.0,0.006417199554111637
2281.0,0.006402206400239838
2280.0,0.006393314661674301
2279.0,0.006389116457543939
2278.0,0.006389328552495936
2277.0,0.006395400455290738
2276.0,0.006407843535311862
2275.0,0.006424487178393954
2274.0,0.00644166762696316
2273.0,0.006455173058568573
2272.0,0.006462107189608872
2271.0,0.0064642683061021024
2270.0,0.00646774094532198
2269.0,0.006475228609954571
2268.0,0.006480409929022053
2267.0,0.006475379873217963
2266.0,0.006462686401384145
2265.0,0.006453948054866307
2264.0,0.006456719783915214
2263.0,0.006469669945190286
2262.0,0.006490753897177149
2261.0,0.006521853413119817
2260.0,0.006561565574127541
2259.0,0.006600515970674629
2258.0,0.0066275223742112525
2257.0,0.006636413512708659
2256.0,0.006625763260281735
2255.0,0.006598983296073188
2254.0,0.006568076365717121
2253.0,0.006549093285915745
2252.0,0.00654843650374007
2251.0,0.006558180075915186
2250.0,0.0065689593114506145
2249.0,0.006580630448231595
2248.0,0.006596662786073732
2247.0,0.006615465232539653
2246.0,0.006633435367497477
2245.0,0.006650559626438275
2244.0,0.006665719133159992
2243.0,0.006672706161619918
2242.0,0.006668918230644005
2241.0,0.006663732310344386
2240.0,0.006669385147079692
2239.0,0.0066854908641226524
2238.0,0.00669988851523959
2237.0,0.006703796186133022
2236.0,0.006700048164336931
2235.0,0.006697581358071025
2234.0,0.006702773050937439
2233.0,0.006715235501681823
2232.0,0.006727766227377167
2231.0,0.006732215965036915
2230.0,0.006728952970308828
2229.0,0.006727552585571825
2228.0,0.006735298735958408
2227.0,0.006749080868697899
2226.0,0.006762185003571293
2225.0,0.00677230115715627
2224.0,0.006777256779190185
2223.0,0.006770548469010887
2222.0,0.006751250715669163
2221.0,0.006734297304259456
2220.0,0.0067392176959115615
2219.0,0.006768668447363587
2218.0,0.006805753257789246
2217.0,0.0068322473282455085
2216.0,0.006842356964110579
2215.0,0.006840191557302328
2214.0,0.0068331451819037305
2213.0,0.006829149027557435
2212.0,0.006832487438330467
2211.0,0.006838851093734843
2210.0,0.0068400846463528165
2209.0,0.006836134733257494
2208.0,0.00683726934903859
2207.0,0.006851602634551448
2206.0,0.006873733543066484
2205.0,0.0068892755208605876
2204.0,0.0068905849370100615
2203.0,0.006885605401873995
2202.0,0.00688988304223347
2201.0,0.006909697397792902
2200.0,0.00693510887351045
2199.0,0.006953321302887306
2198.0,0.006965907969423167
2197.0,0.006985721197730287
2196.0,0.007017017524874327
2195.0,0.0070479436833930185
2194.0,0.007066937100400052
2193.0,0.007078699012065509
2192.0,0.007097559174963252
2191.0,0.007130254696243395
2190.0,0.007171811546677903
2189.0,0.007213464505460447
2188.0,0.007248023810429391
2187.0,0.007271296278999398
2186.0,0.0072833425754345645
2185.0,0.00728432960434894
2184.0,0.00726551697101218
2183.0,0.007214300771594476
2182.0,0.007138887773118776
2181.0,0.007078325099043086
2180.0,0.007068962483298108
2179.0,0.00710133040123874
2178.0,0.0071251785355504645
2177.0,0.007099656468769025
2176.0,0.007031382543251211
2175.0,0.006963866366659544
2174.0,0.006939409641828572
2173.0,0.006974356391420635
2172.0,0.007060067849873872
2171.0,0.007177433615720076
2170.0,0.007307957423923017
2169.0,0.007434770285188175
2168.0,0.00754095313981204
2167.0,0.007613733500170266
2166.0,0.007657275735357124
2165.0,0.007700440508959211
2164.0,0.007777767774976159
2163.0,0.007886019161901424
2162.0,0.00795035217986163
2161.0,0.007845299756844759
2160.0,0.007485960261287559
2159.0,0.006933739199467213
2158.0,0.006394796439432084
2157.0,0.0060663252702754765
2156.0,0.005987376104520244
2155.0,0.006058851800370165
2154.0,0.006168874672526232
2153.0,0.006263561809643615
2152.0,0.006331461563356712
2151.0,0.006368890735789086
2150.0,0.006374155554649805
2149.0,0.006354958282102564
2148.0,0.006320317298065878
2147.0,0.006271685755911778
2146.0,0.006213163126987435
2145.0,0.006162360034367766
2144.0,0.006136791813186151
2143.0,0.006133672752455448
2142.0,0.006134267208117265
2141.0,0.006124848013384037
2140.0,0.006105412179567201
2139.0,0.006080047322072712
2138.0,0.00604514397193121
2137.0,0.005987231905425546
2136.0,0.005891731943313633
2135.0,0.005760601320044273
2134.0,0.005624656684441752
2133.0,0.005529363529797493
2132.0,0.005499921054681826
2131.0,0.005523620702251427
2130.0,0.005568654514497251
2129.0,0.0056116741584784965
2128.0,0.005645818069705285
2127.0,0.005672752078506902
2126.0,0.005696482224329993
2125.0,0.005721985724340774
2124.0,0.005751337756616915
2123.0,0.005780812055396789
2122.0,0.005805764689020483
2121.0,0.00582712290282064
2120.0,0.005848852175222633
2119.0,0.005871089252961056
2118.0,0.005891480901824999
2117.0,0.005912759720964349
2116.0,0.005942340943090445
2115.0,0.005981907799379453
2114.0,0.006021385275365745
2113.0,0.006047026908825913
2112.0,0.006054467621053104
2111.0,0.006051276967452749
2110.0,0.006047631318917663
2109.0,0.006047313016148328
2108.0,0.006048474163875028
2107.0,0.006050250884549165
2106.0,0.006054795686433306
2105.0,0.006062498427739246
2104.0,0.006069003108723792
2103.0,0.006070082329659977
2102.0,0.0060678861237537084
2101.0,0.006069129567823151
2100.0,0.0060765476088639695
2099.0,0.00608317150485789
2098.0,0.006074294744642784
2097.0,0.0060366731424332624
2096.0,0.00597161574815536
2095.0,0.005902010317877791
2094.0,0.005860367045841867
2093.0,0.00586194275300825
2092.0,0.005891923702010615
2091.0,0.005923251653775188
2090.0,0.005943768726026652
2089.0,0.0059611108749147955
2088.0,0.005985459765383975
2087.0,0.006016804956955436
2086.0,0.0060483019339314294
2085.0,0.006073644401837426
2084.0,0.006090237198119155
2083.0,0.006102057563135997
2082.0,0.0061196974332673355
2081.0,0.006150451591533662
2080.0,0.006187132881197705
2079.0,0.006214162588209738
2078.0,0.00622571326471043
2077.0,0.00623034806054781
2076.0,0.0062368477722145686
2075.0,0.006243898485585779
2074.0,0.006247127879378329
2073.0,0.006247819659812899
2072.0,0.006249784097029721
2071.0,0.006253942530732004
2070.0,0.0062603049614658735
2069.0,0.006269740465126898
2068.0,0.006279899304176696
2067.0,0.006284623428716966
2066.0,0.006280996873372684
2065.0,0.006273723633398898
2064.0,0.006270702899024884
2063.0,0.006276960129456147
2062.0,0.006292238796812313
2061.0,0.006309786227307546
2060.0,0.006320140944577307
2059.0,0.0063225987075817645
2058.0,0.006327718207489539
2057.0,0.00634073588514273
2056.0,0.006353067681104128
2055.0,0.006367606446655679
2054.0,0.006422226116936755
2053.0,0.006555635994721315
2052.0,0.006744475070793985
2051.0,0.006901597670420635
2050.0,0.006951820314834361
2049.0,0.0069016235523575616
2048.0,0.006821654213741115
2047.0,0.006768643210298981
2046.0,0.006750346092419644
2045.0,0.0067555592753210415
2044.0,0.006778913845631368
2043.0,0.006813870871403584
2042.0,0.006848908893244207
2041.0,0.006879448985197647
2040.0,0.0069105921118876295
2039.0,0.006944683046183352
2038.0,0.006976330617158863
2037.0,0.006998351542167486
2036.0,0.007002780878996962
2035.0,0.006980852191776514
2034.0,0.006934369466768335
2033.0,0.006883118760915385
2032.0,0.006846533435133846
2031.0,0.006822583765888865
2030.0,0.006798858485070447
2029.0,0.006776555158928712
2028.0,0.006767141607052843
2027.0,0.006770216994770184
2026.0,0.006771045814316591
2025.0,0.006758342140099908
2024.0,0.006732712530239177
2023.0,0.006701633422216835
2022.0,0.006677221460384582
2021.0,0.006673035845352268
2020.0,0.006689741627876349
2019.0,0.006708092811948153
2018.0,0.006706791182785981
2017.0,0.006684623018770458
2016.0,0.00665691432453654
2015.0,0.006636718095603407
2014.0,0.006633030937778827
2013.0,0.00665803173972772
2012.0,0.006715058224472751
2011.0,0.006780960305424992
2010.0,0.00681535627691038
2009.0,0.006790976243110923
2008.0,0.006711890173913437
2007.0,0.006605551872180437
2006.0,0.006504814725078419
2005.0,0.006433734381638533
2004.0,0.006398292740267817
2003.0,0.006390470733283821
2002.0,0.006403997592643625
2001.0,0.00643905083076903
2000.0,0.006489241930642209
1999.0,0.006536438484793154
1998.0,0.006568128074132677
1997.0,0.0065923188909857156
1996.0,0.006625167585902434
1995.0,0.006669311166805672
1994.0,0.006714025778530025
1993.0,0.006751624213637557
1992.0,0.006784866131503723
1991.0,0.006819983140892811
1990.0,0.006859423175813241
1989.0,0.006902585264123349
1988.0,0.006948093638687817
1987.0,0.006994064219738218
1986.0,0.007040109975780627
1985.0,0.0070897524087411845
1984.0,0.007150213572878244
1983.0,0.007230907783025679
1982.0,0.007335798230824794
1981.0,0.007443946712973774
1980.0,0.007498541871107307
1979.0,0.0074381721183056256
1978.0,0.007260611185406831
1977.0,0.007045581605404793
1976.0,0.006886708511030782
1975.0,0.0068127010312788484
1974.0,0.006797593334098802
1973.0,0.006817080173673662
1972.0,0.006862426969417551
1971.0,0.006920644938241457
1970.0,0.006976729419479055
1969.0,0.007034497353911545
1968.0,0.0071118452803462465
1967.0,0.0072115261189226905
1966.0,0.007314652806239889
1965.0,0.007405762939809648
1964.0,0.007483766420773148
1963.0,0.007546604641007813
1962.0,0.007584580723423516
1961.0,0.007595050301910031
1960.0,0.007593315869453641
1959.0,0.007603102348979792
1958.0,0.00764189221545046
1957.0,0.007713879778247177
1956.0,0.007807788112012
1955.0,0.007903091780170107
1954.0,0.0079872538574653
1953.0,0.008066269063960215
1952.0,0.008152517183499844
1951.0,0.008247995278077144
1950.0,0.008348142555363198
1949.0,0.008454758860748944
1948.0,0.008571264617840451
1947.0,0.008688397314194279
1946.0,0.008790653345856455
1945.0,0.00887605626744193
1944.0,0.008952377071961566
1943.0,0.009010383003508761
1942.0,0.009021872256807586
1941.0,0.008973867537731686
1940.0,0.008878080651782281
1939.0,0.008745384119567037
1938.0,0.008579247977816142
1937.0,0.008388579547308197
1936.0,0.008186865367888251
1935.0,0.007980862169513098
1934.0,0.007774159534818574
1933.0,0.007578033944533736
1932.0,0.007403849047203995
1931.0,0.007249332237934614
1930.0,0.007104121827711885
1929.0,0.006964866498869808
1928.0,0.00683606137912276
1927.0,0.0067212586135387345
1926.0,0.00662142140315157
1925.0,0.006537235070440035
1924.0,0.00646594116381397
1923.0,0.0063994889145452625
1922.0,0.006334695313565748
1921.0,0.006277964073423951
1920.0,0.006232535511559091
1919.0,0.006190737165951771
1918.0,0.006142067101369546
1917.0,0.006087126957042811
1916.0,0.006034884062899575
1915.0,0.005987628880052361
1914.0,0.005943626742316176
1913.0,0.005905229158399746
1912.0,0.005874995564300139
1911.0,0.005851858622125903
1910.0,0.005834637559918598
1909.0,0.005824738279094152
1908.0,0.005821417575405731
1907.0,0.00581869732345058
1906.0,0.005811204844529759
1905.0,0.005800441437974917
1904.0,0.005792816993058895
1903.0,0.0057939331145551685
1902.0,0.005806558253178407
1901.0,0.005830910946727129
1900.0,0.005864762636039347
1899.0,0.005905851398024907
1898.0,0.005955216833271373
1897.0,0.006015254842114182
1896.0,0.006083706758077208
1895.0,0.006152649358423027
1894.0,0.006216023324348653
1893.0,0.006275810761931712
1892.0,0.006338632919538383
1891.0,0.006409693530324095
1890.0,0.006488222131136451
1889.0,0.006568870857168703
1888.0,0.0066497648755452984
1887.0,0.006731086847522275
1886.0,0.006809241164500449
1885.0,0.006879675370892955
1884.0,0.006941096250227203
1883.0,0.006994991784429638
1882.0,0.007042032445388121
1881.0,0.007082407910522438
1880.0,0.007119288065420528
1879.0,0.0071570997120388585
1878.0,0.007197565304332198
1877.0,0.00724102379059976
1876.0,0.007289288549099954
1875.0,0.0073421310871154485
1874.0,0.0073920367143520925
1873.0,0.007429325690481783
1872.0,0.007453657274025759
1871.0,0.007474031110562811
1870.0,0.007494420312966854
1869.0,0.007499715024758928
1868.0,0.00747107503578295
1867.0,0.007410628827362915
1866.0,0.00732981339387914
1865.0,0.007234716792610528
1864.0,0.007128517594525827
1863.0,0.007010375134206225
1862.0,0.006877792652030026
1861.0,0.0067350144196934875
1860.0,0.006592202463141149
1859.0,0.006454440786445711
1858.0,0.006320103749744338
1857.0,0.006190533530024888
1856.0,0.006070937397712861
1855.0,0.005962032031243949
1854.0,0.005860822636623726
1853.0,0.005769865699938289
1852.0,0.005695175473102696
1851.0,0.0056355181987007945
1850.0,0.005583194664801602
1849.0,0.005532780527885757
1848.0,0.00548368414483273
1847.0,0.005437176840360844
1846.0,0.005396026057335211
1845.0,0.005363109923862732
1844.0,0.005334780270843107
1843.0,0.005305567966178842
1842.0,0.005275204342505321
1841.0,0.0052472792444869815
1840.0,0.005228647131058244
1839.0,0.005220589758020595
1838.0,0.0052150199619055825
1837.0,0.005206368195669494
1836.0,0.005198081042995016
1835.0,0.005195563921752654
1834.0,0.005200811739485797
1833.0,0.005215906954065824
1832.0,0.0052441164388454895
1831.0,0.00528390798033059
1830.0,0.005321558172252966
1829.0,0.005347892441440055
1828.0,0.005374708501557055
1827.0,0.0054147832339748875
1826.0,0.00547217490022738
1825.0,0.005541635323830825
1824.0,0.005607827986111945
1823.0,0.005662968587103441
1822.0,0.005711383803865912
1821.0,0.0057584373363896366
1820.0,0.005803066202797573
1819.0,0.005840499237309862
1818.0,0.0058726612919054125
1817.0,0.005909670666077633
1816.0,0.005961280976117261
1815.0,0.006030637301813769
1814.0,0.006115858502686132
1813.0,0.006212284735557069
1812.0,0.006311132699498841
1811.0,0.006403286271611044
1810.0,0.006487289861495892
1809.0,0.006567846989265807
1808.0,0.006647707170480476
1807.0,0.0067248597990597
1806.0,0.006793897412374912
1805.0,0.006849709000548335
1804.0,0.006892765873168734
1803.0,0.006926148784168673
1802.0,0.00694405971686014
1801.0,0.006930986186392481
1800.0,0.006882850691554454
1799.0,0.006814938090535209
1798.0,0.0067368518747014
1797.0,0.006641792586583633
1796.0,0.006525747393201997
1795.0,0.006397109541444922
1794.0,0.006264099968240863
1793.0,0.006121541700434347
1792.0,0.0059626712855420805
1791.0,0.005804079249786924
1790.0,0.005668130675411033
1789.0,0.005556601000655036
1788.0,0.005464490414764187
1787.0,0.0053896307843545686
1786.0,0.005327629882931709
1785.0,0.00527315875511372
1784.0,0.005226088357453215
1783.0,0.005189612311174343
1782.0,0.005165246771228529
1781.0,0.005151644117708701
1780.0,0.005143664668935363
1779.0,0.005137652216198045
1778.0,0.005133518805012777
1777.0,0.005130242767264854
1776.0,0.0051259778511537814
1775.0,0.005121293455243675
1774.0,0.005121353943767313
1773.0,0.005124981800019008
1772.0,0.005113104262773817
1771.0,0.005081227025119693
1770.0,0.005051842797617007
1769.0,0.005040203769438747
1768.0,0.005045770684117044
1767.0,0.00505636329910942
1766.0,0.005061701884989209
1765.0,0.005068001547374541
1764.0,0.005090723893505872
1763.0,0.005137352725292584
1762.0,0.00519553243017574
1761.0,0.0052506396939617575
1760.0,0.005303191957975177
1759.0,0.005359116257580978
1758.0,0.005427059433195339
1757.0,0.005511453250756785
1756.0,0.005597480543777825
1755.0,0.005667615084050696
1754.0,0.005727299511881442
1753.0,0.005802775465973433
1752.0,0.005912111187099594
1751.0,0.006031619223870627
1750.0,0.006119111382356407
1749.0,0.006168209297851005
1748.0,0.006197589657788979
1747.0,0.006217649969721472
1746.0,0.0062313315468945744
1745.0,0.006238485580154796
1744.0,0.00623258658502384
1743.0,0.006205989078490015
1742.0,0.006163054393345193
1741.0,0.006116564377604973
1740.0,0.006068589747335578
1739.0,0.006011507749271547
1738.0,0.005948915145609265
1737.0,0.005893432696507071
1736.0,0.00585597861568735
1735.0,0.005831540860324714
1734.0,0.005778595282721203
1733.0,0.0056926993225071745
1732.0,0.005608228524228338
1731.0,0.005520643467945792
1730.0,0.005429443593625368
1729.0,0.0053524961345713
1728.0,0.005296327104496332
1727.0,0.005254135602513797
1726.0,0.00521640700495224
1725.0,0.005180423938201806
1724.0,0.005143718691105247
1723.0,0.0051044137414694105
1722.0,0.00506381264393678
1721.0,0.005027332917888187
1720.0,0.005003087073821233
1719.0,0.004999190087121696
1718.0,0.005004416969453807
1717.0,0.004990884093772713
1716.0,0.004955096849179779
1715.0,0.004910261013788111
1714.0,0.004867688002021517
1713.0,0.004839653801329792
1712.0,0.004825470891108625
1711.0,0.00481439559035253
1710.0,0.004800870069560221
1709.0,0.004787064536058408
1708.0,0.0047751525785432085
1707.0,0.004765681793928315
1706.0,0.0047587347845020585
1705.0,0.00475034530368869
1704.0,0.00473933429204952
1703.0,0.004729177305291673
1702.0,0.00473484825932405
1701.0,0.004772978975119323
1700.0,0.004809052196503081
1699.0,0.004810273188074275
1698.0,0.004792865553216384
1697.0,0.0047755028516102025
1696.0,0.004768244768517906
1695.0,0.004770257390741479
1694.0,0.004773613450993856
1693.0,0.004766529400832014
1692.0,0.0047567635115168105
1691.0,0.004763745188714084
1690.0,0.004784967414193795
1689.0,0.0048053618873247815
1688.0,0.004816773816291745
1687.0,0.004826805285666306
1686.0,0.004854307370668393
1685.0,0.004918772812729284
1684.0,0.0049768623293689
1683.0,0.004996306749928558
1682.0,0.005013966533849085
1681.0,0.005034470721359383
1680.0,0.005054038928348642
1679.0,0.005070041193650546
1678.0,0.005075143745088984
1677.0,0.005083135163726733
1676.0,0.005111011540045807
1675.0,0.005149221832267131
1674.0,0.005172918052984644
1673.0,0.005179332999772276
1672.0,0.005179709433037946
1671.0,0.005186452371142327
1670.0,0.005194997389061243
1669.0,0.005195032776156229
1668.0,0.0051953180408433886
1667.0,0.005195156700573942
1666.0,0.0051838505128316715
1665.0,0.0051659047294214675
1664.0,0.005150193287116386
1663.0,0.005127998738422619
1662.0,0.005088117176958434
1661.0,0.005043912182985342
1660.0,0.005006575422902935
1659.0,0.004972340204246844
1658.0,0.004932451495348279
1657.0,0.004885859714270631
1656.0,0.004840159880121174
1655.0,0.0048133718689867275
1654.0,0.004798826702412001
1653.0,0.004737548168495745
1652.0,0.004689325498239005
1651.0,0.004688052403738523
1650.0,0.004648527388532195
1649.0,0.0045893367055309855
1648.0,0.0045563278728420475
1647.0,0.0045263147708122595
1646.0,0.0044806730792303386
1645.0,0.004450680696522246
1644.0,0.004437120144059779
1643.0,0.004412664806929482
1642.0,0.004380569830922922
1641.0,0.0043521089661097525
1640.0,0.004328691897321473
1639.0,0.00430440988684998
1638.0,0.004277073892731625
1637.0,0.004251999632933928
1636.0,0.0042212986715394136
1635.0,0.004188747282233453
1634.0,0.004182770327745239
1633.0,0.004191532830788898
1632.0,0.004191461990599979
1631.0,0.004186834620043748
1630.0,0.004182961313168347
1629.0,0.004181274537065837
1628.0,0.004181481245597418
1627.0,0.004181973562742119
1626.0,0.00418292695440131
1625.0,0.004188833238761111
1624.0,0.004203164522459855
1623.0,0.004215181904538633
1622.0,0.004216005008383911
1621.0,0.004213152935114455
1620.0,0.004214236399430149
1619.0,0.004228055212540397
1618.0,0.004270341560384008
1617.0,0.004346927970630806
1616.0,0.004446288591662971
1615.0,0.004555654705333275
1614.0,0.004677523738521285
1613.0,0.004845226257826222
1612.0,0.0051162739796642666
1611.0,0.005543288751335469
1610.0,0.006174400999042802
1609.0,0.007073656823055319
1608.0,0.008294825383157548
1607.0,0.009814179564868268
1606.0,0.011542483556134468
1605.0,0.013402412193156155
1604.0,0.015288588123818805
1603.0,0.016935937172722234
1602.0,0.017978284853766083
1601.0,0.018205814122897727
1600.0,0.017649599689238647
1599.0,0.0164722482559204
1598.0,0.014926754903698724
1597.0,0.01331435823817638
1596.0,0.011855395539773106
1595.0,0.01062883177692495
1594.0,0.00963588449905152
1593.0,0.008859676427515036
1592.0,0.008263899521522754
1591.0,0.007802469749193498
1590.0,0.007466764640279455
1589.0,0.007304303302439124
1588.0,0.007373203438549405
1587.0,0.00768446439085313
1586.0,0.00817617875296696
1585.0,0.008715725568240405
1584.0,0.00911869126966248
1583.0,0.00919551143924438
1582.0,0.008861880095799092
1581.0,0.008232684630636733
1580.0,0.007530827686507702
1579.0,0.006904377153501298
1578.0,0.006377997184103878
1577.0,0.005920289519408413
1576.0,0.0055332087415817886
1575.0,0.0052562910270673325
1574.0,0.0050721851116504076
1573.0,0.004927193117544151
1572.0,0.00480217672486925
1571.0,0.00469079985763556
1570.0,0.004574476700505475
1569.0,0.004458760895048112
1568.0,0.004377017792674473
1567.0,0.004326796524496142
1566.0,0.004281596250349441
1565.0,0.0042349409016510684
1564.0,0.004197243497331944
1563.0,0.004164507994551086
1562.0,0.0041380129143744155
1561.0,0.004117313673139635
1560.0,0.004142355229400776
1559.0,0.004166590938282667
1558.0,0.0041351114762674165
1557.0,0.004149537848842668
1556.0,0.004198401150530934
1555.0,0.0042399911883409195
1554.0,0.00428498481065706
1553.0,0.004329339614175069
1552.0,0.004380043037455717
1551.0,0.004438215172515205
1550.0,0.004499587044099107
1549.0,0.004555697631724152
1548.0,0.004611156864622615
1547.0,0.004672566539874021
1546.0,0.0047395985652786314
1545.0,0.0048034028932395605
1544.0,0.004847189699212073
1543.0,0.00486269112984759
1542.0,0.004855006634905932
1541.0,0.004831463342089554
1540.0,0.00477794013577604
1539.0,0.004715546061283839
1538.0,0.004679215518716221
1537.0,0.004638499157433304
1536.0,0.0045767433598387745
1535.0,0.004504360122673572
1534.0,0.004408275531907052
1533.0,0.00429212297620485
1532.0,0.004199234562392416
1531.0,0.004139865561855841
1530.0,0.004085155244228017
1529.0,0.00402662259648651
1528.0,0.003974071621062829
1527.0,0.003928449878517997
1526.0,0.003880333652844962
1525.0,0.003834789643053528
1524.0,0.0038048103315739996
1523.0,0.0037900268385287605
1522.0,0.003769821743714272
1521.0,0.0037381029230890194
1520.0,0.003722744920324421
1519.0,0.0037191481984848373
1518.0,0.003703028279054184
1517.0,0.00368211944288174
1516.0,0.003674001458322647
1515.0,0.003677688456124724
1514.0,0.003679150304040966
1513.0,0.0036813526939301422
1512.0,0.0037000677796928177
1511.0,0.00372374460731257
1510.0,0.003735141884958289
1509.0,0.003745217610972137
1508.0,0.00381464633566231
1507.0,0.003947304973127521
1506.0,0.004092290599400215
1505.0,0.004285569550540918
1504.0,0.004537345132464628
1503.0,0.004845817376162105
1502.0,0.005289959780411344
1501.0,0.0060000637447133465
1500.0,0.007163127594099455
1499.0,0.009104779989386021
1498.0,0.012476269102610377
1497.0,0.01805206998779462
1496.0,0.025401027249342994
1495.0,0.03248619141305131
1494.0,0.0375723967671138
1493.0,0.03999353847420772
1492.0,0.03934499674842673
1491.0,0.035415582512633985
1490.0,0.029281001129973006
1489.0,0.02334993576310341
1488.0,0.01904025796073345
1487.0,0.016087686446153323
1486.0,0.013936801563529779
1485.0,0.012305549222797571
1484.0,0.011019837003837156
1483.0,0.009938196128177852
1482.0,0.009008815345064014
1481.0,0.008269889971933595
1480.0,0.007727828761259133
1479.0,0.00731921500414052
1478.0,0.0069932402476501655
1477.0,0.006744231542958619
1476.0,0.0065594143716967614
1475.0,0.006404158874245402
1474.0,0.006280249699168138
1473.0,0.00622494869793709
1472.0,0.006221181684586069
1471.0,0.006225197226543905
1470.0,0.0062521911995722795
1469.0,0.006328362065009157
1468.0,0.006435887357673082
1467.0,0.006535634515784457
1466.0,0.00663582037076119
1465.0,0.006792254268571853
1464.0,0.00700679901276147
1463.0,0.007217199067960542
1462.0,0.007457319622337533
1461.0,0.0078027967577139895
1460.0,0.008397603906399213
1459.0,0.009599648170085889
1458.0,0.012568992296866617
1457.0,0.018355066453765813
1456.0,0.025256683599343497
1455.0,0.030956757862013046
1454.0,0.035279831429267175
1453.0,0.03831326816169737
1452.0,0.03952680173771746
1451.0,0.0386912623156823
1450.0,0.036405607353361326
1449.0,0.033512964073519946
1448.0,0.030597450770886984
1447.0,0.028086151264729534
1446.0,0.026110472897866225
1445.0,0.024453035014229425
1444.0,0.022850931342268278
1443.0,0.021255282191127305
1442.0,0.019779379818650484
1441.0,0.018500182577892797
1440.0,0.017390222840267016
1439.0,0.01637125480112343
1438.0,0.015320377946234046
1437.0,0.014108340279806179
1436.0,0.0128497240210204
1435.0,0.01182506421970781
1434.0,0.011059689734099376
1433.0,0.010393251143294108
1432.0,0.009735732469450403
1431.0,0.009105197470915748
1430.0,0.008551857833898634
1429.0,0.008086521317995624
1428.0,0.0077115543342032074
1427.0,0.007432848966236643
1426.0,0.007224145764708258
1425.0,0.007033102160779689
1424.0,0.006837283512052671
1423.0,0.0066662711150495945
1422.0,0.006540862126023899
1421.0,0.006440475363767762
1420.0,0.006345409051760222
1419.0,0.00625999423859005
1418.0,0.00618496946011958
1417.0,0.006103737333671545
1416.0,0.006015833944187087
1415.0,0.005942591413219664
1414.0,0.005890298818848217
1413.0,0.005842406917761473
1412.0,0.005791382560554903
1411.0,0.005748720460244101
1410.0,0.005716448514276021
1409.0,0.005680279421791956
1408.0,0.005638531492988106
1407.0,0.005608087226301199
1406.0,0.005594726010414923
1405.0,0.005581710981177679
1404.0,0.0055618424696145235
1403.0,0.005549861821150111
1402.0,0.00555065525994382
1401.0,0.005554865113806396
1400.0,0.005564232940667341
1399.0,0.0055902665905685255
1398.0,0.005630642176783238
1397.0,0.005674469762995158
1396.0,0.005731310033153962
1395.0,0.0058223138480255595
1394.0,0.005942587810477874
1393.0,0.006069493449242773
1392.0,0.006199772466831516
1391.0,0.006348682250732928
1390.0,0.0065290444963010535
1389.0,0.006748066203086798
1388.0,0.007011643141229524
1387.0,0.007303277805693375
1386.0,0.007578630368045113
1385.0,0.007814895808707518
1384.0,0.008032856789960751
1383.0,0.008260639138245115
1382.0,0.00850197777335585
1381.0,0.00874588780544532
1380.0,0.008991012702211315
1379.0,0.009239031890586594
1378.0,0.009476545500335857
1377.0,0.00968636171479658
1376.0,0.00986571517392174
1375.0,0.010013387436766108
1374.0,0.01011169573771232
1373.0,0.01014922322935436
1372.0,0.01014242543125856
1371.0,0.010114063918788605
1370.0,0.01007497063820223
1369.0,0.010028158861915312
1368.0,0.009977061410046667
1367.0,0.009927143201391977
1366.0,0.009879778898346151
1365.0,0.009830418444202654
1364.0,0.009772488511938779
1363.0,0.009700389853543882
1362.0,0.009613300801007679
1361.0,0.009516037303788952
1360.0,0.009413038148999913
1359.0,0.009307226549722554
1358.0,0.009203222072770429
1357.0,0.009106744665146228
1356.0,0.009024007081421415
1355.0,0.008961311001615407
1354.0,0.008920937378570156
1353.0,0.008898098595911072
1352.0,0.008885687223636002
1351.0,0.008879534160686384
1350.0,0.008874733688418613
1349.0,0.008861613235410846
1348.0,0.008831111474007945
1347.0,0.008780769161004698
1346.0,0.008711573681341246
1345.0,0.008623951092104074
1344.0,0.008521851158632274
1343.0,0.008415923930084387
1342.0,0.008317026115749688
1341.0,0.008229249156751297
1340.0,0.008153574031005872
1339.0,0.008097731272983305
1338.0,0.008074958714131669
1337.0,0.008092283761217402
1336.0,0.008148734616959393
1335.0,0.008241258088840237
1334.0,0.00836464915041824
1333.0,0.008508577469511629
1332.0,0.008658241462004649
1331.0,0.008796612210398437
1330.0,0.008905970577988118
1329.0,0.008970935898384637
1328.0,0.008983857785692141
1327.0,0.008948694039853386
1326.0,0.008878314331484175
1325.0,0.008787780360315066
1324.0,0.008691318878925838
1323.0,0.008603114384418313
1322.0,0.00853501752786524
1321.0,0.008492128655905404
1320.0,0.00847400664335863
1319.0,0.008479620248302849
1318.0,0.008507993090064921
1317.0,0.008555204168967299
1316.0,0.008614502681321646
1315.0,0.0086783779949605
1314.0,0.008737258300487724
1313.0,0.00877840887839505
1312.0,0.008791281169959845
1311.0,0.008773881057774468
1310.0,0.008730900860875045
1309.0,0.008667509772327966
1308.0,0.008588301294014592
1307.0,0.008499602143659324
1306.0,0.008407147147829164
1305.0,0.00831209857788993
1304.0,0.00821342988532895
1303.0,0.008113097007411012
1302.0,0.00801497277945029
1301.0,0.00792054505651913
1300.0,0.007830664871673448
1299.0,0.007750086008035182
1298.0,0.007684739647023856
1297.0,0.007634758283864148
1296.0,0.007594587387043661
1295.0,0.007559200052150519
1294.0,0.007526070281585414
1293.0,0.007492206341180257
1292.0,0.007454054564854715
1291.0,0.007410571787620744
1290.0,0.00736321054209866
1289.0,0.007313633429858368
1288.0,0.007264712800657491
1287.0,0.007222141322603855
1286.0,0.007190568378800912
1285.0,0.007168923484634569
1284.0,0.007152662674265526
1283.0,0.0071384467423133355
1282.0,0.0071230377686787305
1281.0,0.007100011393991893
1280.0,0.0070624852210474515
1279.0,0.007008641057536581
1278.0,0.006941170033585927
1277.0,0.006862602728191589
1276.0,0.006775286099394137
1275.0,0.006684520361714156
1274.0,0.006596787349636037
1273.0,0.006515144682004015
1272.0,0.006439649472958712
1271.0,0.0063707276237225325
1270.0,0.00630849276870883
1269.0,0.0062511226193675395
1268.0,0.006198181117933359
1267.0,0.006153212494992066
1266.0,0.006118891333516861
1265.0,0.006091955979681532
1264.0,0.00606722622214005
1263.0,0.006044258960670014
1262.0,0.006025834360516383
1261.0,0.006012328632301525
1260.0,0.006002124200714623
1259.0,0.0059954719823268185
1258.0,0.005993545532922937
1257.0,0.005995572977414353
1256.0,0.00600086504194404
1255.0,0.006011570455584484
1254.0,0.00602938531182545
1253.0,0.00605126183541656
1252.0,0.006072197242391931
1251.0,0.006090764597996045
1250.0,0.006108290939541863
1249.0,0.006124037910657721
1248.0,0.006135094286028342
1247.0,0.006140297552538704
1246.0,0.006140986889668863
1245.0,0.006138468439705396
1244.0,0.006133687074926993
1243.0,0.0061286056728432564
1242.0,0.006124599148497168
1241.0,0.006119904586281815
1240.0,0.006111560088633265
1239.0,0.0060995976751267835
1238.0,0.00608719979283513
1237.0,0.006077486210784645
1236.0,0.006072227266979354
1235.0,0.006072391876662869
1234.0,0.0060774245301247354
1233.0,0.006085165027356746
1232.0,0.0060946847726645595
1231.0,0.006107805874386785
1230.0,0.006125804443859319
1229.0,0.00614628825313036
1228.0,0.006165413912615689
1227.0,0.006181391216307899
1226.0,0.006193811519134901
1225.0,0.006201721310677419
1224.0,0.006205036354519931
1223.0,0.00620612007371232
1222.0,0.0062072409449126665
1221.0,0.006208118030476784
1220.0,0.006208630488312307
1219.0,0.006211948000437978
1218.0,0.00622170373729895
1217.0,0.006237637478865441
1216.0,0.006257404542976433
1215.0,0.00628149835095733
1214.0,0.006313316754172042
1213.0,0.006355262724188291
1212.0,0.006407205737428995
1211.0,0.006467705566378892
1210.0,0.00653465161004984
1209.0,0.006606107012857339
1208.0,0.0066826985882655725
1207.0,0.0067679823108208245
1206.0,0.006864667217017123
1205.0,0.006971945467261679
1204.0,0.007087946764925223
1203.0,0.007211944024839136
1202.0,0.007340961863957199
1201.0,0.007466086254435549
1200.0,0.007576183282971697
1199.0,0.007665823135834417
1198.0,0.007737227420501659
1197.0,0.007794251940696478
1196.0,0.007838029223916493
1195.0,0.007870003460615987
1194.0,0.007895173696431121
1193.0,0.007919180693542287
1192.0,0.007944960683731829
1191.0,0.007975559079509064
1190.0,0.008018857741308767
1189.0,0.008087733195614118
1188.0,0.00819732842209556
1187.0,0.008362455181460159
1186.0,0.00859224892791669
1185.0,0.008880310181293797
1184.0,0.009196452096415323
1183.0,0.009487837922027767
1182.0,0.009691738121000179
1181.0,0.009754032369514845
1180.0,0.009646410481251323
1179.0,0.009380715522470566
1178.0,0.009009342006449202
1177.0,0.008602156416395189
1176.0,0.008217846614848657
1175.0,0.007892215490096806
1174.0,0.007639308680998526
1173.0,0.007454899631537887
1172.0,0.0073233688212148654
1171.0,0.007227770953798387
1170.0,0.007156213554919862
1169.0,0.007102098671245829
1168.0,0.007062554521208601
1167.0,0.007037673491855008
1166.0,0.0070292315347716666
1165.0,0.007040248846797799
1164.0,0.0070779710560606585
1163.0,0.007156628827535478
1162.0,0.007294372448128675
1161.0,0.007506604591685371
1160.0,0.007801339278323089
1159.0,0.00817481818416609
1158.0,0.008603796345733565
1157.0,0.009038883668682652
1156.0,0.009407405904812614
1155.0,0.009632007544797925
1154.0,0.009659678843536496
1153.0,0.00948176241752821
1152.0,0.009134826320341573
1151.0,0.00868914519840447
1150.0,0.008227031676598853
1149.0,0.007813158485615727
1148.0,0.0074766589998859715
1147.0,0.007216006388938849
1146.0,0.007013808746390408
1145.0,0.006849030801538742
1144.0,0.00670577855108177
1143.0,0.006577595921609044
1142.0,0.006464147448438384
1141.0,0.00636461589939317
1140.0,0.0062766047774572
1139.0,0.006199493321689881
1138.0,0.006134008819660657
1137.0,0.006078642732253712
1136.0,0.0060303606032227385
1135.0,0.005988438957093489
1134.0,0.005953943459362568
1133.0,0.005926091870520998
1132.0,0.005902914839719786
1131.0,0.0058849502376602655
1130.0,0.005874507524061719
1129.0,0.00587143647309441
1128.0,0.0058729097776019
1127.0,0.00587731732224959
1126.0,0.005885773439283299
1125.0,0.005900454206699088
1124.0,0.005924119112750311
1123.0,0.0059601880603660905
1122.0,0.006010319494254511
1121.0,0.006072914726855883
1120.0,0.006146557037631749
1119.0,0.006233036153898652
1118.0,0.006333241405925005
1117.0,0.006440807509309165
1116.0,0.006543450113119297
1115.0,0.0066312271994837645
1114.0,0.006701312009644896
1113.0,0.006754471817591514
1112.0,0.006790191834825204
1111.0,0.006807411474031637
1110.0,0.0068076955141200025
1109.0,0.00679556192608103
1108.0,0.006777396005191955
1107.0,0.006761148000744248
1106.0,0.006753852468766091
1105.0,0.006757307876181728
1104.0,0.006768535749092023
1103.0,0.006785770215962659
1102.0,0.0068114024177964045
1101.0,0.006847644135332143
1100.0,0.0068911634243710275
1099.0,0.0069348319216065045
1098.0,0.0069736170140631435
1097.0,0.007007824168113247
1096.0,0.007041447718396126
1095.0,0.007078155542289375
1094.0,0.007118142688563525
1093.0,0.007158247565683265
1092.0,0.007196147426579286
1091.0,0.007234659623805326
1090.0,0.00728070542247213
1089.0,0.007340094541799768
1088.0,0.007415151052250419
1087.0,0.007507109862739279
1086.0,0.007617713214051389
1085.0,0.007747106663385997
1084.0,0.007892105182772117
1083.0,0.008047978408135007
1082.0,0.008210878371531241
1081.0,0.008377821420232504
1080.0,0.008546875043772861
1079.0,0.008720862952648543
1078.0,0.008910335337258466
1077.0,0.009129184526967265
1076.0,0.009385834007971246
1075.0,0.009678703287715038
1074.0,0.009997002326502923
1073.0,0.0103208998640753
1072.0,0.010621165235100007
1071.0,0.010865992985249113
1070.0,0.011032861939869753
1069.0,0.011110770097432368
1068.0,0.011092919778753213
1067.0,0.010977514404313419
1066.0,0.010776688581280393
1065.0,0.010515362057416404
1064.0,0.010220638031651078
1063.0,0.009917099591173137
1062.0,0.009625790499793653
1061.0,0.009358062868351875
1060.0,0.009113035352487423
1059.0,0.008886839614249119
1058.0,0.008681100969840127
1057.0,0.008498897694323639
1056.0,0.008338028145007084
1055.0,0.008193507999723371
1054.0,0.008062772618432877
1053.0,0.007943924344822875
1052.0,0.007832360416096638
1051.0,0.007724197833986753
1050.0,0.007620825370552007
1049.0,0.007526055212440683
1048.0,0.007441628574158412
1047.0,0.007368332383524946
1046.0,0.007307563737405364
1045.0,0.007259637963637046
1044.0,0.007224291048971196
1043.0,0.007204619599638881
1042.0,0.007208340709941138
1041.0,0.00724610086895738
1040.0,0.007333923883663735
1039.0,0.00749974795963919
1038.0,0.0077850644845391705
1037.0,0.008238291965613258
1036.0,0.008903093919021478
1035.0,0.009801483812297788
1034.0,0.010913527818914396
1033.0,0.01216610833640311
1032.0,0.013441748905683408
1031.0,0.014606898027485864
1030.0,0.015544105243676356
1029.0,0.016159521286775124
1028.0,0.016375855499948105
1027.0,0.016159776417852822
1026.0,0.015572351752854086
1025.0,0.014763021226620312
1024.0,0.013896454959901957
1023.0,0.013088724494690934
1022.0,0.012392847907073942
1021.0,0.011812851047840028
1020.0,0.011325752010694311
1019.0,0.010905512939348246
1018.0,0.010538091091506243
1017.0,0.010218327237488401
1016.0,0.00993998206310897
1015.0,0.009695175361511899
1014.0,0.009479327129134582
1013.0,0.00928961014731743
1012.0,0.009120889400143559
1011.0,0.008969905969940692
1010.0,0.008843163126774535
1009.0,0.008756330834051878
1008.0,0.008725798101661941
1007.0,0.008760351015820234
1006.0,0.00885278811350521
1005.0,0.008969960673141859
1004.0,0.009051957597352719
1003.0,0.009033421291912076
1002.0,0.008879028728080511
1001.0,0.008604057016995988
1000.0,0.008264247448344822
999.0,0.007927766366475925
998.0,0.007646546828049643
997.0,0.007439204061298232
996.0,0.007294888693231383
995.0,0.0071928363060029645
994.0,0.0071189445527221045
993.0,0.007068049631585117
992.0,0.0070383086628002
991.0,0.007028594390278222
990.0,0.007039416164933443
989.0,0.007072157315270746
988.0,0.0071268806637443585
987.0,0.007202047578462936
986.0,0.0072950419933529055
985.0,0.0074005671281485354
984.0,0.007508748299471506
983.0,0.007607021348875035
982.0,0.007684475132997774
981.0,0.007733210466811307
980.0,0.007746559214741442
979.0,0.0077194878672922716
978.0,0.007651707289561809
977.0,0.00754913708008499
976.0,0.0074242075158984944
975.0,0.007297219722800996
974.0,0.007194054524693127
973.0,0.0071371663744052025
972.0,0.007137646332606319
971.0,0.007195291280451333
970.0,0.007302652707899505
969.0,0.007446741008372613
968.0,0.007608889091021176
967.0,0.00776687331907638
966.0,0.007899181143463432
965.0,0.007987084468911818
964.0,0.008014541555259016
963.0,0.007971207505138623
962.0,0.007857737506498551
961.0,0.007686514573414507
960.0,0.007478160763642756
959.0,0.007258688785951314
958.0,0.0070545509343889765
957.0,0.006883665439340299
956.0,0.006751067420119006
955.0,0.006654207126310069
954.0,0.006589715987218524
953.0,0.006554021973857609
952.0,0.006541735054752511
951.0,0.006547670879205239
950.0,0.006569854447120197
949.0,0.006608391962537981
948.0,0.006661862181494534
947.0,0.0067258946418069015
946.0,0.006793779462839186
945.0,0.006856378871914749
944.0,0.006902194927312186
943.0,0.00692026862287844
942.0,0.006904329242236907
941.0,0.006854251410858796
940.0,0.006775015336135181
939.0,0.006675233004577441
938.0,0.006563923094457158
937.0,0.006446222557301457
936.0,0.00632392239771603
935.0,0.006200637463677893
934.0,0.006082748114061436
933.0,0.005974332720380661
932.0,0.005875917074891843
931.0,0.005790169348993463
930.0,0.005724064218033621
929.0,0.005682299930538535
928.0,0.0056619840551377434
927.0,0.005656607853929645
926.0,0.005662834764302668
925.0,0.005681343428826413
924.0,0.005713610830412681
923.0,0.005760587788013911
922.0,0.005823116782570473
921.0,0.005902192553332178
920.0,0.00600094135151343
919.0,0.006127978639640633
918.0,0.006296207089649227
917.0,0.006515672798434096
916.0,0.006789499121795909
915.0,0.007119090209849264
914.0,0.007510252892438952
913.0,0.00796787709698926
912.0,0.008482188611995468
911.0,0.009023420359212306
910.0,0.009551377234082727
909.0,0.010025176083751685
908.0,0.010402336240731332
907.0,0.010640583438998022
906.0,0.010711876075369312
905.0,0.010611289048280839
904.0,0.010350449595622455
903.0,0.009952261335129896
902.0,0.009453373413696235
901.0,0.008899800536991735
900.0,0.00833569053218831
899.0,0.007799149348444211
898.0,0.007321862991314045
897.0,0.006922568533307728
896.0,0.0066015453783763115
895.0,0.006346439084825269
894.0,0.006142965726831827
893.0,0.00597902437115762
892.0,0.005843323877461061
891.0,0.005726245723457068
890.0,0.0056225801619069395
889.0,0.005530220385808425
888.0,0.005445832652293107
887.0,0.005364293140969697
886.0,0.005282607488907596
885.0,0.005201861502308759
884.0,0.005124434951025716
883.0,0.005051152703053938
882.0,0.004982389598607493
881.0,0.004920841695332266
880.0,0.0048710023125980925
879.0,0.004834289334652258
878.0,0.004804961813175856
877.0,0.004773092225075009
876.0,0.004732958702835527
875.0,0.004687528584014548
874.0,0.004643927138918718
873.0,0.004606152785262521
872.0,0.0045736028460524845
871.0,0.004544466920036958
870.0,0.004517615453672424
869.0,0.004492120324583942
868.0,0.004467372769362572
867.0,0.004443378543736982
866.0,0.004419830454449729
865.0,0.004396344571716958
864.0,0.004374804315675651
863.0,0.004358899946140087
862.0,0.004348920956212697
861.0,0.004339765713799664
860.0,0.004327717127533854
859.0,0.004316832481043315
858.0,0.004314155295226802
857.0,0.0043204645715593
856.0,0.0043318025437877475
855.0,0.004350465571058383
854.0,0.004388625099865167
853.0,0.004458498288191932
852.0,0.004562463159405342
851.0,0.004694749351444597
850.0,0.004849632808366433
849.0,0.005025020824266743
848.0,0.005218802083642597
847.0,0.005424005671425645
846.0,0.00562810746571561
845.0,0.0058160875631795015
844.0,0.005974191989954002
843.0,0.006092455073469067
842.0,0.006164166111725547
841.0,0.006181979800135703
840.0,0.006136830217126223
839.0,0.00602464858058368
838.0,0.005853029187191
837.0,0.00563807825331102
836.0,0.005397589228282032
835.0,0.005150293716561217
834.0,0.004915622879930173
833.0,0.004707505587604903
832.0,0.00453075988646868
831.0,0.004386052042715796
830.0,0.004273546919535686
829.0,0.0041888617776075525
828.0,0.0041216036174093005
827.0,0.004063898313479623
826.0,0.004016727129786632
825.0,0.003981857679369276
824.0,0.0039517726930412165
823.0,0.0039161234062580035
822.0,0.0038758179678545605
821.0,0.0038421690297969374
820.0,0.0038231366632524703
819.0,0.0038163927938569173
818.0,0.003814062134067264
817.0,0.00380920227735833
816.0,0.003798269899539665
815.0,0.003781676283647617
814.0,0.00376319344667331
813.0,0.003746613149656902
812.0,0.0037324491330992505
811.0,0.0037191611389999412
810.0,0.0037069256296161242
809.0,0.003697987496011924
808.0,0.0036933442334054502
807.0,0.003691073712966294
806.0,0.0036881324909933794
805.0,0.0036824131108934644
804.0,0.0036735228241653907
803.0,0.003663870759116715
802.0,0.0036593462142777635
801.0,0.0036665121377704207
800.0,0.003687699543889064
799.0,0.003719965916844562
798.0,0.003759875430309792
797.0,0.003808381267315223
796.0,0.0038699831601750577
795.0,0.003948181486400196
794.0,0.004043097883698953
793.0,0.004152483194553208
792.0,0.004273158669071346
791.0,0.004402478295578352
790.0,0.0045408349952550916
789.0,0.004691908519179541
788.0,0.00485818215175901
787.0,0.00503778755553179
786.0,0.005229319366038213
785.0,0.005438772239959846
784.0,0.005677615833204864
783.0,0.005954493588151386
782.0,0.006273078965042999
781.0,0.006638171610954228
780.0,0.007059022211616159
779.0,0.007545331500767209
778.0,0.008103753359186523
777.0,0.008738475609744927
776.0,0.009450625219657885
775.0,0.01023727272612126
774.0,0.011096592222401884
773.0,0.01203352579749432
772.0,0.013054159534508445
771.0,0.014154641271982498
770.0,0.015318567111173086
769.0,0.016519094328979654
768.0,0.017718967170049043
767.0,0.018882953660218343
766.0,0.02000526546549668
765.0,0.021114294663708556
764.0,0.022239818736905625
763.0,0.023390291431194164
762.0,0.02456684728808151
761.0,0.025768488611428456
760.0,0.026961387412235784
759.0,0.02806675659612939
758.0,0.029003379871131715
757.0,0.029724773671715114
756.0,0.030206218943970048
755.0,0.030439128857825362
754.0,0.030465845012490323
753.0,0.030382589308498215
752.0,0.030279496820234585
751.0,0.03019709074875483
750.0,0.030136725339210677
749.0,0.030063851753142367
748.0,0.029882216009022484
747.0,0.029446865437098745
746.0,0.028640094997378976
745.0,0.02743070260729532
744.0,0.025868329913562922
743.0,0.024060913024114488
742.0,0.022157366261259158
741.0,0.020301492817712374
740.0,0.018576126999891834
739.0,0.016995299533505717
738.0,0.015537503320416837
737.0,0.01417007212294638
736.0,0.012858248014112733
735.0,0.011583923842159673
734.0,0.010363957736079519
733.0,0.009238073083516311
732.0,0.008238511328788752
731.0,0.007378070499710102
730.0,0.006658069016984061
729.0,0.006071556587109011
728.0,0.005596962185820962
727.0,0.005201992985873153
726.0,0.004862188193829893
725.0,0.004569895610956465
724.0,0.0043220859479324416
723.0,0.004107370774417964
722.0,0.003910737331146387
721.0,0.0037266703826031606
720.0,0.003563650054893383
719.0,0.0034389144910157623
718.0,0.003371566827836509
717.0,0.0033793771263528564
716.0,0.0034799093684670197
715.0,0.0036944723974563125
714.0,0.004055734523383595
713.0,0.004614787698552406
712.0,0.005438141912244171
711.0,0.006598245418709211
710.0,0.00816954068023759
709.0,0.010226695268310977
708.0,0.012830209681848104
707.0,0.016011732980233086
706.0,0.019790682034127965
705.0,0.024198995492580734
704.0,0.029260891357579526
703.0,0.034961655014491236
702.0,0.041280475865295214
701.0,0.048238706206683954
700.0,0.055854442349609824
699.0,0.0640426588847876
698.0,0.07253794414446522
697.0,0.08068974730245504
696.0,0.08706062932691172
695.0,0.08948386041665872
694.0,0.08640368768681558
693.0,0.07842312793839269
692.0,0.0679013652376591
691.0,0.05725558859894309
690.0,0.0479666542907736
689.0,0.040545781703596226
688.0,0.0348756360214958
687.0,0.030590338496898475
686.0,0.027335008036493406
685.0,0.024836468267011726
684.0,0.022869889237630735
683.0,0.02125459040928691
682.0,0.019885880284311496
681.0,0.018724373590936125
680.0,0.01774101181416349
679.0,0.01689253053458157
678.0,0.01614784931789106
677.0,0.015502258206968308
676.0,0.014943862844787263
675.0,0.014440804313844938
674.0,0.013974966600259722
673.0,0.013555320044349313
672.0,0.01318280513230111
671.0,0.012816512818102735
670.0,0.012389514603883201
669.0,0.011825825363340437
668.0,0.011204340659937662
667.0,0.010850351318890249
666.0,0.010741701475966625
665.0,0.010629483613129707
664.0,0.010427288837943959
663.0,0.010139935664895905
662.0,0.009809267761035221
661.0,0.009480307911685564
660.0,0.009169688216281092
659.0,0.008878830175140023
658.0,0.008614911548584889
657.0,0.008385392184558329
656.0,0.008180006652574151
655.0,0.007980292988715621
654.0,0.007776760964683974
653.0,0.007569661716260608
652.0,0.00736533113620395
651.0,0.007180804987237652
650.0,0.0070330097638659685
649.0,0.0069099606386587905
648.0,0.006769877340419783
647.0,0.006586900895955771
646.0,0.006387564297404131
645.0,0.006221442801644288
644.0,0.006110038968637842
643.0,0.006037526900271125
642.0,0.005975957716935678
641.0,0.005910037061024363
640.0,0.005840309993296313
639.0,0.00577458644092806
638.0,0.005721702872312091
637.0,0.005686918148256207
636.0,0.005672479972748265
635.0,0.00568374402051924
634.0,0.005724344600732602
633.0,0.005779060104923411
632.0,0.00581050595215548
631.0,0.005785859174128508
630.0,0.005712668780975613
629.0,0.005633625789318168
628.0,0.005580530248688806
627.0,0.005548075816207674
626.0,0.005512261555170879
625.0,0.005461849340304532
624.0,0.005409620056625944
623.0,0.0053816643255617195
622.0,0.005388725158554358
621.0,0.005395305732984095
620.0,0.005331666207964053
619.0,0.005162733581754077
618.0,0.004949790401811942
617.0,0.004798409908466846
616.0,0.004744810987291209
615.0,0.004739992025910929
614.0,0.004722478771305308
613.0,0.004656852529407744
612.0,0.004521125175202594
611.0,0.004321931899043757
610.0,0.004130801682414823
609.0,0.0040446407207747155
608.0,0.0040901290529540895
607.0,0.004195611663594894
606.0,0.004265490885341699
605.0,0.004267895341068155
604.0,0.004219484021794277
603.0,0.004121094598849073
602.0,0.003964391730686515
601.0,0.0037814460496375804
600.0,0.003643826341653009
599.0,0.0036002527734866193
598.0,0.003629546497196285
597.0,0.003680057534541127
596.0,0.0037339925928318004
595.0,0.003797214068028863
594.0,0.0038394829859571935
593.0,0.003798253952443549
592.0,0.003664088212371559
591.0,0.0035343698739637892
590.0,0.0035283938517232712
589.0,0.003645782516416794
588.0,0.0037758785651712803
587.0,0.0038184707371082963
586.0,0.0037685076608258454
585.0,0.0036924731006221572
584.0,0.003643925314543395
583.0,0.003632465664158973
582.0,0.0036414847975131392
581.0,0.00365423618118151
580.0,0.0036698093439309657
579.0,0.003699274383604622
578.0,0.0037362383372291277
577.0,0.0037341321176879343
576.0,0.0036488850368259764
575.0,0.003525157446933362
574.0,0.0034798019022412325
573.0,0.003550143834958189
572.0,0.003654677045306271
571.0,0.0037029168952413824
570.0,0.0036967945890046964
569.0,0.0036859701237641398
568.0,0.0036603100154745574
567.0,0.0035955436136719515
566.0,0.003549425459653057
565.0,0.0035905532940707172
564.0,0.003682833276441911
563.0,0.0037268373149930336
562.0,0.0036965560516078848
561.0,0.0036485679762926805
560.0,0.003605425440558453
559.0,0.0035600768985474505
558.0,0.0035673611716973367
557.0,0.0036843694029573635
556.0,0.003845700213426834
555.0,0.003945659930980058
554.0,0.004040074593958052
553.0,0.004237957668763259
552.0,0.0043939906949508785
551.0,0.004200635005733002
550.0,0.0036948543350125707
