cm-1,A
4000.0,0.002497669252015111
3999.0,0.0024884523965681424
3998.0,0.0024838184574447076
3997.0,0.002490167734685339
3996.0,0.0025075615882950587
3995.0,0.0025300153011452147
3994.0,0.0025507028742159056
3993.0,0.0025651391122532095
3992.0,0.002571941517711334
3991.0,0.0025709289458545814
3990.0,0.0025632254254687415
3989.0,0.0025523570668164394
3988.0,0.0025413525365382958
3987.0,0.0025314888592629405
3986.0,0.002524043490194171
3985.0,0.002522320353455893
3984.0,0.0025292354236445443
3983.0,0.0025417902373181638
3982.0,0.002551869382208847
3981.0,0.0025533638810923964
3980.0,0.002550657501230743
3979.0,0.0025557422925093784
3978.0,0.0025764099447000343
3977.0,0.0026077438110133026
3976.0,0.0026334975086403775
3975.0,0.0026405463046400967
3974.0,0.002628569095363604
3973.0,0.0026073137663241664
3972.0,0.0025868782543655216
3971.0,0.0025706989995602225
3970.0,0.002558999773133731
3969.0,0.002553181203327158
3968.0,0.0025556519281411004
3967.0,0.0025663275686250145
3966.0,0.0025801774472286954
3965.0,0.0025895256832546435
3964.0,0.002589100805361933
3963.0,0.0025812195156031453
3962.0,0.0025741365868194276
3961.0,0.0025749312441369354
3960.0,0.002583531474967882
3959.0,0.0025916467335958034
3958.0,0.0025918497436469394
3957.0,0.002585351212346141
3956.0,0.0025779304691139343
3955.0,0.0025729840005413764
3954.0,0.002568789878538538
3953.0,0.002563529190613335
3952.0,0.0025628403651145925
3951.0,0.002575188588329453
3950.0,0.0026021840263791727
3949.0,0.00263031717097354
3948.0,0.002641407362122269
3947.0,0.002624292949973044
3946.0,0.0025705149410370958
3945.0,0.0024885416313904906
3944.0,0.002409961470996644
3943.0,0.002374066165747351
3942.0,0.002404947942270117
3941.0,0.0024850428349644186
3940.0,0.0025669778135593638
3939.0,0.002614668540874176
3938.0,0.0026254853329695255
3937.0,0.002620017401965583
3936.0,0.002616602334370806
3935.0,0.002622660458282633
3934.0,0.002638383485798176
3933.0,0.0026616153745695767
3932.0,0.0026809837438990253
3931.0,0.0026853493224939726
3930.0,0.0026742862633188655
3929.0,0.0026466511706398797
3928.0,0.0026037319285361236
3927.0,0.002559765170853377
3926.0,0.002542870305561209
3925.0,0.0025606569721417045
3924.0,0.0025895961711000963
3923.0,0.002611771528390253
3922.0,0.002624565589275642
3921.0,0.0026357435405231925
3920.0,0.00265084265211907
3919.0,0.002658986258701425
3918.0,0.0026422394517146798
3917.0,0.0026001753872221455
3916.0,0.0025615673209746868
3915.0,0.0025509404485609295
3914.0,0.0025601874141781963
3913.0,0.0025708473919154335
3912.0,0.002574193227618253
3911.0,0.0025702417623218697
3910.0,0.002563314177596983
3909.0,0.0025590455889408607
3908.0,0.002568989241946361
3907.0,0.00261395626394056
3906.0,0.0027079739973488648
3905.0,0.0028230826445530734
3904.0,0.0028974429136184353
3903.0,0.0029095789394123486
3902.0,0.002888290429697715
3901.0,0.0028568198004494515
3900.0,0.002816685539475355
3899.0,0.0027827302150043786
3898.0,0.0027747621004257546
3897.0,0.0027840924343388975
3896.0,0.0027968343532989845
3895.0,0.0028106691325689324
3894.0,0.0028266547733677367
3893.0,0.0028374684069309188
3892.0,0.0028271194274826026
3891.0,0.0028130013520759967
3890.0,0.0028163566877890964
3889.0,0.0028066993024832105
3888.0,0.0027599687159990385
3887.0,0.0027024319014032593
3886.0,0.0026757817810144392
3885.0,0.0026751778706758335
3884.0,0.0026506387201023296
3883.0,0.0025651674289137597
3882.0,0.002437088847377461
3881.0,0.002343914805780547
3880.0,0.0023687434298204878
3879.0,0.0024912779073481455
3878.0,0.0025911280497535995
3877.0,0.0025902333221204067
3876.0,0.0025110599932160966
3875.0,0.0024400676488933876
3874.0,0.0024508767909241216
3873.0,0.002536040564106009
3872.0,0.0026260072961741456
3871.0,0.0026588771896792103
3870.0,0.00265124052822795
3869.0,0.002686572993560324
3868.0,0.002775352135909571
3867.0,0.0028543565253220026
3866.0,0.002898664423707382
3865.0,0.002908396543070617
3864.0,0.0028697524082848874
3863.0,0.00280001197720437
3862.0,0.002746675431123221
3861.0,0.0027182681176080104
3860.0,0.0026900997605483878
3859.0,0.002656281677824458
3858.0,0.002636819940200843
3857.0,0.0026560305056663267
3856.0,0.0027286289194109565
3855.0,0.0028404039927149806
3854.0,0.002941721332783913
3853.0,0.0029317595541568956
3852.0,0.002857392409885362
3851.0,0.0027893312489932027
3850.0,0.0027284763182698598
3849.0,0.002680212621346101
3848.0,0.0026467283172496416
3847.0,0.002617899449452804
3846.0,0.0025889740852824824
3845.0,0.0025661594953115506
3844.0,0.002561181750153554
3843.0,0.0025785079986153387
3842.0,0.002617538472825728
3841.0,0.002674894256871471
3840.0,0.0027306921890967416
3839.0,0.002748160509253383
3838.0,0.002732094271411031
3837.0,0.0027339615609393193
3836.0,0.0027596651319839478
3835.0,0.002768565055011842
3834.0,0.002745651941328247
3833.0,0.0027124590598663918
3832.0,0.0026981250560312135
3831.0,0.00270810417901651
3830.0,0.0027186827563217032
3829.0,0.0027101034258079455
3828.0,0.0026907768987939566
3827.0,0.0026909538556494743
3826.0,0.0027289271353612993
3825.0,0.002786689165840547
3824.0,0.002823593929961031
3823.0,0.002815861225288984
3822.0,0.002790592152479801
3821.0,0.0027789624425628634
3820.0,0.002783411599637086
3819.0,0.002768324254552727
3818.0,0.0026934383399098843
3817.0,0.0025785603051049185
3816.0,0.002498803109820066
3815.0,0.0025124769706557715
3814.0,0.0025766926522828026
3813.0,0.0026203873424533904
3812.0,0.0026333687540591646
3811.0,0.00263870954007182
3810.0,0.002653110672275136
3809.0,0.002683387477737575
3808.0,0.0027278898795301343
3807.0,0.0027683567482908724
3806.0,0.0027737505558581
3805.0,0.0027169458881886217
3804.0,0.002605540451644301
3803.0,0.0024929012054989317
3802.0,0.0024395404963212216
3801.0,0.0024708388424854195
3800.0,0.002559324236653948
3799.0,0.0026149951194663025
3798.0,0.002588559438530152
3797.0,0.00251646390533503
3796.0,0.0024726837415751657
3795.0,0.0024830433431707946
3794.0,0.0025089212316342256
3793.0,0.002516329233491661
3792.0,0.002511254382857782
3791.0,0.0025131138946345305
3790.0,0.0025323631981402656
3789.0,0.0025652658777684115
3788.0,0.0025967464572240646
3787.0,0.002610916012341197
3786.0,0.002599421063438756
3785.0,0.002567999757959809
3784.0,0.0025354470172364715
3783.0,0.002510925608708174
3782.0,0.0024815687404273652
3781.0,0.002447276039511272
3780.0,0.0024293792058608377
3779.0,0.0024458849256470006
3778.0,0.0024929996277713844
3777.0,0.0025431737274229545
3776.0,0.0025742137114688566
3775.0,0.002589766863973132
3774.0,0.0026054514898359972
3773.0,0.002630682938146677
3772.0,0.002668828094365897
3771.0,0.0027182240864066353
3770.0,0.0027665559693600215
3769.0,0.00279554340149023
3768.0,0.002790085515914798
3767.0,0.0027554591305807216
3766.0,0.00272420230784086
3765.0,0.0027281683627705024
3764.0,0.002760439896675458
3763.0,0.002779728506731592
3762.0,0.002761100025585375
3761.0,0.0027249731494040337
3760.0,0.0027093541920908404
3759.0,0.002728060016055565
3758.0,0.0027738250253311223
3757.0,0.0028362006749145475
3756.0,0.0028887369414371013
3755.0,0.00291828670525491
3754.0,0.0029602453226580836
3753.0,0.0031102245071293246
3752.0,0.0034210617641697826
3751.0,0.0037178888484685054
3750.0,0.0038258361798960278
3749.0,0.00382404541657368
3748.0,0.0037798753523706234
3747.0,0.0036777013630597197
3746.0,0.003506846973469659
3745.0,0.003336809841593228
3744.0,0.0032994724567448437
3743.0,0.0033597309070620956
3742.0,0.003390202567325016
3741.0,0.0033747714474803786
3740.0,0.003345580081582167
3739.0,0.003310307984352094
3738.0,0.003251867275606708
3737.0,0.003170628573852757
3736.0,0.003077561238416857
3735.0,0.002992474250990723
3734.0,0.002996460794207242
3733.0,0.0031156686833218325
3732.0,0.003270503806208659
3731.0,0.00338583839429823
3730.0,0.0034457416280038638
3729.0,0.003471508068750089
3728.0,0.003488303519784593
3727.0,0.0034975212344873757
3726.0,0.003480120028743772
3725.0,0.0034251451108646327
3724.0,0.0033438990467011083
3723.0,0.003259183386836421
3722.0,0.003193078680665485
3721.0,0.003157285804343864
3720.0,0.0031521470762706453
3719.0,0.0031767281968955513
3718.0,0.0032297565545374362
3717.0,0.003298313666791738
3716.0,0.003354627238870031
3715.0,0.003381862078734704
3714.0,0.0033988789476786683
3713.0,0.0034561855004711962
3712.0,0.0035563157426867324
3711.0,0.0036151763444663837
3710.0,0.0036521110346079367
3709.0,0.0037442381183700217
3708.0,0.0038695487953016366
3707.0,0.0039788566277626876
3706.0,0.004056549583279222
3705.0,0.004109687778934777
3704.0,0.004151672467304622
3703.0,0.004200788433800216
3702.0,0.004277766487479303
3701.0,0.004393218580900718
3700.0,0.004531173800007016
3699.0,0.004657131623135627
3698.0,0.004757637402459078
3697.0,0.00484728986815938
3696.0,0.004937813333582204
3695.0,0.005017369540060411
3694.0,0.005061936203435493
3693.0,0.0050625458354007745
3692.0,0.005047314918069092
3691.0,0.005052760032549786
3690.0,0.005047139636670197
3689.0,0.0050097606714069
3688.0,0.005027930628882289
3687.0,0.005105949752233813
3686.0,0.005177248228426606
3685.0,0.005225043887602709
3684.0,0.005270061435823644
3683.0,0.0053224669588604456
3682.0,0.005374840892788895
3681.0,0.005425037893017951
3680.0,0.005481280710515216
3679.0,0.005539882599205208
3678.0,0.005583927680557248
3677.0,0.0056090969194613535
3676.0,0.0056473553770722525
3675.0,0.0057813516205648926
3674.0,0.0060310635066024125
3673.0,0.006271157210566966
3672.0,0.006453090066993607
3671.0,0.006596363015162615
3670.0,0.006691722054012002
3669.0,0.00678585963546176
3668.0,0.006937153082257615
3667.0,0.007092056459778411
3666.0,0.007214694985312542
3665.0,0.0073168876702140485
3664.0,0.007421977988614865
3663.0,0.007547702002186164
3662.0,0.007707211570684691
3661.0,0.00790276310993885
3660.0,0.00812167121682918
3659.0,0.008349338588475154
3658.0,0.008583736354685323
3657.0,0.008827525092558883
3656.0,0.00905909206793263
3655.0,0.009238512271691174
3654.0,0.009341894284637825
3653.0,0.009380674909444567
3652.0,0.009433090785580878
3651.0,0.009664448896016064
3650.0,0.010120988227339816
3649.0,0.010408069594615963
3648.0,0.010406195547885166
3647.0,0.010471183522732193
3646.0,0.010705110475502376
3645.0,0.011004377716725975
3644.0,0.011286065954278843
3643.0,0.011519926431666707
3642.0,0.011705508233064987
3641.0,0.0118638626740224
3640.0,0.01202102646960117
3639.0,0.012197160510698826
3638.0,0.012400298269822805
3637.0,0.012624110831871689
3636.0,0.01285718414073732
3635.0,0.013096918725767962
3634.0,0.013350282356282472
3633.0,0.013617164139073707
3632.0,0.013888980535388139
3631.0,0.014167165442603234
3630.0,0.014469607798422612
3629.0,0.01476535962355538
3628.0,0.015017473946622884
3627.0,0.01525244585971219
3626.0,0.01546369806318814
3625.0,0.015665534314284878
3624.0,0.015879162410027566
3623.0,0.016108342521605864
3622.0,0.01635020312499316
3621.0,0.016605302617102795
3620.0,0.016856984661305977
3619.0,0.017077012123909052
3618.0,0.017290007106449425
3617.0,0.01753248949964295
3616.0,0.017798380430505
3615.0,0.018066948558282146
3614.0,0.01832305148855606
3613.0,0.018579107477797292
3612.0,0.018859702331903653
3611.0,0.019144935999614265
3610.0,0.01937434258521275
3609.0,0.019503791838943164
3608.0,0.019560863298614187
3607.0,0.019646754895897164
3606.0,0.01983110781171718
3605.0,0.02008883778459364
3604.0,0.020361727434116315
3603.0,0.020622282945771092
3602.0,0.020877575953451723
3601.0,0.021137907966499697
3600.0,0.021394870993617632
3599.0,0.021627229687776053
3598.0,0.021820595263097344
3597.0,0.021977573991184576
3596.0,0.0221161662530632
3595.0,0.02226494593296597
3594.0,0.02246022876401652
3593.0,0.02272328550514017
3592.0,0.02303470561063841
3591.0,0.02334662439186904
3590.0,0.023621827165630768
3589.0,0.023843598033677447
3588.0,0.023991713761118694
3587.0,0.02409732165287274
3586.0,0.024281721676858648
3585.0,0.024567404176922967
3584.0,0.024871603120170404
3583.0,0.02513871716655728
3582.0,0.025368363766601496
3581.0,0.0255822009606562
3580.0,0.02579968068408238
3579.0,0.026028605593244453
3578.0,0.026269049736367355
3577.0,0.026515097546832116
3576.0,0.02675728303847649
3575.0,0.026991745092039478
3574.0,0.02722789774272468
3573.0,0.02747757300226238
3572.0,0.027734113806041433
3571.0,0.027972761702616446
3570.0,0.028176914355444768
3569.0,0.028367843033690242
3568.0,0.028574584496407963
3567.0,0.02876531992079802
3566.0,0.02895068887451376
3565.0,0.029211507149266788
3564.0,0.029539932137802767
3563.0,0.02987479830211582
3562.0,0.030181439129031415
3561.0,0.030454967623145757
3560.0,0.030701793751398858
3559.0,0.0309357215575055
3558.0,0.03117253712657808
3557.0,0.03141808298594079
3556.0,0.03166474174359401
3555.0,0.03190292929800217
3554.0,0.03213195161787858
3553.0,0.03236094526164044
3552.0,0.0326084203502175
3551.0,0.03289116278035323
3550.0,0.0332017209127108
3549.0,0.03351495646574198
3548.0,0.033808335149639004
3547.0,0.034064264753328924
3546.0,0.0342743153702935
3545.0,0.03445616790468249
3544.0,0.03464577924167509
3543.0,0.03486134258767573
3542.0,0.03510033163078886
3541.0,0.035356804138480115
3540.0,0.03562285998908561
3539.0,0.03588569147391109
3538.0,0.036129837862400295
3537.0,0.03634851130851367
3536.0,0.036559801358058044
3535.0,0.03679901737776828
3534.0,0.037082526534359894
3533.0,0.03739187279881216
3532.0,0.0376963584806998
3531.0,0.03797830292270495
3530.0,0.03824100570353295
3529.0,0.03849380224839628
3528.0,0.038740920026343766
3527.0,0.03898719722140663
3526.0,0.03923816563961115
3525.0,0.0394835253340481
3524.0,0.03969904510259796
3523.0,0.03988375587101952
3522.0,0.04007695170112578
3521.0,0.040312383987230485
3520.0,0.04057911746876277
3519.0,0.0408435868442415
3518.0,0.04108802400703702
3517.0,0.041320098059077735
3516.0,0.04155439123445012
3515.0,0.041798164700460695
3514.0,0.04205327816459171
3513.0,0.04231707605954107
3512.0,0.0425776794203918
3511.0,0.042817134464162764
3510.0,0.04303105137880791
3509.0,0.04324205984932367
3508.0,0.043480240264888
3507.0,0.04375214543440885
3506.0,0.04404306783342093
3505.0,0.04433230533969147
3504.0,0.04459226764635182
3503.0,0.044802541492270115
3502.0,0.04498667577573841
3501.0,0.04519165680537078
3500.0,0.04543063719526161
3499.0,0.04567995434201696
3498.0,0.04591088300612912
3497.0,0.046112613091894634
3496.0,0.046298293204890754
3495.0,0.04649333038796062
3494.0,0.04671421309123054
3493.0,0.04695782470504382
3492.0,0.04720964906750222
3491.0,0.04745724339517126
3490.0,0.047693428751306444
3489.0,0.04791151840712946
3488.0,0.04811087882411697
3487.0,0.04830774537145211
3486.0,0.04852445624127613
3485.0,0.04876499592932705
3484.0,0.049011396495339
3483.0,0.04924318036439797
3482.0,0.049456163882099016
3481.0,0.04966157223355229
3480.0,0.04987203799469881
3479.0,0.050092508600943005
3478.0,0.050319938132785895
3477.0,0.050543705408115626
3476.0,0.05075086649646547
3475.0,0.050941448849889506
3474.0,0.051134550058420415
3473.0,0.05134804552885936
3472.0,0.051578112329142396
3471.0,0.05180887334616242
3470.0,0.05203335309485671
3469.0,0.05225306930590939
3468.0,0.052465799372328266
3467.0,0.052668556463125495
3466.0,0.05286770933838787
3465.0,0.05307191069236461
3464.0,0.05327668062540042
3463.0,0.05346739588762433
3462.0,0.05363812109524617
3461.0,0.05379941355275361
3460.0,0.05396724699436777
3459.0,0.05415240886958156
3458.0,0.054357913642718504
3457.0,0.05457626273416814
3456.0,0.054790308769513525
3455.0,0.05498650319354508
3454.0,0.05516793946476228
3453.0,0.055347934215404036
3452.0,0.05553553436821106
3451.0,0.05573094301715585
3450.0,0.05593138278950721
3449.0,0.056130326965828994
3448.0,0.056313565235737
3447.0,0.05647563389988167
3446.0,0.056638052572300285
3445.0,0.05682144918786017
3444.0,0.057011471190495495
3443.0,0.05717896391318552
3442.0,0.05732091984081619
3441.0,0.05746475334344564
3440.0,0.05763215825633072
3439.0,0.05781726944875529
3438.0,0.058005151947432367
3437.0,0.05819195826519315
3436.0,0.05837719961808026
3435.0,0.05855112459385453
3434.0,0.058703403985844636
3433.0,0.05883774060080272
3432.0,0.058969544860762904
3431.0,0.05911000267511592
3430.0,0.05925954909679667
3429.0,0.059412429818814984
3428.0,0.05956212525736101
3427.0,0.059706463583740266
3426.0,0.05985177845339605
3425.0,0.06000782234659195
3424.0,0.06017312153287711
3423.0,0.06032843981768065
3422.0,0.06045106028730464
3421.0,0.06053878229257325
3420.0,0.06061573532080343
3419.0,0.06070975181322355
3418.0,0.0608297598996743
3417.0,0.060965460295337726
3416.0,0.061101151761349684
3415.0,0.06122813355523235
3414.0,0.061348371112983385
3413.0,0.061466889868565674
3412.0,0.06158133794717009
3411.0,0.06168332439208024
3410.0,0.06177021010146702
3409.0,0.06184991852565497
3408.0,0.06193161179478768
3407.0,0.06201709935210903
3406.0,0.062104039317904605
3405.0,0.062192681580099926
3404.0,0.06228512280411848
3403.0,0.06238227377306785
3402.0,0.06248520108182126
3401.0,0.06259435832616822
3400.0,0.06270401237422137
3399.0,0.06280184842403867
3398.0,0.06288093431806963
3397.0,0.06294937733178352
3396.0,0.06302072297428739
3395.0,0.06309372694641789
3394.0,0.06314835977319433
3393.0,0.0631666507443653
3392.0,0.06315708541857726
3391.0,0.06315223457777688
3390.0,0.06317930744825308
3389.0,0.06323931711669059
3388.0,0.063313321898531
3387.0,0.06338108551778067
3386.0,0.06343193028695099
3385.0,0.06346412147415473
3384.0,0.06348313462786041
3383.0,0.0635018633591696
3382.0,0.06353350431608092
3381.0,0.06357793873373628
3380.0,0.06362035512300682
3379.0,0.06364803616388683
3378.0,0.06366508844746914
3377.0,0.06368429013638328
3376.0,0.06370898103151368
3375.0,0.06373148974398968
3374.0,0.06374644551232166
3373.0,0.06375662933578062
3372.0,0.06376618113723476
3371.0,0.06377592266982124
3370.0,0.06378565296044648
3369.0,0.06379496254579115
3368.0,0.0638006714648393
3367.0,0.0637998033651811
3366.0,0.06379639077739942
3365.0,0.06379898132907884
3364.0,0.06380881360456285
3363.0,0.06381562070451491
3362.0,0.06380783618219343
3361.0,0.0637840354121529
3360.0,0.06375253009396095
3359.0,0.0637223417730219
3358.0,0.06369681128385313
3357.0,0.06367412830158488
3356.0,0.06365176283586695
3355.0,0.06363007279965983
3354.0,0.06361093864309794
3353.0,0.06359312585363987
3352.0,0.06357164017068269
3351.0,0.06354313107759677
3350.0,0.0635088417002583
3349.0,0.06346965328545225
3348.0,0.06342131107157495
3347.0,0.06336026207919104
3346.0,0.06329252098430971
3345.0,0.06323070205910712
3344.0,0.0631822673943024
3343.0,0.06314498136104885
3342.0,0.0631144062976543
3341.0,0.06309024983397732
3340.0,0.06307353090720993
3339.0,0.06306089195481096
3338.0,0.06304422004783264
3337.0,0.06301501393449654
3336.0,0.06296952560761634
3335.0,0.06291162079156944
3334.0,0.06285031911780582
3333.0,0.06279294855870504
3332.0,0.06274072971765997
3331.0,0.06269108457344054
3330.0,0.06264203536400302
3329.0,0.062592443879749
3328.0,0.06254044476612816
3327.0,0.06248608562161996
3326.0,0.062434663655906095
3325.0,0.06239219942245845
3324.0,0.06235700449956483
3323.0,0.062320263506655316
3322.0,0.06227712827110976
3321.0,0.06223306775825757
3320.0,0.0621969266459608
3319.0,0.06217081788289855
3318.0,0.06214942851944304
3317.0,0.0621264310989898
3316.0,0.062098546726869944
3315.0,0.06206485939334548
3314.0,0.06202627534915239
3313.0,0.06198596558548916
3312.0,0.06194766832077343
3311.0,0.06191246543354122
3310.0,0.06187862620756217
3309.0,0.06184482377623185
3308.0,0.06181149577289087
3307.0,0.06177772118952245
3306.0,0.061739251215544536
3305.0,0.061693404551958014
3304.0,0.061645256658491354
3303.0,0.06160504324756519
3302.0,0.06157739864837114
3301.0,0.061555673079241965
3300.0,0.061529574217162236
3299.0,0.061496557646401134
3298.0,0.06146275019370867
3297.0,0.06143307795074804
3296.0,0.06140467561757948
3295.0,0.06137057468851623
3294.0,0.061326980255362235
3293.0,0.06127564469449244
3292.0,0.06122141209481001
3291.0,0.061168424404516225
3290.0,0.06111659344122017
3289.0,0.061061205479790076
3288.0,0.060998574494018125
3287.0,0.06093237566253468
3286.0,0.06087061808494544
3285.0,0.06081423313850651
3284.0,0.06075266528349756
3283.0,0.06067532258718484
3282.0,0.06058529764196083
3281.0,0.06049668691331237
3280.0,0.06041836044328337
3279.0,0.06034497940715748
3278.0,0.060263535229257856
3277.0,0.06016396115824154
3276.0,0.06004271520364626
3275.0,0.059901454984252554
3274.0,0.05974729920932653
3273.0,0.05959251477141672
3272.0,0.05944829098936803
3271.0,0.05931649790456403
3270.0,0.05918909375878172
3269.0,0.059056554778055714
3268.0,0.058916794200361354
3267.0,0.05877573640765124
3266.0,0.058639980051311526
3265.0,0.05850989532844679
3264.0,0.05838037005969009
3263.0,0.05824655526147768
3262.0,0.05810649521868022
3261.0,0.057959297633070506
3260.0,0.057803835046664157
3259.0,0.05764156460585167
3258.0,0.057477816239353136
3257.0,0.05731730766661792
3256.0,0.05715856513868369
3255.0,0.05699524874838455
3254.0,0.05682353092547307
3253.0,0.05664631293853151
3252.0,0.0564699578292282
3251.0,0.056299120529835156
3250.0,0.05613642985156049
3249.0,0.05598299534864498
3248.0,0.05583526826593898
3247.0,0.05568278036255662
3246.0,0.05551449229219012
3245.0,0.05533089750538379
3244.0,0.055146271264770286
3243.0,0.054973596232256
3242.0,0.054810931009493066
3241.0,0.054648453147462084
3240.0,0.05448506121136221
3239.0,0.05432988999574665
3238.0,0.05418626893580261
3237.0,0.05404269928375205
3236.0,0.053884881819229305
3235.0,0.053711701897303336
3234.0,0.053533197070966786
3233.0,0.05335686658317235
3232.0,0.05318320882003399
3231.0,0.053011459996361886
3230.0,0.05284232887072189
3229.0,0.05267507339801729
3228.0,0.05250840223925892
3227.0,0.05234509248612027
3226.0,0.05218973230789164
3225.0,0.0520406366941963
3224.0,0.05188922945183435
3223.0,0.051728801500316016
3222.0,0.05156022406086866
3221.0,0.05138850326893737
3220.0,0.05121791036860284
3219.0,0.05105116669430377
3218.0,0.050887483603624314
3217.0,0.05072010280351955
3216.0,0.05054096022346821
3215.0,0.05035064202838594
3214.0,0.05015945498820676
3213.0,0.049975471857039946
3212.0,0.049794844652188607
3211.0,0.04960721290738084
3210.0,0.04940822103735205
3209.0,0.04920450745541362
3208.0,0.04900808612115584
3207.0,0.0488272046097619
3206.0,0.04866054319974025
3205.0,0.048498534838278484
3204.0,0.04833158230847295
3203.0,0.048158016806583395
3202.0,0.04798165996905411
3201.0,0.04780233019244095
3200.0,0.04761317069990846
3199.0,0.047409303433456555
3198.0,0.047195036061877235
3197.0,0.046980546001706126
3196.0,0.04677373875666482
3195.0,0.046576911606878955
3194.0,0.04638725888022361
3193.0,0.046197774553713794
3192.0,0.04600154932547757
3191.0,0.04579905503962087
3190.0,0.045598932894591646
3189.0,0.04540731098936481
3188.0,0.04521837221464284
3187.0,0.0450192782386831
3186.0,0.044803871233651434
3185.0,0.04458005147408455
3184.0,0.044363755720622254
3183.0,0.04416664985562828
3182.0,0.04398657433530011
3181.0,0.043807698074089636
3180.0,0.04361123954858201
3179.0,0.04338990408937794
3178.0,0.043153438372026176
3177.0,0.04291927133000693
3176.0,0.04269850489023297
3175.0,0.04249194597913969
3174.0,0.04229538893090585
3173.0,0.0421032881395574
3172.0,0.041908826791758745
3171.0,0.04170579836260759
3170.0,0.04149266739892443
3169.0,0.041273567324598116
3168.0,0.04105533864086684
3167.0,0.04084372366977327
3166.0,0.04064042476678957
3165.0,0.040442176123236175
3164.0,0.0402431929235752
3163.0,0.04004037926778378
3162.0,0.03983562590545182
3161.0,0.03963253067755039
3160.0,0.03943217748570577
3159.0,0.039233363991747754
3158.0,0.03903527634620921
3157.0,0.03883739728048782
3156.0,0.03863731255430299
3155.0,0.038431625074176946
3154.0,0.0382204720235271
3153.0,0.03800976798292721
3152.0,0.03780680247419183
3151.0,0.03761272441354088
3150.0,0.037420413115075386
3149.0,0.03722167615703467
3148.0,0.03701691522483797
3147.0,0.03681568805092816
3146.0,0.03662628231405363
3145.0,0.036446422055169014
3144.0,0.03626651309273017
3143.0,0.03608087472928878
3142.0,0.03589233405431295
3141.0,0.03570634588731135
3140.0,0.0355255413102756
3139.0,0.03535110703742291
3138.0,0.03518477889291752
3137.0,0.03502510001310229
3136.0,0.034864413241897846
3135.0,0.0346932565259474
3134.0,0.03450801897154136
3133.0,0.03431456081514599
3132.0,0.03412572326928596
3131.0,0.0339534594052738
3130.0,0.03380009251624964
3129.0,0.03365610622008651
3128.0,0.03350855063654673
3127.0,0.033352835477953605
3126.0,0.0331939030668487
3125.0,0.033035511728146755
3124.0,0.032874193866870995
3123.0,0.03270797984072999
3122.0,0.03254676334803863
3121.0,0.03240599482363796
3120.0,0.03228926211687557
3119.0,0.03218211397218197
3118.0,0.032064242200814656
3117.0,0.031926383095404
3116.0,0.03177613578674616
3115.0,0.031628729848690425
3114.0,0.03149216566546361
3113.0,0.03136073464220603
3112.0,0.03122336389035997
3111.0,0.03107727689546151
3110.0,0.030931498215569293
3109.0,0.030796524399943133
3108.0,0.03067352930419514
3107.0,0.03055608920978515
3106.0,0.0304405135983496
3105.0,0.03032914947412188
3104.0,0.03022326174733221
3103.0,0.030117486067048616
3102.0,0.03000434505446184
3101.0,0.02988421585632973
3100.0,0.02976779607886177
3099.0,0.02966699478707913
3098.0,0.029583707880847517
3097.0,0.029508063309283582
3096.0,0.02942666843639114
3095.0,0.029333902312070274
3094.0,0.029234592596746902
3093.0,0.029134400301989813
3092.0,0.029031919072307948
3091.0,0.02892352332886029
3090.0,0.02881276076161963
3089.0,0.028709325704509743
3088.0,0.028617959215955016
3087.0,0.028532134096522374
3086.0,0.0284420618396469
3085.0,0.028345428384250398
3084.0,0.028246925003163805
3083.0,0.028149990749136534
3082.0,0.02805214450391375
3081.0,0.027949210594159533
3080.0,0.027841343359407293
3079.0,0.02773339548000587
3078.0,0.02762976140477504
3077.0,0.027529738179581743
3076.0,0.027428651603724086
3075.0,0.027323804474852827
3074.0,0.02721878316750582
3073.0,0.027119802711041117
3072.0,0.027027941528085606
3071.0,0.026936542236750127
3070.0,0.026837860731767707
3069.0,0.026730854933222425
3068.0,0.026619821303406174
3067.0,0.026507193186043467
3066.0,0.02639104379680208
3065.0,0.02627063575335342
3064.0,0.02615111303349358
3063.0,0.026039512904188263
3062.0,0.02593705906602411
3061.0,0.02583752752735958
3060.0,0.02573260061883842
3059.0,0.025618800538935862
3058.0,0.025499659887814073
3057.0,0.025381600110209263
3056.0,0.025268166117042155
3055.0,0.025157621661486256
3054.0,0.02504620546459531
3053.0,0.024931670556811638
3052.0,0.024813105739251627
3051.0,0.024688528984636957
3050.0,0.024555545884461624
3049.0,0.024416238508848765
3048.0,0.024279386056772455
3047.0,0.02415431307673161
3046.0,0.02404215002109909
3045.0,0.0239342630488839
3044.0,0.023818854754098156
3043.0,0.023689219412623034
3042.0,0.023547025624027856
3041.0,0.023401601436998824
3040.0,0.023265494083840824
3039.0,0.02314652865729309
3038.0,0.023041067587522085
3037.0,0.02293737833080533
3036.0,0.02282814199497557
3035.0,0.02271773470893166
3034.0,0.022613539409041802
3033.0,0.022512666291942936
3032.0,0.02240406422411935
3031.0,0.022283044318326634
3030.0,0.022158220278891434
3029.0,0.022039430482902782
3028.0,0.02192647544151338
3027.0,0.021813066202784993
3026.0,0.0216973980847811
3025.0,0.021585953072316755
3024.0,0.02148751843221208
3023.0,0.021405508950499953
3022.0,0.021334493399148075
3021.0,0.021263314833619498
3020.0,0.021183762682284665
3019.0,0.021097393337587797
3018.0,0.02101342762113513
3017.0,0.020939536387132078
3016.0,0.020876271807430343
3015.0,0.020820315317410642
3014.0,0.020768846520588507
3013.0,0.020719091091249198
3012.0,0.020666468445232115
3011.0,0.020606872070704257
3010.0,0.0205397848779468
3009.0,0.020467888346770775
3008.0,0.020394809772339283
3007.0,0.02032422869639732
3006.0,0.02025928956446123
3005.0,0.020201530774180163
3004.0,0.020151493090490982
3003.0,0.02010988914467852
3002.0,0.020076703400559198
3001.0,0.020049629063639197
3000.0,0.020026750065899712
2999.0,0.02001039410369013
2998.0,0.020004341512801505
2997.0,0.02000674167806186
2996.0,0.020010525430725547
2995.0,0.020013511161232497
2994.0,0.02002382350754463
2993.0,0.020052233311613737
2992.0,0.020101388159655086
2991.0,0.02016631625854599
2990.0,0.020242165372026888
2989.0,0.020328043894249217
2988.0,0.020424522338906514
2987.0,0.020530809182838186
2986.0,0.020644659173823375
2985.0,0.020764274679688274
2984.0,0.020891632340445734
2983.0,0.021033568710071684
2982.0,0.02119659765904795
2981.0,0.02138011036630649
2980.0,0.021578768425159576
2979.0,0.021792183941617256
2978.0,0.02202762262420521
2977.0,0.022289253004859916
2976.0,0.02256848027802292
2975.0,0.022847912409414483
2974.0,0.023117608294649643
2973.0,0.02338857776956802
2972.0,0.02369572947638506
2971.0,0.024083987401331115
2970.0,0.02458235660020308
2969.0,0.025183164019788262
2968.0,0.025845799488368702
2967.0,0.026524727575067703
2966.0,0.027191056856063628
2965.0,0.027831700831461637
2964.0,0.028436859872966107
2963.0,0.02899530659865088
2962.0,0.02949734407198273
2961.0,0.029938156240154272
2960.0,0.030320725978558602
2959.0,0.030656942711038193
2958.0,0.030961090028631864
2957.0,0.0312372553894774
2956.0,0.0314756008304111
2955.0,0.03166406229359087
2954.0,0.03180403760894497
2953.0,0.03191412268874807
2952.0,0.032025882273473236
2951.0,0.03218040323180437
2950.0,0.03242526448645435
2949.0,0.032807921283477884
2948.0,0.03336651541317587
2947.0,0.03412645146391
2946.0,0.03510041640015726
2945.0,0.036290347615564184
2944.0,0.03769447577330003
2943.0,0.03931536126854358
2942.0,0.04116067615234598
2941.0,0.04323447534444779
2940.0,0.045532706799925826
2939.0,0.048048901525659715
2938.0,0.0507812952463162
2937.0,0.053731877514338285
2936.0,0.056903930360502945
2935.0,0.060303371654804996
2934.0,0.063939050844122
2933.0,0.0678219810036079
2932.0,0.07196755029650914
2931.0,0.07639899029294647
2930.0,0.08114679215598233
2929.0,0.08624840559732244
2928.0,0.09175142988720622
2927.0,0.09770993881627982
2926.0,0.10416823861645619
2925.0,0.11115310097857446
2924.0,0.1186832443866604
2923.0,0.12676249475446574
2922.0,0.13534098927540603
2921.0,0.1442630561309327
2920.0,0.1532156329839329
2919.0,0.1616474185404242
2918.0,0.16869609185962478
2917.0,0.17328086142030955
2916.0,0.17444439773025305
2915.0,0.17179421559524957
2914.0,0.1657161731934087
2913.0,0.15724992559514153
2912.0,0.14767405388564786
2911.0,0.13807687946358105
2910.0,0.1291507992438884
2909.0,0.12120257362692716
2908.0,0.11429879919372304
2907.0,0.10838057091758103
2906.0,0.10333103434517033
2905.0,0.0990063717872477
2904.0,0.09526713088547137
2903.0,0.09199312277806965
2902.0,0.08908582804392555
2901.0,0.08646185365472513
2900.0,0.0840532059721615
2899.0,0.08180187839398505
2898.0,0.07965765720153867
2897.0,0.077579595747785
2896.0,0.07553714605032526
2895.0,0.07350589483057081
2894.0,0.07146561106449657
2893.0,0.06940369138776134
2892.0,0.06731905544296765
2891.0,0.06522058599448598
2890.0,0.06312161677389241
2889.0,0.06103776138200118
2888.0,0.058984149743121286
2887.0,0.05697186411967151
2886.0,0.05500912704783647
2885.0,0.05310777932191895
2884.0,0.05128507165424679
2883.0,0.04955600126231461
2882.0,0.04792488733114562
2881.0,0.04638822996343631
2880.0,0.04494633955881831
2879.0,0.043610726965552786
2878.0,0.042401019376084814
2877.0,0.041336049980060456
2876.0,0.04042779886896421
2875.0,0.039679501352796534
2874.0,0.03908445429360238
2873.0,0.038623908154149504
2872.0,0.038272284130685265
2871.0,0.03800956302520836
2870.0,0.03783639586806934
2869.0,0.03778111982830964
2868.0,0.03789753836765088
2867.0,0.03825606830983465
2866.0,0.03893204558282895
2865.0,0.039992786796074056
2864.0,0.041492723824463666
2863.0,0.043478643996935
2862.0,0.04599911912087411
2861.0,0.049112867819055994
2860.0,0.05289540635375719
2859.0,0.0574450976184576
2858.0,0.06287990818788253
2857.0,0.06932776627240932
2856.0,0.07690881886263659
2855.0,0.08570928053868201
2854.0,0.09570812852806683
2853.0,0.1066737599867504
2852.0,0.11797555941754174
2851.0,0.12844124826365266
2850.0,0.1363677580323957
2849.0,0.14003010560566906
2848.0,0.1384800404611693
2847.0,0.1321065428853943
2846.0,0.12235089615686413
2845.0,0.11099701355578843
2844.0,0.09950284851730772
2843.0,0.08878028788367667
2842.0,0.07925645091351077
2841.0,0.07105957080254997
2840.0,0.06413825088165319
2839.0,0.05835412286244938
2838.0,0.05352078811142359
2837.0,0.04946136986339365
2836.0,0.04602575281877164
2835.0,0.04309989027471913
2834.0,0.04059678053358651
2833.0,0.038444911915227344
2832.0,0.036578377932277785
2831.0,0.03493645809664907
2830.0,0.03347279504014882
2829.0,0.03215900492767034
2828.0,0.030976726998377994
2827.0,0.029908494540153097
2826.0,0.028935952478721966
2825.0,0.028042431626108772
2824.0,0.02721544659658064
2823.0,0.02644778001140744
2822.0,0.025737331816673578
2821.0,0.02508147833310367
2820.0,0.02447191278410208
2819.0,0.02389783786317809
2818.0,0.02335450838182725
2817.0,0.02284373570808967
2816.0,0.022365899791090046
2815.0,0.021915636628157598
2814.0,0.021486477915087298
2813.0,0.02107519036138798
2812.0,0.02068067019121593
2811.0,0.0203024484589632
2810.0,0.01994198013596055
2809.0,0.019600899625176093
2808.0,0.019276816713876554
2807.0,0.018963993843019535
2806.0,0.018659157399647516
2805.0,0.018363315944389086
2804.0,0.018077644378510036
2803.0,0.01780124962100419
2802.0,0.017533738644224976
2801.0,0.01727581013599933
2800.0,0.01702642285800946
2799.0,0.01678318071587576
2798.0,0.016546249692213032
2797.0,0.016318247894961342
2796.0,0.016099506283479798
2795.0,0.01588700062338255
2794.0,0.01567839110157085
2793.0,0.015473444902579559
2792.0,0.015271040542888529
2791.0,0.01506912323621042
2790.0,0.014868609684555265
2789.0,0.01467348274528938
2788.0,0.014485988824975263
2787.0,0.014304848874081202
2786.0,0.014128742264719215
2785.0,0.013958145971394378
2784.0,0.013793245159596198
2783.0,0.013633559900620658
2782.0,0.0134799365114922
2781.0,0.013333253602664397
2780.0,0.013191044804096304
2779.0,0.013049213921530424
2778.0,0.012907371254164106
2777.0,0.012768864377350643
2776.0,0.01263572919971938
2775.0,0.012507420851952408
2774.0,0.012384411967756925
2773.0,0.012268514910897393
2772.0,0.012159051388162563
2771.0,0.012053040215234121
2770.0,0.011949775866780888
2769.0,0.011851153404068346
2768.0,0.011757110744343267
2767.0,0.011665004754466836
2766.0,0.01157413400442515
2765.0,0.011486398606550867
2764.0,0.011401559297744258
2763.0,0.011316303202106798
2762.0,0.01122969855801826
2761.0,0.011145644369034402
2760.0,0.01106804272447121
2759.0,0.010996252583349986
2758.0,0.010926789316116528
2757.0,0.01085751015826029
2756.0,0.010789373742191532
2755.0,0.010725604179846734
2754.0,0.010668279493475893
2753.0,0.010613576494467326
2752.0,0.01055233030318736
2751.0,0.010479476418976036
2750.0,0.010401704451392352
2749.0,0.010331867261063032
2748.0,0.010276490348856394
2747.0,0.01023290920992872
2746.0,0.010196505776946122
2745.0,0.010164066410572036
2744.0,0.010130656261457052
2743.0,0.010090581148809221
2742.0,0.010043794776286833
2741.0,0.00999664671854134
2740.0,0.00995356406784055
2739.0,0.00991190289400499
2738.0,0.009866922536769043
2737.0,0.009818492974186598
2736.0,0.009770345421512628
2735.0,0.009725314948733818
2734.0,0.009683142153315338
2733.0,0.009641211028740342
2732.0,0.00959668004517866
2731.0,0.009549252552787874
2730.0,0.009501548864055945
2729.0,0.009454728897589377
2728.0,0.009404954843347154
2727.0,0.009347395709726286
2726.0,0.009282846247606037
2725.0,0.009216919473152386
2724.0,0.009153549116828875
2723.0,0.009092993140442042
2722.0,0.00903556628307175
2721.0,0.00898265004056813
2720.0,0.008933697620268301
2719.0,0.0088862665677665
2718.0,0.00883943542694101
2717.0,0.008793698936704694
2716.0,0.008747528886753455
2715.0,0.008698039347903247
2714.0,0.00864565228327084
2713.0,0.00859453549500561
2712.0,0.008547815042111414
2711.0,0.008505270175036606
2710.0,0.008465586064634194
2709.0,0.008427385809357035
2708.0,0.008388223844556973
2707.0,0.008346194850489605
2706.0,0.00830269976228472
2705.0,0.008260639940026083
2704.0,0.008220314097695788
2703.0,0.008180420128996092
2702.0,0.008142204336575021
2701.0,0.00810846615372901
2700.0,0.00807901352452547
2699.0,0.008051406494100171
2698.0,0.008026051680212523
2697.0,0.008006002823166714
2696.0,0.00799108442719448
2695.0,0.007976284916359315
2694.0,0.007957037587031956
2693.0,0.007932956068113535
2692.0,0.007906351312868747
2691.0,0.007880583456839632
2690.0,0.007859925072120083
2689.0,0.00784732743129246
2688.0,0.00784087345591202
2687.0,0.00783487065023169
2686.0,0.007824539805015546
2685.0,0.007808338836552787
2684.0,0.007787703011889637
2683.0,0.007767735763677586
2682.0,0.007755911541260365
2681.0,0.007755073695219857
2680.0,0.007757980622217386
2679.0,0.007753380986591209
2678.0,0.007737301534708009
2677.0,0.007715033019056102
2676.0,0.007693352435574705
2675.0,0.007675576312360044
2674.0,0.007663387114822177
2673.0,0.007657293929904337
2672.0,0.007654243202948236
2671.0,0.007649234599436982
2670.0,0.007640562412639228
2669.0,0.00762988282416277
2668.0,0.007616940713201228
2667.0,0.007598970947248892
2666.0,0.007576120740621969
2665.0,0.007553482141321193
2664.0,0.0075361182227006804
2663.0,0.007525258853467748
2662.0,0.007519601488735223
2661.0,0.007516517034197022
2660.0,0.007511291344931014
2659.0,0.0074989934657656
2658.0,0.007479006445522745
2657.0,0.007455293150224827
2656.0,0.007431816409714177
2655.0,0.007410465129851763
2654.0,0.007392918760707136
2653.0,0.0073804898907088405
2652.0,0.007371192003550228
2651.0,0.007360972862249042
2650.0,0.007348675347590625
2649.0,0.0073364917273182565
2648.0,0.007324838671235246
2647.0,0.007310861156181363
2646.0,0.007293358535781237
2645.0,0.00727554240124271
2644.0,0.007261063879833494
2643.0,0.007250183477132801
2642.0,0.0072416956870826575
2641.0,0.007235797930049656
2640.0,0.00723281056496318
2639.0,0.00723013737645635
2638.0,0.007222484186721875
2637.0,0.007205573145230616
2636.0,0.0071803425083957866
2635.0,0.007153589132447501
2634.0,0.007131761535370439
2633.0,0.00711284401190462
2632.0,0.007086984533172674
2631.0,0.007047914392611302
2630.0,0.00700104715523593
2629.0,0.006957318935039576
2628.0,0.006922264147488623
2627.0,0.0068949397386442275
2626.0,0.00687357208440419
2625.0,0.006855449313896388
2624.0,0.006833157160215434
2623.0,0.006798618017752811
2622.0,0.006751971169025924
2621.0,0.0067023157337727296
2620.0,0.006659020771740235
2619.0,0.006625465937940279
2618.0,0.006600114538597513
2617.0,0.006578901313535173
2616.0,0.006557059314375355
2615.0,0.006532364746421292
2614.0,0.0065058522589986085
2613.0,0.00647701116967987
2612.0,0.006441981203363295
2611.0,0.006400975650429118
2610.0,0.006363259019378881
2609.0,0.006337718418851135
2608.0,0.006320391308678967
2607.0,0.006298844636953456
2606.0,0.006267505056778361
2605.0,0.006232161397061718
2604.0,0.006200652362822943
2603.0,0.006175812791900204
2602.0,0.006156770620022182
2601.0,0.006139890530709296
2600.0,0.006118324648211743
2599.0,0.006087359857908864
2598.0,0.006050641713662474
2597.0,0.0060162064824512175
2596.0,0.005986996030776615
2595.0,0.005960178394707523
2594.0,0.005933800829088909
2593.0,0.0059072695489860655
2592.0,0.0058770077060961694
2591.0,0.00583947337945168
2590.0,0.0057982059008432904
2589.0,0.005760992001071482
2588.0,0.005730227760085198
2587.0,0.005702904658378176
2586.0,0.0056793377291848345
2585.0,0.005663995191411945
2584.0,0.005656648183593418
2583.0,0.0056498562292826215
2582.0,0.00563706203509701
2581.0,0.0056180127025028045
2580.0,0.0055950429169890304
2579.0,0.00556907302866309
2578.0,0.005540403057836173
2577.0,0.0055096624739178965
2576.0,0.0054780220089329255
2575.0,0.005449228620427611
2574.0,0.005429026473073398
2573.0,0.005418047201725962
2572.0,0.0054079712747583
2571.0,0.005390378873189044
2570.0,0.005366876839031312
2569.0,0.005344652203579813
2568.0,0.005325348872629373
2567.0,0.005305565570828375
2566.0,0.005286129128032985
2565.0,0.00527236970614799
2564.0,0.005264993158537412
2563.0,0.005257789866326319
2562.0,0.0052452226458351925
2561.0,0.005227153321568355
2560.0,0.005206301504711337
2559.0,0.005185525627318432
2558.0,0.005166956226585413
2557.0,0.0051497381149721395
2556.0,0.005130169638863537
2555.0,0.005107888964548845
2554.0,0.005088956046142341
2553.0,0.005077972605108045
2552.0,0.00507062236459055
2551.0,0.005059728630893729
2550.0,0.005045506719344098
2549.0,0.005033785153205765
2548.0,0.0050263372613249075
2547.0,0.0050186004938312006
2546.0,0.005005197513495609
2545.0,0.0049833588510417495
2544.0,0.004953987801593168
2543.0,0.004923849018238275
2542.0,0.0049030901766241855
2541.0,0.004895807871394794
2540.0,0.004896180085692188
2539.0,0.004896882896624604
2538.0,0.004895588888398238
2537.0,0.0048901341925151305
2536.0,0.00487605389012545
2535.0,0.0048553965963993575
2534.0,0.004840027565362197
2533.0,0.004838222681569277
2532.0,0.0048445721244481585
2531.0,0.004850310605188618
2530.0,0.004855181994802488
2529.0,0.004860061399860116
2528.0,0.004856690964911363
2527.0,0.004836898138347235
2526.0,0.004806530815765652
2525.0,0.00477865704006405
2524.0,0.004757434175385643
2523.0,0.00473940815302277
2522.0,0.004725336274626954
2521.0,0.00471833817991684
2520.0,0.004713976301859545
2519.0,0.004704302765097983
2518.0,0.004689740982768578
2517.0,0.00467655815999268
2516.0,0.004665053392328716
2515.0,0.00465070945770589
2514.0,0.004634342600298551
2513.0,0.004620212488127545
2512.0,0.004606147444333305
2511.0,0.004586234302528343
2510.0,0.004562216239260085
2509.0,0.0045428303777869045
2508.0,0.004532623378153857
2507.0,0.004529224516664706
2506.0,0.004529365221531424
2505.0,0.0045295368959904865
2504.0,0.004523852405474293
2503.0,0.004510146744371743
2502.0,0.004495453086572049
2501.0,0.004487146735046194
2500.0,0.0044819858666838575
2499.0,0.004472056194079137
2498.0,0.004457145625975513
2497.0,0.004442205054950147
2496.0,0.004427163276089726
2495.0,0.0044094361428820535
2494.0,0.00439249490197697
2493.0,0.004381378206923918
2492.0,0.004373128195037249
2491.0,0.00436216805975159
2490.0,0.0043514752837091044
2489.0,0.004347280364908535
2488.0,0.004346069664639729
2487.0,0.004338638098491273
2486.0,0.004324431257821947
2485.0,0.004310028228512528
2484.0,0.004295723240350487
2483.0,0.004276519986714942
2482.0,0.004256150151401172
2481.0,0.004247404826510211
2480.0,0.0042556458883147175
2479.0,0.004271037409066085
2478.0,0.004279542134375459
2477.0,0.004275204334707015
2476.0,0.004261488387137965
2475.0,0.00424707579733499
2474.0,0.004240150991104344
2473.0,0.004240938707130477
2472.0,0.004240445715663426
2471.0,0.004230755061053485
2470.0,0.0042135723207176075
2469.0,0.004194654528921493
2468.0,0.004175576240170547
2467.0,0.0041568969951431166
2466.0,0.004142588077715314
2465.0,0.004133107579007623
2464.0,0.004120433574353202
2463.0,0.004099474775053164
2462.0,0.004078976878065998
2461.0,0.004071254083539228
2460.0,0.004075929874240805
2459.0,0.004083646077499555
2458.0,0.004090641578703726
2457.0,0.00409882704163731
2456.0,0.004106067138013251
2455.0,0.004108060468454819
2454.0,0.004107082608146651
2453.0,0.004108325265840248
2452.0,0.0041100774011190175
2451.0,0.004107293344588948
2450.0,0.004101819545357072
2449.0,0.004098895963882214
2448.0,0.004096072990770165
2447.0,0.0040856332943219435
2446.0,0.004066316287443504
2445.0,0.004044298153420542
2444.0,0.00402515352669887
2443.0,0.004012260547537512
2442.0,0.004008987023484325
2441.0,0.004014305705283042
2440.0,0.004020391392864039
2439.0,0.004021904628356386
2438.0,0.004022114456158334
2437.0,0.004022955434908448
2436.0,0.004017619353912896
2435.0,0.004002950135885783
2434.0,0.003990688838740468
2433.0,0.003994056840311022
2432.0,0.004009211943081408
2431.0,0.004021486381878824
2430.0,0.004023486373005839
2429.0,0.0040157359077812385
2428.0,0.003997989660594997
2427.0,0.0039743674050244145
2426.0,0.0039600301780907425
2425.0,0.003966316607968372
2424.0,0.003982802809268622
2423.0,0.003988984140110537
2422.0,0.003980499285403662
2421.0,0.003969482260559146
2420.0,0.0039630582704846175
2419.0,0.003957648185020893
2418.0,0.003952631797333655
2417.0,0.003953452005672879
2416.0,0.003960067926280636
2415.0,0.003965134984449811
2414.0,0.003964766640504562
2413.0,0.003960946358507864
2412.0,0.003954313602548574
2411.0,0.003944777712714331
2410.0,0.003937247946793265
2409.0,0.003935827549880798
2408.0,0.003934281405999629
2407.0,0.003923510944662869
2406.0,0.0039061463870123476
2405.0,0.0038921650169684036
2404.0,0.0038830385767411385
2403.0,0.0038727046139877316
2402.0,0.0038615818846568766
2401.0,0.003856360203682971
2400.0,0.003856509617371817
2399.0,0.003853525167558122
2398.0,0.003844349319867264
2397.0,0.003834707486223517
2396.0,0.0038284581617024065
2395.0,0.003823775772584679
2394.0,0.0038205040097347336
2393.0,0.003821626515246728
2392.0,0.003826883922022414
2391.0,0.003833120995138578
2390.0,0.003840675741261866
2389.0,0.0038521609762772425
2388.0,0.0038662725569179046
2387.0,0.0038803643452276163
2386.0,0.0038970552096289418
2385.0,0.003919993265773467
2384.0,0.003945013208393351
2383.0,0.00396427347378164
2382.0,0.003977843698985774
2381.0,0.003992075670360057
2380.0,0.004006957267336916
2379.0,0.004015598955781745
2378.0,0.004017333709935042
2377.0,0.004018049590275909
2376.0,0.004014752722513734
2375.0,0.003996274276921889
2374.0,0.00396531489424644
2373.0,0.003945121751617384
2372.0,0.003956435192460012
2371.0,0.004000574686861629
2370.0,0.004066413883565674
2369.0,0.004131818519375354
2368.0,0.004160628272106785
2367.0,0.00413574413617762
2366.0,0.004097606963108574
2365.0,0.0041045119948265076
2364.0,0.004147495195863785
2363.0,0.004165223640667912
2362.0,0.004147138424489359
2361.0,0.004144547093190084
2360.0,0.004180701522085525
2359.0,0.004222377437137873
2358.0,0.004241513457577883
2357.0,0.004245421018908921
2356.0,0.004241678501804445
2355.0,0.004234446115254876
2354.0,0.00423820892454969
2353.0,0.004257306437679993
2352.0,0.00427699969957538
2351.0,0.004285869188711479
2350.0,0.0042907284193447305
2349.0,0.004299929586546874
2348.0,0.0043114288359575705
2347.0,0.0043205717404082794
2346.0,0.00432437013044636
2345.0,0.004331024519896978
2344.0,0.004340332287337618
2343.0,0.004343189951431751
2342.0,0.004351125226660479
2341.0,0.00437938702204744
2340.0,0.0044120709796844695
2339.0,0.004418718377169375
2338.0,0.004401445631216355
2337.0,0.004382950681580688
2336.0,0.004372887034168005
2335.0,0.0043731173639014855
2334.0,0.004402054637428085
2333.0,0.004463523054527621
2332.0,0.004518916149896749
2331.0,0.004517866351163732
2330.0,0.004466209142660398
2329.0,0.0044110599065065115
2328.0,0.004379719107625793
2327.0,0.004373094751449609
2326.0,0.004390183025421098
2325.0,0.004428764201768513
2324.0,0.004462585935040049
2323.0,0.004464074860994426
2322.0,0.0044428845484761744
2321.0,0.004426676701897839
2320.0,0.0044188548067712165
2319.0,0.0044007520918114915
2318.0,0.00437340271850131
2317.0,0.004351891102240934
2316.0,0.004341216374687475
2315.0,0.004335664596542341
2314.0,0.004340925594208681
2313.0,0.004363483846524883
2312.0,0.004388661370624257
2311.0,0.00439083121188675
2310.0,0.004366283493271574
2309.0,0.0043324852774009985
2308.0,0.004302352752547421
2307.0,0.004280527880728107
2306.0,0.004275623017728967
2305.0,0.004290931225712582
2304.0,0.004308916864066678
2303.0,0.004305929616296083
2302.0,0.004282845977721203
2301.0,0.004260626677780543
2300.0,0.004249999032330021
2299.0,0.004243880062806109
2298.0,0.004238871385880738
2297.0,0.00424097047900566
2296.0,0.0042488786606656006
2295.0,0.004251696231587112
2294.0,0.004245891745161598
2293.0,0.004239434378660615
2292.0,0.00423699770678663
2291.0,0.004236772197977888
2290.0,0.0042396231678922935
2289.0,0.00424734588883079
2288.0,0.004253007537820758
2287.0,0.004250127807232609
2286.0,0.004247658079096208
2285.0,0.004258780918614046
2284.0,0.004277026074783393
2283.0,0.004283360597511514
2282.0,0.004273522698962533
2281.0,0.004259073254444861
2280.0,0.004243638078192251
2279.0,0.004222050482613704
2278.0,0.004202490200348702
2277.0,0.004202827756633316
2276.0,0.004221860147518204
2275.0,0.00423803715773913
2274.0,0.004240785622570048
2273.0,0.004238692783777529
2272.0,0.004235184283420768
2271.0,0.004222322803248104
2270.0,0.004203070209010694
2269.0,0.004192436748078887
2268.0,0.004189836461542621
2267.0,0.00417628101654051
2266.0,0.004146712542402676
2265.0,0.004122251434793749
2264.0,0.004121378044998677
2263.0,0.0041401727404545546
2262.0,0.004166054214287485
2261.0,0.004191249104754963
2260.0,0.004207074028454117
2259.0,0.004205480557465682
2258.0,0.004190969785195783
2257.0,0.004175334300958026
2256.0,0.0041605079470141
2255.0,0.004143743734343719
2254.0,0.004134529493203388
2253.0,0.004142744281346668
2252.0,0.0041545920187013394
2251.0,0.004146439543046223
2250.0,0.004120185703806567
2249.0,0.004098740177283987
2248.0,0.004090476644580987
2247.0,0.0040835530810584665
2246.0,0.004077232814762974
2245.0,0.004085754260389452
2244.0,0.004108303980778926
2243.0,0.004122939245179067
2242.0,0.004115901482697266
2241.0,0.004093215302761273
2240.0,0.004063735204125956
2239.0,0.0040346342273650014
2238.0,0.004023242252123401
2237.0,0.0040456139851011335
2236.0,0.004091151415963262
2235.0,0.004132261028932802
2234.0,0.004158148048798776
2233.0,0.0041752752646118775
2232.0,0.0041812698502600165
2231.0,0.004167945026355009
2230.0,0.00414625417192415
2229.0,0.0041365828189097705
2228.0,0.004136477331577553
2227.0,0.004128139152333595
2226.0,0.004114145114393073
2225.0,0.0041131901331681025
2224.0,0.0041238028302225446
2223.0,0.004126659956943661
2222.0,0.004119970972486575
2221.0,0.004117938050784241
2220.0,0.004116834814742316
2219.0,0.004099248396363404
2218.0,0.0040709891276038135
2217.0,0.004056710364452979
2216.0,0.004059519467925702
2215.0,0.004061730231490912
2214.0,0.004064020983171526
2213.0,0.00408464346336896
2212.0,0.004118927503241242
2211.0,0.004139677588658099
2210.0,0.004140619966778067
2209.0,0.004142656818393091
2208.0,0.004154772100586178
2207.0,0.00416473533554086
2206.0,0.004169574108999093
2205.0,0.004178212663402793
2204.0,0.004183396789262852
2203.0,0.004168588280067705
2202.0,0.004143555456990158
2201.0,0.004135515271748601
2200.0,0.004144622578355539
2199.0,0.0041462678601433
2198.0,0.0041359408997821675
2197.0,0.004132828692407902
2196.0,0.004140212525373909
2195.0,0.004143888183104296
2194.0,0.004150199607595125
2193.0,0.004182596019753901
2192.0,0.004237230362158443
2191.0,0.004282581929510497
2190.0,0.0043050196520720225
2189.0,0.0043172770744869795
2188.0,0.0043240560863854445
2187.0,0.004319482959945782
2186.0,0.004314954610055556
2185.0,0.00432469233119219
2184.0,0.004326363945107671
2183.0,0.004284258054046979
2182.0,0.004211399081526418
2181.0,0.004158852465318676
2180.0,0.004142990043251547
2179.0,0.0041359811750587136
2178.0,0.0041274933395139485
2177.0,0.004138780930685355
2176.0,0.004171120270707752
2175.0,0.004192985961572558
2174.0,0.00418969815201035
2173.0,0.004182238821054361
2172.0,0.004190343516887224
2171.0,0.004215928440142475
2170.0,0.004261570084147256
2169.0,0.0043240288381330445
2168.0,0.004372241495234674
2167.0,0.004374752157718032
2166.0,0.004348714459751997
2165.0,0.004342390015720041
2164.0,0.004371676822620893
2163.0,0.0044137493564004315
2162.0,0.0044459200668782286
2161.0,0.004436944136468696
2160.0,0.004325242771009865
2159.0,0.004090288988237449
2158.0,0.003836378397409825
2157.0,0.0037076418382237485
2156.0,0.003728385763585979
2155.0,0.0038140517651349326
2154.0,0.003899625967167423
2153.0,0.003975292408602802
2152.0,0.004034685249844685
2151.0,0.0040643400835974645
2150.0,0.004074714541118379
2149.0,0.0040839102255816615
2148.0,0.004075518929988824
2147.0,0.004022819741205606
2146.0,0.003945713376924945
2145.0,0.0038937728962591036
2144.0,0.0038816916402091986
2143.0,0.003888355663909368
2142.0,0.0039066564355293145
2141.0,0.003941966197974939
2140.0,0.003973198657479682
2139.0,0.003967219292661993
2138.0,0.003927480495534794
2137.0,0.0038859754525888864
2136.0,0.003854194426791588
2135.0,0.0038232746301462527
2134.0,0.0038006840210506416
2133.0,0.003800766541552602
2132.0,0.0038099762253499554
2131.0,0.003805492275354769
2130.0,0.003798415837101521
2129.0,0.0038175119007750093
2128.0,0.003858334740903719
2127.0,0.003887179263086152
2126.0,0.003889746889156327
2125.0,0.0038806626271419356
2124.0,0.003870251838293993
2123.0,0.0038572741638317146
2122.0,0.003850972133436225
2121.0,0.0038653968537511133
2120.0,0.00389307077457672
2119.0,0.003916014550789909
2118.0,0.003937932991485313
2117.0,0.003973314964528722
2116.0,0.004010612248249086
2115.0,0.0040228065353603215
2114.0,0.004012850638666729
2113.0,0.004011606995143228
2112.0,0.0040292740588444695
2111.0,0.004043965487066353
2110.0,0.004039959921308671
2109.0,0.004023571174760812
2108.0,0.003999899732302455
2107.0,0.003968594556234239
2106.0,0.003944801600005673
2105.0,0.003948986300401008
2104.0,0.00397205833694193
2103.0,0.0039830354833513834
2102.0,0.00397402109426108
2101.0,0.003964608073121616
2100.0,0.003962930781253993
2099.0,0.003956861089760258
2098.0,0.003945145034756206
2097.0,0.003941576824143962
2096.0,0.0039443505394571475
2095.0,0.003936628115215388
2094.0,0.003920824397359278
2093.0,0.0039182552484022335
2092.0,0.003931835190762019
2091.0,0.003941819423644608
2090.0,0.003939958713640664
2089.0,0.003938309846172946
2088.0,0.003942176825446319
2087.0,0.003944098392870411
2086.0,0.003944728920926573
2085.0,0.003951027757327476
2084.0,0.0039555941551899275
2083.0,0.003946650333333397
2082.0,0.003934566562661711
2081.0,0.003938368321296164
2080.0,0.003951822519957269
2079.0,0.003956966280219933
2078.0,0.003963132541369626
2077.0,0.003992562317457102
2076.0,0.004032038302347255
2075.0,0.004043025667330756
2074.0,0.00401925293285749
2073.0,0.0039908500977805655
2072.0,0.00397236863207032
2071.0,0.003949990262251526
2070.0,0.003924869700258297
2069.0,0.00392339435215722
2068.0,0.003955595222363334
2067.0,0.0039997343244994625
2066.0,0.004031250036067657
2065.0,0.004034696147608929
2064.0,0.003995986021973059
2063.0,0.003919523375738405
2062.0,0.003845443475165993
2061.0,0.003813745138885146
2060.0,0.003817045967753124
2059.0,0.0038242938653308117
2058.0,0.003837464199939463
2057.0,0.0038747174359640164
2056.0,0.00391477080655962
2055.0,0.0039209397598463265
2054.0,0.003913438656174359
2053.0,0.0039474138541246056
2052.0,0.0040185489325610035
2051.0,0.00405763121585735
2050.0,0.004027036987844612
2049.0,0.003963313389957001
2048.0,0.003910123336295347
2047.0,0.0038708130683385153
2046.0,0.003850344327844598
2045.0,0.0038735231267147197
2044.0,0.00393230470775903
2043.0,0.003977662667576507
2042.0,0.003984637348919838
2041.0,0.003972504901119758
2040.0,0.003951535528415127
2039.0,0.003911367985650706
2038.0,0.003870747386461134
2037.0,0.0038669920658969724
2036.0,0.003884243647803547
2035.0,0.00386202170921204
2034.0,0.003792094734835681
2033.0,0.0037378983431111627
2032.0,0.0037427108806638923
2031.0,0.0037898902729114866
2030.0,0.00385822457716191
2029.0,0.003936146215161261
2028.0,0.003982337720978869
2027.0,0.003955334047049088
2026.0,0.0038873579360318078
2025.0,0.003850095357457832
2024.0,0.003849932429741596
2023.0,0.0038344907832063525
2022.0,0.003798437212425029
2021.0,0.0037924088945910407
2020.0,0.0038250649628948884
2019.0,0.003842870465894011
2018.0,0.0038171017594857207
2017.0,0.0037773966353836508
2016.0,0.003746573585049177
2015.0,0.003716814523252473
2014.0,0.003699768927712649
2013.0,0.003719905575594611
2012.0,0.003753618656322024
2011.0,0.0037480696909157184
2010.0,0.003702952286556014
2009.0,0.003660984948625501
2008.0,0.0036213561738696926
2007.0,0.003544550269427864
2006.0,0.0034436889281874955
2005.0,0.003380181231054887
2004.0,0.003369472964360117
2003.0,0.0033731767043168833
2002.0,0.0033794882995364112
2001.0,0.0034100962974221234
2000.0,0.0034501094771342833
1999.0,0.003456900337682928
1998.0,0.0034372601995820654
1997.0,0.003439812413001405
1996.0,0.003467090852644539
1995.0,0.0034737981193073636
1994.0,0.00345169382934853
1993.0,0.003441489217624336
1992.0,0.0034506000809555936
1991.0,0.003439428809260082
1990.0,0.0034070176956080035
1989.0,0.003397222754038972
1988.0,0.003419348005608394
1987.0,0.003438878287682922
1986.0,0.003448128491949116
1985.0,0.0034714359164185627
1984.0,0.0034970684379583084
1983.0,0.0034832489636321064
1982.0,0.003441108365519038
1981.0,0.003432393749722946
1980.0,0.0034646626445299835
1979.0,0.0034720382663499297
1978.0,0.0034208485576706737
1977.0,0.0033560152600980472
1976.0,0.00330990051631647
1975.0,0.0032587431637804017
1974.0,0.0031966027715608115
1973.0,0.00315619859747309
1972.0,0.0031386967294125237
1971.0,0.0031111271186073613
1970.0,0.003083301730347717
1969.0,0.0031048506325407773
1968.0,0.0031713378057979494
1967.0,0.003211058002704339
1966.0,0.0031988860895265456
1965.0,0.0031834301840621636
1964.0,0.0031846624376838766
1963.0,0.003176846862821326
1962.0,0.003159650706672481
1961.0,0.0031596947735969675
1960.0,0.003165785779810575
1959.0,0.003140588986936921
1958.0,0.0030956251325732482
1957.0,0.0030782992798088866
1956.0,0.0030897319702883
1955.0,0.0030891097919435277
1954.0,0.0030739690335317878
1953.0,0.0030785294028161003
1952.0,0.0030987686542282063
1951.0,0.003094778203709434
1950.0,0.0030702622678848686
1949.0,0.0030728043789946774
1948.0,0.003107496551874116
1947.0,0.0031203080680272987
1946.0,0.0030829568632031795
1945.0,0.0030325839499253946
1944.0,0.0030084634256749908
1943.0,0.003005269514793539
1942.0,0.003012182172656713
1941.0,0.00303792675785096
1940.0,0.003066728455537291
1939.0,0.0030671902250984117
1938.0,0.0030471300023076097
1937.0,0.0030430451794994312
1936.0,0.0030596242374001745
1935.0,0.003067692873336634
1934.0,0.003060425965583328
1933.0,0.0030588256346069853
1932.0,0.003064304537439855
1931.0,0.0030553003445392803
1930.0,0.0030364591466702506
1929.0,0.0030331999968341156
1928.0,0.0030391193453537272
1927.0,0.0030235737785946444
1926.0,0.0029872212010684275
1925.0,0.002972009837905634
1924.0,0.0029914601394161657
1923.0,0.0030019951150396175
1922.0,0.0029814955104996562
1921.0,0.0029703239076619902
1920.0,0.0029924161927826344
1919.0,0.0030223201835499333
1918.0,0.0030293456469752066
1917.0,0.003020614947228886
1916.0,0.003010990134217173
1915.0,0.0029958014684447125
1914.0,0.0029806595421124713
1913.0,0.002986513798328914
1912.0,0.003015531525880204
1911.0,0.003043273367395261
1910.0,0.0030556650272715903
1909.0,0.0030632996586158713
1908.0,0.0030715470525599156
1907.0,0.0030676173216471806
1906.0,0.0030461472444966446
1905.0,0.003026603357029904
1904.0,0.0030195559466955676
1903.0,0.003014236911584956
1902.0,0.0030076534985206825
1901.0,0.0030112683088339694
1900.0,0.0030229346889546647
1899.0,0.0030282069702093684
1898.0,0.0030294724813454015
1897.0,0.003046770722027548
1896.0,0.0030766024515465305
1895.0,0.003086382038426447
1894.0,0.0030665079398206245
1893.0,0.0030418006319715757
1892.0,0.003024001948101075
1891.0,0.0030016363258466103
1890.0,0.002968606719202938
1889.0,0.0029418110038164466
1888.0,0.002936182252935333
1887.0,0.002940317756520298
1886.0,0.002946421579527016
1885.0,0.0029601885808777737
1884.0,0.0029726805944669736
1883.0,0.0029643265541759813
1882.0,0.002940888774704703
1881.0,0.0029258669854001877
1880.0,0.0029187905893550727
1879.0,0.002899594626564216
1878.0,0.002869229930384328
1877.0,0.002853041800405627
1876.0,0.0028592035913803837
1875.0,0.002866966294310193
1874.0,0.002863745161645769
1873.0,0.002859538014592361
1872.0,0.002862044898553229
1871.0,0.0028715263654185896
1870.0,0.002896081822117094
1869.0,0.0029292446653854127
1868.0,0.0029278396146487974
1867.0,0.002885590250513949
1866.0,0.00284844411071141
1865.0,0.0028493750909405822
1864.0,0.0028779525620974866
1863.0,0.002903033910186866
1862.0,0.0029126430876306535
1861.0,0.0029158436197770222
1860.0,0.0029103467958185338
1859.0,0.0028837153014322037
1858.0,0.0028475428852085
1857.0,0.002832312723762146
1856.0,0.002841674005456067
1855.0,0.0028471377224763535
1854.0,0.0028382742739009683
1853.0,0.0028352865123053555
1852.0,0.0028443373005836176
1851.0,0.0028538107186664454
1850.0,0.002859022597039129
1849.0,0.002869398973200385
1848.0,0.0028850171244182536
1847.0,0.002902108810901455
1846.0,0.0029375811338764155
1845.0,0.003001444184667863
1844.0,0.003040342500631992
1843.0,0.0029968971807234194
1842.0,0.0029101591671087863
1841.0,0.0028518526237422325
1840.0,0.002840172718088061
1839.0,0.0028437532973247534
1838.0,0.0028363187406188787
1837.0,0.002830136233220013
1836.0,0.002836419170803735
1835.0,0.002837562148708074
1834.0,0.0028210066408447814
1833.0,0.0028020582864253713
1832.0,0.0028004239013028243
1831.0,0.0028180035627465285
1830.0,0.0028250237621363057
1829.0,0.002807253006569321
1828.0,0.0027883684046659998
1827.0,0.0027814478555290506
1826.0,0.0027970659127399297
1825.0,0.0028422120381205312
1824.0,0.0028942535365600345
1823.0,0.002923912446408991
1822.0,0.002932847303908088
1821.0,0.0029390252329558096
1820.0,0.0029453915836463317
1819.0,0.002940343227222167
1818.0,0.0029234288917789992
1817.0,0.002913305725108798
1816.0,0.0029154262172476106
1815.0,0.002916507616181788
1814.0,0.002914738954585349
1813.0,0.0029229340624647325
1812.0,0.002940418583753101
1811.0,0.0029437429969016004
1810.0,0.0029335204694818733
1809.0,0.0029371736706987205
1808.0,0.002956912612579274
1807.0,0.002969265343521059
1806.0,0.002965160443852437
1805.0,0.002958630602342174
1804.0,0.002959316048265786
1803.0,0.002961515839401363
1802.0,0.002962356391676318
1801.0,0.0029619649023740163
1800.0,0.0029694669704607214
1799.0,0.002991379360439602
1798.0,0.0030216761952516465
1797.0,0.0030479478686715944
1796.0,0.003057679720134262
1795.0,0.0030507678433334016
1794.0,0.0030531621259537946
1793.0,0.0030834826990957793
1792.0,0.0030976922625722174
1791.0,0.003049363931766052
1790.0,0.0029875021092571953
1789.0,0.002960048124627647
1788.0,0.0029618681525664147
1787.0,0.00297029428376613
1786.0,0.0029789822924067362
1785.0,0.0029913091996333074
1784.0,0.0029916427897633624
1783.0,0.0029625791495039807
1782.0,0.0029277409705155155
1781.0,0.002917911836150027
1780.0,0.0029310937024830995
1779.0,0.002934581218464079
1778.0,0.002915904258577512
1777.0,0.002885852448724696
1776.0,0.0028556204042807488
1775.0,0.0028382444351475592
1774.0,0.0028563799411339846
1773.0,0.0029119800896631695
1772.0,0.0029255339797481282
1771.0,0.0028475481831293156
1770.0,0.0027588637219276096
1769.0,0.0027242010452763793
1768.0,0.002720448161871318
1767.0,0.0026879834330887325
1766.0,0.0026171601174486657
1765.0,0.002547506526371272
1764.0,0.0025134897423478306
1763.0,0.0025068113485499583
1762.0,0.0024973664026611943
1761.0,0.002481319459361236
1760.0,0.002473561826004459
1759.0,0.0024670807006817396
1758.0,0.0024687142404053483
1757.0,0.0024848372023910602
1756.0,0.0024954363657591727
1755.0,0.002478102296721508
1754.0,0.002450869973135077
1753.0,0.002468526587346931
1752.0,0.002567403760552272
1751.0,0.002715211766185778
1750.0,0.00284637409795295
1749.0,0.0029615298333315115
1748.0,0.0030535560637282274
1747.0,0.0030860119120496294
1746.0,0.003074163862906405
1745.0,0.0030647432232486227
1744.0,0.0030739776074708612
1743.0,0.0030768788581113414
1742.0,0.00308801227572985
1741.0,0.0031682972574005493
1740.0,0.003313647066156974
1739.0,0.0034113818907006
1738.0,0.0034152170262498538
1737.0,0.0034219795896496858
1736.0,0.0035533303827236917
1735.0,0.003867604171718912
1734.0,0.00425291283319006
1733.0,0.00447992060030381
1732.0,0.0045433779408027165
1731.0,0.004531518332639095
1730.0,0.004524070380477474
1729.0,0.004592163668782367
1728.0,0.004726074712698724
1727.0,0.004856407278415883
1726.0,0.004959506744092723
1725.0,0.005076494289560534
1724.0,0.005233091265380943
1723.0,0.005363036733961692
1722.0,0.005409096231581807
1721.0,0.005414026406776315
1720.0,0.005465318004399887
1719.0,0.005638963617493787
1718.0,0.00598631359267138
1717.0,0.00641005519815638
1716.0,0.006712367397131052
1715.0,0.006852393495014011
1714.0,0.006927891583692839
1713.0,0.007051940090102517
1712.0,0.007242101943570946
1711.0,0.00744529355226201
1710.0,0.00762836570979894
1709.0,0.007809150703632915
1708.0,0.00802790477435153
1707.0,0.008318096555821199
1706.0,0.008672423956169947
1705.0,0.009020156775558202
1704.0,0.009286456695916129
1703.0,0.009489905392061283
1702.0,0.00974076787369772
1701.0,0.010210940404597541
1700.0,0.010906341710559108
1699.0,0.011421242309874046
1698.0,0.011681699982028929
1697.0,0.01202887000906443
1696.0,0.012600197668864561
1695.0,0.013158933492625868
1694.0,0.013520988361953055
1693.0,0.013786546097706624
1692.0,0.014109120792415875
1691.0,0.014530185290686354
1690.0,0.015019162759943307
1689.0,0.015511441223516248
1688.0,0.015925578967693806
1687.0,0.016230103205153206
1686.0,0.016486607125834482
1685.0,0.016954602466166313
1684.0,0.017794068873412606
1683.0,0.018522469939377877
1682.0,0.018983396977915866
1681.0,0.01938999449793445
1680.0,0.019828293874975946
1679.0,0.020236812911091
1678.0,0.020590463699788456
1677.0,0.020991666118231396
1676.0,0.021563063499331434
1675.0,0.02222283011526766
1674.0,0.022732558805979696
1673.0,0.023081865339913545
1672.0,0.023450501331787103
1671.0,0.023950101763202617
1670.0,0.02455240175441054
1669.0,0.025142023378069315
1668.0,0.02565781682195328
1667.0,0.026074215284145837
1666.0,0.026420308854564832
1665.0,0.026797472340700117
1664.0,0.02731387356358376
1663.0,0.0279499326741842
1662.0,0.02852770763997921
1661.0,0.028978712464451887
1660.0,0.02938596168356243
1659.0,0.02977282118416804
1658.0,0.03009661198756476
1657.0,0.030340482125310226
1656.0,0.03055700388811573
1655.0,0.03080776367946749
1654.0,0.03113754795190169
1653.0,0.03157042445180055
1652.0,0.03203901447712629
1651.0,0.03225002882408797
1650.0,0.03227228072246255
1649.0,0.03231588329844354
1648.0,0.03248593555829836
1647.0,0.032626310522273945
1646.0,0.03260910494379633
1645.0,0.03266138377704883
1644.0,0.032774226962240756
1643.0,0.03285840612923238
1642.0,0.03289560562037939
1641.0,0.032899210054289973
1640.0,0.032889430276603085
1639.0,0.03287415694755857
1638.0,0.032841336286783346
1637.0,0.032731579207794716
1636.0,0.03243263181455215
1635.0,0.03209778654949278
1634.0,0.03192404374136563
1633.0,0.0318117217503693
1632.0,0.03169409771884165
1631.0,0.031536258159581644
1630.0,0.03129140247397301
1629.0,0.030939416896988113
1628.0,0.03052742418563189
1627.0,0.030143731117418852
1626.0,0.029826248446374676
1625.0,0.02951421197453706
1624.0,0.029083418335789143
1623.0,0.028479662078081332
1622.0,0.02789591751648905
1621.0,0.027490897881934047
1620.0,0.02721191338255186
1619.0,0.026954816138151615
1618.0,0.02658240095468048
1617.0,0.025961965177488458
1616.0,0.025242303161259454
1615.0,0.024702531600639385
1614.0,0.02432771621142802
1613.0,0.02400841904205092
1612.0,0.02367209319724274
1611.0,0.023288493381333916
1610.0,0.02287473732653302
1609.0,0.022460539489580284
1608.0,0.022058428547340643
1607.0,0.02168046999088532
1606.0,0.02134660697063656
1605.0,0.021045596083821477
1604.0,0.020744080205828214
1603.0,0.020426518924116913
1602.0,0.020109257559599327
1601.0,0.01981501709468846
1600.0,0.0195476075194728
1599.0,0.019305145469018365
1598.0,0.01908872139837384
1597.0,0.018886729694835885
1596.0,0.018677350828860288
1595.0,0.01845732256386591
1594.0,0.018249987122569897
1593.0,0.01806914782872715
1592.0,0.017902309307741504
1591.0,0.017739534501402573
1590.0,0.01758820079685127
1589.0,0.017452910990409413
1588.0,0.017327916768465727
1587.0,0.017214953370837963
1586.0,0.017126289322907377
1585.0,0.017059228726160534
1584.0,0.016990951644572556
1583.0,0.016923793690948184
1582.0,0.016875579195621326
1581.0,0.016841369209985434
1580.0,0.01680389290281312
1579.0,0.016785969837546297
1578.0,0.016832164141304347
1577.0,0.016921271421037443
1576.0,0.016930008806262435
1575.0,0.01687034327985087
1574.0,0.01684018396546718
1573.0,0.01684429448528395
1572.0,0.01687169570200198
1571.0,0.01692015520816069
1570.0,0.016991367737960575
1569.0,0.017063262953831405
1568.0,0.01712547722484397
1567.0,0.017196130879489097
1566.0,0.01729665440535807
1565.0,0.017420183339005507
1564.0,0.017514689328107267
1563.0,0.01755389627215354
1562.0,0.01755228475566302
1561.0,0.01751737058514014
1560.0,0.017506423822384175
1559.0,0.01776458772083796
1558.0,0.018169709055305027
1557.0,0.01854009697707223
1556.0,0.018759390944825517
1555.0,0.018884783826517263
1554.0,0.01898648473909016
1553.0,0.019067398421660206
1552.0,0.01911044871656332
1551.0,0.019138463202828745
1550.0,0.01918451485190381
1549.0,0.0192618744142058
1548.0,0.019339129080063383
1547.0,0.01938506457623851
1546.0,0.019413542562910224
1545.0,0.01946423261991599
1544.0,0.019522299873821935
1543.0,0.01953536065556888
1542.0,0.01950493640273312
1541.0,0.019288970885418904
1540.0,0.018650080363168606
1539.0,0.018253390379621377
1538.0,0.0182533766855213
1537.0,0.01828662496690774
1536.0,0.018260137117233975
1535.0,0.018150526507051363
1534.0,0.017905579061891778
1533.0,0.01757492172804364
1532.0,0.017348831807016404
1531.0,0.017235797798430343
1530.0,0.017142184088767397
1529.0,0.01703517027048272
1528.0,0.016914035152175957
1527.0,0.0167641460740571
1526.0,0.016588128996739664
1525.0,0.016429108352087163
1524.0,0.016309702522887548
1523.0,0.016190298672896685
1522.0,0.015965365658815907
1521.0,0.015629689296403293
1520.0,0.01538219163320545
1519.0,0.015217835063295274
1518.0,0.0150483984038183
1517.0,0.014830388443528068
1516.0,0.014590902805992165
1515.0,0.014410156611269223
1514.0,0.014282642270686409
1513.0,0.014155325696946117
1512.0,0.013980700087745948
1511.0,0.013735333269866552
1510.0,0.013469565105200589
1509.0,0.013288540797385328
1508.0,0.013141434290330902
1507.0,0.01250562697741703
1506.0,0.011976574899832285
1505.0,0.01204896340190071
1504.0,0.012128454690260174
1503.0,0.012081878447384488
1502.0,0.011978773157120889
1501.0,0.011876835605819685
1500.0,0.011786782223434544
1499.0,0.011687357719795826
1498.0,0.011576827043124426
1497.0,0.011481052922200504
1496.0,0.01138652795781538
1495.0,0.011267784523540708
1494.0,0.01115433902506059
1493.0,0.011090062484114618
1492.0,0.011068577852775716
1491.0,0.011027523168377759
1490.0,0.01093302002832114
1489.0,0.0108474582197753
1488.0,0.010815463907014562
1487.0,0.010793163222383209
1486.0,0.010795209243417788
1485.0,0.010866354261778855
1484.0,0.010979035916085336
1483.0,0.011103968755440728
1482.0,0.011289535279200269
1481.0,0.011599566409109356
1480.0,0.01199548345738292
1479.0,0.012476985593233784
1478.0,0.013290303049459256
1477.0,0.014844669706711635
1476.0,0.01730940115525959
1475.0,0.020517247097806706
1474.0,0.024489055156137963
1473.0,0.02879306106139446
1472.0,0.03144864620697674
1471.0,0.032100264613166896
1470.0,0.03219792287662953
1469.0,0.03238917805638358
1468.0,0.032692486828744205
1467.0,0.03313944312835031
1466.0,0.03396229398130387
1465.0,0.03509120738577766
1464.0,0.035678136291661985
1463.0,0.03517453381419754
1462.0,0.03386750064821644
1461.0,0.03213339558206334
1460.0,0.030212754408538246
1459.0,0.02833046849400271
1458.0,0.026620267889115232
1457.0,0.025000394719294994
1456.0,0.02372845712117968
1455.0,0.022886620328362924
1454.0,0.02216140621758673
1453.0,0.02138004109146986
1452.0,0.02056484636502559
1451.0,0.019842078389244244
1450.0,0.019267056572523537
1449.0,0.018777348517705905
1448.0,0.018330035269626746
1447.0,0.017978721813593494
1446.0,0.017745594986763653
1445.0,0.01755352820186591
1444.0,0.017357412575169862
1443.0,0.017170069006812665
1442.0,0.016992724804844296
1441.0,0.01680209129467104
1440.0,0.016603926083615283
1439.0,0.016435207632938386
1438.0,0.0162898887480874
1437.0,0.016088549673411282
1436.0,0.015808458601303376
1435.0,0.015562968629397222
1434.0,0.015370360285003964
1433.0,0.015171543357150888
1432.0,0.014941067132912197
1431.0,0.01469860835169063
1430.0,0.014466861809767678
1429.0,0.014254962162683339
1428.0,0.014080260242670107
1427.0,0.013948428010417964
1426.0,0.013843016493496198
1425.0,0.013740422436747703
1424.0,0.013644058065960854
1423.0,0.01358368471753602
1422.0,0.013564168613992289
1421.0,0.01355593821679593
1420.0,0.013542864494161387
1419.0,0.013529659937231996
1418.0,0.013502873048956011
1417.0,0.013469891407246658
1416.0,0.013454781248050452
1415.0,0.013465347517630476
1414.0,0.013484442964625011
1413.0,0.013487288096499614
1412.0,0.01346598071236758
1411.0,0.013426473045971558
1410.0,0.013372432515485401
1409.0,0.013302115362589847
1408.0,0.013216384536027883
1407.0,0.013120564467009595
1406.0,0.013017078818144867
1405.0,0.012892043742707138
1404.0,0.012751547536355757
1403.0,0.012628998367525656
1402.0,0.01252368472572408
1401.0,0.012404243868670081
1400.0,0.012250540009107375
1399.0,0.01207399935250306
1398.0,0.01190525542040366
1397.0,0.011747990637863142
1396.0,0.011572046005287403
1395.0,0.011365945385679838
1394.0,0.01117611441041369
1393.0,0.011034924841307648
1392.0,0.010919782313689043
1391.0,0.01081279198065227
1390.0,0.010710779519967252
1389.0,0.010606743455046806
1388.0,0.010491885025728623
1387.0,0.010368143165783158
1386.0,0.010262789077582674
1385.0,0.010200915787804743
1384.0,0.010194710806116346
1383.0,0.010257685890582359
1382.0,0.010386760709331307
1381.0,0.01055328584157486
1380.0,0.010716252551177563
1379.0,0.010825784576884684
1378.0,0.010829320850533628
1377.0,0.010705159059607424
1376.0,0.010474203560289743
1375.0,0.010183460737062867
1374.0,0.009903321268931217
1373.0,0.009713162909674606
1372.0,0.009629610471281922
1371.0,0.00960060404964875
1370.0,0.009566820933965454
1369.0,0.009481743847427069
1368.0,0.009331349778887473
1367.0,0.009145095513537406
1366.0,0.00895544390890382
1365.0,0.008777374982977872
1364.0,0.008627857781895414
1363.0,0.008515575407985441
1362.0,0.00842371878680828
1361.0,0.008351667005670206
1360.0,0.008309374794829683
1359.0,0.008285205163191325
1358.0,0.008259022029732471
1357.0,0.008223788054613192
1356.0,0.00819365509218692
1355.0,0.008185278134101559
1354.0,0.008192260730752413
1353.0,0.008195948718601766
1352.0,0.008195121065183513
1351.0,0.008198987480030753
1350.0,0.008203214505726064
1349.0,0.008193416435741566
1348.0,0.008172845732756708
1347.0,0.008157632672233975
1346.0,0.00815033328922277
1345.0,0.008141009356672417
1344.0,0.008128715011963114
1343.0,0.008122443117496526
1342.0,0.008126647621935683
1341.0,0.008135839893134137
1340.0,0.008127315007965064
1339.0,0.008071397301668531
1338.0,0.007977238612725493
1337.0,0.007880178051528767
1336.0,0.007801302324653696
1335.0,0.007745744761555769
1334.0,0.007705652165424131
1333.0,0.0076687888474958055
1332.0,0.0076346083293435014
1331.0,0.007610616999315386
1330.0,0.007594917397583769
1329.0,0.007579388239480346
1328.0,0.007567509846598102
1327.0,0.007569294133838871
1326.0,0.007582055365127498
1325.0,0.00759438762696665
1324.0,0.007605211148428241
1323.0,0.007623065658859989
1322.0,0.007649218128037514
1321.0,0.007676667419458091
1320.0,0.007702861229513204
1319.0,0.007729019637340656
1318.0,0.007750978506176025
1317.0,0.007766160456484693
1316.0,0.007782775252424018
1315.0,0.007808882368685861
1314.0,0.007837118651664855
1313.0,0.007852038312134284
1312.0,0.007854151194823392
1311.0,0.007858417655575507
1310.0,0.007869102411402536
1309.0,0.007876647826576287
1308.0,0.007875788725483487
1307.0,0.007870935784043524
1306.0,0.00786494655665976
1305.0,0.00785597433061421
1304.0,0.007845368482240506
1303.0,0.007837236700415884
1302.0,0.007829510668872773
1301.0,0.007816361863293306
1300.0,0.007799095456586852
1299.0,0.007784128805076177
1298.0,0.00777091218905817
1297.0,0.007752882490465839
1296.0,0.007729883449629896
1295.0,0.007707991703617285
1294.0,0.007688066037889395
1293.0,0.007666176342703593
1292.0,0.007644503145276102
1291.0,0.007630202435311121
1290.0,0.007623419824414746
1289.0,0.0076170914274221214
1288.0,0.0076089517919377
1287.0,0.007603425775717725
1286.0,0.007602114823831033
1285.0,0.0076034350793361336
1284.0,0.007610883203589179
1283.0,0.007630201160436306
1282.0,0.007658065649744241
1281.0,0.00768448541716691
1280.0,0.007706874586373452
1279.0,0.007731673221526682
1278.0,0.007762545116674114
1277.0,0.007797106149920468
1276.0,0.007835224341886719
1275.0,0.00788048854784391
1274.0,0.00793333552510418
1273.0,0.007990536704977461
1272.0,0.008050469217006948
1271.0,0.00811194373071267
1270.0,0.008170798538368995
1269.0,0.008225667288674184
1268.0,0.008283613883944852
1267.0,0.008352289929194926
1266.0,0.008429540734648624
1265.0,0.008507776630066298
1264.0,0.008585295519518636
1263.0,0.00866496267895869
1262.0,0.008744827840658376
1261.0,0.008818837541684218
1260.0,0.008885284800396489
1259.0,0.00894699868016538
1258.0,0.009005095940464553
1257.0,0.009059738538485301
1256.0,0.00911533408142066
1255.0,0.009177325014793531
1254.0,0.009244742070890283
1253.0,0.00931226491377349
1252.0,0.009378512257763916
1251.0,0.009446458260100769
1250.0,0.00951745228942634
1249.0,0.009589940634067907
1248.0,0.009661953526298766
1247.0,0.009730424225310343
1246.0,0.00979067330492834
1245.0,0.009840291179936303
1244.0,0.009881105699572372
1243.0,0.009914407334080905
1242.0,0.009937428986806688
1241.0,0.009947433197980995
1240.0,0.009945493681596725
1239.0,0.009933069966620333
1238.0,0.009908678158273733
1237.0,0.00987190000916971
1236.0,0.00982757387846858
1235.0,0.009782068230133474
1234.0,0.00973808599590928
1233.0,0.00969699233438523
1232.0,0.009663509391152918
1231.0,0.009643775962452902
1230.0,0.009640928565871183
1229.0,0.009656270815597482
1228.0,0.009691470438978757
1227.0,0.009744700144366823
1226.0,0.009807874066389647
1225.0,0.009872570305594897
1224.0,0.009933455700501083
1223.0,0.009978506223339704
1222.0,0.009981197576340809
1221.0,0.009914466233353304
1220.0,0.009777323197722947
1219.0,0.009606763827349134
1218.0,0.009460883456441095
1217.0,0.009385390442016054
1216.0,0.009389743612729156
1215.0,0.009446777670764576
1214.0,0.009512925401894273
1213.0,0.009555159523763236
1212.0,0.009564101154207109
1211.0,0.009546239806836727
1210.0,0.009510496856283149
1209.0,0.009464881395472477
1208.0,0.009419028169080502
1207.0,0.00938134072861282
1206.0,0.009353927026087748
1205.0,0.00933537967664849
1204.0,0.009327091058132547
1203.0,0.009331775959766473
1202.0,0.009347965241898334
1201.0,0.009371532828835986
1200.0,0.009400790149304145
1199.0,0.009435280975136406
1198.0,0.009472181213320543
1197.0,0.009508508653331735
1196.0,0.009544338181834216
1195.0,0.009579871501250715
1194.0,0.009612715274101761
1193.0,0.009642445511192043
1192.0,0.009673980900029317
1191.0,0.009711357213475725
1190.0,0.009751244491295632
1189.0,0.009787444163497534
1188.0,0.009818694932712275
1187.0,0.009847562420712748
1186.0,0.009875075490293813
1185.0,0.009901524923313115
1184.0,0.009930125937800299
1183.0,0.009965004543597781
1182.0,0.010006766208315426
1181.0,0.010053261628478477
1180.0,0.010102480701729049
1179.0,0.0101515880371314
1178.0,0.010196590306905222
1177.0,0.010236819186831498
1176.0,0.01027693346983772
1175.0,0.010321496335843134
1174.0,0.010370343328463575
1173.0,0.010421527857270576
1172.0,0.010474459923502566
1171.0,0.010527331753258791
1170.0,0.0105762675730913
1169.0,0.010620591451778082
1168.0,0.010664807351050824
1167.0,0.010712212667564296
1166.0,0.010760805155489618
1165.0,0.010808603138038405
1164.0,0.010858345607583017
1163.0,0.010913135499761379
1162.0,0.01097148423015229
1161.0,0.011030239618275647
1160.0,0.011088493042936373
1159.0,0.011145355756695239
1158.0,0.011198149388332034
1157.0,0.011246168564900865
1156.0,0.01129251604659436
1155.0,0.011339434382479897
1154.0,0.011385375405514552
1153.0,0.011428743918494591
1152.0,0.011470491265838824
1151.0,0.01151104311606353
1150.0,0.011549112655306268
1149.0,0.011585853294015023
1148.0,0.011625959474680996
1147.0,0.011672374064485475
1146.0,0.011723542655190702
1145.0,0.01177742825566634
1144.0,0.011834117752318546
1143.0,0.011892962150365389
1142.0,0.011951889917505574
1141.0,0.012011659754688183
1140.0,0.012076397376651664
1139.0,0.012147784443989375
1138.0,0.012222541202988612
1137.0,0.012297356475421482
1136.0,0.012372598721033235
1135.0,0.01245004934980893
1134.0,0.012530667479846883
1133.0,0.012615280783636475
1132.0,0.012703763504471478
1131.0,0.012793119443763955
1130.0,0.012879946946760774
1129.0,0.012964614980269358
1128.0,0.01304955028809917
1127.0,0.013134583813730949
1126.0,0.013217974012268277
1125.0,0.013300362252340638
1124.0,0.013383425930264873
1123.0,0.013466847139498299
1122.0,0.013551118438738297
1121.0,0.013640210650558364
1120.0,0.013736184761583593
1119.0,0.013834706401653286
1118.0,0.013931844148646101
1117.0,0.014031521794252527
1116.0,0.014139347915063473
1115.0,0.014252475967709396
1114.0,0.01436297435871893
1113.0,0.01446855927750761
1112.0,0.014572751069343252
1111.0,0.014677462244060472
1110.0,0.014782733358097027
1109.0,0.014890365209118281
1108.0,0.015000527058494858
1107.0,0.015108993176630125
1106.0,0.015213725085825011
1105.0,0.015319350810230586
1104.0,0.015429018133623924
1103.0,0.015538056092010002
1102.0,0.015642456154888275
1101.0,0.015747066793991134
1100.0,0.015855710009490827
1099.0,0.01596474820267107
1098.0,0.016069550627006712
1097.0,0.01617351898476767
1096.0,0.016279658098616832
1095.0,0.016381479987787044
1094.0,0.016472601907457803
1093.0,0.01655840581327534
1092.0,0.01664812352228691
1091.0,0.016741899531925813
1090.0,0.016834478200499752
1089.0,0.016924533561307166
1088.0,0.017011460883572922
1087.0,0.017090373101050334
1086.0,0.01715896674840488
1085.0,0.017221091491845794
1084.0,0.01727494703463643
1083.0,0.017307469799175253
1082.0,0.017310193939966155
1081.0,0.01729135738188916
1080.0,0.0172630667817174
1079.0,0.017226460259234626
1078.0,0.01717848771813788
1077.0,0.017123061433111413
1076.0,0.01706530474044815
1075.0,0.017003018846558582
1074.0,0.01693294224463272
1073.0,0.01685836591124833
1072.0,0.016783247474268598
1071.0,0.016706190907500713
1070.0,0.016626363307559563
1069.0,0.016547748086877544
1068.0,0.016472592730629516
1067.0,0.01639893106014783
1066.0,0.016328422108203552
1065.0,0.01626696988437109
1064.0,0.016213163049442158
1063.0,0.01615619594761604
1062.0,0.016090563811584604
1061.0,0.016023395574555437
1060.0,0.01596184954617834
1059.0,0.01590329812994399
1058.0,0.01584389678358141
1057.0,0.015786890640762413
1056.0,0.015735608768691924
1055.0,0.015687369510371363
1054.0,0.015641314488234054
1053.0,0.015604083747644673
1052.0,0.015580037497074675
1051.0,0.015563226209124523
1050.0,0.015546349755085474
1049.0,0.015527934356190272
1048.0,0.015502601949551689
1047.0,0.015456939346840594
1046.0,0.015384189601781485
1045.0,0.015292067100474462
1044.0,0.015189442558983988
1043.0,0.015075799048020231
1042.0,0.014949511876877212
1041.0,0.014817015796435344
1040.0,0.01468641302027162
1039.0,0.014558831636021608
1038.0,0.01443210160647301
1037.0,0.014306697852522504
1036.0,0.014182450505316944
1035.0,0.014055663260550098
1034.0,0.013925802492356445
1033.0,0.01379974629265485
1032.0,0.013682726547509901
1031.0,0.013568727511425918
1030.0,0.0134454472598294
1029.0,0.01330594895494401
1028.0,0.013150954829842715
1027.0,0.012983154535959614
1026.0,0.01280422903202575
1025.0,0.012615786537054252
1024.0,0.012420010372436285
1023.0,0.012220241387603071
1022.0,0.012021365193030483
1021.0,0.011827036423864547
1020.0,0.011636174597884224
1019.0,0.011445413965097035
1018.0,0.011255628736132013
1017.0,0.011072600171594652
1016.0,0.010900543751373086
1015.0,0.010738781306547825
1014.0,0.010586172499546631
1013.0,0.010445179126347806
1012.0,0.010318823910293377
1011.0,0.010205723067326545
1010.0,0.010100498892988214
1009.0,0.009997871354365476
1008.0,0.009894669838124426
1007.0,0.009789666763512768
1006.0,0.009683933364880184
1005.0,0.009580030876877204
1004.0,0.009478115804163058
1003.0,0.009373493262304827
1002.0,0.009260311695518407
1001.0,0.00913728506374462
1000.0,0.009007994644381012
999.0,0.008876578191637815
998.0,0.008745413539380019
997.0,0.008616211380274168
996.0,0.008490194160796586
995.0,0.008366401771616768
994.0,0.008242499611518718
993.0,0.008119085290901365
992.0,0.00800135454056406
991.0,0.007894117441501636
990.0,0.007796039447765017
989.0,0.007701249920971929
988.0,0.007606344072846329
987.0,0.007513502297438756
986.0,0.007426671882090218
985.0,0.007346941661027031
984.0,0.007272423246430338
983.0,0.007200724116638132
982.0,0.007130025600775695
981.0,0.007058474643433203
980.0,0.006983884630829402
979.0,0.006904628399086102
978.0,0.006820919655783008
977.0,0.006734925858179953
976.0,0.006649168368865992
975.0,0.006565024166727494
974.0,0.006483270038310469
973.0,0.0064052225865848696
972.0,0.006331395086022292
971.0,0.006259025834921807
970.0,0.006183575484526289
969.0,0.0061038586113199966
968.0,0.006023301294976784
967.0,0.00594468638678778
966.0,0.005866394541897288
965.0,0.005786083474108465
964.0,0.005705118659240546
963.0,0.005625684626610752
962.0,0.0055456385609695385
961.0,0.005460546677966126
960.0,0.005369871515245895
959.0,0.005277386820444922
958.0,0.005186413537573419
957.0,0.005098579721703089
956.0,0.00501647829170614
955.0,0.004942642076691713
954.0,0.004875348332651056
953.0,0.0048097530188211945
952.0,0.004744075082121093
951.0,0.0046809754811589655
950.0,0.0046225932171654605
949.0,0.004568518740702708
948.0,0.004519340580485073
947.0,0.004477572662100922
946.0,0.004443457595714127
945.0,0.004413720929295064
944.0,0.004386243792224461
943.0,0.0043628105233263995
942.0,0.004345612908665692
941.0,0.0043335556110971445
940.0,0.004323283353535426
939.0,0.004311911968859739
938.0,0.004298168633506136
937.0,0.004282533773532717
936.0,0.004266058853646226
935.0,0.0042474501228845045
934.0,0.004222450344685172
933.0,0.004188498780435385
932.0,0.0041487766779690054
931.0,0.004108865290010373
930.0,0.004070540801672488
929.0,0.004031877668837568
928.0,0.003992293151082569
927.0,0.003953965557347488
926.0,0.003919277454406863
925.0,0.0038906478516390897
924.0,0.0038718619630546593
923.0,0.003864905244504427
922.0,0.003865487427722754
921.0,0.003865840269506369
920.0,0.0038619698722742405
919.0,0.0038548717713330714
918.0,0.0038460743348306334
917.0,0.0038366097180105585
916.0,0.0038294834255748304
915.0,0.0038277833262342926
914.0,0.003829771206378627
913.0,0.0038302367183134945
912.0,0.0038269632950458897
911.0,0.003821343688547323
910.0,0.0038125428741304385
909.0,0.0037962904818989087
908.0,0.0037706469207194823
907.0,0.0037383736522667126
906.0,0.0037022469503747366
905.0,0.0036623932197225005
904.0,0.003619957383669402
903.0,0.003579216975297176
902.0,0.003543670887689688
901.0,0.0035128890118384555
900.0,0.003484725925779586
899.0,0.003458023421141867
898.0,0.0034316473341878782
897.0,0.003404465999177684
896.0,0.0033771945696736035
895.0,0.003351886945759089
894.0,0.0033292166738703097
893.0,0.0033091674537368294
892.0,0.0032941710992352505
891.0,0.0032876455891823614
890.0,0.0032889549913568874
889.0,0.0032935533334904916
888.0,0.0032986203067021554
887.0,0.003304889897221103
886.0,0.0033130225792138614
885.0,0.003322988339583775
884.0,0.0033378860322358823
883.0,0.003363420002589511
882.0,0.0034014817084381966
881.0,0.0034480194562291084
880.0,0.0034986990571296388
879.0,0.0035523836102770608
878.0,0.003607684368437796
877.0,0.003661136130981813
876.0,0.003711270858738184
875.0,0.0037593545396821387
874.0,0.0038012544494787706
873.0,0.0038212751652832253
872.0,0.00380030524617477
871.0,0.0037334995780886476
870.0,0.003639576439752084
869.0,0.0035505628604855077
868.0,0.0034903401185864373
867.0,0.0034611761992318687
866.0,0.0034486002626242015
865.0,0.003438164043241638
864.0,0.0034267216762803292
863.0,0.003418786506526531
862.0,0.0034169857111333857
861.0,0.0034195805620072413
860.0,0.003424252156473191
859.0,0.003429287232077423
858.0,0.0034319090249222695
857.0,0.003429829747649455
856.0,0.0034244683492403033
855.0,0.0034192382874804732
854.0,0.0034150573826606436
853.0,0.003411313104762101
852.0,0.0034108986351085065
851.0,0.003419375422992149
850.0,0.0034376782964873932
849.0,0.0034598454112927477
848.0,0.0034804703537212635
847.0,0.003501572990372662
846.0,0.00352952571723527
845.0,0.003566702723421779
844.0,0.0036082600750384723
843.0,0.0036466589092896424
842.0,0.0036785765513761386
841.0,0.0037077285388509573
840.0,0.0037408211840128536
839.0,0.0037805644628194617
838.0,0.0038233222997012487
837.0,0.0038640214766761504
836.0,0.0039016839914798266
835.0,0.003938642184910496
834.0,0.003976087631342549
833.0,0.004013236987060144
832.0,0.0040504993195215
831.0,0.004090518357913766
830.0,0.004135185612666634
829.0,0.004183573707701244
828.0,0.004234011795940542
827.0,0.004286620093861099
826.0,0.0043418944395452255
825.0,0.004397689659676456
824.0,0.004450265112439917
823.0,0.004499177877896268
822.0,0.004548674632183194
821.0,0.0046018842644508645
820.0,0.004655401405760588
819.0,0.004702373718191955
818.0,0.0047405207698456905
817.0,0.004774742096812624
816.0,0.004811276929364568
815.0,0.004851291104980532
814.0,0.004891175495330507
813.0,0.00492741071628733
812.0,0.004959708522572765
811.0,0.004990782277143602
810.0,0.005024621653712159
809.0,0.005063863967283606
808.0,0.005107521834729277
807.0,0.0051520726562398166
806.0,0.005195272438231428
805.0,0.0052378671177657765
804.0,0.005281524541374517
803.0,0.0053269425549316365
802.0,0.005374228456264471
801.0,0.005422470557956825
800.0,0.005468376808235188
799.0,0.00550791442696303
798.0,0.005539965723381383
797.0,0.005565818774242833
796.0,0.0055852436951922164
795.0,0.005597128353164808
794.0,0.005604110789179589
793.0,0.005611880425910237
792.0,0.00562355287334327
791.0,0.0056395624680577825
790.0,0.00566260829880905
789.0,0.005695820737137501
788.0,0.0057347081854632245
787.0,0.0057677553610055825
786.0,0.005788028427026077
785.0,0.005799644264419137
784.0,0.005811344000503021
783.0,0.005829553035264336
782.0,0.005858725312181385
781.0,0.005900138725759365
780.0,0.005946577581586473
779.0,0.005985137983031109
778.0,0.006009606467495416
777.0,0.006024483127559866
776.0,0.0060343868350640935
775.0,0.006037709144953262
774.0,0.0060348522885856955
773.0,0.0060346263185262605
772.0,0.0060464703693715195
771.0,0.006071725642501937
770.0,0.006106050578805665
769.0,0.006143885585589806
768.0,0.006177392617419829
767.0,0.006199239178018113
766.0,0.006211827500006871
765.0,0.0062268428664379784
764.0,0.006251229893822258
763.0,0.006280979687870728
762.0,0.006311625897223476
761.0,0.006345262630966828
760.0,0.006382502270822982
759.0,0.006417566020557944
758.0,0.0064479040303729585
757.0,0.006479250422584038
756.0,0.006514503987772521
755.0,0.0065474668422326274
754.0,0.0065750272981924245
753.0,0.006605631867588826
752.0,0.006647567315776266
751.0,0.006699328241483322
750.0,0.006759262422804099
749.0,0.0068327233673234015
748.0,0.006919173876036159
747.0,0.007002827540556717
746.0,0.007068876699723104
745.0,0.007122044829482709
744.0,0.007178146982130637
743.0,0.007243857822125747
742.0,0.007314286852024569
741.0,0.007383501285577911
740.0,0.007450144512842878
739.0,0.007521526087621773
738.0,0.007619216069342145
737.0,0.007774438709902031
736.0,0.008025135024849474
735.0,0.008444744741317392
734.0,0.009169868733709723
733.0,0.010331182589593438
732.0,0.011878569367432309
731.0,0.013467197831150794
730.0,0.014601082367119756
729.0,0.014990361072831231
728.0,0.01477725230791772
727.0,0.014389296522892371
726.0,0.01421788318172968
725.0,0.014453519229843326
724.0,0.01515175186341921
723.0,0.016360218750067455
722.0,0.018103109841451283
721.0,0.020176680792473357
720.0,0.021981609131558073
719.0,0.022777897138246735
718.0,0.022255614934416256
717.0,0.02071035549716971
716.0,0.0186998102560384
715.0,0.016702755585771865
714.0,0.014996051338541642
713.0,0.013665756957765916
712.0,0.012674333588842877
711.0,0.011934726441489248
710.0,0.011363111594664414
709.0,0.01090485220695614
708.0,0.010532961094531775
707.0,0.01023097699848085
706.0,0.009983402024607797
705.0,0.009778754990738558
704.0,0.009609437716658516
703.0,0.009465128079476767
702.0,0.00933463189442182
701.0,0.009214321384490718
700.0,0.009105658546347494
699.0,0.009004669059532792
698.0,0.008904080648122757
697.0,0.008806234187444527
696.0,0.00872135450974453
695.0,0.008650415929380107
694.0,0.008581754819694658
693.0,0.008508012277309433
692.0,0.008435785361929255
691.0,0.008374685367351961
690.0,0.00832573798655385
689.0,0.008284288516785492
688.0,0.008246397323171385
687.0,0.008209352719356666
686.0,0.008174000208471612
685.0,0.008148093580336286
684.0,0.008139043744062567
683.0,0.00814211385556186
682.0,0.008143225728073973
681.0,0.008133307628573066
680.0,0.008112652942854393
679.0,0.008082597184716439
678.0,0.008042654815656775
677.0,0.007998368517628593
676.0,0.007961415098909344
675.0,0.007935993312779884
674.0,0.007917625690754023
673.0,0.00790237615094324
672.0,0.007888775769896115
671.0,0.00787196321803052
670.0,0.007844643079865739
669.0,0.007799513840416921
668.0,0.007741631209477209
667.0,0.007706927334993176
666.0,0.007708196084186823
665.0,0.007717815909874479
664.0,0.0077191326730823035
663.0,0.0077095182940515854
662.0,0.007695329303641394
661.0,0.007689225200923109
660.0,0.007694687960576169
659.0,0.00769553915818846
658.0,0.0076738641095453405
657.0,0.007634745626514575
656.0,0.0075971476395595445
655.0,0.007564706945740664
654.0,0.007524229696709166
653.0,0.007467604992980881
652.0,0.007400319499187357
651.0,0.0073312533460037355
650.0,0.007267038846375131
649.0,0.007213367624728415
648.0,0.007171921378813045
647.0,0.007136484397366721
646.0,0.007099929871562893
645.0,0.007062515974418163
644.0,0.007026294835838777
643.0,0.006986769675277721
642.0,0.006938135886178276
641.0,0.006880007646253844
640.0,0.006810475535129564
639.0,0.006725478913607899
638.0,0.0066371907149521975
637.0,0.006577897495556937
636.0,0.006566862437164183
635.0,0.006579445748202297
634.0,0.006567130052755063
633.0,0.006509464730893699
632.0,0.006424250503069995
631.0,0.006338246130105012
630.0,0.006269927954565982
629.0,0.006226234013714353
628.0,0.0061949536124578045
627.0,0.006144051817314856
626.0,0.006049813204717135
625.0,0.005928438619860386
624.0,0.005816830164986979
623.0,0.005724437807058513
622.0,0.005631552711877132
621.0,0.005532056837494272
620.0,0.005446891744085197
619.0,0.005390654277347076
618.0,0.0053475878765919145
617.0,0.005294107272562189
616.0,0.005230989908157003
615.0,0.005181128130766549
614.0,0.0051688802194523095
613.0,0.005201896122871981
612.0,0.005254676711811103
611.0,0.005271912588877414
610.0,0.005224527030385747
609.0,0.005160834158380744
608.0,0.005160781753240962
607.0,0.005246214648786407
606.0,0.005361125755907111
605.0,0.005444617373508088
604.0,0.00548589732289456
603.0,0.00549896570794382
602.0,0.005493065108241244
601.0,0.005481347902950049
600.0,0.005484831597353973
599.0,0.0055107740676086266
598.0,0.00554184771990575
597.0,0.005551251578158901
596.0,0.005512250680134272
595.0,0.005401465728430213
594.0,0.005226154867170239
593.0,0.005040216076211645
592.0,0.004902984766062662
591.0,0.004819802101025365
590.0,0.004740772896364442
589.0,0.004629383570097574
588.0,0.00450017941025636
587.0,0.004386540210240238
586.0,0.0042975957535283105
585.0,0.004212829731693768
584.0,0.004115999545117734
583.0,0.004018342646733357
582.0,0.003941110123989053
581.0,0.0038814957559770054
580.0,0.003804880756929606
579.0,0.003666981475361519
578.0,0.0034590354396295576
577.0,0.0032344251322188287
576.0,0.003081884036658636
575.0,0.003047365930173629
574.0,0.0030673879829982535
573.0,0.003042496270709039
572.0,0.002947581635520913
571.0,0.0028420618060503063
570.0,0.0028100604279840836
569.0,0.00288410457560144
568.0,0.00302491892268935
567.0,0.0031442058900651923
566.0,0.003167342110420893
565.0,0.003097418396817554
564.0,0.002991126509217925
563.0,0.0029047511317907507
562.0,0.0028713641472361134
561.0,0.002905694200471676
560.0,0.003005704002410842
559.0,0.0031156867991979833
558.0,0.003136318328634053
557.0,0.003027623796595203
556.0,0.0028593135431781262
555.0,0.002739995845703412
554.0,0.002706877432390651
553.0,0.0027041008771602794
552.0,0.00266105840320127
551.0,0.002547675703646177
550.0,0.0023784933571687587
