cm-1,A
4000.0,0.0019830799013905165
3999.0,0.0019919470307332775
3998.0,0.00199762094236306
3997.0,0.001997625745935472
3996.0,0.0019935665559378344
3995.0,0.0019891539953194367
3994.0,0.00198693310278636
3993.0,0.001987351754992167
3992.0,0.001989296265636117
3991.0,0.0019903353994262262
3990.0,0.0019874393448605482
3989.0,0.0019802542351927636
3988.0,0.0019729049364733305
3987.0,0.0019707810733462956
3986.0,0.0019744448345688417
3985.0,0.001978795448759857
3984.0,0.001980467038213714
3983.0,0.0019830865092297662
3982.0,0.0019933082199602697
3981.0,0.002012084122471985
3980.0,0.002032165711082049
3979.0,0.00204575412083971
3978.0,0.0020507329001667593
3977.0,0.0020486117810385607
3976.0,0.002040039508850676
3975.0,0.0020258503143541105
3974.0,0.002011915541946797
3973.0,0.00200770409815968
3972.0,0.0020175476280921895
3971.0,0.002034566147593296
3970.0,0.0020467321901252297
3969.0,0.002048347260194727
3968.0,0.002045012842093859
3967.0,0.002046944469297062
3966.0,0.0020566291973833986
3965.0,0.0020655788946968246
3964.0,0.0020617319117644793
3963.0,0.002041781568769131
3962.0,0.002017446361417188
3961.0,0.002005870702345166
3960.0,0.002014974379891999
3959.0,0.0020368419096961315
3958.0,0.002055631182228504
3957.0,0.0020618556700167123
3956.0,0.0020569643698162333
3955.0,0.0020478710204500754
3954.0,0.002036979143130994
3953.0,0.002019388355199777
3952.0,0.0019918660594105612
3951.0,0.00196159968510971
3950.0,0.0019442166649063807
3949.0,0.0019508646454765052
3948.0,0.0019762380629191447
3947.0,0.0020017714995006503
3946.0,0.002011361736026055
3945.0,0.002005318363735739
3944.0,0.0020010641176354095
3943.0,0.0020172772456253057
3942.0,0.0020549076184165505
3941.0,0.0020948082520304773
3940.0,0.002116556571445845
3939.0,0.0021158956864454474
3938.0,0.0021039311287556575
3937.0,0.002093242688512831
3936.0,0.002087736362291991
3935.0,0.002085241402357504
3934.0,0.002082962811456981
3933.0,0.0020798570020003648
3932.0,0.0020747522149008523
3931.0,0.002068306350616998
3930.0,0.0020625245620663514
3929.0,0.002054281480759338
3928.0,0.002037906928233816
3927.0,0.0020137971199239574
3926.0,0.0019943779121728796
3925.0,0.0019933807354365314
3924.0,0.002007799377162657
3923.0,0.002021489580162662
3922.0,0.0020248003286620943
3921.0,0.002024159690065093
3920.0,0.0020312512735652585
3919.0,0.0020487953917317798
3918.0,0.0020710928626365534
3917.0,0.002091790116919333
3916.0,0.002107869728443489
3915.0,0.002116772822490376
3914.0,0.002117451468181313
3913.0,0.0021141591231774006
3912.0,0.0021129177558281468
3911.0,0.002115149132864649
3910.0,0.0021186080738039726
3909.0,0.002119920468333915
3908.0,0.002114716742669202
3907.0,0.0020991785684915947
3906.0,0.00207277673469977
3905.0,0.002040899910712381
3904.0,0.002009618983542444
3903.0,0.0019783131274448505
3902.0,0.001943677462550001
3901.0,0.001917044957265305
3900.0,0.0019223379894195832
3899.0,0.0019657799507823855
3898.0,0.0020219033181335
3897.0,0.00206027451618662
3896.0,0.002072473662889226
3895.0,0.0020660763354285873
3894.0,0.002051484056430401
3893.0,0.002040777343030493
3892.0,0.0020512310846434556
3891.0,0.002091687718570143
3890.0,0.002140569689178246
3889.0,0.0021625346481860016
3888.0,0.0021467782531477114
3887.0,0.0021160126502224627
3886.0,0.002097114289215389
3885.0,0.002085723414446363
3884.0,0.002054566998052891
3883.0,0.001992785026912022
3882.0,0.001929061142934359
3881.0,0.0019113108191842394
3880.0,0.001956097364356915
3879.0,0.0020236107167830066
3878.0,0.002059426439088188
3877.0,0.0020469985947009087
3876.0,0.0020117850087673314
3875.0,0.0019943827555506007
3874.0,0.002011119536643099
3873.0,0.002035481537883679
3872.0,0.0020307266573055473
3871.0,0.0019949689428434584
3870.0,0.001964828181743917
3869.0,0.001966340700678312
3868.0,0.001978972499833081
3867.0,0.001978958137579185
3866.0,0.001980469380332102
3865.0,0.00199874924118471
3864.0,0.0020169768006811973
3863.0,0.0020186081818680843
3862.0,0.0020139402449477362
3861.0,0.0020151410669639247
3860.0,0.0020204882747503253
3859.0,0.0020252751239165008
3858.0,0.0020296656580141427
3857.0,0.0020350940230973538
3856.0,0.0020379171354185125
3855.0,0.0020303997204308443
3854.0,0.002018562486210886
3853.0,0.00202227247825389
3852.0,0.0020420357202781706
3851.0,0.0020476343076768345
3850.0,0.0020375444381931984
3849.0,0.0020316750477100813
3848.0,0.0020386775552767304
3847.0,0.00205065828610313
3846.0,0.0020579478046082503
3845.0,0.002053516741287316
3844.0,0.0020346957263858213
3843.0,0.002008302117237392
3842.0,0.001986306683372935
3841.0,0.0019766490813589973
3840.0,0.0019767910704572445
3839.0,0.001972470089323922
3838.0,0.0019596729372810357
3837.0,0.0019574679564327746
3836.0,0.0019762700331935243
3835.0,0.002004225093823167
3834.0,0.0020282529660450924
3833.0,0.0020462383468878385
3832.0,0.0020615076109298963
3831.0,0.002070957375422548
3830.0,0.002065528886813503
3829.0,0.002042772208974889
3828.0,0.0020155518900243845
3827.0,0.002003027317743319
3826.0,0.0020092041431249773
3825.0,0.002015116445123282
3824.0,0.0020008274081661772
3823.0,0.0019728390245815183
3822.0,0.001965063139709738
3821.0,0.001993071064184212
3820.0,0.0020260149211085714
3819.0,0.0020271231615303868
3818.0,0.0020006658196453407
3817.0,0.001987979063477345
3816.0,0.0020146121841083425
3815.0,0.002053233172718341
3814.0,0.0020598511262484697
3813.0,0.0020312075739996657
3812.0,0.002001754850052357
3811.0,0.001997545776607938
3810.0,0.002015598671754074
3809.0,0.002042045470733499
3808.0,0.002072734138549371
3807.0,0.0021046881396241685
3806.0,0.0021198913824196255
3805.0,0.002096134039401101
3804.0,0.0020376863097467768
3803.0,0.001982837030349553
3802.0,0.0019703760601247292
3801.0,0.001992359575419675
3800.0,0.0020053475525275725
3799.0,0.001986496207273946
3798.0,0.0019592798715815734
3797.0,0.001960764052927049
3796.0,0.001994936149981633
3795.0,0.0020319262631331475
3794.0,0.0020481409727073547
3793.0,0.002047813223783377
3792.0,0.0020459511748594796
3791.0,0.0020460501754687855
3790.0,0.0020436037009319624
3789.0,0.002038629538872313
3788.0,0.0020355757699769927
3787.0,0.002034985172837166
3786.0,0.0020323230888282394
3785.0,0.002023936222328934
3784.0,0.0020106412095273517
3783.0,0.001992483351460621
3782.0,0.0019690744240707446
3781.0,0.001949481271640783
3780.0,0.0019479202727315588
3779.0,0.001966329949686503
3778.0,0.0019911117680743206
3777.0,0.0020093558369878492
3776.0,0.0020229900229732267
3775.0,0.002041315628635443
3774.0,0.002062071136929133
3773.0,0.0020707807881468992
3772.0,0.0020605888937156847
3771.0,0.002046133662695671
3770.0,0.002046830721040412
3769.0,0.0020600426473776595
3768.0,0.0020643920565450668
3767.0,0.002051000402333689
3766.0,0.0020343771133555363
3765.0,0.002031607877179302
3764.0,0.002039869893331418
3763.0,0.0020419959668100856
3762.0,0.0020333199344981998
3761.0,0.0020275596901100108
3760.0,0.0020347697903813754
3759.0,0.0020484640167933808
3758.0,0.002059766370214071
3757.0,0.002067161969975876
3756.0,0.0020672647725092546
3755.0,0.0020592698907984357
3754.0,0.0020530863619651328
3753.0,0.002063626423173941
3752.0,0.002084643305270375
3751.0,0.002091968660172057
3750.0,0.002096275461757925
3749.0,0.002114182804374922
3748.0,0.0021190420300596733
3747.0,0.0020819818727433616
3746.0,0.0020188012924617946
3745.0,0.001995167633040093
3744.0,0.0020431720743101425
3743.0,0.00209323777302121
3742.0,0.002084290929595262
3741.0,0.002040095206072799
3740.0,0.0020040307573563204
3739.0,0.001984120978545065
3738.0,0.0019645373216969665
3737.0,0.0019470088705466969
3736.0,0.0019469611667202813
3735.0,0.001963691231727352
3734.0,0.001990914913123559
3733.0,0.002032905931352482
3732.0,0.0020898231271637272
3731.0,0.002143214280576978
3730.0,0.0021688666572238736
3729.0,0.002159487134702488
3728.0,0.0021298458170471955
3727.0,0.0021014614590194555
3726.0,0.002082208333021378
3725.0,0.0020656237036877833
3724.0,0.002047650477215092
3723.0,0.0020342689483474536
3722.0,0.002034804539929192
3721.0,0.0020543978738301453
3720.0,0.0020927820561965223
3719.0,0.0021432064663420547
3718.0,0.0021950469291184267
3717.0,0.0022354504074516197
3716.0,0.002252851071288861
3715.0,0.0022479183893453396
3714.0,0.0022404821513036357
3713.0,0.0022615834607575365
3712.0,0.0023260598117396535
3711.0,0.0024120702224089924
3710.0,0.0024927819733680957
3709.0,0.002561316941098113
3708.0,0.002622030259276982
3707.0,0.002683199850947906
3706.0,0.0027496213102928637
3705.0,0.00282334910007243
3704.0,0.0029112510098599107
3703.0,0.0030243602352618497
3702.0,0.003159215693064962
3701.0,0.003288447185490124
3700.0,0.0033853574894884718
3699.0,0.003446251111346497
3698.0,0.0034866649914726796
3697.0,0.0035234205927783214
3696.0,0.003558841403353107
3695.0,0.003585529477929089
3694.0,0.003600828347020856
3693.0,0.0036043829112709404
3692.0,0.0035841609039506507
3691.0,0.0035131210068329683
3690.0,0.0033861503081670415
3689.0,0.0032677785899425382
3688.0,0.003227004554691924
3687.0,0.0032435144883357515
3686.0,0.003263098628540184
3685.0,0.0032653401849160723
3684.0,0.0032569753239953137
3683.0,0.0032463961153368073
3682.0,0.003236763854993446
3681.0,0.0032359976495469943
3680.0,0.003254481405265834
3679.0,0.0032871887692564813
3678.0,0.003316534376223662
3677.0,0.0033342635043942595
3676.0,0.0033431593718052047
3675.0,0.0033461242353482433
3674.0,0.003341549778630051
3673.0,0.003321538044160826
3672.0,0.003317450495113089
3671.0,0.0033771235206796653
3670.0,0.0034821888611688565
3669.0,0.003559982810966804
3668.0,0.003586689101098681
3667.0,0.0035881976461730825
3666.0,0.0035978423858372124
3665.0,0.0036275622162769494
3664.0,0.0036636569863848162
3663.0,0.003685733071033078
3662.0,0.003691484038385858
3661.0,0.003699548763743194
3660.0,0.003728096609634934
3659.0,0.0037800136364994717
3658.0,0.0038446318628790645
3657.0,0.0039072819176308145
3656.0,0.003955904292223051
3655.0,0.003985467239380061
3654.0,0.003997210894487889
3653.0,0.003999764484859598
3652.0,0.004011627886213642
3651.0,0.004040183555501234
3650.0,0.00404864922638112
3649.0,0.004003808306089361
3648.0,0.003971633756325607
3647.0,0.004002160609345179
3646.0,0.004064804781722961
3645.0,0.00412555482847923
3644.0,0.004180076065610806
3643.0,0.004236640122296644
3642.0,0.004295577173564264
3641.0,0.004347722235292574
3640.0,0.004388026934043445
3639.0,0.0044248009540501215
3638.0,0.004467777578186666
3637.0,0.004515306663111121
3636.0,0.004560426246237242
3635.0,0.004604917705972047
3634.0,0.004656761102795128
3633.0,0.004715850357942404
3632.0,0.0047757147357658505
3631.0,0.0048380691570427785
3630.0,0.004909919496650378
3629.0,0.004975942945964098
3628.0,0.005022265586217389
3627.0,0.0050618522036017174
3626.0,0.005106278732110434
3625.0,0.005167031315638639
3624.0,0.005243880804323951
3623.0,0.005320331727969741
3622.0,0.005379680852131865
3621.0,0.005417532475358466
3620.0,0.005436149832658024
3619.0,0.00543918931052511
3618.0,0.005436361022634864
3617.0,0.005431412523419278
3616.0,0.005418154000506819
3615.0,0.005393414636665525
3614.0,0.00536346397610325
3613.0,0.005343992453163391
3612.0,0.005348122626109437
3611.0,0.005374962187861533
3610.0,0.005416847343859289
3609.0,0.0054631244787699445
3608.0,0.005498049328026168
3607.0,0.005515231271092954
3606.0,0.005525645730763668
3605.0,0.005543005181169702
3604.0,0.005573056047114246
3603.0,0.005612473110768732
3602.0,0.005649579376002182
3601.0,0.005672603658849528
3600.0,0.005680913035100325
3599.0,0.0056870350421118305
3598.0,0.005706112836569261
3597.0,0.0057433896478262985
3596.0,0.005788532256129923
3595.0,0.005825566961478561
3594.0,0.005852628113102064
3593.0,0.005886388004672301
3592.0,0.0059431808665524714
3591.0,0.006022201902878595
3590.0,0.006106516852664916
3589.0,0.006163388879281561
3588.0,0.006156003863574866
3587.0,0.0060991941568227116
3586.0,0.006059577424718562
3585.0,0.006066191169474731
3584.0,0.0061039707469131834
3583.0,0.006156836807028925
3582.0,0.006216058717839419
3581.0,0.006274616283119661
3580.0,0.006327206613336511
3579.0,0.006372693091819075
3578.0,0.006412930501287897
3577.0,0.00644879147914356
3576.0,0.006481267332466558
3575.0,0.006516101449499693
3574.0,0.006562882841530278
3573.0,0.006626315907874141
3572.0,0.006702033718094566
3571.0,0.0067817692609719584
3570.0,0.006858330947877155
3569.0,0.006920666528836577
3568.0,0.006936294129104755
3567.0,0.006877269698157052
3566.0,0.006794277648225615
3565.0,0.006768336630687098
3564.0,0.006815170996152362
3563.0,0.006904111326512522
3562.0,0.006999938249310348
3561.0,0.0070780392194363904
3560.0,0.007131246822949008
3559.0,0.00716929198559331
3558.0,0.007207537419105953
3557.0,0.007255565043952023
3556.0,0.007314138850919508
3555.0,0.007376593133637303
3554.0,0.007431176743662551
3553.0,0.007467542073520869
3552.0,0.0074902874205466565
3551.0,0.007519749825171403
3550.0,0.007571579194799526
3549.0,0.007642823208303961
3548.0,0.007713740029833879
3547.0,0.007759379388647776
3546.0,0.007772037442169493
3545.0,0.0077723820617365495
3544.0,0.007787666964384309
3543.0,0.007826463234467368
3542.0,0.007882537241572072
3541.0,0.007947670820530274
3540.0,0.008014060293654427
3539.0,0.008072981474184688
3538.0,0.00811620220244608
3537.0,0.008142377557050185
3536.0,0.008163592513139173
3535.0,0.008200842615370978
3534.0,0.00826703225833041
3533.0,0.00835599021494886
3532.0,0.008446503124362657
3531.0,0.008516082133494227
3530.0,0.008555666320069912
3529.0,0.008573242128879763
3528.0,0.00858540124320228
3527.0,0.008606295474727656
3526.0,0.00864192680795986
3525.0,0.00868772074939738
3524.0,0.008730533007629063
3523.0,0.008761966288029308
3522.0,0.00879058840243304
3521.0,0.008832453508982076
3520.0,0.008891589577642287
3519.0,0.00895606351356416
3518.0,0.009010481986098322
3517.0,0.009050418852926918
3516.0,0.00908382046265462
3515.0,0.00912208006142177
3514.0,0.00917187658360924
3513.0,0.009232523855854734
3512.0,0.009295743579724769
3511.0,0.009347036969964913
3510.0,0.009374478039757472
3509.0,0.009382514533523073
3508.0,0.009393104952010263
3507.0,0.00942858368281256
3506.0,0.009495414742527181
3505.0,0.009578635521115174
3504.0,0.009646912478929702
3503.0,0.009677142720740287
3502.0,0.009681499913550162
3501.0,0.009693512446103598
3500.0,0.009731450818898257
3499.0,0.009788710458658624
3498.0,0.00984840606994092
3497.0,0.009899069056389983
3496.0,0.009940618682600315
3495.0,0.009980152541036921
3494.0,0.010024448256552906
3493.0,0.010075641798954765
3492.0,0.010131002794565306
3491.0,0.010184508720023914
3490.0,0.01022837247527087
3489.0,0.010255665184902762
3488.0,0.010266701702061547
3487.0,0.010274570689601817
3486.0,0.010299360981719255
3485.0,0.010352473298649712
3484.0,0.010424667594576723
3483.0,0.010489957908885154
3482.0,0.01052732329116779
3481.0,0.010542065821213257
3480.0,0.010560679492020051
3479.0,0.01060392955937484
3478.0,0.010670349354545963
3477.0,0.010743047847402664
3476.0,0.01080638099983665
3475.0,0.010856290682768608
3474.0,0.01089804629193857
3473.0,0.010937036139671698
3472.0,0.010974861293057333
3471.0,0.011013383007522998
3470.0,0.011056346073526315
3469.0,0.011103496965137868
3468.0,0.011147188653012091
3467.0,0.011180262975417696
3466.0,0.011206213263971315
3465.0,0.011236543802647127
3464.0,0.011277719208068374
3463.0,0.011324424280932067
3462.0,0.011367477090621221
3461.0,0.011405890198685235
3460.0,0.011446773592152194
3459.0,0.011494139572404218
3458.0,0.011542354886655708
3457.0,0.011583105077845785
3456.0,0.011616614575842121
3455.0,0.011652404325461257
3454.0,0.011698388019902216
3453.0,0.011753046875477027
3452.0,0.011810636786187882
3451.0,0.011870093031936962
3450.0,0.011933175330475183
3449.0,0.011993685186149043
3448.0,0.012035710868152623
3447.0,0.012051247369831713
3446.0,0.0120551544125289
3445.0,0.012069497183158565
3444.0,0.012099489168624529
3443.0,0.012134877195003547
3442.0,0.012167794060235947
3441.0,0.012201645330497142
3440.0,0.012242093358625635
3439.0,0.012286411614600576
3438.0,0.012326611137056992
3437.0,0.012359380439543497
3436.0,0.01238845983797315
3435.0,0.012418777977804121
3434.0,0.0124515726607693
3433.0,0.012485831173794905
3432.0,0.012522131276355052
3431.0,0.012562672620268885
3430.0,0.012606879491643972
3429.0,0.012647299031630874
3428.0,0.012673669998269712
3427.0,0.012684970300751513
3426.0,0.012695612027183082
3425.0,0.012724347524311272
3424.0,0.01277573416235674
3423.0,0.012834998727072876
3422.0,0.012882038983107918
3421.0,0.012909174897011688
3420.0,0.012924269278105116
3419.0,0.012939848989865468
3418.0,0.01296416063582129
3417.0,0.012999713018765516
3416.0,0.013043378422892014
3415.0,0.013086778070337084
3414.0,0.013120605734032679
3413.0,0.013140743635230986
3412.0,0.013150446653093222
3411.0,0.013158111473352989
3410.0,0.013173306475158835
3409.0,0.013201643389547655
3408.0,0.013240919805985015
3407.0,0.013283357040542334
3406.0,0.013322348574863183
3405.0,0.01335543151899758
3404.0,0.013381335981402554
3403.0,0.01339933466301894
3402.0,0.013413987946794255
3401.0,0.013435719543081938
3400.0,0.01347125689649737
3399.0,0.013514906310777211
3398.0,0.013553654300145079
3397.0,0.013581037567054083
3396.0,0.013603036142129868
3395.0,0.013629603721325094
3394.0,0.013663309292760054
3393.0,0.013697594597728319
3392.0,0.013724757012906222
3391.0,0.013744202531824075
3390.0,0.013762317420613792
3389.0,0.013785638333556588
3388.0,0.013814820764271417
3387.0,0.013844608018517352
3386.0,0.013868928683761446
3385.0,0.013885669215320195
3384.0,0.013896792626848013
3383.0,0.013905459623830737
3382.0,0.013913837584408369
3381.0,0.013922692000162242
3380.0,0.013932303479556029
3379.0,0.013944032558819666
3378.0,0.013960784271002308
3377.0,0.013984610944853272
3376.0,0.014013751513472143
3375.0,0.014043025999556084
3374.0,0.014067481701000785
3373.0,0.014085493059621835
3372.0,0.014099452909048188
3371.0,0.014114651928636798
3370.0,0.014136164973555498
3369.0,0.014164423923220273
3368.0,0.01419398129574185
3367.0,0.014218594482473248
3366.0,0.01423729787427962
3365.0,0.014253430445314326
3364.0,0.01426833720900095
3363.0,0.014278863290951424
3362.0,0.014281071313207081
3361.0,0.014274476057309143
3360.0,0.014263449631243008
3359.0,0.014257024452126664
3358.0,0.014265666846071178
3357.0,0.014292718241393457
3356.0,0.01432777036272147
3355.0,0.014353927566908748
3354.0,0.014364573297515905
3353.0,0.014369041690893994
3352.0,0.014379727837030586
3351.0,0.01439736521443109
3350.0,0.014411989788087616
3349.0,0.01441565172815924
3348.0,0.01441070329845063
3347.0,0.01440724054093503
3346.0,0.014415142978484253
3345.0,0.014436762417261544
3344.0,0.014464123620120808
3343.0,0.014484714285462713
3342.0,0.014493074828368159
3341.0,0.01449562503641652
3340.0,0.014501985055994327
3339.0,0.014513536522404452
3338.0,0.014523746161742268
3337.0,0.014527717326169285
3336.0,0.014526715275219971
3335.0,0.014523502779551698
3334.0,0.01451855839784854
3333.0,0.014513162454083317
3332.0,0.014512337945626034
3331.0,0.01452135430007416
3330.0,0.014539977496436951
3329.0,0.014561558751760406
3328.0,0.014577748913022458
3327.0,0.014584413148995222
3326.0,0.014583816691983366
3325.0,0.014581246660319742
3324.0,0.01457960196901655
3323.0,0.014578323867625781
3322.0,0.01457739179726334
3321.0,0.01457949066863706
3320.0,0.014586504660520009
3319.0,0.014596340110271876
3318.0,0.014606037211397797
3317.0,0.014616248191807684
3316.0,0.01462922702418805
3315.0,0.01464369055150258
3314.0,0.014655826268807645
3313.0,0.014665300413806115
3312.0,0.014676087526082208
3311.0,0.014690036203499972
3310.0,0.014703297002182035
3309.0,0.014711611890521299
3308.0,0.014716812346729871
3307.0,0.014725075521918577
3306.0,0.01473921688441294
3305.0,0.014754301313339572
3304.0,0.014760768714292128
3303.0,0.014752657230103747
3302.0,0.014734490914152841
3301.0,0.014719182848583132
3300.0,0.01471620169780452
3299.0,0.014721783639416806
3298.0,0.014723937321304427
3297.0,0.014717730455101868
3296.0,0.014711698525812413
3295.0,0.014717210827175212
3294.0,0.014735325376272564
3293.0,0.014756739759528735
3292.0,0.014771496643053952
3291.0,0.014775118922614943
3290.0,0.01476775904605777
3289.0,0.014753204761466717
3288.0,0.014739158998973358
3287.0,0.014732998071062327
3286.0,0.014734223240738368
3285.0,0.014733753087980812
3284.0,0.014723736623380886
3283.0,0.014707198180541331
3282.0,0.014695554819678101
3281.0,0.014696886006242029
3280.0,0.014708764004996624
3279.0,0.014722236054167556
3278.0,0.014729927393143178
3277.0,0.014729048727416542
3276.0,0.01471876223954892
3275.0,0.014698366877852215
3274.0,0.014669911399170274
3273.0,0.014640895490713976
3272.0,0.01462108311758029
3271.0,0.014614965135646132
3270.0,0.014617660080446277
3269.0,0.01461859219636499
3268.0,0.014609025438301561
3267.0,0.014586560223399
3266.0,0.014554558895912232
3265.0,0.014519453863804788
3264.0,0.014488324888497894
3263.0,0.014465783177657988
3262.0,0.014450415295461797
3261.0,0.014435077533957234
3260.0,0.01441345068006327
3259.0,0.014386686558512263
3258.0,0.014361296987671641
3257.0,0.014340248530593363
3256.0,0.014319009186867867
3255.0,0.014292101216238829
3254.0,0.01426070453486735
3253.0,0.014230083123663981
3252.0,0.0142009604241232
3251.0,0.014168514285495
3250.0,0.01413082631428119
3249.0,0.014093993927150373
3248.0,0.01406601715741958
3247.0,0.01404751460335156
3246.0,0.014031430973433403
3245.0,0.014011551173720492
3244.0,0.013988583995375125
3243.0,0.013966598428740394
3242.0,0.013945570951735306
3241.0,0.013919783426153253
3240.0,0.01388376734365455
3239.0,0.013839220734657315
3238.0,0.013795318916488894
3237.0,0.013761554063829734
3236.0,0.01374027694698864
3235.0,0.01372685123173961
3234.0,0.01371622621905149
3233.0,0.01370671217151917
3232.0,0.013696311265230266
3231.0,0.01367847850998323
3230.0,0.013645694960708063
3229.0,0.013597797632769953
3228.0,0.013544465784986158
3227.0,0.013498218347122105
3226.0,0.01346572018413122
3225.0,0.013445653313412308
3224.0,0.013432260309451537
3223.0,0.01341881279845371
3222.0,0.013399302134290919
3221.0,0.01337042936309977
3220.0,0.013334137572144363
3219.0,0.013297158663371602
3218.0,0.013265744139010069
3217.0,0.013240307378862691
3216.0,0.013216052943877768
3215.0,0.013189064404149449
3214.0,0.013161148725716132
3213.0,0.01313780590502595
3212.0,0.013121409743146633
3211.0,0.013107331697267351
3210.0,0.013087025292832954
3209.0,0.013054920884374302
3208.0,0.013013332481200438
3207.0,0.012971632566259874
3206.0,0.012939913387317014
3205.0,0.012920569648378538
3204.0,0.012904414554741672
3203.0,0.012877260735248239
3202.0,0.012833172421454124
3201.0,0.012780757611179716
3200.0,0.012734754090642472
3199.0,0.012701769514488984
3198.0,0.012675402873060777
3197.0,0.012644858864197812
3196.0,0.012605899891417487
3195.0,0.012562630951935817
3194.0,0.012521233403754634
3193.0,0.012484005454893633
3192.0,0.012448417844857566
3191.0,0.012410681184881535
3190.0,0.012370592881232146
3189.0,0.012332896834411813
3188.0,0.012303046293508422
3187.0,0.012281292995291886
3186.0,0.012261796042919272
3185.0,0.01223785359584339
3184.0,0.012207030021680252
3183.0,0.012170739362613476
3182.0,0.012130510466786
3181.0,0.012086662654830698
3180.0,0.012040106003634468
3179.0,0.011993822187934546
3178.0,0.011952026624849683
3177.0,0.01191771462755523
3176.0,0.011890080969755298
3175.0,0.011863544420060152
3174.0,0.011830165127597438
3173.0,0.011785391275252438
3172.0,0.011733039930552426
3171.0,0.011683650234605282
3170.0,0.011645645787364935
3169.0,0.011616775192899324
3168.0,0.011585065695966859
3167.0,0.01153975138571492
3166.0,0.011481482353310818
3165.0,0.011420871192066836
3164.0,0.011367151767907464
3163.0,0.011319862605362288
3162.0,0.011272708660653706
3161.0,0.011224145382128594
3160.0,0.011181295450487079
3159.0,0.01115275489918682
3158.0,0.011139107900895793
3157.0,0.011130957162738757
3156.0,0.011115116498473245
3155.0,0.011082893185724273
3154.0,0.01103478186002725
3153.0,0.010979404332884265
3152.0,0.010927763230875014
3151.0,0.010886540102681268
3150.0,0.010854882053096992
3149.0,0.010826415743419896
3148.0,0.010794238609180567
3147.0,0.010755493144469884
3146.0,0.010713027142434455
3145.0,0.010672676335569887
3144.0,0.010637439821742973
3143.0,0.010604055181537389
3142.0,0.010566336403296649
3141.0,0.01052195035605445
3140.0,0.010474840822293614
3139.0,0.010431039998105858
3138.0,0.010393703980988529
3137.0,0.010362785227264719
3136.0,0.01033713694881068
3135.0,0.010314383465131314
3134.0,0.01028953606396191
3133.0,0.010257121505625893
3132.0,0.010216641501007604
3131.0,0.010174337291892861
3130.0,0.010137648448784353
3129.0,0.010108336264358383
3128.0,0.010081596659913662
3127.0,0.010051526382881263
3126.0,0.010016731347613708
3125.0,0.009980420980702388
3124.0,0.009946209691106008
3123.0,0.009915225901465437
3122.0,0.009887138183341677
3121.0,0.009861712872445918
3120.0,0.009837577976704575
3119.0,0.009810828969463841
3118.0,0.00977750381108885
3117.0,0.009738465065805514
3116.0,0.009700653951055113
3115.0,0.00967186443268311
3114.0,0.009653877732509092
3113.0,0.009641037518307324
3112.0,0.009625216639259478
3111.0,0.009601889785486945
3110.0,0.009572354308740837
3109.0,0.009541529476809987
3108.0,0.009513873847907136
3107.0,0.009490461412952834
3106.0,0.00946892923798503
3105.0,0.009445717228751323
3104.0,0.009419073598246112
3103.0,0.00939085831180645
3102.0,0.00936527273242843
3101.0,0.009344662377987572
3100.0,0.009326527030827864
3099.0,0.009306196093341487
3098.0,0.00928202200688143
3097.0,0.009256056801703506
3096.0,0.00923051982090759
3095.0,0.009206780449840328
3094.0,0.00918818532416205
3093.0,0.009178997027177073
3092.0,0.009176957271410144
3091.0,0.0091707117928828
3090.0,0.009149975413880483
3089.0,0.00911737832209682
3088.0,0.009085902940576401
3087.0,0.009064268407848982
3086.0,0.009049653631627732
3085.0,0.009035498988529199
3084.0,0.0090199290488531
3083.0,0.009003683562842073
3082.0,0.008984552819986372
3081.0,0.008959529720366673
3080.0,0.008931193287182615
3079.0,0.00890650150434947
3078.0,0.008888707541083968
3077.0,0.008873954190884456
3076.0,0.008856625157920527
3075.0,0.008835482984762956
3074.0,0.008813451581645513
3073.0,0.008793566443971642
3072.0,0.008776349743893254
3071.0,0.008759642734967108
3070.0,0.008739658226210038
3069.0,0.008712693130074894
3068.0,0.008677358522437527
3067.0,0.008636101173134056
3066.0,0.008594771963331265
3065.0,0.008560066039613654
3064.0,0.008535885438519594
3063.0,0.008520630176208611
3062.0,0.008507859072349487
3061.0,0.008490823631535086
3060.0,0.008467388669007455
3059.0,0.008440658421702569
3058.0,0.008414183864212183
3057.0,0.008387625881076922
3056.0,0.008358388951813399
3055.0,0.008326639573909715
3054.0,0.008296255297881092
3053.0,0.008270083497169033
3052.0,0.008247190483526531
3051.0,0.008225571072413954
3050.0,0.0082047123315088
3049.0,0.008182893669502908
3048.0,0.00815438142985666
3047.0,0.0081146632615222
3046.0,0.008068025463685203
3045.0,0.008025657509828137
3044.0,0.007994409182963371
3043.0,0.007970564344679984
3042.0,0.0079465472596088
3041.0,0.007919813630757427
3040.0,0.007892732406919546
3039.0,0.007866604232116737
3038.0,0.007840907205706816
3037.0,0.007817268793602268
3036.0,0.007799052908759421
3035.0,0.007785668059096381
3034.0,0.007770275980893247
3033.0,0.007745725131133243
3032.0,0.007711649399775242
3031.0,0.007674729702853402
3030.0,0.007642192846849612
3029.0,0.007615772334259011
3028.0,0.007592170030616871
3027.0,0.007568047137481685
3026.0,0.007544278129128095
3025.0,0.007525209934384354
3024.0,0.007514076969535958
3023.0,0.007510210391913366
3022.0,0.00751047010615492
3021.0,0.007511376339273788
3020.0,0.007509056080794028
3019.0,0.007499984677921746
3018.0,0.00748471835269297
3017.0,0.007469276686402184
3016.0,0.007458764574456125
3015.0,0.007450539861307009
3014.0,0.007437464110201049
3013.0,0.007418945975692199
3012.0,0.007404304528158144
3011.0,0.007402490631866753
3010.0,0.0074115623441831004
3009.0,0.007421157052622288
3008.0,0.007424097226376682
3007.0,0.007422046627817373
3006.0,0.007420819995584265
3005.0,0.007423459449369237
3004.0,0.0074291733663629095
3003.0,0.007436991229092369
3002.0,0.0074475432801553235
3001.0,0.007461124534611684
3000.0,0.007475963259680068
2999.0,0.007489516516042545
2998.0,0.007500190271945616
2997.0,0.007506219578962253
2996.0,0.007503789122072946
2995.0,0.007489201135294653
2994.0,0.007464097406466775
2993.0,0.0074369732538670085
2992.0,0.007416951978442781
2991.0,0.0074059748318962716
2990.0,0.0073970382653234
2989.0,0.007380020318585501
2988.0,0.007349912023298743
2987.0,0.0073113040997818315
2986.0,0.007276189365434976
2985.0,0.007255403782286531
2984.0,0.007250661681158682
2983.0,0.007253922259781544
2982.0,0.007255027442632128
2981.0,0.007250089635098027
2980.0,0.007242350246653836
2979.0,0.007236611489782657
2978.0,0.007234101651601804
2977.0,0.007232796357173058
2976.0,0.007231023582509668
2975.0,0.007229873619781573
2974.0,0.007232014695986209
2973.0,0.0072383766121766535
2972.0,0.007246604800501699
2971.0,0.0072537228271943015
2970.0,0.0072600308611193275
2969.0,0.007269050411333117
2968.0,0.00728319137856617
2967.0,0.007300550529896705
2966.0,0.00731656343054974
2965.0,0.007327740408383812
2964.0,0.007333530632880383
2963.0,0.007335780038133252
2962.0,0.007337211298418449
2961.0,0.007339203286448968
2960.0,0.007340404453932534
2959.0,0.007338536867285719
2958.0,0.00733397249554053
2957.0,0.007329917358831142
2956.0,0.0073285342809285
2955.0,0.007328719939809811
2954.0,0.007328572236589196
2953.0,0.0073278777001805255
2952.0,0.007327135334862536
2951.0,0.007326482243154824
2950.0,0.007327386273582755
2949.0,0.007333009367904967
2948.0,0.007344487981863426
2947.0,0.007358785190388248
2946.0,0.007372547890003639
2945.0,0.007386381774648008
2944.0,0.007401941569414849
2943.0,0.007416187127476584
2942.0,0.0074220585782099335
2941.0,0.007415318387762871
2940.0,0.007398133857417683
2939.0,0.00737599914115933
2938.0,0.007353468774153164
2937.0,0.007333263491739746
2936.0,0.0073170783438931365
2935.0,0.007306231267518729
2934.0,0.007302151440388544
2933.0,0.007305085414692036
2932.0,0.0073109702420085815
2931.0,0.007311992448150915
2930.0,0.007303834923725419
2929.0,0.007291108254430824
2928.0,0.007280769601489133
2927.0,0.007270400349535845
2926.0,0.00724845935103447
2925.0,0.007208194846697818
2924.0,0.0071563972143326715
2923.0,0.007104175515455727
2922.0,0.007052965214731853
2921.0,0.00699413558564995
2920.0,0.006922039778818162
2919.0,0.0068424731409585954
2918.0,0.006767364213150423
2917.0,0.006704131270683166
2916.0,0.006652927162748743
2915.0,0.006612640169821986
2914.0,0.006584574522037481
2913.0,0.006567572378840501
2912.0,0.006552230542307485
2911.0,0.006525502515083482
2910.0,0.006482367678619001
2909.0,0.006430687741413179
2908.0,0.006383206845510034
2907.0,0.006346906509009336
2906.0,0.006321276326487632
2905.0,0.006302512156756524
2904.0,0.006285565790270014
2903.0,0.006264818652282424
2902.0,0.006236939426103215
2901.0,0.006204693632682189
2900.0,0.0061734476696931355
2899.0,0.006144451176182945
2898.0,0.006114968951975723
2897.0,0.006084404908081699
2896.0,0.006056927255900615
2895.0,0.006036134142728501
2894.0,0.006020085631307964
2893.0,0.0060031074859801204
2892.0,0.005981099176291514
2891.0,0.005954757841084571
2890.0,0.005929211424008323
2889.0,0.005911075413655687
2888.0,0.0059033813352067305
2887.0,0.005901977061432589
2886.0,0.00589816829929367
2885.0,0.005886721844607048
2884.0,0.005870726566952255
2883.0,0.00585828871968454
2882.0,0.005854522748286299
2881.0,0.005856673102172567
2880.0,0.005856215149224051
2879.0,0.0058459108588949605
2878.0,0.005826536764990733
2877.0,0.005806048032837423
2876.0,0.005791325656916945
2875.0,0.00578077646163545
2874.0,0.005766911006259987
2873.0,0.005745483901391744
2872.0,0.005719705711571563
2871.0,0.005695599423368828
2870.0,0.005675448475851929
2869.0,0.005657117432883124
2868.0,0.005637497372470858
2867.0,0.0056154501683075555
2866.0,0.005592852158607674
2865.0,0.005573506161374024
2864.0,0.00555977146669938
2863.0,0.005549249187305892
2862.0,0.005536679478266078
2861.0,0.005520002396604349
2860.0,0.005503080540217745
2859.0,0.005491494354217663
2858.0,0.005486743875064468
2857.0,0.0054854583437538166
2856.0,0.0054821963333538636
2855.0,0.0054717315255259835
2854.0,0.00545042266058074
2853.0,0.0054180319468314225
2852.0,0.005378259300351006
2851.0,0.005336003007677216
2850.0,0.005294215534201556
2849.0,0.005253569287945332
2848.0,0.0052143687378747305
2847.0,0.005177463631950906
2846.0,0.005143526647702734
2845.0,0.005112368348565019
2844.0,0.005082783789127827
2843.0,0.005052732350805067
2842.0,0.0050202978593115784
2841.0,0.004985499253779094
2840.0,0.00495130141689959
2839.0,0.004921911814396722
2838.0,0.004899418865852737
2837.0,0.004881800715975846
2836.0,0.004864426338200718
2835.0,0.004844180623822198
2834.0,0.004822228812315531
2833.0,0.004802533329758841
2832.0,0.004787176828932824
2831.0,0.00477326353914471
2830.0,0.004755246859841822
2829.0,0.00473059873650328
2828.0,0.004703129293556638
2827.0,0.004680331066881716
2826.0,0.004666688611974485
2825.0,0.00465997105310655
2824.0,0.00465421342882996
2823.0,0.004645487396915791
2822.0,0.004633665607689068
2821.0,0.004618611207521128
2820.0,0.0045978133321983635
2819.0,0.004570375354485684
2818.0,0.004541439838310836
2817.0,0.004518602305114869
2816.0,0.004503850322959228
2815.0,0.004492375525461067
2814.0,0.00447968737562283
2813.0,0.004466214939672672
2812.0,0.004453341252091425
2811.0,0.0044393681426812635
2810.0,0.004423166161041211
2809.0,0.004408595907952108
2808.0,0.004400457993432564
2807.0,0.004396963578958558
2806.0,0.004390711442425902
2805.0,0.004377661542950086
2804.0,0.004361289740236029
2803.0,0.004346883592628216
2802.0,0.004335088143974985
2801.0,0.004322534609773453
2800.0,0.004306703336960684
2799.0,0.004288518727812084
2798.0,0.004270930602416825
2797.0,0.0042561112119914825
2796.0,0.004243892674061107
2795.0,0.004232600061691311
2794.0,0.004221630158714643
2793.0,0.004212501635777815
2792.0,0.004206443955217484
2791.0,0.004201893754607705
2790.0,0.0041960133419954885
2789.0,0.004188158672991923
2788.0,0.0041798374149333685
2787.0,0.004171505088284206
2786.0,0.004161564919081254
2785.0,0.004148755110215185
2784.0,0.004133848842086203
2783.0,0.004118837752314341
2782.0,0.004105844419046633
2781.0,0.004096405256308537
2780.0,0.004089924562163872
2779.0,0.004083033149019417
2778.0,0.004072408847630723
2777.0,0.004058355768192154
2776.0,0.004043786483924531
2775.0,0.004030314221399125
2774.0,0.004018413959109365
2773.0,0.004010932760999603
2772.0,0.004011578638367611
2771.0,0.0040180843937620905
2770.0,0.004020812071069542
2769.0,0.004011820205911254
2768.0,0.0039938624220875315
2767.0,0.003977231655316049
2766.0,0.003968610863909557
2765.0,0.00396594785972792
2764.0,0.003963221244077219
2763.0,0.003956625549386228
2762.0,0.003946254437878227
2761.0,0.00393476042385013
2760.0,0.003925495000087488
2759.0,0.003920005701207043
2758.0,0.003916195924382141
2757.0,0.003910190666285591
2756.0,0.0039005717384251667
2755.0,0.0038895833336899223
2754.0,0.003879665032733688
2753.0,0.003870432958945076
2752.0,0.0038602199421741215
2751.0,0.0038492269714087675
2750.0,0.003839433144209363
2749.0,0.003832021755664573
2748.0,0.003826408429991634
2747.0,0.0038215542112820114
2746.0,0.00381680092926709
2745.0,0.0038112781255923243
2744.0,0.0038040793380781862
2743.0,0.003795915278734259
2742.0,0.0037895271751610627
2741.0,0.003787051797716676
2740.0,0.0037870435317291003
2739.0,0.003785143012068475
2738.0,0.0037781447803817278
2737.0,0.003767242784990403
2736.0,0.00375694962602916
2735.0,0.0037508521320864874
2734.0,0.003748459296566843
2733.0,0.003745942979080345
2732.0,0.0037397992934566776
2731.0,0.003729773643361343
2730.0,0.003718749438181317
2729.0,0.0037103189821513253
2728.0,0.0037063484507878124
2727.0,0.0037057792299458985
2726.0,0.0037049045268182663
2725.0,0.0036995206065348098
2724.0,0.003688370495672959
2723.0,0.0036748440041976796
2722.0,0.0036639762511251313
2721.0,0.003657348570512588
2720.0,0.0036519692281894757
2719.0,0.0036445770959484163
2718.0,0.0036352720121441634
2717.0,0.003625535058311931
2716.0,0.003614642516066707
2715.0,0.0036007210306125094
2714.0,0.0035848340495093925
2713.0,0.003571277396745725
2712.0,0.00356319484193403
2711.0,0.0035599080652594607
2710.0,0.003559054431476378
2709.0,0.0035592623876578655
2708.0,0.003559897010260449
2707.0,0.0035600750935998824
2706.0,0.0035593182120775297
2705.0,0.003557838925221622
2704.0,0.003554989871734326
2703.0,0.0035487186227800126
2702.0,0.003538074109702285
2701.0,0.003525368965437519
2700.0,0.003514258644733908
2699.0,0.0035059309261150215
2698.0,0.0034983697320733597
2697.0,0.003489167612084333
2696.0,0.003478065512721403
2695.0,0.0034669172975233834
2694.0,0.003457832867577496
2693.0,0.0034512513940100848
2692.0,0.003445505161352895
2691.0,0.0034388560396411824
2690.0,0.0034323723814060334
2689.0,0.003429836026128601
2688.0,0.0034337239814549118
2687.0,0.003441640969247057
2686.0,0.003447528334317879
2685.0,0.003446301906328391
2684.0,0.003437173824156549
2683.0,0.0034234824470499637
2682.0,0.0034102952168722114
2681.0,0.0034015392721318924
2680.0,0.003398027061245013
2679.0,0.003397819566674028
2678.0,0.003398590690780833
2677.0,0.003399059215373069
2676.0,0.00339810662833949
2675.0,0.0033939436409677953
2674.0,0.003385737127625276
2673.0,0.00337574653841056
2672.0,0.003368411839757712
2671.0,0.0033667306075320013
2670.0,0.0033696339372684325
2669.0,0.003372715014745992
2668.0,0.0033716108972058462
2667.0,0.0033655992707734665
2666.0,0.0033586593098255788
2665.0,0.003356360511630019
2664.0,0.0033608045660694784
2663.0,0.003369035739237806
2662.0,0.0033766371761312763
2661.0,0.003381968686496204
2660.0,0.0033861221991242215
2659.0,0.003390266961434852
2658.0,0.003395085726009196
2657.0,0.0034020630041602276
2656.0,0.003412681130516603
2655.0,0.003425435955867002
2654.0,0.003435460833888965
2653.0,0.0034384299888690992
2652.0,0.0034343582278883447
2651.0,0.0034270222092976214
2650.0,0.003420680322767559
2649.0,0.003417894550214489
2648.0,0.0034188800506325845
2647.0,0.0034213612804845756
2646.0,0.0034215610822380424
2645.0,0.003417287179371815
2644.0,0.003410379751332477
2643.0,0.003404807504988867
2642.0,0.0034022083081359316
2641.0,0.0034008877596688257
2640.0,0.0033999206569486997
2639.0,0.0034019808004249453
2638.0,0.0034095154069334315
2637.0,0.0034191326259648477
2636.0,0.003423262435444137
2635.0,0.003418676459394499
2634.0,0.003410641036278492
2633.0,0.0034062878166221905
2632.0,0.003405846992367012
2631.0,0.003403288487379219
2630.0,0.0033948181436078504
2629.0,0.0033833461259161115
2628.0,0.00337409201361842
2627.0,0.0033690671882862814
2626.0,0.00336729147943105
2625.0,0.0033677916071593803
2624.0,0.0033698833062947844
2623.0,0.00337195912584002
2622.0,0.003372333772223093
2621.0,0.0033706926950179297
2620.0,0.0033670324621520634
2619.0,0.003360137168204991
2618.0,0.0033496886923410824
2617.0,0.0033396481578059664
2616.0,0.0033363628500763776
2615.0,0.003341714624687485
2614.0,0.003349975614611106
2613.0,0.003353552267148982
2612.0,0.003351120246668936
2611.0,0.003347916799165529
2610.0,0.0033481071784172874
2609.0,0.003349214865497331
2608.0,0.0033455100801788144
2607.0,0.003335647150539174
2606.0,0.003324814566962567
2605.0,0.0033195297347953265
2604.0,0.0033217266502618362
2603.0,0.0033280729482146484
2602.0,0.0033335410871568323
2601.0,0.0033346851612155205
2600.0,0.003330712335661517
2599.0,0.003322870047175273
2598.0,0.0033131257373313415
2597.0,0.003303186497856493
2596.0,0.003294232368458167
2595.0,0.003286476615954841
2594.0,0.00327838739732595
2593.0,0.00326789253130426
2592.0,0.0032564203678651224
2591.0,0.0032504293991848527
2590.0,0.0032552191316432793
2589.0,0.0032669398268739508
2588.0,0.0032744776908678395
2587.0,0.00327075770180132
2586.0,0.0032588877604670936
2585.0,0.003245583581125998
2584.0,0.0032329584410695656
2583.0,0.0032201053978780686
2582.0,0.0032086762475260658
2581.0,0.0032015758049087086
2580.0,0.0031980872582900305
2579.0,0.0031957035646970593
2578.0,0.003195886470450418
2577.0,0.003202477214643026
2576.0,0.0032138932739413572
2575.0,0.003221858573197208
2574.0,0.0032195254557593847
2573.0,0.0032074428765613214
2572.0,0.003190656204467177
2571.0,0.003173875633076167
2570.0,0.00316121173387808
2569.0,0.003156399523494326
2568.0,0.003159068089014028
2567.0,0.003162191738648449
2566.0,0.0031571285757266434
2565.0,0.0031426214403798905
2564.0,0.0031276316183605326
2563.0,0.00312370243073875
2562.0,0.0031334111199349322
2561.0,0.0031463143179662543
2560.0,0.00314838041483078
2559.0,0.0031368476664294506
2558.0,0.0031237770927583807
2557.0,0.0031231995217921703
2556.0,0.0031364309070049646
2555.0,0.0031519776936679736
2554.0,0.003157885678339489
2553.0,0.0031509771111716584
2552.0,0.0031359805618297247
2551.0,0.003120589587421869
2550.0,0.003111264784321698
2549.0,0.003109024137305304
2548.0,0.003107739385922001
2547.0,0.0030996032933670726
2546.0,0.003083591108781785
2545.0,0.0030665602977471207
2544.0,0.0030557452629263082
2543.0,0.003052348700612728
2542.0,0.0030524861126065505
2541.0,0.003051919393511257
2540.0,0.0030495198892498236
2539.0,0.003048135362994416
2538.0,0.0030519327923908468
2537.0,0.003060798242944728
2536.0,0.003068030315918532
2535.0,0.003066373398440715
2534.0,0.003056167251107492
2533.0,0.003045257115284994
2532.0,0.0030416142969522768
2531.0,0.0030482672435521224
2530.0,0.003063057492557424
2529.0,0.003078700954579781
2528.0,0.0030844889924135656
2527.0,0.0030740464010392773
2526.0,0.003052834111623159
2525.0,0.0030338039822223285
2524.0,0.0030245227323776017
2523.0,0.003022282601100894
2522.0,0.003021896244602571
2521.0,0.0030225922615028287
2520.0,0.0030251139773483948
2519.0,0.0030271438024390158
2518.0,0.003025630056081028
2517.0,0.0030210025073258177
2516.0,0.0030156218075827823
2515.0,0.0030097959905450184
2514.0,0.003002632292006565
2513.0,0.00299625378849643
2512.0,0.002996270468473508
2511.0,0.003006631065275356
2510.0,0.003024063025478057
2509.0,0.003038342110310023
2508.0,0.003039793751769584
2507.0,0.0030275550473258914
2506.0,0.003009279654845254
2505.0,0.002992355268942959
2504.0,0.0029780720958579882
2503.0,0.002965501017723611
2502.0,0.002956566690723535
2501.0,0.002953126568820238
2500.0,0.002952378016652237
2499.0,0.002950575899858206
2498.0,0.0029491731450908463
2497.0,0.0029515016776317303
2496.0,0.002954668209286172
2495.0,0.0029512129562394873
2494.0,0.002939285901741761
2493.0,0.0029256157413271103
2492.0,0.0029172429731428545
2491.0,0.0029146013211147574
2490.0,0.0029131695803463345
2489.0,0.0029077713460778096
2488.0,0.002895786427955464
2487.0,0.0028812185290137604
2486.0,0.002875009719136936
2485.0,0.0028850586783053084
2484.0,0.002905346969785923
2483.0,0.002920980059258554
2482.0,0.002924527899635551
2481.0,0.002920864492668306
2480.0,0.0029151833376501166
2479.0,0.0029046759990132903
2478.0,0.002886116191833561
2477.0,0.0028647385775997535
2476.0,0.0028495366269873767
2475.0,0.002843456543483773
2474.0,0.002842759050280229
2473.0,0.0028426644411007236
2472.0,0.0028395301568719996
2471.0,0.0028307841744504
2470.0,0.002817556371934919
2469.0,0.0028060634569558526
2468.0,0.002802945362326984
2467.0,0.0028097709854552166
2466.0,0.002823351534707232
2465.0,0.002839131121420212
2464.0,0.002852524648584622
2463.0,0.002859399325559299
2462.0,0.002857785666470837
2461.0,0.0028486300570686315
2460.0,0.002834861699946117
2459.0,0.002821444291458359
2458.0,0.002815067710707862
2457.0,0.002819280671705985
2456.0,0.002829302886092849
2455.0,0.0028360788749318146
2454.0,0.0028367008738757454
2453.0,0.0028366716710708137
2452.0,0.0028408343699386283
2451.0,0.0028470488417947338
2450.0,0.0028507459555618094
2449.0,0.002850418993454887
2448.0,0.0028455050076118273
2447.0,0.0028338887343772375
2446.0,0.0028161266435902193
2445.0,0.0027988498333245187
2444.0,0.002789338900678392
2443.0,0.002788259029764561
2442.0,0.0027906485060617374
2441.0,0.0027919719741638757
2440.0,0.0027904662834900675
2439.0,0.002785854650386932
2438.0,0.002779136237824163
2437.0,0.002772618156386537
2436.0,0.0027677778579518926
2435.0,0.002763882343883008
2434.0,0.0027599959058752445
2433.0,0.0027568883287285542
2432.0,0.002755806683553201
2431.0,0.0027569101524414184
2430.0,0.002759573519858825
2429.0,0.002762139526006155
2428.0,0.002760951462836112
2427.0,0.00275274174975194
2426.0,0.0027395370229776703
2425.0,0.002728704858266705
2424.0,0.002726133091442622
2423.0,0.0027305680486052865
2422.0,0.00273546016909019
2421.0,0.002734817622450476
2420.0,0.002727084709582471
2419.0,0.0027154963105539697
2418.0,0.002705262022163556
2417.0,0.002698944840439846
2416.0,0.0026947104608348173
2415.0,0.0026902613347477293
2414.0,0.0026867176334624764
2413.0,0.0026860125139336033
2412.0,0.002686462859848164
2411.0,0.002684670618787792
2410.0,0.002680220933662821
2409.0,0.002674450635537906
2408.0,0.0026666097849433203
2407.0,0.002656612867770796
2406.0,0.0026496371149021896
2405.0,0.0026508794631875375
2404.0,0.002656362038770846
2403.0,0.00265639421516121
2402.0,0.0026486600369496245
2401.0,0.002640696943351163
2400.0,0.002638173925848277
2399.0,0.0026381094855708847
2398.0,0.0026360298753858886
2397.0,0.0026323583738125664
2396.0,0.0026280121061712297
2395.0,0.002620768996239594
2394.0,0.0026111283169569905
2393.0,0.002605701958026112
2392.0,0.002608851235243976
2391.0,0.002615282708982758
2390.0,0.0026165444179938797
2389.0,0.0026118742089870227
2388.0,0.0026072849141800932
2387.0,0.0026058825538836975
2386.0,0.0026041560215599355
2385.0,0.0025970352215642888
2384.0,0.0025828747170326223
2383.0,0.002564091447913777
2382.0,0.002545756995122754
2381.0,0.0025327359479514733
2380.0,0.0025253174042483948
2379.0,0.0025180302986273274
2378.0,0.002504946400520987
2377.0,0.0024853683559046685
2376.0,0.002463381093681742
2375.0,0.002444540868232519
2374.0,0.002434531122533751
2373.0,0.002436313797505583
2372.0,0.002444959167815675
2371.0,0.0024514196624446584
2370.0,0.0024569457909186594
2369.0,0.002474769645929153
2368.0,0.0025081865324310046
2367.0,0.0025368046392965976
2366.0,0.0025379726459905166
2365.0,0.0025150837564114955
2364.0,0.0024908918903321082
2363.0,0.0024800384797530246
2362.0,0.0024825170405554688
2361.0,0.0024959381356164513
2360.0,0.002518132327133952
2359.0,0.002538433793144129
2358.0,0.002543241239303268
2357.0,0.0025310479748154304
2356.0,0.002514478411185858
2355.0,0.002505512332506256
2354.0,0.0025012694716518933
2353.0,0.00249279586639392
2352.0,0.0024805955349825833
2351.0,0.0024747931261478533
2350.0,0.002480830364458062
2349.0,0.0024924426893184306
2348.0,0.002501742923984021
2347.0,0.0025061044271645037
2346.0,0.0025099536734440897
2345.0,0.0025166875329463256
2344.0,0.0025249612524601683
2343.0,0.0025345555608133367
2342.0,0.0025440294869036014
2341.0,0.0025516648135959306
2340.0,0.002552834918236053
2339.0,0.002540624093420393
2338.0,0.0025139057476585634
2337.0,0.0024834160953059836
2336.0,0.002460821767569219
2335.0,0.0024442982040052508
2334.0,0.002423657983653219
2333.0,0.0024009173623029453
2332.0,0.0023935817775502443
2331.0,0.0024155558209922596
2330.0,0.0024632802569492093
2329.0,0.002523238845681392
2328.0,0.002590576266219194
2327.0,0.0026671314325421576
2326.0,0.0027492659877894495
2325.0,0.0028198771171089863
2324.0,0.0028567019913219084
2323.0,0.0028533499803844553
2322.0,0.0028266455446268636
2321.0,0.002800486664022715
2320.0,0.0027804320678398234
2319.0,0.0027575649778711566
2318.0,0.002729958375930555
2317.0,0.002708708613819692
2316.0,0.0027028526881774676
2315.0,0.0027091083412933213
2314.0,0.002718676668720877
2313.0,0.0027257790032870688
2312.0,0.0027286391377289473
2311.0,0.0027265783195319485
2310.0,0.002721344875657162
2309.0,0.0027151727644654
2308.0,0.002706734851845235
2307.0,0.002694221128952801
2306.0,0.002683987097997589
2305.0,0.0026887597298140622
2304.0,0.002713350738788231
2303.0,0.002748427276911966
2302.0,0.0027804424502794324
2301.0,0.002803505038281664
2300.0,0.0028185887633211176
2299.0,0.0028276681284504987
2298.0,0.002833910908168682
2297.0,0.002841929469151663
2296.0,0.0028526802807957927
2295.0,0.0028598359237733666
2294.0,0.002857338253606572
2293.0,0.0028483081596542017
2292.0,0.0028434893505596185
2291.0,0.0028509797254432146
2290.0,0.0028695783839261923
2289.0,0.0028905115894276093
2288.0,0.0029041891287490563
2287.0,0.0029078321295854916
2286.0,0.0029070631082606675
2285.0,0.0029083643255531197
2284.0,0.002910135359112316
2283.0,0.002905100717452473
2282.0,0.0028903337519326313
2281.0,0.0028698369876719782
2280.0,0.0028474792256583618
2279.0,0.0028249081884059776
2278.0,0.002807229576409628
2277.0,0.002802060211733927
2276.0,0.0028092859704321642
2275.0,0.0028189206990361267
2274.0,0.002823071886699137
2273.0,0.0028233630017755296
2272.0,0.0028235380714162596
2271.0,0.0028217699349540083
2270.0,0.002814425366557428
2269.0,0.002801220779883697
2268.0,0.002783535280050177
2267.0,0.0027637138388509515
2266.0,0.002747912129042744
2265.0,0.002741909056198243
2264.0,0.0027422635675574875
2263.0,0.002740528809236098
2262.0,0.0027381721304587433
2261.0,0.002746834287598756
2260.0,0.0027700615587197834
2259.0,0.0027950458684978955
2258.0,0.002806989251358603
2257.0,0.002802412007929481
2256.0,0.0027849866914770468
2255.0,0.0027593082572073234
2254.0,0.0027336980860341855
2253.0,0.0027180942980988064
2252.0,0.0027133136990138878
2251.0,0.0027123600636912632
2250.0,0.002715707757560009
2249.0,0.002731730398049638
2248.0,0.0027569632243568485
2247.0,0.0027728513578577055
2246.0,0.002771503458032301
2245.0,0.002769351231372731
2244.0,0.002781874782783994
2243.0,0.002798734308674452
2242.0,0.0028007865681710254
2241.0,0.002790767386379423
2240.0,0.002788978852355907
2239.0,0.002802777828237236
2238.0,0.0028174742904640334
2237.0,0.002816371425372998
2236.0,0.0027966727982492883
2235.0,0.002766224192856912
2234.0,0.002736009723987265
2233.0,0.0027172950122332376
2232.0,0.002715930653587878
2231.0,0.002726957452260909
2230.0,0.0027391821730552235
2229.0,0.0027450222711625383
2228.0,0.002743991226789905
2227.0,0.0027402144291361467
2226.0,0.002739942093575316
2225.0,0.0027474173286164624
2224.0,0.0027601520817333003
2223.0,0.002771659770587102
2222.0,0.002779029088200533
2221.0,0.0027817552652948203
2220.0,0.0027747637599232853
2219.0,0.002753454022353024
2218.0,0.00272713975911641
2217.0,0.002714945098277609
2216.0,0.002724266393542005
2215.0,0.0027445020050511737
2214.0,0.0027652439621802002
2213.0,0.0027875135680104518
2212.0,0.0028125377626413953
2211.0,0.0028339396649949937
2210.0,0.0028475175055300474
2209.0,0.0028566948883861285
2208.0,0.0028627932119422604
2207.0,0.002862278798552749
2206.0,0.002857841481592641
2205.0,0.0028561664751021397
2204.0,0.0028490633822176557
2203.0,0.0028167037376661762
2202.0,0.0027615087126787734
2201.0,0.002719646193723388
2200.0,0.0027215178793360212
2199.0,0.0027544128927170118
2198.0,0.00278008228217888
2197.0,0.0027786356687683504
2196.0,0.002760511767156952
2195.0,0.0027449188764766125
2194.0,0.002743765847402879
2193.0,0.0027609174864104756
2192.0,0.002791810900290338
2191.0,0.002825191826613653
2190.0,0.0028524323017659068
2189.0,0.002871480125275761
2188.0,0.0028793615757919037
2187.0,0.002871543032195048
2186.0,0.00285365198886535
2185.0,0.0028402367992227326
2184.0,0.002833259094043253
2183.0,0.002816230246848157
2182.0,0.0027812788985463227
2181.0,0.0027481335473660494
2180.0,0.0027422928116122985
2179.0,0.002765156624890107
2178.0,0.002797091710137182
2177.0,0.00281702810140973
2176.0,0.0028094070755121784
2175.0,0.0027676085923229047
2174.0,0.002706467789920697
2173.0,0.0026632920327780175
2172.0,0.002670822005873991
2171.0,0.0027307896501467966
2170.0,0.0028175060685444917
2169.0,0.0029001312288797682
2168.0,0.0029602378885500405
2167.0,0.0029967816417781827
2166.0,0.0030203271607412607
2165.0,0.0030398336332686164
2164.0,0.003056267561646236
2163.0,0.0030709902759855656
2162.0,0.0030844090541318403
2161.0,0.0030684497654696113
2160.0,0.0029598193024888077
2159.0,0.0027266930744838684
2158.0,0.002441091603269931
2157.0,0.0022315542796123053
2156.0,0.002160490186688585
2155.0,0.002195397166817022
2154.0,0.002278839689421941
2153.0,0.0023691947794994748
2152.0,0.0024320630250410924
2151.0,0.0024464142979166697
2150.0,0.002428478741417726
2149.0,0.002417586548043826
2148.0,0.002428523962888382
2147.0,0.0024435755694217015
2146.0,0.002451017742978521
2145.0,0.002458184296012413
2144.0,0.0024630045726531298
2143.0,0.0024500177604614634
2142.0,0.002424550125627441
2141.0,0.0024159457579931622
2140.0,0.0024324891843936
2139.0,0.0024432970821561396
2138.0,0.0024202640911986407
2137.0,0.002370995046810076
2136.0,0.002316551252698353
2135.0,0.0022646425254909124
2134.0,0.00222284889133259
2133.0,0.0022102665678128534
2132.0,0.002232289641856882
2131.0,0.0022639641083355725
2130.0,0.0022783316633680395
2129.0,0.0022770663071562634
2128.0,0.0022797982884049323
2127.0,0.00229628097693842
2126.0,0.002322218848005168
2125.0,0.0023499629430750978
2124.0,0.0023702396631960685
2123.0,0.0023745039339005047
2122.0,0.0023673206961129815
2121.0,0.002367008949302341
2120.0,0.002383628746682623
2119.0,0.0024069676851988563
2118.0,0.002425250899004268
2117.0,0.0024425510903640637
2116.0,0.0024657293333279233
2115.0,0.0024873457708630494
2114.0,0.0024971473351827456
2113.0,0.0025006905938940406
2112.0,0.002510008184065484
2111.0,0.0025222269896837896
2110.0,0.002523979448036385
2109.0,0.0025137153931986045
2108.0,0.002505396362141608
2107.0,0.0025104751979814484
2106.0,0.0025261589316126157
2105.0,0.0025402514815932903
2104.0,0.002540700209656078
2103.0,0.0025241774208121493
2102.0,0.0025012198349262907
2101.0,0.0024884218503675353
2100.0,0.0024906740152069668
2099.0,0.002497610276048097
2098.0,0.0025001173160131055
2097.0,0.0024992910304507255
2096.0,0.002494868467262142
2095.0,0.0024790986070320573
2094.0,0.0024521008600220735
2093.0,0.0024300820912021735
2092.0,0.002427072227326484
2091.0,0.0024388794875094483
2090.0,0.0024538413042798674
2089.0,0.0024691150467581607
2088.0,0.0024866134471322504
2087.0,0.0025033247512973463
2086.0,0.002516734317286425
2085.0,0.0025312744439245226
2084.0,0.0025488829848105397
2083.0,0.0025607910231909546
2082.0,0.0025591632522455167
2081.0,0.0025510027358696006
2080.0,0.002551065542509105
2079.0,0.002565736605460373
2078.0,0.0025908626852889044
2077.0,0.0026182587472687873
2076.0,0.002638383898836844
2075.0,0.00264440455309606
2074.0,0.0026398722068202954
2073.0,0.0026339828652391555
2072.0,0.0026260531621217793
2071.0,0.0026073563682118537
2070.0,0.002581403675386041
2069.0,0.0025658708194249116
2068.0,0.002566228865934188
2067.0,0.00256525293574501
2066.0,0.0025492960567306544
2065.0,0.0025291489696066044
2064.0,0.002521170804948156
2063.0,0.0025226316019030903
2062.0,0.0025226866193145915
2061.0,0.002521977798385629
2060.0,0.0025267151428122647
2059.0,0.002536328169317359
2058.0,0.0025474696503101977
2057.0,0.0025583766480144644
2056.0,0.002562414131781553
2055.0,0.00255472785840631
2054.0,0.002553272805030307
2053.0,0.00258958567616725
2052.0,0.0026650615695592204
2051.0,0.002737943246956369
2050.0,0.002768115416582944
2049.0,0.0027574223492084207
2048.0,0.0027287190695613065
2047.0,0.0026853149549096143
2046.0,0.002622340915088715
2045.0,0.0025617849580251116
2044.0,0.0025375501746382856
2043.0,0.002553084987258066
2042.0,0.0025828209762525033
2041.0,0.002609525090103421
2040.0,0.0026373333206996504
2039.0,0.0026722951793479717
2038.0,0.0027112079038600087
2037.0,0.00274495348643987
2036.0,0.0027575829992603023
2035.0,0.0027320182359250374
2034.0,0.002670562849935196
2033.0,0.002600638205667192
2032.0,0.002547918918682233
2031.0,0.0025157258668250726
2030.0,0.002498321245490587
2029.0,0.0024910916560937583
2028.0,0.0024811637457703532
2027.0,0.0024562739338557125
2026.0,0.0024328933537961462
2025.0,0.002444549639778716
2024.0,0.0024907931066202225
2023.0,0.002532347300270056
2022.0,0.0025474601415689645
2021.0,0.002556857809107124
2020.0,0.002579237125049357
2019.0,0.0026002065449202026
2018.0,0.0026055438606475277
2017.0,0.002608695519556261
2016.0,0.0026145644951659805
2015.0,0.0025935605881356703
2014.0,0.0025278360531466463
2013.0,0.0024501035814434038
2012.0,0.0024060780652406136
2011.0,0.0024006575813010807
2010.0,0.0024070453624582835
2009.0,0.0024069986588790347
2008.0,0.002394990524142356
2007.0,0.002364795810524167
2006.0,0.0023219216553359845
2005.0,0.002293622261847446
2004.0,0.0023023288813757473
2003.0,0.002343667938048399
2002.0,0.002400212681953928
2001.0,0.00245759243437993
2000.0,0.0024988204040900623
1999.0,0.002509067729551691
1998.0,0.002497848491182225
1997.0,0.0024910809876937754
1996.0,0.00249499669288893
1995.0,0.0024955339801709365
1994.0,0.002496879707291298
1993.0,0.0025249439984354094
1992.0,0.0025756356507510405
1991.0,0.00260129312939464
1990.0,0.002579427366774099
1989.0,0.002547624047679955
1988.0,0.0025469004862483722
1987.0,0.002572206751888576
1986.0,0.002599568141178722
1985.0,0.002628391252850954
1984.0,0.002668187385511772
1983.0,0.00271325809185488
1982.0,0.002756332692882095
1981.0,0.002799065974759293
1980.0,0.002821822880812434
1979.0,0.002777485050651508
1978.0,0.002654204008927241
1977.0,0.0025137498319350213
1976.0,0.002424844733041168
1975.0,0.0023908380698454447
1974.0,0.0023824218150020797
1973.0,0.0023930373402193087
1972.0,0.0024209092422464726
1971.0,0.0024407298284922618
1970.0,0.0024339998972584416
1969.0,0.002417008790245071
1968.0,0.0024072405081561996
1967.0,0.0023900604367926032
1966.0,0.002353931283052426
1965.0,0.0023228354671777736
1964.0,0.002316966311458897
1963.0,0.002319408348794957
1962.0,0.0023065524189375543
1961.0,0.0022828282458046243
1960.0,0.0022623421937232333
1959.0,0.0022421598573126424
1958.0,0.0022215061527967733
1957.0,0.002218343133420534
1956.0,0.0022391650545171378
1955.0,0.002257928455254453
1954.0,0.0022526543620549934
1953.0,0.002238606479325058
1952.0,0.0022410906812924286
1951.0,0.002258851849166137
1950.0,0.002276550870833898
1949.0,0.002291919186652758
1948.0,0.0023032282754923937
1947.0,0.0022925178277541894
1946.0,0.0022535051485024988
1945.0,0.0022172383227443966
1944.0,0.002219524674752336
1943.0,0.0022508087812360467
1942.0,0.0022690448267795827
1941.0,0.002256482176281513
1940.0,0.0022253552759956873
1939.0,0.002187924384751226
1938.0,0.0021547170571888665
1937.0,0.002141045742800937
1936.0,0.002152269972395203
1935.0,0.0021716110193722863
1934.0,0.002179885351935801
1933.0,0.0021771951034083798
1932.0,0.0021726358380247737
1931.0,0.002164326998286614
1930.0,0.0021461182822557928
1929.0,0.0021263832220421155
1928.0,0.0021150443996184203
1927.0,0.0021077860604233893
1926.0,0.002099225335255027
1925.0,0.0021005366099974302
1924.0,0.0021253317510391686
1923.0,0.0021574980515034173
1922.0,0.0021673948118316527
1921.0,0.0021542966368359377
1920.0,0.0021437071803577855
1919.0,0.002153999075481947
1918.0,0.002180972830109127
1917.0,0.0022095497674949247
1916.0,0.0022249745110126643
1915.0,0.002217809875429163
1914.0,0.002192886176859531
1913.0,0.0021648009381143437
1912.0,0.0021434687252687773
1911.0,0.0021262861934978976
1910.0,0.002108741869677791
1909.0,0.0020973148811292697
1908.0,0.0020950980697361054
1907.0,0.002093236185250426
1906.0,0.002088351829977705
1905.0,0.002092133328775288
1904.0,0.0021128731211936063
1903.0,0.002136829652848135
1902.0,0.0021472330768151555
1901.0,0.002147269758996137
1900.0,0.002145557714132501
1899.0,0.0021383073323645906
1898.0,0.0021225797536273865
1897.0,0.0021123066983008585
1896.0,0.0021223571495083034
1895.0,0.002138388885155675
1894.0,0.0021309767537105017
1893.0,0.0020963150436719485
1892.0,0.0020587177136942446
1891.0,0.0020429411008507157
1890.0,0.002056360237771111
1889.0,0.0020874896634434847
1888.0,0.0021130557454142026
1887.0,0.002116116015328814
1886.0,0.0021034809575039637
1885.0,0.002095315660981836
1884.0,0.002098524591921326
1883.0,0.002100661409785519
1882.0,0.002094108191656471
1881.0,0.00208997588930901
1880.0,0.002094966290700545
1879.0,0.0020967861396329747
1878.0,0.0020851862817329496
1877.0,0.002068775932697036
1876.0,0.002059368306894482
1875.0,0.002051347631916004
1874.0,0.002031735400295174
1873.0,0.0020039639679378246
1872.0,0.001986703756500543
1871.0,0.001996237109960863
1870.0,0.002035662343537581
1869.0,0.0020896289091185565
1868.0,0.0021281619172584367
1867.0,0.0021277813156499446
1866.0,0.0020952648832893326
1865.0,0.0020608757427158205
1864.0,0.0020443015899583796
1863.0,0.0020394582943158287
1862.0,0.002034534431931566
1861.0,0.0020321073624793968
1860.0,0.0020387740213884033
1859.0,0.0020485823831564733
1858.0,0.002052228636230962
1857.0,0.0020504313639530458
1856.0,0.0020446740043903633
1855.0,0.0020304527463011093
1854.0,0.002007033392638191
1853.0,0.0019929004491726302
1852.0,0.0019877519279057573
1851.0,0.001992235359736255
1850.0,0.0019764695685805496
1849.0,0.002002202700848636
1848.0,0.0020534741653070064
1847.0,0.002066221425066213
1846.0,0.0020797814462913374
1845.0,0.0020715576773276015
1844.0,0.0020609861658891057
1843.0,0.00204359203146076
1842.0,0.0020214412869012815
1841.0,0.002006833635707188
1840.0,0.001999501204626665
1839.0,0.002003268627334817
1838.0,0.0019828824622110286
1837.0,0.0019656247043221067
1836.0,0.0019860338845341064
1835.0,0.001994810159873201
1834.0,0.001984539303819565
1833.0,0.0019542754544556716
1832.0,0.0019368017170714477
1831.0,0.0019563621097207448
1830.0,0.0020074422896566714
1829.0,0.0020506950154741037
1828.0,0.002056482360922903
1827.0,0.002034711590495009
1826.0,0.002022695586354668
1825.0,0.0020428208732316522
1824.0,0.002073703356924473
1823.0,0.0020788945029908243
1822.0,0.002056087910462238
1821.0,0.002031422811629397
1820.0,0.0020175567770621622
1819.0,0.00200483828856698
1818.0,0.0019858765975432294
1817.0,0.001971494201016636
1816.0,0.0019714853385303034
1815.0,0.0019745723536795344
1814.0,0.001970729100888629
1813.0,0.0019684049948192157
1812.0,0.0019787885687943103
1811.0,0.001997640521338952
1810.0,0.0020122634281594374
1809.0,0.002022899446540591
1808.0,0.002033534290543594
1807.0,0.0020367128331263908
1806.0,0.002028975554855445
1805.0,0.002024111190561114
1804.0,0.0020370231284170368
1803.0,0.002062837283843157
1802.0,0.002090404118893321
1801.0,0.002120654025843541
1800.0,0.0021554817750870903
1799.0,0.0021836749005511645
1798.0,0.002195126301888955
1797.0,0.0021975244911713013
1796.0,0.0021992704522998774
1795.0,0.002204292397267087
1794.0,0.0022357597287240272
1793.0,0.0023335924370807525
1792.0,0.002487454925791651
1791.0,0.0026149814458927153
1790.0,0.0026713871563659184
1789.0,0.0026998852922031917
1788.0,0.002755006871680321
1787.0,0.0028549848901711474
1786.0,0.0029937911856580094
1785.0,0.0031620850297894004
1784.0,0.003341849156119052
1783.0,0.0035114737788190893
1782.0,0.0036857693388589246
1781.0,0.003899257011858331
1780.0,0.004140823091744646
1779.0,0.004362911332828344
1778.0,0.004550398184792533
1777.0,0.004730389500627144
1776.0,0.004916126074079149
1775.0,0.005104377775524742
1774.0,0.005324307719196502
1773.0,0.005624426632165813
1772.0,0.0059660768622126995
1771.0,0.006252358289900462
1770.0,0.006488757780119803
1769.0,0.006762407613579775
1768.0,0.0071062643779616725
1767.0,0.007462514187106327
1766.0,0.00778401662048918
1765.0,0.00810688890452589
1764.0,0.008495831586413675
1763.0,0.008969689025640005
1762.0,0.009475207413976998
1761.0,0.009939278025526577
1760.0,0.01034049921572441
1759.0,0.010708114142636008
1758.0,0.011077480130998872
1757.0,0.011442358088636417
1756.0,0.01175132598365944
1755.0,0.011997561133069542
1754.0,0.01224169760729148
1753.0,0.012531939988470093
1752.0,0.01281520042156898
1751.0,0.0129608669349194
1750.0,0.012949529675505889
1749.0,0.012891838846766758
1748.0,0.01284175151572662
1747.0,0.012791630164096023
1746.0,0.012750093349079063
1745.0,0.012690724477459689
1744.0,0.01253853167124042
1743.0,0.01227440658006092
1742.0,0.011966501320816364
1741.0,0.011623838273637955
1740.0,0.011150147053525641
1739.0,0.010557126552167685
1738.0,0.010054884133801205
1737.0,0.009743663241554384
1736.0,0.009551490217048481
1735.0,0.009196600075317916
1734.0,0.008448478218231048
1733.0,0.007695253667828817
1732.0,0.007238312098303796
1731.0,0.006912779933328469
1730.0,0.00661197172168345
1729.0,0.0063410669186951185
1728.0,0.006116926879375832
1727.0,0.005933528327529758
1726.0,0.00577868203048503
1725.0,0.005640761472993175
1724.0,0.005501055030273385
1723.0,0.0053610381829096694
1722.0,0.005236361908645816
1721.0,0.005144334646842199
1720.0,0.005093921492458148
1719.0,0.005084391374256358
1718.0,0.005062631155531278
1717.0,0.004980844649682052
1716.0,0.004880480272019818
1715.0,0.004787237895792567
1714.0,0.004697101320917661
1713.0,0.004623067580005478
1712.0,0.004570080357748692
1711.0,0.004531724301277099
1710.0,0.004498495152518261
1709.0,0.0044705571143868255
1708.0,0.004455780440714306
1707.0,0.004464063022194549
1706.0,0.004489433900505881
1705.0,0.004504773760495124
1704.0,0.004497893774090952
1703.0,0.0044917745716449575
1702.0,0.004560224065425744
1701.0,0.004750621511564005
1700.0,0.004946988253047794
1699.0,0.005006174933035711
1698.0,0.0049748350988637535
1697.0,0.005007295549969266
1696.0,0.005168384787295452
1695.0,0.005355208242126991
1694.0,0.005452019029980049
1693.0,0.005483077920975436
1692.0,0.005531539992173836
1691.0,0.005638784994084897
1690.0,0.005780239380838637
1689.0,0.005902279792160083
1688.0,0.005981788099893692
1687.0,0.006049025602553479
1686.0,0.006186468335758292
1685.0,0.006449984834299777
1684.0,0.006739136449000828
1683.0,0.00691706265437096
1682.0,0.006990208096253554
1681.0,0.007040295387328646
1680.0,0.007113816330191162
1679.0,0.0072093066965378426
1678.0,0.007321940402054107
1677.0,0.007479320643973001
1676.0,0.007681620085389583
1675.0,0.007858032757364939
1674.0,0.007961158911147037
1673.0,0.008032221405735271
1672.0,0.008131972346848818
1671.0,0.008279788735403712
1670.0,0.00843234716259239
1669.0,0.008562629989112724
1668.0,0.00868072054266075
1667.0,0.008781181352155758
1666.0,0.008877578187462931
1665.0,0.009004678626100913
1664.0,0.009171003056879365
1663.0,0.009323209459391673
1662.0,0.00941685801883983
1661.0,0.009493076905768633
1660.0,0.0095836241720751
1659.0,0.009690453385658162
1658.0,0.009786087869723526
1657.0,0.009882164170692459
1656.0,0.009982429675943717
1655.0,0.010154327952169907
1654.0,0.010286377251430457
1653.0,0.010201728988590557
1652.0,0.010150623451671259
1651.0,0.010178932210806622
1650.0,0.01019844668191236
1649.0,0.01025462774355957
1648.0,0.010310371395803052
1647.0,0.010244254736356487
1646.0,0.010116099096503474
1645.0,0.010085556538977773
1644.0,0.010116618536524525
1643.0,0.010147777953728128
1642.0,0.010169456033087844
1641.0,0.010179481891131553
1640.0,0.010187924770975356
1639.0,0.01019757181258125
1638.0,0.010212699298948405
1637.0,0.010188236505735613
1636.0,0.01003866170036028
1635.0,0.009857122365348775
1634.0,0.009766632593448525
1633.0,0.009716187377113637
1632.0,0.009675415324598835
1631.0,0.009645259739618703
1630.0,0.009604322131985688
1629.0,0.009526234782866995
1628.0,0.009403672751423255
1627.0,0.00927359056695785
1626.0,0.00917008337577491
1625.0,0.009087242980335666
1624.0,0.00896948977092811
1623.0,0.008778117222225566
1622.0,0.008577487591053454
1621.0,0.008436889136634419
1620.0,0.008346193933485567
1619.0,0.008281298433926793
1618.0,0.008203456272215333
1617.0,0.008048198298567571
1616.0,0.007846674473339931
1615.0,0.007689976091842788
1614.0,0.007578038945874287
1613.0,0.007482339114960653
1612.0,0.0073925924711115
1611.0,0.0072915789415625345
1610.0,0.0071720487819962216
1609.0,0.0070424107172255895
1608.0,0.0069150672227248616
1607.0,0.006796958175507667
1606.0,0.006695471977836373
1605.0,0.006610601545062608
1604.0,0.006528147157663093
1603.0,0.006438660831999998
1602.0,0.006348601475339814
1601.0,0.00626745170832622
1600.0,0.006193989990118278
1599.0,0.006124336231370052
1598.0,0.0060607331668115294
1597.0,0.006003316975630638
1596.0,0.005945632421141171
1595.0,0.005883759073953502
1594.0,0.005823836009286626
1593.0,0.005772756985425605
1592.0,0.005727459060151967
1591.0,0.0056815269428432316
1590.0,0.005635042676852717
1589.0,0.005592531170348008
1588.0,0.005554832886215003
1587.0,0.005520180510195374
1586.0,0.005488956741244868
1585.0,0.0054637044446272124
1584.0,0.00544111656584802
1583.0,0.005416565233522384
1582.0,0.00539403286602067
1581.0,0.005371921604705026
1580.0,0.0053434419985054216
1579.0,0.005313992855708799
1578.0,0.005313550794441281
1577.0,0.005345249466786174
1576.0,0.0053642969757345255
1575.0,0.005356680582238737
1574.0,0.005333151818020858
1573.0,0.005302613749729368
1572.0,0.005291228856419745
1571.0,0.005316821975158514
1570.0,0.005355135994877722
1569.0,0.005378492328858992
1568.0,0.005384162203966833
1567.0,0.005383696052792611
1566.0,0.005392664281650913
1565.0,0.005416690213131578
1564.0,0.00542731536399924
1563.0,0.005419608130946074
1562.0,0.00542121710836511
1561.0,0.005499615084776303
1560.0,0.0056726710540253465
1559.0,0.005772368377453536
1558.0,0.005783539284948387
1557.0,0.005805506524878846
1556.0,0.005807340155426601
1555.0,0.005811248770727893
1554.0,0.005849048134255272
1553.0,0.005887028255366657
1552.0,0.005915080511428844
1551.0,0.005934288722161285
1550.0,0.0059518830613264195
1549.0,0.005961415194025347
1548.0,0.00597078701631207
1547.0,0.005990535994342053
1546.0,0.006028085583030342
1545.0,0.00605462462525742
1544.0,0.0060438500705091375
1543.0,0.006011506249158199
1542.0,0.006007399669395119
1541.0,0.005983709458286905
1540.0,0.005885194915568722
1539.0,0.005838325201610184
1538.0,0.005842862016087967
1537.0,0.005819650064911438
1536.0,0.005792564391646955
1535.0,0.005789520974340301
1534.0,0.005781939911726368
1533.0,0.005729083297608742
1532.0,0.005663115494628385
1531.0,0.005615093560065601
1530.0,0.005582988476444671
1529.0,0.005562233353125803
1528.0,0.005539063970318424
1527.0,0.0055025498654616865
1526.0,0.005454474571981141
1525.0,0.005407060215405948
1524.0,0.005369594724886121
1523.0,0.005352588412263788
1522.0,0.0053307111885142035
1521.0,0.005287351075692803
1520.0,0.005259040266786145
1519.0,0.005243941469246075
1518.0,0.005229517146051875
1517.0,0.005200767724694979
1516.0,0.005147527762541217
1515.0,0.005093116884557167
1514.0,0.005045940580483698
1513.0,0.005007043257368373
1512.0,0.004962004779114263
1511.0,0.004906574190767049
1510.0,0.004840732911129721
1509.0,0.004795340556879557
1508.0,0.004743487176904611
1507.0,0.004616934801667332
1506.0,0.004554829960827396
1505.0,0.004565517225312562
1504.0,0.004522193394734312
1503.0,0.0044476689804277035
1502.0,0.004386198942924982
1501.0,0.004349391949553381
1500.0,0.004331389663970824
1499.0,0.004323547584747873
1498.0,0.004330188016648218
1497.0,0.0043403022162491305
1496.0,0.004335151078474613
1495.0,0.004302686356021571
1494.0,0.004246382396946337
1493.0,0.004189989661329146
1492.0,0.004159691905171205
1491.0,0.004155595417374011
1490.0,0.004152745551302084
1489.0,0.004146721523450666
1488.0,0.004154855149787817
1487.0,0.004173592929613556
1486.0,0.004186256462116701
1485.0,0.00419029643737883
1484.0,0.004190361477021564
1483.0,0.004194191026732698
1482.0,0.0042078592099777335
1481.0,0.004226795525480997
1480.0,0.004244123229365273
1479.0,0.004261920739953158
1478.0,0.004292893509116307
1477.0,0.0043414236482647245
1476.0,0.004396326695971511
1475.0,0.004449620495961087
1474.0,0.004525905751507381
1473.0,0.0046543591158440594
1472.0,0.004801205943036815
1471.0,0.004904401634893861
1470.0,0.004957348363378539
1469.0,0.005000742283505595
1468.0,0.005071593293084269
1467.0,0.005189917344212808
1466.0,0.005370115851581277
1465.0,0.005606292069343269
1464.0,0.00583958118855692
1463.0,0.0060192027945956805
1462.0,0.0061573517279887025
1461.0,0.006294483171857209
1460.0,0.0064610108114209
1459.0,0.00668530758035359
1458.0,0.006984554763651592
1457.0,0.007267732335234114
1456.0,0.0074191898824579345
1455.0,0.0074584125585391275
1454.0,0.007462566848725722
1453.0,0.007472592524080772
1452.0,0.007489118985101182
1451.0,0.007498441540707173
1450.0,0.007495610076839411
1449.0,0.007459890780297962
1448.0,0.007363323367742468
1447.0,0.007217236023478148
1446.0,0.007062103560285509
1445.0,0.006905859929516008
1444.0,0.006730348027310392
1443.0,0.006534445170492672
1442.0,0.006333008982846766
1441.0,0.006141728100416833
1440.0,0.0059750849655532635
1439.0,0.0058509515107910345
1438.0,0.005765197371175455
1437.0,0.005662428084500507
1436.0,0.005515674120159561
1435.0,0.005374547022810278
1434.0,0.005269549296703154
1433.0,0.005196836569487608
1432.0,0.005149960116202166
1431.0,0.005120043710040282
1430.0,0.005100869764204215
1429.0,0.005083356314308873
1428.0,0.0050632693282419965
1427.0,0.005045103187787355
1426.0,0.0050392190336846455
1425.0,0.00504476863518021
1424.0,0.005041029181131574
1423.0,0.005023245574440777
1422.0,0.005012699054354784
1421.0,0.005032431594021522
1420.0,0.005080735747865131
1419.0,0.005124442497737846
1418.0,0.005136221751625341
1417.0,0.005114208831173808
1416.0,0.0050749395371724355
1415.0,0.005043192055566019
1414.0,0.00503056837648626
1413.0,0.005026679978376415
1412.0,0.005016228409399587
1411.0,0.004996607638584119
1410.0,0.004974429009243859
1409.0,0.004949509900048711
1408.0,0.004918622127766706
1407.0,0.00488266707743926
1406.0,0.004844008628554104
1405.0,0.0048007452170823655
1404.0,0.004751556890196383
1403.0,0.00470595115889478
1402.0,0.004674325482795002
1401.0,0.004661270885212716
1400.0,0.004661495297821013
1399.0,0.004663629236450332
1398.0,0.0046661280644367305
1397.0,0.004680392015209892
1396.0,0.004725120140660012
1395.0,0.004807887328766456
1394.0,0.004909675078764495
1393.0,0.005001970342089093
1392.0,0.005079841722658972
1391.0,0.005163087719347668
1390.0,0.005270502948522739
1389.0,0.005406918347832708
1388.0,0.00555918147955517
1387.0,0.005697390940810833
1386.0,0.005798377356242467
1385.0,0.005864226574952314
1384.0,0.005906172732138174
1383.0,0.005926653038319249
1382.0,0.005918200135070772
1381.0,0.005872593573767819
1380.0,0.005784628511892634
1379.0,0.00565433904670554
1378.0,0.00549715273526253
1377.0,0.005337485969632728
1376.0,0.005190858834226054
1375.0,0.005064540477796989
1374.0,0.004976645661636966
1373.0,0.004943808404515448
1372.0,0.004953706228901947
1371.0,0.0049842822029044
1370.0,0.00502364608636721
1369.0,0.005060627742804832
1368.0,0.005083412739363096
1367.0,0.005092888449190782
1366.0,0.005099322888822425
1365.0,0.005107550805567491
1364.0,0.0051089998943676836
1363.0,0.005088886453806233
1362.0,0.0050492305376205705
1361.0,0.005007887219064562
1360.0,0.004972355068249614
1359.0,0.004940097220892119
1358.0,0.004908243663527895
1357.0,0.00487126311785719
1356.0,0.004820978683484709
1355.0,0.004753559660748316
1354.0,0.004673895700021136
1353.0,0.004589480821728268
1352.0,0.004503593190197747
1351.0,0.004414516730065451
1350.0,0.0043210021616873675
1349.0,0.004226523210107089
1348.0,0.004136088083738603
1347.0,0.004053564363268142
1346.0,0.003979436938479287
1345.0,0.003912069189339139
1344.0,0.003850830724735063
1343.0,0.003798311403754793
1342.0,0.0037558886484274035
1341.0,0.0037167615037497674
1340.0,0.0036672205049298415
1339.0,0.0036052924812494825
1338.0,0.0035467992552114655
1337.0,0.0035015418743204775
1336.0,0.003465050505618463
1335.0,0.0034310527097965084
1334.0,0.003396754211435973
1333.0,0.003361430172122176
1332.0,0.003326120631445794
1331.0,0.003294438855802704
1330.0,0.00327009146180322
1329.0,0.003252912435175577
1328.0,0.0032399352938158694
1327.0,0.003229454566920668
1326.0,0.0032217424970620683
1325.0,0.0032163632746213386
1324.0,0.003211318382784009
1323.0,0.0032061063821440363
1322.0,0.003201270963996755
1321.0,0.0031953163253137552
1320.0,0.0031853550871670305
1319.0,0.0031718748623557023
1318.0,0.003159105179213922
1317.0,0.0031493670440777936
1316.0,0.003141383139600817
1315.0,0.0031341432628942444
1314.0,0.003127447282354868
1313.0,0.003119499285199984
1312.0,0.003109043671651355
1311.0,0.0030988740935201107
1310.0,0.0030930759401499785
1309.0,0.0030912743638194795
1308.0,0.003089009890816878
1307.0,0.003083310667635641
1306.0,0.003075473032972101
1305.0,0.003068257608724984
1304.0,0.003063064130685739
1303.0,0.0030606183594642147
1302.0,0.003059912501932561
1301.0,0.0030566289737422358
1300.0,0.0030458837097075905
1299.0,0.003027371795903266
1298.0,0.003004738671761243
1297.0,0.0029802078502631675
1296.0,0.0029532132244660773
1295.0,0.002924435510349371
1294.0,0.002897536967206832
1293.0,0.002876056280159067
1292.0,0.002861970210250724
1291.0,0.0028575895560201767
1290.0,0.0028659353943827435
1289.0,0.0028888622891262393
1288.0,0.002927298159233641
1287.0,0.002983345429806404
1286.0,0.0030594187493195556
1285.0,0.00315464376729956
1284.0,0.003263957910324332
1283.0,0.003381436241061437
1282.0,0.003503689010605017
1281.0,0.0036298755863429528
1280.0,0.003759082850941396
1279.0,0.003889129495705714
1278.0,0.004017920143029259
1277.0,0.004143989398079718
1276.0,0.004265633014541154
1275.0,0.004381162165049338
1274.0,0.004490314986894203
1273.0,0.0045932328935896875
1272.0,0.004688137284992257
1271.0,0.004772444320719578
1270.0,0.004846061303121052
1269.0,0.0049104512429613886
1268.0,0.00496483503143667
1267.0,0.00500723450833077
1266.0,0.00503899859547889
1265.0,0.0050645482859257495
1264.0,0.005086984561142863
1263.0,0.005107143581762436
1262.0,0.005126156370432864
1261.0,0.005145438983829775
1260.0,0.005164536684177545
1259.0,0.005182580828086664
1258.0,0.005201838628508915
1257.0,0.005226469534980819
1256.0,0.0052585007755422235
1255.0,0.005297370559308457
1254.0,0.005342447125974149
1253.0,0.005393510107576347
1252.0,0.005449905531099707
1251.0,0.0055120312446825795
1250.0,0.005582580447816093
1249.0,0.005662910677067174
1248.0,0.00574917214881548
1247.0,0.005835793135327406
1246.0,0.005922011363855385
1245.0,0.00601093555895323
1244.0,0.006103437832376664
1243.0,0.006197844418610736
1242.0,0.0062948292820999615
1241.0,0.006396765407845929
1240.0,0.006502279089204381
1239.0,0.006607285386719177
1238.0,0.0067119565988319075
1237.0,0.0068207273139934115
1236.0,0.006934444472588008
1235.0,0.007048837331198231
1234.0,0.007162427403739711
1233.0,0.007279907180849825
1232.0,0.007405803629175279
1231.0,0.007540597208621746
1230.0,0.007684427535954084
1229.0,0.007838255304284197
1228.0,0.007999675188676903
1227.0,0.00816398685285507
1226.0,0.008331429853366788
1225.0,0.008506832564677594
1224.0,0.008690135549775681
1223.0,0.008874759254307063
1222.0,0.009057750651543893
1221.0,0.009243483702349245
1220.0,0.009434496183899722
1219.0,0.00962682102820843
1218.0,0.009817272521157992
1217.0,0.010006688022695833
1216.0,0.01019283108361707
1215.0,0.010369080197803528
1214.0,0.010533042626361285
1213.0,0.010687145391715544
1212.0,0.010828869132811276
1211.0,0.010951631430130889
1210.0,0.011057425495449134
1209.0,0.011156140035744902
1208.0,0.011250346977939469
1207.0,0.011333740452872715
1206.0,0.011406373233213845
1205.0,0.011477642606396936
1204.0,0.01155176267894922
1203.0,0.011624605861705497
1202.0,0.011698009820679313
1201.0,0.011783125836075466
1200.0,0.011886237061865331
1199.0,0.012004577222835378
1198.0,0.012139015305151199
1197.0,0.012297132566409172
1196.0,0.012480546362456166
1195.0,0.012683275025361455
1194.0,0.012906426659774572
1193.0,0.01316032894742264
1192.0,0.013448004311046166
1191.0,0.013761642559500497
1190.0,0.01410005780235838
1189.0,0.0144727968830262
1188.0,0.014879863991392371
1187.0,0.015303750284794467
1186.0,0.015729116270717533
1185.0,0.016152631111522018
1184.0,0.016564001236981547
1183.0,0.01693535451018552
1182.0,0.017238245179278362
1181.0,0.017451378006980933
1180.0,0.017544125436586233
1179.0,0.01747996449779845
1178.0,0.017249885614092117
1177.0,0.016879423730987747
1176.0,0.01639779561845668
1175.0,0.0158280338485591
1174.0,0.01520872215694814
1173.0,0.014591480965899718
1172.0,0.014008000563249183
1171.0,0.013462699357222451
1170.0,0.01295894987939167
1169.0,0.012510118832005347
1168.0,0.012122595026379397
1167.0,0.011788170995005653
1166.0,0.011498596981984046
1165.0,0.011252828390528935
1164.0,0.011046701224284602
1163.0,0.010869390783771716
1162.0,0.010713751122575516
1161.0,0.010579014349247887
1160.0,0.01046190093986822
1159.0,0.01035715676880031
1158.0,0.010268314264336803
1157.0,0.010205407039250363
1156.0,0.010169619653070333
1155.0,0.01015127409082428
1154.0,0.010144724160478923
1153.0,0.010154392044458284
1152.0,0.010184865057237999
1151.0,0.01023681966212288
1150.0,0.010314518640647991
1149.0,0.010425294908905416
1148.0,0.010569277511847492
1147.0,0.010741295728389059
1146.0,0.010945268243633392
1145.0,0.011194315876856145
1144.0,0.01149313305978546
1143.0,0.011832341046049934
1142.0,0.012203356678227386
1141.0,0.012604391696866765
1140.0,0.013026164868256305
1139.0,0.013447923635721936
1138.0,0.013856559985836847
1137.0,0.01425418023089741
1136.0,0.01463834856936767
1135.0,0.014992943768490547
1134.0,0.015309217264681166
1133.0,0.01559725926086053
1132.0,0.015865419068293852
1131.0,0.01610633464684551
1130.0,0.01631251542143221
1129.0,0.016485839443697574
1128.0,0.016621500149190067
1127.0,0.01670341894774554
1126.0,0.016727451223727176
1125.0,0.016710719961805495
1124.0,0.01667025430312677
1123.0,0.016612889313931258
1122.0,0.01655129704071694
1121.0,0.01650594990378595
1120.0,0.016483783108149467
1119.0,0.01647634888652593
1118.0,0.016484631309336646
1117.0,0.016523912917244574
1116.0,0.016599017629703724
1115.0,0.01669833237356605
1114.0,0.016819801337903128
1113.0,0.016979705734426975
1112.0,0.017187236967264007
1111.0,0.01743377262909136
1110.0,0.01771629230218438
1109.0,0.018046255766409083
1108.0,0.0184238081180094
1107.0,0.01882812740192535
1106.0,0.019246011617534954
1105.0,0.019685866231362786
1104.0,0.020150655453154052
1103.0,0.020623510384296478
1102.0,0.02109433247212994
1101.0,0.02157292814271523
1100.0,0.022060564301766665
1099.0,0.02253779176705615
1098.0,0.02299649450749216
1097.0,0.023453985619107456
1096.0,0.023918048730992875
1095.0,0.024370798828070656
1094.0,0.02480412891139658
1093.0,0.025236399944078777
1092.0,0.02567598357490251
1091.0,0.026104021544162814
1090.0,0.0265111977576114
1089.0,0.026914790127051235
1088.0,0.027321145363842784
1087.0,0.027709635923181933
1086.0,0.02807179361169843
1085.0,0.02842475094553654
1084.0,0.028766906483787845
1083.0,0.029064293979774492
1082.0,0.029300612236583905
1081.0,0.0294958032488075
1080.0,0.029657144687340056
1079.0,0.029760429454070886
1078.0,0.029797458648618356
1077.0,0.029791659956428
1076.0,0.029747829505312823
1075.0,0.029636881844504234
1074.0,0.02944889364274586
1073.0,0.029211240378777436
1072.0,0.028937888329811447
1071.0,0.028611684967707017
1070.0,0.028231487769703998
1069.0,0.027826184501588535
1068.0,0.027408485919206457
1067.0,0.0269640951440684
1066.0,0.026499071567047144
1065.0,0.0260516262129529
1064.0,0.025645645946296175
1063.0,0.02527485821285947
1062.0,0.024941274633482974
1061.0,0.024667550071127857
1060.0,0.02446039441555841
1059.0,0.024299889827572467
1058.0,0.024175610808198057
1057.0,0.02409710403481551
1056.0,0.024058840334446004
1055.0,0.024031946523174235
1054.0,0.02400389129712886
1053.0,0.023992458378095514
1052.0,0.024006152844558207
1051.0,0.024027442836722392
1050.0,0.024052748713683555
1049.0,0.024105831068928767
1048.0,0.024190664498488244
1047.0,0.024275742673243252
1046.0,0.024340364597214822
1045.0,0.02439326895012199
1044.0,0.024435077904155
1043.0,0.024442938203093352
1042.0,0.024403729427660063
1041.0,0.024327668555571058
1040.0,0.02421785698735607
1039.0,0.024059472952739552
1038.0,0.023849898437562234
1037.0,0.02360817899905245
1036.0,0.02334589305813048
1035.0,0.02305910968841876
1034.0,0.022755460829378793
1033.0,0.02245733854259801
1032.0,0.02217042749889206
1031.0,0.021878978425040566
1030.0,0.021578803077036374
1029.0,0.02128593130202765
1028.0,0.02100654684649907
1027.0,0.020726674264193046
1026.0,0.0204378210373125
1025.0,0.020146193014000235
1024.0,0.019851135394668835
1023.0,0.019540437444884092
1022.0,0.019213161378242468
1021.0,0.01888333910654635
1020.0,0.01855570210983861
1019.0,0.018220880227954744
1018.0,0.017879179627199662
1017.0,0.01754619093168617
1016.0,0.017230045656054085
1015.0,0.016924525037522245
1014.0,0.016628792673808276
1013.0,0.01635350138335627
1012.0,0.01610259136296406
1011.0,0.015867178347249843
1010.0,0.015641583782127648
1009.0,0.015428992199489715
1008.0,0.015227878460468108
1007.0,0.015028996899112503
1006.0,0.014829579564515003
1005.0,0.014635502822206228
1004.0,0.01444641488464864
1003.0,0.014253550631708682
1002.0,0.014054680827233563
1001.0,0.013856791048355119
1000.0,0.013662269895017082
999.0,0.01346656836306297
998.0,0.013270386803861979
997.0,0.013079801537704558
996.0,0.012893469552849304
995.0,0.01270416843217436
994.0,0.012514255044924344
993.0,0.012335147600777452
992.0,0.012169591054722862
991.0,0.012008459616263876
990.0,0.01184709841025738
989.0,0.011690819964244738
988.0,0.01154185341915066
987.0,0.01139472593857295
986.0,0.01124798558078092
985.0,0.01110801482692339
984.0,0.01097761571661171
983.0,0.010851809763610453
982.0,0.010727837834901492
981.0,0.010608769294962085
980.0,0.010494389471393637
979.0,0.01037883788980852
978.0,0.010260342868582295
977.0,0.01014382370348043
976.0,0.010031631447006053
975.0,0.009920993677385722
974.0,0.009811991365212649
973.0,0.009708360428241023
972.0,0.009608782371444519
971.0,0.009506962784642194
970.0,0.009402218766825614
969.0,0.009300953277242677
968.0,0.009206083540449
967.0,0.009114353348605253
966.0,0.009026241017546937
965.0,0.008949574579237023
964.0,0.008890642962583982
963.0,0.008849433439416856
962.0,0.008825116440414343
961.0,0.008817553296833943
960.0,0.008820686097301947
959.0,0.008822225860401666
958.0,0.008813150723885462
957.0,0.008791511161183525
956.0,0.008755804806621886
955.0,0.008702657789292488
954.0,0.008633094270281534
953.0,0.008553290910185762
952.0,0.008467062363003887
951.0,0.00837468965116464
950.0,0.008279765344272107
949.0,0.008188981186158087
948.0,0.008104064730729792
947.0,0.008021685200420686
946.0,0.00794189387585875
945.0,0.00786851389605947
944.0,0.007800455623428687
943.0,0.007731208713962278
942.0,0.0076586898938633165
941.0,0.007587845435438676
940.0,0.007521787725299357
939.0,0.0074579272089068446
938.0,0.007394697310793874
937.0,0.007334560888348007
936.0,0.007278024086078045
935.0,0.007221465525046489
934.0,0.007163023446273151
933.0,0.00710441654274133
932.0,0.007045527262417986
931.0,0.006983885697024978
930.0,0.006921071450809205
929.0,0.006862935600802924
928.0,0.006811698103420114
927.0,0.00676404259698196
926.0,0.006718437669308977
925.0,0.006677735102591429
924.0,0.006642771241311541
923.0,0.006610287037400291
922.0,0.006579636635989405
921.0,0.006554945531827597
920.0,0.0065374960449278395
919.0,0.0065219067897563585
918.0,0.006503315631211433
917.0,0.00648321547056791
916.0,0.006464534253825701
915.0,0.006445186784654531
914.0,0.006419982883718466
913.0,0.006385798369977576
912.0,0.006342416208917028
911.0,0.0062911637578072655
910.0,0.006234205430331607
909.0,0.006172140114620982
908.0,0.006101934881360512
907.0,0.006020877809701095
906.0,0.0059323281262072605
905.0,0.0058433108703985475
904.0,0.00575696388318774
903.0,0.005671770035283642
902.0,0.005586973481072633
901.0,0.00550325621180388
900.0,0.005418857452287262
899.0,0.0053311650829987005
898.0,0.005242592573194179
897.0,0.00515966782284296
896.0,0.005085310212198789
895.0,0.005016042207471719
894.0,0.004946351538317423
893.0,0.004871509960565354
892.0,0.004787185510544497
891.0,0.004692195577336815
890.0,0.0045923626669933295
889.0,0.004497063201696882
888.0,0.004411831179709962
887.0,0.004338467498332139
886.0,0.0042814555583734724
885.0,0.004248899052019454
884.0,0.00424698164197262
883.0,0.004278612752556817
882.0,0.004348507200215114
881.0,0.004464347651235513
880.0,0.004628971754135638
879.0,0.004832270244765704
878.0,0.005051805738277293
877.0,0.005260301573845348
876.0,0.005434367072728954
875.0,0.0055635261491865165
874.0,0.00565439071044007
873.0,0.005720335680002306
872.0,0.005764776549720348
871.0,0.005780547523997669
870.0,0.005765684971115166
869.0,0.00573068834131318
868.0,0.005687773031357042
867.0,0.005640989181178179
866.0,0.005589180981981894
865.0,0.0055311925716313454
864.0,0.005464864933036783
863.0,0.005386279565820726
862.0,0.005292674090117765
861.0,0.005182235084805859
860.0,0.005050832212023435
859.0,0.004894842262944341
858.0,0.004718574776664899
857.0,0.00453390331003099
856.0,0.004351728664249265
855.0,0.004178203105806244
854.0,0.004018935791057849
853.0,0.003881792472921795
852.0,0.003774035120860752
851.0,0.0036984382067396645
850.0,0.0036509191276719926
849.0,0.0036196585139376567
848.0,0.003588733282104045
847.0,0.0035472036271733155
846.0,0.0034953074930021257
845.0,0.0034395041608790596
844.0,0.003383180857625313
843.0,0.0033258380086976314
842.0,0.0032690199548813543
841.0,0.0032173162641460588
840.0,0.003173536624017692
839.0,0.003137383966625669
838.0,0.0031089456607458097
837.0,0.003089492323579612
836.0,0.0030784986857197525
835.0,0.003073318365901096
834.0,0.003072095145344663
833.0,0.0030739218907674844
832.0,0.0030763613756596532
831.0,0.0030766130478545343
830.0,0.00307550798116757
829.0,0.0030764389036134713
828.0,0.0030795060328265888
827.0,0.0030809904813427777
826.0,0.003079976096429654
825.0,0.0030807562024436855
824.0,0.0030867042985307496
823.0,0.003096317129643353
822.0,0.0031070102663691883
821.0,0.0031186352833891514
820.0,0.00313226952612831
819.0,0.00314907059408529
818.0,0.0031701311682203618
817.0,0.0031943824263601633
816.0,0.0032178290264587217
815.0,0.0032383549894125533
814.0,0.0032599901291672046
813.0,0.003288283512949985
812.0,0.0033228498252384116
811.0,0.0033594737330340727
810.0,0.003398504722014306
809.0,0.0034451304895597914
808.0,0.0035009151473331434
807.0,0.003560730961320724
806.0,0.0036192589313602053
805.0,0.00367549309192163
804.0,0.003729699606332108
803.0,0.0037811903570285606
802.0,0.003830700477196587
801.0,0.003880154292987454
800.0,0.003928576122454408
799.0,0.00397232480741583
798.0,0.004009644398644625
797.0,0.004040132749813786
796.0,0.0040602557095607335
795.0,0.004066408364795337
794.0,0.004063388093153133
793.0,0.004062688998267313
792.0,0.004070609397401134
791.0,0.0040840225557342525
790.0,0.004098670814438647
789.0,0.00411524881019957
788.0,0.00413604203686837
787.0,0.004161712050738124
786.0,0.004192780663907622
785.0,0.004228435682954833
784.0,0.004263007312649508
783.0,0.0042903256607686405
782.0,0.004313069574372516
781.0,0.0043407602308939055
780.0,0.004376442274130191
779.0,0.004411919213789526
778.0,0.0044379834650089545
777.0,0.004453170041416789
776.0,0.004461195439705008
775.0,0.0044671926550518826
774.0,0.004478486790587454
773.0,0.004501439543378831
772.0,0.004534538697796561
771.0,0.004570644154879381
770.0,0.004608083282531618
769.0,0.004653302160547807
768.0,0.004711152117347574
767.0,0.004780074513064619
766.0,0.00485869423529847
765.0,0.00494895003621142
764.0,0.005049715566265217
763.0,0.005155108966822848
762.0,0.005262402153192446
761.0,0.005373806035812827
760.0,0.005486861371419493
759.0,0.005591485292366943
758.0,0.0056810805314355586
757.0,0.005758282317511158
756.0,0.005824691634164955
755.0,0.005873414944156184
754.0,0.005897853480672706
753.0,0.0059006495005445945
752.0,0.005888757676897942
751.0,0.005867003614241575
750.0,0.00584072422776501
749.0,0.005816369172572026
748.0,0.005794094879789685
747.0,0.0057667144140365785
746.0,0.005730667458211417
745.0,0.005691209696467751
744.0,0.005652345478225259
743.0,0.005608868679059992
742.0,0.005553744125806564
741.0,0.005487186808919147
740.0,0.005413179915101537
739.0,0.005332124953897167
738.0,0.005240816692003341
737.0,0.005134801019782731
736.0,0.005008660495233144
735.0,0.004860839073681809
734.0,0.004701885192793801
733.0,0.004551921231262277
732.0,0.0044259033266967115
731.0,0.004324612365675804
730.0,0.0042409958662086855
729.0,0.0041706095045085795
728.0,0.004114184661942904
727.0,0.004075733018727858
726.0,0.004060820885994611
725.0,0.004071354786227293
724.0,0.004100341427836853
723.0,0.0041372280863190185
722.0,0.004179311229047309
721.0,0.00423179820100711
720.0,0.004295684421902382
719.0,0.004364081241074212
718.0,0.004433503628057824
717.0,0.004508751828976048
716.0,0.004593207265590657
715.0,0.004681986891439513
714.0,0.004766644741976708
713.0,0.0048398021302308355
712.0,0.0048938289890630635
711.0,0.0049247667205323704
710.0,0.00494066642116249
709.0,0.004956638422710755
708.0,0.00497867725099535
707.0,0.005001439906152646
706.0,0.005024179786381148
705.0,0.005056548815019105
704.0,0.0051034311019081055
703.0,0.005156018192257538
702.0,0.005204340266204676
701.0,0.00524856179962469
700.0,0.00529209843520901
699.0,0.0053329172436260945
698.0,0.0053678510428942
697.0,0.005396098147295539
696.0,0.005412983020162245
695.0,0.005410765653107833
694.0,0.0053913977114704685
693.0,0.005369241384200514
692.0,0.005354862235580368
691.0,0.00534373627053022
690.0,0.005326282274432978
689.0,0.005300091969993554
688.0,0.005267587232728072
687.0,0.005231811191426938
686.0,0.005199172118327539
685.0,0.00517548761245522
684.0,0.005155589330740076
683.0,0.00512836667704226
682.0,0.0050949513909977606
681.0,0.005068988971927684
680.0,0.005055379453821819
679.0,0.00504264636405596
678.0,0.005023081320728869
677.0,0.005005645360200888
676.0,0.004998467036878224
675.0,0.0049951916893112135
674.0,0.004987220059380328
673.0,0.004975095039531622
672.0,0.004958977492900267
671.0,0.0049291653951770865
670.0,0.0048749781037189
669.0,0.004796218833597762
668.0,0.004725636449683272
667.0,0.004718746867539958
666.0,0.004755927075207401
665.0,0.0047907888066643575
664.0,0.004808392981827187
663.0,0.0048058400048704465
662.0,0.004789581259209839
661.0,0.004773634925436187
660.0,0.004761406376636053
659.0,0.004743962632978431
658.0,0.004722320614224805
657.0,0.004712937359684682
656.0,0.004720207146204924
655.0,0.0047263522628253705
654.0,0.004717680422121104
653.0,0.004701630325353102
652.0,0.0046860534146254875
651.0,0.004662874920895935
650.0,0.004625660900861157
649.0,0.004584487789154986
648.0,0.004549149981028174
647.0,0.004515736227895084
646.0,0.004480227290850895
645.0,0.0044465927963515395
644.0,0.004413265649818971
643.0,0.0043696356717784005
642.0,0.004315078867049048
641.0,0.004264223638040623
640.0,0.004224669236808953
639.0,0.004187039219826499
638.0,0.004144635948530242
637.0,0.004104385847562561
636.0,0.004069842358987664
635.0,0.004034301647296004
634.0,0.0039991086238818285
633.0,0.003977026574404719
632.0,0.003967991620510257
631.0,0.003951056714116796
630.0,0.003909297253497909
629.0,0.0038475483646361807
628.0,0.003778154610899761
627.0,0.003708517082811203
626.0,0.003646871776055923
625.0,0.003597259952823312
624.0,0.0035465663601059938
623.0,0.0034806457504851186
622.0,0.0034132151819674505
621.0,0.003369750686605626
620.0,0.003345228942521346
619.0,0.0033078017671992416
618.0,0.003246344330047538
617.0,0.003183354186954748
616.0,0.003134442393686032
615.0,0.0030963877466608026
614.0,0.003073895223209319
613.0,0.003075520859370885
612.0,0.003087102425020109
611.0,0.0030854208667928425
610.0,0.0030783196245606943
609.0,0.0030941113903260086
608.0,0.0031321590540973844
607.0,0.0031658201051310243
606.0,0.003193197225627385
605.0,0.0032357984302582585
604.0,0.0032846761508531132
603.0,0.0033056783935429303
602.0,0.0033029975612391014
601.0,0.003318595576420842
600.0,0.0033574247024723914
599.0,0.0033721840008630157
598.0,0.003343766480246497
597.0,0.003313758835141566
596.0,0.0033098910537766963
595.0,0.0033008134031687784
594.0,0.0032525607934651537
593.0,0.00318174931008998
592.0,0.003114067450301638
591.0,0.003036583919217091
590.0,0.002937229249750096
589.0,0.002843705814303806
588.0,0.0027814184580007588
587.0,0.0027363379650173275
586.0,0.0026844337665906607
585.0,0.0026294181646546655
584.0,0.0025801415360474835
583.0,0.0025195484210597564
582.0,0.0024316812380717912
581.0,0.0023352910090159397
580.0,0.0022606322186140117
579.0,0.0022142417999666385
578.0,0.0021866077405619843
577.0,0.002169574929344686
576.0,0.002143310466719218
575.0,0.0020879808025326416
574.0,0.0020308980122665755
573.0,0.002021529768248419
572.0,0.002055505651487208
571.0,0.002064638172589302
570.0,0.0020021338831930037
569.0,0.0019114034092937403
568.0,0.001865267705286052
567.0,0.0018871139996554315
566.0,0.0019526198270837045
565.0,0.002030687134633809
564.0,0.002086734274148929
563.0,0.002078541010371554
562.0,0.0020093270925186342
561.0,0.001943414819517872
560.0,0.0019276118226684222
559.0,0.0019448403636354219
558.0,0.0019606675285312666
557.0,0.0019757551743566195
556.0,0.0019981685609916774
555.0,0.0020105447545073485
554.0,0.002009673206999919
553.0,0.002027653437442458
552.0,0.002067810976132965
551.0,0.002066870761258336
550.0,0.0019697922329300274
