cm-1,A
4000.0,0.0019631160818179977
3999.0,0.001956591998670627
3998.0,0.0019551874251292223
3997.0,0.001960025364169213
3996.0,0.001968665775052494
3995.0,0.0019772190723908907
3994.0,0.001982696444719459
3993.0,0.0019835073976760343
3992.0,0.0019796243435891443
3991.0,0.0019726722920071146
3990.0,0.001965885010294868
3989.0,0.0019626415707084026
3988.0,0.0019638811709059515
3987.0,0.0019672986588001075
3986.0,0.001969125194094426
3985.0,0.0019668562882982944
3984.0,0.001960978564349485
3983.0,0.001954409730455183
3982.0,0.0019506904182455716
3981.0,0.0019520187588653272
3980.0,0.0019578262474264614
3979.0,0.0019650350279476012
3978.0,0.001969956237276504
3977.0,0.001971227966444825
3976.0,0.0019711760701020464
3975.0,0.0019738048447410462
3974.0,0.001980684172092452
3973.0,0.001988473974063999
3972.0,0.001991635423512366
3971.0,0.0019878435877583285
3970.0,0.0019805558181753523
3969.0,0.0019762111354667163
3968.0,0.0019779172865231794
3967.0,0.0019826767072715556
3966.0,0.0019853670917090206
3965.0,0.001983910073306544
3964.0,0.001980236857911947
3963.0,0.0019765991714993086
3962.0,0.001972831468173777
3961.0,0.0019687128895314624
3960.0,0.00196646612820633
3959.0,0.0019680588593855583
3958.0,0.0019715102625666135
3957.0,0.0019720018554737224
3956.0,0.00196676280697002
3955.0,0.001958287443222871
3954.0,0.0019515108523594426
3953.0,0.0019490966934017162
3952.0,0.0019506223538546842
3951.0,0.0019540497559221636
3950.0,0.0019586006813129223
3949.0,0.0019648510042133737
3948.0,0.001972973943453581
3947.0,0.0019813754328310952
3946.0,0.001986307565252754
3945.0,0.0019848653440008935
3944.0,0.0019762813857993854
3943.0,0.0019625977913270308
3942.0,0.001949620502119929
3941.0,0.0019431618586980212
3940.0,0.0019461634173541416
3939.0,0.0019574804026446548
3938.0,0.001972201379389287
3937.0,0.0019847285054134375
3936.0,0.0019911880267290743
3935.0,0.0019914748536699863
3934.0,0.0019884906023446463
3933.0,0.001985518142909825
3932.0,0.0019831286916977614
3931.0,0.001979545418182559
3930.0,0.0019728598677475435
3929.0,0.001963346569204374
3928.0,0.0019544022710942495
3927.0,0.0019498416982720026
3926.0,0.0019511095178310848
3925.0,0.0019545550201834003
3924.0,0.001956604608134526
3923.0,0.0019585242878706315
3922.0,0.0019624774488402365
3921.0,0.0019688326156376626
3920.0,0.0019756410750889656
3919.0,0.0019805912181353877
3918.0,0.0019830572124231883
3917.0,0.0019823403112410303
3916.0,0.001978610941225491
3915.0,0.001972908526093685
3914.0,0.001965698637129581
3913.0,0.001958205398833501
3912.0,0.0019532073187322986
3911.0,0.001953800325114465
3910.0,0.0019604636534015065
3909.0,0.001969204736483378
3908.0,0.00197481610094246
3907.0,0.0019745822855063797
3906.0,0.001972097949036863
3905.0,0.001975812599508923
3904.0,0.001991980151555367
3903.0,0.00201495910300575
3902.0,0.002028091385885447
3901.0,0.002019289306003873
3900.0,0.0019933548298582456
3899.0,0.001968368706652083
3898.0,0.0019590257077650147
3897.0,0.0019637441089747493
3896.0,0.0019715946937546346
3895.0,0.001974076538851708
3894.0,0.0019705811805578854
3893.0,0.001967158381969431
3892.0,0.001969922200052393
3891.0,0.001979808320615897
3890.0,0.0019931489219240156
3889.0,0.0020048903344641296
3888.0,0.0020118676094586316
3887.0,0.002012201110723961
3886.0,0.0020045977328802195
3885.0,0.0019924763173566305
3884.0,0.0019835212106962758
3883.0,0.0019792584898032234
3882.0,0.001973312162114386
3881.0,0.0019613708391082512
3880.0,0.0019480525218674698
3879.0,0.0019422516967236274
3878.0,0.0019461252747585466
3877.0,0.00195455510312755
3876.0,0.0019627379356013785
3875.0,0.0019684642538889685
3874.0,0.0019719002422451636
3873.0,0.001975947675932993
3872.0,0.0019821645767106634
3871.0,0.001984339260104051
3870.0,0.001974416983255764
3869.0,0.0019568152741728318
3868.0,0.0019459672290895605
3867.0,0.0019482630218163625
3866.0,0.001957645363056133
3865.0,0.001963036018218539
3864.0,0.0019606986787820855
3863.0,0.0019561621282833475
3862.0,0.0019555286757127737
3861.0,0.0019602997875333315
3860.0,0.0019687791742912164
3859.0,0.0019775242536365116
3858.0,0.0019817073238003633
3857.0,0.001977989930630724
3856.0,0.0019709392222524887
3855.0,0.0019695228315768035
3854.0,0.001975594052563023
3853.0,0.0019763449178792627
3852.0,0.0019691076153148038
3851.0,0.0019631655812200246
3850.0,0.001960809831963642
3849.0,0.0019610492812923196
3848.0,0.0019612890856028284
3847.0,0.0019604506846811727
3846.0,0.001958650732976697
3845.0,0.0019560455493085743
3844.0,0.001955268265453597
3843.0,0.0019570063482979103
3842.0,0.0019590094703997264
3841.0,0.0019594659865133984
3840.0,0.0019583844155728527
3839.0,0.0019584043732098306
3838.0,0.0019632343158193484
3837.0,0.0019715982601943354
3836.0,0.001978406225119151
3835.0,0.0019798183021624205
3834.0,0.001976889916420645
3833.0,0.0019732906231824604
3832.0,0.001970895648515966
3831.0,0.0019694661405867736
3830.0,0.001968806713706567
3829.0,0.001969806518359993
3828.0,0.001974382216525989
3827.0,0.0019833723222471367
3826.0,0.0019935804020063154
3825.0,0.002000221300035768
3824.0,0.001999600500489992
3823.0,0.001989207427599452
3822.0,0.001970916840725823
3821.0,0.0019533190543744687
3820.0,0.0019475994208484485
3819.0,0.0019544500841022798
3818.0,0.0019640048140953693
3817.0,0.001968314238276735
3816.0,0.0019658705297178483
3815.0,0.0019599991778482045
3814.0,0.001956346824054908
3813.0,0.0019567334718279226
3812.0,0.001959963756193509
3811.0,0.0019650579911377553
3810.0,0.0019723362512593743
3809.0,0.0019815768527197877
3808.0,0.001990151329139227
3807.0,0.001995195099810619
3806.0,0.00199680050910797
3805.0,0.0019979382806081837
3804.0,0.0020002745741052996
3803.0,0.0020014792058237743
3802.0,0.0019972978380065906
3801.0,0.001986546663134455
3800.0,0.001976038101196198
3799.0,0.0019701255362772415
3798.0,0.001964805677241181
3797.0,0.0019577633711662695
3796.0,0.001951791139268614
3795.0,0.0019508837491074653
3794.0,0.0019549103360790663
3793.0,0.0019599490083638004
3792.0,0.001962542036308632
3791.0,0.001962015795669945
3790.0,0.0019597632787852256
3789.0,0.0019582882597555906
3788.0,0.001960296964557045
3787.0,0.001967170432656673
3786.0,0.0019765340046129913
3785.0,0.0019823172276439015
3784.0,0.0019801084074751564
3783.0,0.0019709488966426166
3782.0,0.0019584545892397088
3781.0,0.0019465680171230721
3780.0,0.0019390694516853812
3779.0,0.0019394169044050827
3778.0,0.0019478912706746283
3777.0,0.001960651245888343
3776.0,0.0019736601193794763
3775.0,0.001984369298472116
3774.0,0.001992247013919911
3773.0,0.0019979851135475232
3772.0,0.0020029701899602253
3771.0,0.0020071154296571986
3770.0,0.0020090443897155534
3769.0,0.0020080418066792333
3768.0,0.002004606354335045
3767.0,0.0019992549106738642
3766.0,0.0019925361494308024
3765.0,0.0019851430849076607
3764.0,0.0019793272457579647
3763.0,0.0019782201379113665
3762.0,0.00198308890297568
3761.0,0.0019917782952453174
3760.0,0.0019997044066439908
3759.0,0.0020043595548051903
3758.0,0.0020063943396942344
3757.0,0.0020061995280187335
3756.0,0.0020034696786441677
3755.0,0.0019999812929807305
3754.0,0.0019985687035626878
3753.0,0.00200163956869773
3752.0,0.0020099285803481
3751.0,0.002025439809119448
3750.0,0.0020497108043461415
3749.0,0.0020750495040821925
3748.0,0.0020909981520232015
3747.0,0.002094180594033243
3746.0,0.0020893980045782667
3745.0,0.0020826245466728007
3744.0,0.002075985582936004
3743.0,0.00206995014729135
3742.0,0.0020676595847050703
3741.0,0.0020706783406920616
3740.0,0.002080774849435257
3739.0,0.002101045196860914
3738.0,0.002130599439313541
3737.0,0.0021550084710117183
3736.0,0.0021500756266846863
3735.0,0.0021101886094543228
3734.0,0.002064115536001877
3733.0,0.002042398753648072
3732.0,0.0020467638041441723
3731.0,0.002062899899714914
3730.0,0.0020808484117978985
3729.0,0.002100046872395852
3728.0,0.0021216170519871404
3727.0,0.002142027815533608
3726.0,0.0021563306318895656
3725.0,0.0021642854961717124
3724.0,0.0021680219241194364
3723.0,0.0021672822615750936
3722.0,0.002162499446872878
3721.0,0.002157744845817401
3720.0,0.00215630094596131
3719.0,0.002158795893047292
3718.0,0.0021651276768057384
3717.0,0.0021766741087409407
3716.0,0.0021958810899221533
3715.0,0.002224347969292758
3714.0,0.0022632756783209727
3713.0,0.002313832101227131
3712.0,0.002372143383217248
3711.0,0.002426574365111342
3710.0,0.002469021092920874
3709.0,0.002504191640127054
3708.0,0.0025439009544260312
3707.0,0.002597453460787904
3706.0,0.002665455773166169
3705.0,0.002743138191375097
3704.0,0.002827420570930048
3703.0,0.002921347360685238
3702.0,0.003027676174995105
3701.0,0.003139474422763816
3700.0,0.0032427051740979897
3699.0,0.0033269967167698566
3698.0,0.0033896019103264218
3697.0,0.0034312710257352087
3696.0,0.003453326031527422
3695.0,0.0034576674716151187
3694.0,0.0034438076204383597
3693.0,0.0034076458766907165
3692.0,0.0033453741929216187
3691.0,0.0032596453338230623
3690.0,0.0031640837444525923
3689.0,0.003083193538762661
3688.0,0.00303574380415402
3687.0,0.00301876180160321
3686.0,0.0030162748769058875
3685.0,0.003014821485077428
3684.0,0.003010074099362924
3683.0,0.0030056677840763196
3682.0,0.0030078354834108057
3681.0,0.0030190844645205384
3680.0,0.0030367094777611348
3679.0,0.003057890179655477
3678.0,0.0030838365525151547
3677.0,0.003114621632029138
3676.0,0.0031388590970716033
3675.0,0.0031498452094083727
3674.0,0.0031599220322743714
3673.0,0.003180822952678984
3672.0,0.003213718908120171
3671.0,0.003255080196531551
3670.0,0.0032982226470900204
3669.0,0.0033407897346852183
3668.0,0.0033862436853884506
3667.0,0.003431560245747467
3666.0,0.00347198681954742
3665.0,0.0035066754350820796
3664.0,0.00353962854565691
3663.0,0.0035762992986517715
3662.0,0.0036192517718537914
3661.0,0.003666172757356136
3660.0,0.003712999447417641
3659.0,0.0037583782733147724
3658.0,0.0038067675089028807
3657.0,0.003866019707480537
3656.0,0.003938352902850642
3655.0,0.004016432174238644
3654.0,0.004090804274911686
3653.0,0.004157339046372193
3652.0,0.004217681397240208
3651.0,0.004274618656519469
3650.0,0.004326408449356375
3649.0,0.0043706404182651095
3648.0,0.004412217904633312
3647.0,0.004455790910230018
3646.0,0.004502460298824994
3645.0,0.004552314073915616
3644.0,0.0046060461587977665
3643.0,0.004662373975438386
3642.0,0.004716628075768716
3641.0,0.0047669851174504205
3640.0,0.004818530884937158
3639.0,0.004878490468703274
3638.0,0.0049487993387334
3637.0,0.0050266196221018435
3636.0,0.005109796993290932
3635.0,0.005197030407306989
3634.0,0.00528323795137483
3633.0,0.005361760646018101
3632.0,0.00543161862520274
3631.0,0.005500810011552438
3630.0,0.005580897528975728
3629.0,0.005674236015725038
3628.0,0.005773497939311685
3627.0,0.005873716427700071
3626.0,0.005970972884868141
3625.0,0.006062951393193218
3624.0,0.0061504737902045165
3623.0,0.006235924487183877
3622.0,0.006321348356891271
3621.0,0.0064057197854977925
3620.0,0.006484839301719185
3619.0,0.006555661364468345
3618.0,0.006620363128313109
3617.0,0.006682250920675233
3616.0,0.006743442105824957
3615.0,0.006806181714873474
3614.0,0.006871394124741118
3613.0,0.0069379276605551765
3612.0,0.007004584373777798
3611.0,0.007072986609966915
3610.0,0.007147697255013788
3609.0,0.007227683488821569
3608.0,0.0073035167404101806
3607.0,0.007367509321694079
3606.0,0.007423218066903497
3605.0,0.007480136049834553
3604.0,0.0075441199876646065
3603.0,0.007614268189073844
3602.0,0.007684799592682392
3601.0,0.007749148174575143
3600.0,0.007806426369255142
3599.0,0.007862697605670805
3598.0,0.007924730244470444
3597.0,0.00799288898237358
3596.0,0.00806173313749339
3595.0,0.008126641134197959
3594.0,0.00818978893182195
3593.0,0.008256909041540425
3592.0,0.008328368911331173
3591.0,0.00839873366036137
3590.0,0.00846474563742166
3589.0,0.008528037562582134
3588.0,0.008590027141760891
3587.0,0.008652089485461235
3586.0,0.008719319795625475
3585.0,0.008795449153080878
3584.0,0.008877985379348176
3583.0,0.00896065763500483
3582.0,0.009038011698500648
3581.0,0.009108805065845004
3580.0,0.00917705321417811
3579.0,0.009248718734874109
3578.0,0.009328052782274745
3577.0,0.009415679690522852
3576.0,0.009508737285346886
3575.0,0.009602783622956596
3574.0,0.009694575825813056
3573.0,0.009783734000103333
3572.0,0.009870265310677804
3571.0,0.009952645181380011
3570.0,0.010030328538720728
3569.0,0.010106282468528625
3568.0,0.010183060765359082
3567.0,0.010259221869520208
3566.0,0.010334873133235218
3565.0,0.010412668347693294
3564.0,0.010493202250015803
3563.0,0.01057587832670557
3562.0,0.010661405488658097
3561.0,0.010752187313495112
3560.0,0.010848358080959712
3559.0,0.010945554227083895
3558.0,0.01103779093674327
3557.0,0.011122387970065066
3556.0,0.011201903884180875
3555.0,0.011281494080356278
3554.0,0.011364091901518863
3553.0,0.011448439599068676
3552.0,0.011532279538570181
3551.0,0.011615732974744398
3550.0,0.011700184382672785
3549.0,0.011785381634482492
3548.0,0.011868620551936155
3547.0,0.011947815313055304
3546.0,0.01202601309162361
3545.0,0.012109785308372468
3544.0,0.01220169098506367
3543.0,0.012296720015053778
3542.0,0.012387965790814115
3541.0,0.01247410401091429
3540.0,0.012559260045721716
3539.0,0.012647883313957376
3538.0,0.012740705151089004
3537.0,0.012834331939771694
3536.0,0.01292414271886492
3535.0,0.013006997344876495
3534.0,0.013082343978808359
3533.0,0.013152092428488405
3532.0,0.013220436988218788
3531.0,0.01329220933733427
3530.0,0.013370648661539216
3529.0,0.013455995752400968
3528.0,0.013546541924560507
3527.0,0.013640741209175515
3526.0,0.01373651822475735
3525.0,0.013828451384705077
3524.0,0.013909234488511705
3523.0,0.013977281688938204
3522.0,0.014040290016248274
3521.0,0.014107958918766351
3520.0,0.014182835004936917
3519.0,0.014260864281379383
3518.0,0.014338832741608049
3517.0,0.014417909971032001
3516.0,0.014500564314072519
3515.0,0.014587302293439613
3514.0,0.014677056212645777
3513.0,0.01476750331297487
3512.0,0.014853852409069522
3511.0,0.014930711637219374
3510.0,0.01499829491108309
3509.0,0.015064324866647591
3508.0,0.015137336919333368
3507.0,0.015219864728221056
3506.0,0.015309060735658013
3505.0,0.015400322024227777
3504.0,0.015488128020932464
3503.0,0.015566611451767555
3502.0,0.015634296879249894
3501.0,0.015696984994294248
3500.0,0.01576321194135863
3499.0,0.015838070836703824
3498.0,0.015920719697902406
3497.0,0.016005944038651358
3496.0,0.016088419077771733
3495.0,0.016166312607074095
3494.0,0.016241725586219294
3493.0,0.01631772546646403
3492.0,0.01639474236928479
3491.0,0.01647060493622115
3490.0,0.016544179334598424
3489.0,0.01661718912820468
3488.0,0.01669196801297642
3487.0,0.01676895259510293
3486.0,0.016846970528249967
3485.0,0.016925192071536546
3484.0,0.017004096180920088
3483.0,0.01708451974816428
3482.0,0.017166277616881054
3481.0,0.017247456818354597
3480.0,0.017325574854129343
3479.0,0.01740036557084295
3478.0,0.017474460552357355
3477.0,0.017549965308029488
3476.0,0.017625243888189916
3475.0,0.017696936192320243
3474.0,0.01776487993081987
3473.0,0.017833046302474488
3472.0,0.01790526018477117
3471.0,0.017981678075194057
3470.0,0.018059698385503798
3469.0,0.01813632102557076
3468.0,0.018209362927435586
3467.0,0.018278537305822795
3466.0,0.018345994818218508
3465.0,0.01841452900813895
3464.0,0.018484945957297206
3463.0,0.018556084875948644
3462.0,0.01862745300207394
3461.0,0.0187002742408949
3460.0,0.01877551436261829
3459.0,0.01885201211605035
3458.0,0.018926771906250223
3457.0,0.018996670911854575
3456.0,0.019060662230183434
3455.0,0.019121234931037772
3454.0,0.019183502058433888
3453.0,0.019250931572418077
3452.0,0.019322498271932723
3451.0,0.01939470734445178
3450.0,0.01946556806492048
3449.0,0.019535225577088935
3448.0,0.019603817720203916
3447.0,0.019671057079964725
3446.0,0.01973695366590963
3445.0,0.019800513986098663
3444.0,0.019858965251654835
3443.0,0.019911492593309564
3442.0,0.01996281950170426
3441.0,0.020019854536326855
3440.0,0.02008459996966109
3439.0,0.0201528598150537
3438.0,0.02021979544824548
3437.0,0.020283713024865997
3436.0,0.020344183442172974
3435.0,0.02039985273748173
3434.0,0.02045029881969694
3433.0,0.020497739762697163
3432.0,0.020545436454713382
3431.0,0.02059512304795379
3430.0,0.020646806044866114
3429.0,0.0206998650735337
3428.0,0.020753251424507714
3427.0,0.02080574631498744
3426.0,0.02085700437393742
3425.0,0.020908104425411612
3424.0,0.020960652956628745
3423.0,0.021015437423810394
3422.0,0.021071481490091075
3421.0,0.021125902046511172
3420.0,0.021175522838113928
3419.0,0.02121957712126081
3418.0,0.021260585482578743
3417.0,0.021301907809049336
3416.0,0.02134515318168251
3415.0,0.021390289595688023
3414.0,0.021436225544025574
3413.0,0.021479865732406497
3412.0,0.021517164018792216
3411.0,0.021548399066077542
3410.0,0.02158080551642709
3409.0,0.02162180359141945
3408.0,0.021669953847910532
3407.0,0.021716744520428488
3406.0,0.021757322691893077
3405.0,0.021795059232903598
3404.0,0.02183470096839054
3403.0,0.021875526140560257
3402.0,0.021914209922607248
3401.0,0.021951104631621927
3400.0,0.021989870033073185
3399.0,0.02203175686554072
3398.0,0.022073400039275565
3397.0,0.022110241424024207
3396.0,0.022140538189852992
3395.0,0.022166602700643207
3394.0,0.022193231871101452
3393.0,0.0222242786021325
3392.0,0.022259238804411705
3391.0,0.02229329216854556
3390.0,0.022321481734991364
3389.0,0.022342961043519217
3388.0,0.0223611939822293
3387.0,0.022380450322429624
3386.0,0.02240219973465205
3385.0,0.022424596820329892
3384.0,0.02244539442582528
3383.0,0.02246490301405454
3382.0,0.022485603719863623
3381.0,0.02250905097913256
3380.0,0.022534479789959646
3379.0,0.02256048268724501
3378.0,0.02258637758335139
3377.0,0.022611151566852374
3376.0,0.022633194424096018
3375.0,0.022652823204931533
3374.0,0.022672942824450478
3373.0,0.022694796054772627
3372.0,0.02271466248730272
3371.0,0.02272767425074746
3370.0,0.022733989261590076
3369.0,0.022738474723522657
3368.0,0.022744732051546944
3367.0,0.02275240626596321
3366.0,0.0227600836446563
3365.0,0.022767454099177433
3364.0,0.0227742276837042
3363.0,0.022780105922774904
3362.0,0.02278676253355647
3361.0,0.02279723294808245
3360.0,0.022811956648556658
3359.0,0.022827238495930022
3358.0,0.022838875693468715
3357.0,0.022845997221876066
3356.0,0.02285057371151478
3355.0,0.02285463678360419
3354.0,0.022858764601228338
3353.0,0.022862014485385822
3352.0,0.02286240728032828
3351.0,0.02285832250926369
3350.0,0.022850120322617382
3349.0,0.022840131739730915
3348.0,0.02283110352015122
3347.0,0.022825259594406844
3346.0,0.022824071168498123
3345.0,0.022827051150113305
3344.0,0.022830955727438564
3343.0,0.022831942348876418
3342.0,0.022829281939805594
3341.0,0.02282581631774757
3340.0,0.022824187567614524
3339.0,0.022823288642419722
3338.0,0.02281880755133058
3337.0,0.022807193992439093
3336.0,0.022789884730480218
3335.0,0.022774371741770934
3334.0,0.022769834744910473
3333.0,0.02277956429634776
3332.0,0.022797340545902413
3331.0,0.02281225387873719
3330.0,0.022817234770786524
3329.0,0.022812639223622578
3328.0,0.022803218512369203
3327.0,0.02279408997826176
3326.0,0.022789336762596684
3325.0,0.022791256358214766
3324.0,0.022798964580645686
3323.0,0.02280848489403816
3322.0,0.02281548590316028
3321.0,0.022817856989358343
3320.0,0.02281572668158497
3319.0,0.022810189182372206
3318.0,0.022802817933855562
3317.0,0.022795815096725045
3316.0,0.022791768304711392
3315.0,0.022792419018140136
3314.0,0.02279679017554861
3313.0,0.022800617983436543
3312.0,0.02279936176072417
3311.0,0.022793115347399473
3310.0,0.022787478891119282
3309.0,0.022787830306458614
3308.0,0.022793260169067835
3307.0,0.022797660090183757
3306.0,0.02279617118058492
3305.0,0.022788915948098447
3304.0,0.022779277414472936
3303.0,0.0227709586243605
3302.0,0.02276666064574076
3301.0,0.022767170548294798
3300.0,0.022770768626494714
3299.0,0.022774582610576577
3298.0,0.022776806087406832
3297.0,0.02277638007781842
3296.0,0.022771158687039505
3295.0,0.02275892248151871
3294.0,0.02274097388268537
3293.0,0.022722544288947738
3292.0,0.02270780195752747
3291.0,0.022695374652353453
3290.0,0.022680309457167293
3289.0,0.02265996697399428
3288.0,0.02263678631632445
3287.0,0.022615392908428473
3286.0,0.022597802653847664
3285.0,0.022581500315504707
3284.0,0.02256171272932218
3283.0,0.022535555928679677
3282.0,0.022504382081459478
3281.0,0.022472491389143184
3280.0,0.0224433710476408
3279.0,0.022416513904808245
3278.0,0.022387357057354826
3277.0,0.02235074883483734
3276.0,0.022305693330307616
3275.0,0.022256923721332342
3274.0,0.02221092149248005
3273.0,0.022170271048628266
3272.0,0.022132771090573024
3271.0,0.02209539437399871
3270.0,0.022056837480961156
3269.0,0.022015729555380965
3268.0,0.021969112211357143
3267.0,0.02191484738001663
3266.0,0.021854304540513715
3265.0,0.021790983427167582
3264.0,0.02172750892839561
3263.0,0.021665231769967427
3262.0,0.02160488358281847
3261.0,0.021545549574214968
3260.0,0.021484267974575224
3259.0,0.021419441354478014
3258.0,0.021353963328293514
3257.0,0.021292278912048383
3256.0,0.021234617462809486
3255.0,0.021176769725251735
3254.0,0.02111579512979816
3253.0,0.02105342815414893
3252.0,0.020993462459457435
3251.0,0.020937760545626773
3250.0,0.020885261323867033
3249.0,0.02083264315618192
3248.0,0.020775429058524492
3247.0,0.020710955585861345
3246.0,0.020641723698416513
3245.0,0.020574387506743484
3244.0,0.020514192106330636
3243.0,0.02046126271313995
3242.0,0.020412436849539226
3241.0,0.020364545377555384
3240.0,0.020314814072223544
3239.0,0.020260259829614324
3238.0,0.020198898967946112
3237.0,0.02013128925071142
3236.0,0.020060140379751207
3235.0,0.01998898063561023
3234.0,0.0199212615069021
3233.0,0.019858994854785636
3232.0,0.019801270015386927
3231.0,0.019745099071509523
3230.0,0.019688633214924645
3229.0,0.019632602520680695
3228.0,0.019578134486860507
3227.0,0.019524941089944237
3226.0,0.019472476388800068
3225.0,0.01942061039088523
3224.0,0.019367428864230686
3223.0,0.019308468174116224
3222.0,0.019241220461422334
3221.0,0.01916995642527813
3220.0,0.019103133287261084
3219.0,0.01904522841248317
3218.0,0.018992466429077474
3217.0,0.01893696554416911
3216.0,0.018873815139826673
3215.0,0.0188045624388388
3214.0,0.018735648210260105
3213.0,0.0186734806336674
3212.0,0.01861934028251612
3211.0,0.018568289986895328
3210.0,0.018513782868167735
3209.0,0.018453626372036045
3208.0,0.018390693561581906
3207.0,0.018328329375804264
3206.0,0.01826686518120959
3205.0,0.018205000939507242
3204.0,0.018142380158888104
3203.0,0.018079298911043346
3202.0,0.018015038115372802
3201.0,0.017948534895053842
3200.0,0.0178806779962038
3199.0,0.017814651578400956
3198.0,0.017752975118714844
3197.0,0.017694270847338392
3196.0,0.017633763213484397
3195.0,0.017567957210061023
3194.0,0.017498820149463388
3193.0,0.01743199244066625
3192.0,0.017370111385576648
3191.0,0.017309212225037878
3190.0,0.017243577822786117
3189.0,0.01717332295302267
3188.0,0.01710441893392012
3187.0,0.017040966209556724
3186.0,0.01698006796130912
3185.0,0.01691590263280455
3184.0,0.016846503184687275
3183.0,0.01677440322514364
3182.0,0.01670181048010941
3181.0,0.016627783608039265
3180.0,0.01655046586521748
3179.0,0.01647049282932477
3178.0,0.01639140376947251
3177.0,0.016316784170455293
3176.0,0.016246886532486036
3175.0,0.016178194882894563
3174.0,0.016107061936249653
3173.0,0.016034016569104442
3172.0,0.01596348971847152
3171.0,0.015898593563825003
3170.0,0.01583724207444633
3169.0,0.015774292459456263
3168.0,0.015706566633509885
3167.0,0.01563475209414958
3166.0,0.01556141232486023
3165.0,0.015488735693850498
3164.0,0.015417610066139627
3163.0,0.015347528392906321
3162.0,0.015277553932809548
3161.0,0.015208287542469213
3160.0,0.015142233685336869
3159.0,0.015080812360529754
3158.0,0.015021502309172437
3157.0,0.014959698180797669
3156.0,0.014893569061666303
3155.0,0.014825642583245834
3154.0,0.014759362197017612
3153.0,0.014695404850373732
3152.0,0.014631906595688006
3151.0,0.014567293206798636
3150.0,0.014502153080450723
3149.0,0.01443868670550557
3148.0,0.014378773848463356
3147.0,0.014322257389142818
3146.0,0.014266694842660353
3145.0,0.014208870592376757
3144.0,0.014146965760209532
3143.0,0.014081846833713472
3142.0,0.0140168020378799
3141.0,0.013955823141507341
3140.0,0.013901303067581968
3139.0,0.013852414811902693
3138.0,0.01380566586259733
3137.0,0.013757146854854756
3136.0,0.013704389282183831
3135.0,0.013646793963285532
3134.0,0.013585366410393948
3133.0,0.013522177411825093
3132.0,0.013459428906486442
3131.0,0.013398608606134904
3130.0,0.01334067375562449
3129.0,0.013286511046476148
3128.0,0.01323628242183825
3127.0,0.013188721822350596
3126.0,0.013142312770041777
3125.0,0.013096871320341416
3124.0,0.013052658250138132
3123.0,0.01300839610826479
3122.0,0.012962318543418483
3121.0,0.012915480925204881
3120.0,0.01287128313560983
3119.0,0.012830404577985817
3118.0,0.012788582599664141
3117.0,0.012741565467991895
3116.0,0.012691103578654234
3115.0,0.01264387334696796
3114.0,0.012604547606336025
3113.0,0.012571456164640957
3112.0,0.012539370134949311
3111.0,0.01250522432368104
3110.0,0.012470517557044328
3109.0,0.012438239661229275
3108.0,0.012408129849336562
3107.0,0.012376471247988853
3106.0,0.012341495836676252
3105.0,0.012306827126695183
3104.0,0.012276675870686517
3103.0,0.012249035125139108
3102.0,0.012217465530678578
3101.0,0.012180113206740078
3100.0,0.012143009682710995
3099.0,0.01211251867344325
3098.0,0.012088586839541355
3097.0,0.012067633796518222
3096.0,0.01204760215815544
3095.0,0.01202708231368236
3094.0,0.012002614818245837
3093.0,0.011971642823459028
3092.0,0.011936854801531482
3091.0,0.011903481959212014
3090.0,0.011873251552663434
3089.0,0.011844347895490449
3088.0,0.011816498326878176
3087.0,0.011791883829531084
3086.0,0.011770134566659252
3085.0,0.011746527263708747
3084.0,0.011716797098193952
3083.0,0.011681598771050532
3082.0,0.011644960325038681
3081.0,0.011609840929893839
3080.0,0.011576741696041006
3079.0,0.011545410537123418
3078.0,0.01151597024956701
3077.0,0.011487938779466434
3076.0,0.011458702899580165
3075.0,0.011423850466212457
3074.0,0.011380578144817573
3073.0,0.01133124201726755
3072.0,0.011282409963801211
3071.0,0.011239456225662423
3070.0,0.011202338047795055
3069.0,0.011167481988242923
3068.0,0.011132527283665592
3067.0,0.01109800570620133
3066.0,0.011065694530956337
3065.0,0.011036694792346759
3064.0,0.011010498082857463
3063.0,0.010984536619093705
3062.0,0.01095523884012164
3061.0,0.010920666212125684
3060.0,0.010881547464123797
3059.0,0.010839083716212637
3058.0,0.010793083490946152
3057.0,0.010743788287836096
3056.0,0.010693951742283499
3055.0,0.010647072675831098
3054.0,0.010604179496893077
3053.0,0.010564217640953543
3052.0,0.010526739395373795
3051.0,0.010491935927139718
3050.0,0.010458485004187676
3049.0,0.010423665861926876
3048.0,0.01038629240900404
3047.0,0.010347920754544828
3046.0,0.010310688121001376
3045.0,0.010274993299187015
3044.0,0.010239380004880156
3043.0,0.010202152148964406
3042.0,0.010163131268642862
3041.0,0.010124726851597233
3040.0,0.01009084826319072
3039.0,0.010063383949875849
3038.0,0.010039572300967092
3037.0,0.010013637027425595
3036.0,0.00998135836121849
3035.0,0.009943211096837535
3034.0,0.009903605926259287
3033.0,0.009867502548156179
3032.0,0.009837178569437782
3031.0,0.00981109393955133
3030.0,0.009785654471630956
3029.0,0.009758072406715303
3028.0,0.009727169232560753
3027.0,0.009692681912978398
3026.0,0.009655442034113776
3025.0,0.009618602373618293
3024.0,0.00958606026836989
3023.0,0.009558323763191249
3022.0,0.00953138280405818
3021.0,0.009501510888912847
3020.0,0.009470167427276953
3019.0,0.009442247537514674
3018.0,0.009420321751627601
3017.0,0.009401791544805796
3016.0,0.009381814327459846
3015.0,0.009357480030841496
3014.0,0.009329525429993352
3013.0,0.009301176427439889
3012.0,0.00927547632572768
3011.0,0.009253395576705578
3010.0,0.009234286114789773
3009.0,0.00921785889760454
3008.0,0.00920474278549342
3007.0,0.009195137171230744
3006.0,0.009188384773339728
3005.0,0.009184207870046767
3004.0,0.009183139994579235
3003.0,0.009184968346802354
3002.0,0.009187870754145103
3001.0,0.009189641803241314
3000.0,0.009189112831735596
2999.0,0.009186494990983781
2998.0,0.00918369170537131
2997.0,0.009184315277492902
2996.0,0.009191541019747281
2995.0,0.009205781037174307
2994.0,0.009225925390131725
2993.0,0.009252557219377533
2992.0,0.009286964768705185
2991.0,0.009327051811376347
2990.0,0.009367684083624057
2989.0,0.009407015912327179
2988.0,0.00944917480701687
2987.0,0.009499233717219582
2986.0,0.009557943638120698
2985.0,0.009623793485378647
2984.0,0.009697082585790417
2983.0,0.009779246552003908
2982.0,0.009870437184026656
2981.0,0.009971244747488981
2980.0,0.010084970536548731
2979.0,0.010214973519723128
2978.0,0.01036050311443903
2977.0,0.010518864624118537
2976.0,0.01069064560134837
2975.0,0.010880070908445777
2974.0,0.011090292196502611
2973.0,0.011321837708098238
2972.0,0.011575057451654516
2971.0,0.011850918505167105
2970.0,0.012148273276252479
2969.0,0.012462879062259184
2968.0,0.012789917592357536
2967.0,0.013125730625772875
2966.0,0.013466315066240634
2965.0,0.01380610596657647
2964.0,0.014139964800058377
2963.0,0.014464931155128353
2962.0,0.014778482259601756
2961.0,0.015075511369269413
2960.0,0.015348986605602966
2959.0,0.01559354382740611
2958.0,0.015808197661248517
2957.0,0.015995095978985144
2956.0,0.016156726187184094
2955.0,0.016294895115252613
2954.0,0.016412946374081538
2953.0,0.01651940582467872
2952.0,0.016630576138718968
2951.0,0.016770045210382636
2950.0,0.016964910639264502
2949.0,0.01724157286395608
2948.0,0.017622439028033243
2947.0,0.018125225419447163
2946.0,0.018762901623836377
2945.0,0.01954306702990027
2944.0,0.020467873548015283
2943.0,0.021535477768435334
2942.0,0.02274374317897287
2941.0,0.024092412167049083
2940.0,0.02558172608244436
2939.0,0.02721131743115245
2938.0,0.02898305836462763
2937.0,0.030903736042130647
2936.0,0.03298337310755763
2935.0,0.035231241141621426
2934.0,0.03765524844072422
2933.0,0.04026443550311693
2932.0,0.043070850428723904
2931.0,0.04609047670408364
2930.0,0.04934421421201872
2929.0,0.05285718614649679
2928.0,0.05665940921794308
2927.0,0.060791013232379155
2926.0,0.06530440506773239
2925.0,0.07025374851433955
2924.0,0.07567747697779391
2923.0,0.08158684000552888
2922.0,0.08796025933249246
2921.0,0.09471742268072073
2920.0,0.1016643616959624
2919.0,0.10842887817770408
2918.0,0.11441916475717484
2917.0,0.1188670396192031
2916.0,0.12101951176505941
2915.0,0.12045435358229001
2914.0,0.1172980898404427
2913.0,0.11218084325985705
2912.0,0.10595287038905597
2911.0,0.09939696925309828
2910.0,0.09308215150718387
2909.0,0.08732283183264118
2908.0,0.08223720058868762
2907.0,0.07782340205250804
2906.0,0.07402707741479343
2905.0,0.07076798771085503
2904.0,0.0679555245860093
2903.0,0.0655025300063635
2902.0,0.06333559552779233
2901.0,0.06139344897500068
2900.0,0.0596228561612137
2899.0,0.05797848777467339
2898.0,0.05642312637747064
2897.0,0.05492364413526378
2896.0,0.053449840360080304
2895.0,0.051980301975929906
2894.0,0.05050711449779946
2893.0,0.049028703751308085
2892.0,0.04754121039298664
2891.0,0.046039598966500624
2890.0,0.04452442806584362
2889.0,0.04300326660254336
2888.0,0.04148585155696337
2887.0,0.03998136550873928
2886.0,0.038499801346791214
2885.0,0.03705168151559057
2884.0,0.03564501910717901
2883.0,0.03428396855450292
2882.0,0.03297140468523277
2881.0,0.031713222105429234
2880.0,0.030519616100300302
2879.0,0.029403625639128076
2878.0,0.02837863736630839
2877.0,0.027457586477838532
2876.0,0.026651728742069437
2875.0,0.025966792060688235
2874.0,0.02539916589847927
2873.0,0.024935930252209422
2872.0,0.02456117494963618
2871.0,0.02426303581521071
2870.0,0.02404136819483639
2869.0,0.023914041645343408
2868.0,0.023917963093741387
2867.0,0.02410037207532075
2866.0,0.024506285461053913
2865.0,0.025171788761511753
2864.0,0.02612722224756198
2863.0,0.02740393899911706
2862.0,0.029038270516383528
2861.0,0.031074622073498898
2860.0,0.03356666189694977
2859.0,0.036578088912269775
2858.0,0.040184665951981884
2857.0,0.04448210933785005
2856.0,0.04959549125701273
2855.0,0.05568122340634658
2854.0,0.06289767891162955
2853.0,0.07131842945486766
2852.0,0.08072890151698968
2851.0,0.0903805597899248
2850.0,0.09885508123050209
2849.0,0.10438129969651389
2848.0,0.10559661668580021
2847.0,0.10231655664351968
2846.0,0.0955672619336348
2845.0,0.0869691119061278
2844.0,0.07796209960324618
2843.0,0.06947443245512949
2842.0,0.061938554396033074
2841.0,0.05547113669675835
2840.0,0.0500116329543741
2839.0,0.04543561582266143
2838.0,0.041597499317391894
2837.0,0.03836679459104604
2836.0,0.035627590433064744
2835.0,0.03328518957048933
2834.0,0.03126603349332079
2833.0,0.0295151250342238
2832.0,0.027988611894431456
2831.0,0.026647886756293298
2830.0,0.025459802286491005
2829.0,0.024397900458205828
2828.0,0.02344196414387852
2827.0,0.022576479298362002
2826.0,0.021788935499440207
2825.0,0.02106799896802309
2824.0,0.02040318444341568
2823.0,0.0197863035285384
2822.0,0.01921359114497961
2821.0,0.018683957630450564
2820.0,0.018195185167672132
2819.0,0.017741573612559736
2818.0,0.017315535440846054
2817.0,0.016910705480396068
2816.0,0.016524170299869495
2815.0,0.016156423294436808
2814.0,0.015809272851646555
2813.0,0.01548239425811358
2812.0,0.015172128876542765
2811.0,0.014874238087038395
2810.0,0.014587901825638551
2809.0,0.014315707079559368
2808.0,0.014059547859408333
2807.0,0.013817007377763237
2806.0,0.013582460931977748
2805.0,0.013351570457538238
2804.0,0.013124440248492955
2803.0,0.012904498961070663
2802.0,0.012694692360814424
2801.0,0.012494498887827707
2800.0,0.012300912326412432
2799.0,0.012112054895089977
2798.0,0.01192868335998579
2797.0,0.011751889427419905
2796.0,0.011580490282042158
2795.0,0.01141206419852964
2794.0,0.011245978028310176
2793.0,0.011083823061499895
2792.0,0.010926623878800739
2791.0,0.010772998723480044
2790.0,0.010620604059669149
2789.0,0.010468649780345942
2788.0,0.010318388504498689
2787.0,0.010171890431407711
2786.0,0.01003099015566442
2785.0,0.009896688951877064
2784.0,0.009768922418283501
2783.0,0.009646783067556588
2782.0,0.009528940967115797
2781.0,0.009413828947764014
2780.0,0.009300125858069441
2779.0,0.009188050648069265
2778.0,0.009080081130217873
2777.0,0.008978970159644863
2776.0,0.008884870897293989
2775.0,0.00879526507154554
2774.0,0.008707686771014161
2773.0,0.008621189829177433
2772.0,0.00853514096577147
2771.0,0.0084486670832613
2770.0,0.008362579899221519
2769.0,0.008280089595991297
2768.0,0.008203694965193182
2767.0,0.008132229696582479
2766.0,0.008062676541756436
2765.0,0.007994068240149994
2764.0,0.00792778429817176
2763.0,0.007864359190694385
2762.0,0.007802121931499139
2761.0,0.007739559208659921
2760.0,0.007677437884187123
2759.0,0.007617807399036633
2758.0,0.007561981356598357
2757.0,0.007510022542109253
2756.0,0.007461239208421825
2755.0,0.007414326760112208
2754.0,0.007367663188197539
2753.0,0.007320339877411243
2752.0,0.0072728822379790024
2751.0,0.007226659537654502
2750.0,0.007182960952461209
2749.0,0.007142662486153107
2748.0,0.00710602732953307
2747.0,0.007072223596186512
2746.0,0.007039535600204386
2745.0,0.007006769420485039
2744.0,0.0069744285397768165
2743.0,0.006943892468776752
2742.0,0.006915356672461026
2741.0,0.0068871875437378684
2740.0,0.006857675761884271
2739.0,0.0068270256722520765
2738.0,0.006796846832471057
2737.0,0.006767564539623605
2736.0,0.006737303369591985
2735.0,0.006704151732863158
2734.0,0.006669192124692702
2733.0,0.006636172655839561
2732.0,0.006607564470078035
2731.0,0.006581666882350831
2730.0,0.006554037149142476
2729.0,0.006521511711884046
2728.0,0.006484220026659222
2727.0,0.006444157020858987
2726.0,0.0064027605154759306
2725.0,0.006360344007425767
2724.0,0.0063172904702557195
2723.0,0.0062749033683715235
2722.0,0.006234722873094567
2721.0,0.006197530318826281
2720.0,0.006163329613142737
2719.0,0.006131727494563577
2718.0,0.006101546882785314
2717.0,0.006070559718195487
2716.0,0.00603706851943662
2715.0,0.0060020919234018465
2714.0,0.005968547102906389
2713.0,0.005937518245912893
2712.0,0.005906747457993987
2711.0,0.005873944727525713
2710.0,0.005840341491564337
2709.0,0.005809069128927023
2708.0,0.005781063927673588
2707.0,0.005754701069367304
2706.0,0.005728902370841167
2705.0,0.0057040880066027665
2704.0,0.0056797437427614115
2703.0,0.005653603074200569
2702.0,0.0056243987577705885
2701.0,0.005593893295637652
2700.0,0.0055651507736038715
2699.0,0.005539910842324929
2698.0,0.0055182198889072625
2697.0,0.005499233191134156
2696.0,0.005481536637375298
2695.0,0.005464015767392178
2694.0,0.005447390161917053
2693.0,0.005433909359959151
2692.0,0.005424861176406651
2691.0,0.0054192359710870846
2690.0,0.005415135170826332
2689.0,0.0054111271694858255
2688.0,0.005405911121206503
2687.0,0.005398543856727563
2686.0,0.005389917648878636
2685.0,0.0053822901170629935
2684.0,0.00537613927700054
2683.0,0.005369144298140909
2682.0,0.005359805019808041
2681.0,0.005350421802604842
2680.0,0.005344377610357636
2679.0,0.005341408002685337
2678.0,0.005337601748865917
2677.0,0.005329740281105674
2676.0,0.005318103245479597
2675.0,0.005305328709908928
2674.0,0.0052942839741120335
2673.0,0.005286884060486185
2672.0,0.005283441647423057
2671.0,0.005282455137168355
2670.0,0.0052815962289057
2669.0,0.0052791387603911746
2668.0,0.005274423673336018
2667.0,0.005267690939965604
2666.0,0.0052599637615804605
2665.0,0.0052524859878763114
2664.0,0.005245530143551883
2663.0,0.005238359893491247
2662.0,0.005230734212662121
2661.0,0.005223537296027527
2660.0,0.005217290057839432
2659.0,0.005211146555884569
2658.0,0.005204268552965616
2657.0,0.005197042466060345
2656.0,0.005189734238417227
2655.0,0.005181075336899261
2654.0,0.0051697541123546095
2653.0,0.0051566443269986705
2652.0,0.005143964111983775
2651.0,0.005132740714658037
2650.0,0.005122605207753869
2649.0,0.005113618811600625
2648.0,0.005106671616923637
2647.0,0.005102137111388973
2646.0,0.005099426080336831
2645.0,0.005097853357365905
2644.0,0.005096959264669752
2643.0,0.005096271118029932
2642.0,0.005095725671778578
2641.0,0.005095698756410897
2640.0,0.0050954214258693755
2639.0,0.005092173332021033
2638.0,0.005083949322322426
2637.0,0.005072469513074045
2636.0,0.005061556392176224
2635.0,0.005052247731697071
2634.0,0.005041291896606344
2633.0,0.005025057143637774
2632.0,0.00500347201568739
2631.0,0.004979578665742847
2630.0,0.0049563555090892395
2629.0,0.00493470996164381
2628.0,0.004913739256539822
2627.0,0.004892104805497432
2626.0,0.00486935857811356
2625.0,0.004845995824276306
2624.0,0.004822105501403094
2623.0,0.004796565556331872
2622.0,0.004768543608990022
2621.0,0.00473945685924829
2620.0,0.004712176914802642
2619.0,0.004687987637599224
2618.0,0.004665301266846811
2617.0,0.004641757696563103
2616.0,0.004617034466077417
2615.0,0.0045932943740619545
2614.0,0.004573174399492985
2613.0,0.004557413878586426
2612.0,0.004544091149247759
2611.0,0.0045301676550803605
2610.0,0.0045138086379501365
2609.0,0.004495178524175063
2608.0,0.004475353106411159
2607.0,0.004455335365729075
2606.0,0.004436187106336902
2605.0,0.004418692371366063
2604.0,0.0044020852771375135
2603.0,0.004384360681762624
2602.0,0.004365062986247494
2601.0,0.004346973149598587
2600.0,0.004333509496434129
2599.0,0.004324643715047826
2598.0,0.00431646055918183
2597.0,0.004304582154136955
2596.0,0.004287453058679285
2595.0,0.004267074850317937
2594.0,0.004247478099741048
2593.0,0.004231720202849806
2592.0,0.004218659709756922
2591.0,0.004203039908132357
2590.0,0.004180840328779583
2589.0,0.004154717337963684
2588.0,0.004132147803595993
2587.0,0.0041171907761906705
2586.0,0.004105894358469494
2585.0,0.004091571017137131
2584.0,0.004073111299341763
2583.0,0.004055391679980218
2582.0,0.004041763274995722
2581.0,0.004029096205379564
2580.0,0.00401206231860341
2579.0,0.003990032860414122
2578.0,0.0039672816524591835
2577.0,0.003947578989668054
2576.0,0.003931381468314268
2575.0,0.003918073366068993
2574.0,0.003907677858537096
2573.0,0.003899117624735199
2572.0,0.0038893394436372783
2571.0,0.0038759205848722684
2570.0,0.0038591678057697592
2569.0,0.003840775181524124
2568.0,0.003822470318856074
2567.0,0.003806956918722644
2566.0,0.0037972520209903693
2565.0,0.0037924834035016584
2564.0,0.0037864556428057958
2563.0,0.003773440354984522
2562.0,0.0037543562243073907
2561.0,0.003734989804512175
2560.0,0.0037196492366740217
2559.0,0.003709217750586701
2558.0,0.0037036469106454997
2557.0,0.003702113015863333
2556.0,0.0037009263451574827
2555.0,0.0036952202185217857
2554.0,0.0036839865097699903
2553.0,0.0036712560738318767
2552.0,0.0036616347654116243
2551.0,0.0036562542115619427
2550.0,0.00365272571584852
2549.0,0.0036470019191461164
2548.0,0.0036357339616223004
2547.0,0.0036189640895589424
2546.0,0.003600219739695598
2545.0,0.0035824042300571486
2544.0,0.0035648298423852946
2543.0,0.0035463687852151805
2542.0,0.0035294219964768746
2541.0,0.0035169455571868544
2540.0,0.003506874775767958
2539.0,0.003494327486148441
2538.0,0.003479188037251831
2537.0,0.0034667902165639777
2536.0,0.0034604603781055706
2535.0,0.0034577437425362366
2534.0,0.003455360120071701
2533.0,0.003453775696727312
2532.0,0.0034547141884362746
2531.0,0.003457405418560971
2530.0,0.003459495248779536
2529.0,0.003459053342221693
2528.0,0.0034539473341359374
2527.0,0.0034420835487436307
2526.0,0.0034247853625777843
2525.0,0.003407992580494128
2524.0,0.0033974936557495993
2523.0,0.0033936569040189223
2522.0,0.003392038666622973
2521.0,0.003387866879632377
2520.0,0.0033790096332821876
2519.0,0.0033663269166960916
2518.0,0.003352816385130345
2517.0,0.0033415623578913834
2516.0,0.0033332313758992803
2515.0,0.0033257633885106514
2514.0,0.003316690925231727
2513.0,0.0033050513858380115
2512.0,0.0032912939214608397
2511.0,0.0032767096999686707
2510.0,0.00326313169996479
2509.0,0.0032520262006060494
2508.0,0.0032436830938916673
2507.0,0.003237938630768962
2506.0,0.003234907636099211
2505.0,0.0032335711539907067
2504.0,0.0032304245603477695
2503.0,0.0032215664312655423
2502.0,0.00320617325122908
2501.0,0.0031867801666244423
2500.0,0.0031668846492789865
2499.0,0.0031496244161521966
2498.0,0.0031374679761340513
2497.0,0.003130646905859112
2496.0,0.0031264029595072193
2495.0,0.0031217521544454462
2494.0,0.0031164879225630115
2493.0,0.0031117944519387384
2492.0,0.0031072760041857515
2491.0,0.0031019530807068034
2490.0,0.0030970035297031833
2489.0,0.0030942089795860557
2488.0,0.0030920672881592517
2487.0,0.003086680137040171
2486.0,0.0030767477019363275
2485.0,0.0030650724249913818
2484.0,0.003054876836103445
2483.0,0.003046808600235544
2482.0,0.0030396072914078754
2481.0,0.003031683504274749
2480.0,0.0030221208813953383
2479.0,0.003011936532188526
2478.0,0.00300398257371306
2477.0,0.0029997944632807285
2476.0,0.00299713162204003
2475.0,0.0029924818365748853
2474.0,0.0029851720344031764
2473.0,0.0029771250099322848
2472.0,0.0029696557197751057
2471.0,0.002962564110894533
2470.0,0.002955203139887107
2469.0,0.002946428499634975
2468.0,0.002935045522795909
2467.0,0.0029225715919734014
2466.0,0.0029137476729826205
2465.0,0.002911578402963087
2464.0,0.0029134566498822422
2463.0,0.002914758822210697
2462.0,0.0029140901446974505
2461.0,0.0029118835882960496
2460.0,0.002906466539691361
2459.0,0.002896086345915308
2458.0,0.0028834654525265015
2457.0,0.0028739120690937205
2456.0,0.0028694679704964593
2455.0,0.002868392091475799
2454.0,0.002869174735057973
2453.0,0.002871122615132675
2452.0,0.0028721879778170595
2451.0,0.0028704813331351248
2450.0,0.0028670919833300944
2449.0,0.0028633911299196313
2448.0,0.002856804369299576
2447.0,0.0028440183563068298
2446.0,0.002827651911494636
2445.0,0.0028148018382560445
2444.0,0.002808932764372934
2443.0,0.0028073674533662125
2442.0,0.002806348999440228
2441.0,0.0028041178145673256
2440.0,0.002799349766350577
2439.0,0.0027914075518375285
2438.0,0.002782678734365185
2437.0,0.0027767584859835267
2436.0,0.0027740429304881375
2435.0,0.002772383537665626
2434.0,0.002771217945797859
2433.0,0.0027710483030509384
2432.0,0.0027699640776181977
2431.0,0.0027655602728036714
2430.0,0.002759764033440011
2429.0,0.0027568576016744222
2428.0,0.0027571070551283884
2427.0,0.002757353362781066
2426.0,0.002757475903772931
2425.0,0.0027605873728323736
2424.0,0.0027664740171148435
2423.0,0.0027705498782918986
2422.0,0.0027704501452655403
2421.0,0.0027684470315014176
2420.0,0.002766105497169953
2419.0,0.002761645885857257
2418.0,0.0027542418830169522
2417.0,0.0027463833416487265
2416.0,0.0027403348302866663
2415.0,0.0027362175597493515
2414.0,0.002734709448164409
2413.0,0.0027371481722723986
2412.0,0.0027412966802023144
2411.0,0.002741380099888466
2410.0,0.0027346628447076637
2409.0,0.002724544358343856
2408.0,0.00271497299888038
2407.0,0.002705076131914365
2406.0,0.0026917589737471596
2405.0,0.0026748590537894515
2404.0,0.0026573438697946477
2403.0,0.002642402399216658
2402.0,0.002632059571981727
2401.0,0.0026269701847072445
2400.0,0.002626181531141425
2399.0,0.002628114791398688
2398.0,0.0026320694355818396
2397.0,0.002637479927272828
2396.0,0.0026422304702400676
2395.0,0.0026439693705936217
2394.0,0.0026427838033431985
2393.0,0.0026401895926859236
2392.0,0.0026360663879156534
2391.0,0.002629436835831407
2390.0,0.002622127500385998
2389.0,0.002618813672359176
2388.0,0.0026231143598082454
2387.0,0.0026357970314303376
2386.0,0.0026562122406472394
2385.0,0.002682087099237077
2384.0,0.0027073180242095088
2383.0,0.0027228944817146434
2382.0,0.002721458674235982
2381.0,0.0027004085947223084
2380.0,0.0026620542818866968
2379.0,0.0026142642014434017
2378.0,0.002570715764858323
2377.0,0.002545562562746688
2376.0,0.0025450723870883048
2375.0,0.0025652542383373667
2374.0,0.002596472107435194
2373.0,0.00262812959651035
2372.0,0.0026518123964104023
2371.0,0.0026668242905143447
2370.0,0.002681486531477737
2369.0,0.002701693910383323
2368.0,0.0027201299549973867
2367.0,0.0027252974550706
2366.0,0.002717143565912019
2365.0,0.0027038874912797234
2364.0,0.0026903328113026563
2363.0,0.002683887552250354
2362.0,0.0026998944196045763
2361.0,0.002742393913590543
2360.0,0.002790154825106591
2359.0,0.0028152862902173174
2358.0,0.0028085549653156373
2357.0,0.00277857329083179
2356.0,0.002736467188497859
2355.0,0.002697209574655046
2354.0,0.0026716666088355255
2353.0,0.002664907975146165
2352.0,0.0026788361229871673
2351.0,0.0027118321015949113
2350.0,0.0027534694364705903
2349.0,0.002785143424147318
2348.0,0.0027971144864769194
2347.0,0.0027971719180019433
2346.0,0.0028058903105766583
2345.0,0.002837162265420731
2344.0,0.0028792672835167596
2343.0,0.0029119231700247294
2342.0,0.002917383841069422
2341.0,0.0028967056605911983
2340.0,0.002868484275944034
2339.0,0.002850596324478171
2338.0,0.002845613473327048
2337.0,0.002841164006257767
2336.0,0.002830357880302053
2335.0,0.0028166625913684023
2334.0,0.0028090750045215436
2333.0,0.0028082612547597426
2332.0,0.0028137840538723265
2331.0,0.002822802376249452
2330.0,0.002841901640699795
2329.0,0.0028726430921717865
2328.0,0.002917436556908337
2327.0,0.0029715560214499323
2326.0,0.003029103324762594
2325.0,0.003078715122714168
2324.0,0.00310598472573191
2323.0,0.003102824794065655
2322.0,0.0030739840406013245
2321.0,0.0030330068961221144
2320.0,0.0029926246623130583
2319.0,0.0029593459677761317
2318.0,0.0029390838278788136
2317.0,0.0029292215984321733
2316.0,0.0029244520067890347
2315.0,0.002919270932963079
2314.0,0.0029195553445103706
2313.0,0.00292731219125442
2312.0,0.0029388820389974262
2311.0,0.0029450575884418474
2310.0,0.0029466909098297056
2309.0,0.0029463565383501195
2308.0,0.0029441645346453948
2307.0,0.0029369437260054585
2306.0,0.002929157851177957
2305.0,0.0029258901306316205
2304.0,0.002926269494242329
2303.0,0.002923874669411631
2302.0,0.0029195521374260243
2301.0,0.0029178009293964894
2300.0,0.0029196287838898437
2299.0,0.0029191788424690985
2298.0,0.0029155072942199014
2297.0,0.002911495840952344
2296.0,0.002908980174395874
2295.0,0.002904950913333421
2294.0,0.0028989079730967924
2293.0,0.00289225329219789
2292.0,0.00288479557008326
2291.0,0.002875434319636432
2290.0,0.0028675231289261994
2289.0,0.002866211365047732
2288.0,0.002870755901429334
2287.0,0.0028757913355201017
2286.0,0.0028782360096380323
2285.0,0.002877467737082187
2284.0,0.0028698507198238192
2283.0,0.0028532826972163475
2282.0,0.0028352052202686375
2281.0,0.002827752102506966
2280.0,0.0028326457672333137
2279.0,0.0028396459937801654
2278.0,0.002839400216348386
2277.0,0.0028305959872879987
2276.0,0.002815165910306432
2275.0,0.0027956544118401968
2274.0,0.002777986642174395
2273.0,0.0027673658220914166
2272.0,0.002761412329527381
2271.0,0.0027543898795997597
2270.0,0.002747651957435424
2269.0,0.0027463850625040736
2268.0,0.0027477648351586265
2267.0,0.0027431233934390614
2266.0,0.002732076129482338
2265.0,0.002724033604460844
2264.0,0.0027244349874116953
2263.0,0.0027289292878102185
2262.0,0.0027320600556651744
2261.0,0.0027335973793781976
2260.0,0.002735269870638117
2259.0,0.002738791733990144
2258.0,0.0027452800764234415
2257.0,0.002749865034896709
2256.0,0.00274067481886143
2255.0,0.0027131737095519213
2254.0,0.0026824348819835604
2253.0,0.0026692997205985895
2252.0,0.0026776742087813946
2251.0,0.00269518594594983
2250.0,0.002712451322302134
2249.0,0.002727253441815578
2248.0,0.0027348852121450184
2247.0,0.0027294720102896105
2246.0,0.002716610726154786
2245.0,0.002709695777384794
2244.0,0.0027121032637658455
2243.0,0.0027144915592968275
2242.0,0.0027108794778599337
2241.0,0.002705194488075634
2240.0,0.0027020863262958773
2239.0,0.002702691813323631
2238.0,0.0027093864518160436
2237.0,0.0027226308703404496
2236.0,0.002732928471467714
2235.0,0.002728280183497167
2234.0,0.0027105184659743315
2233.0,0.002693884833178668
2232.0,0.0026868864208652423
2231.0,0.0026865652752439385
2230.0,0.0026891598243903225
2229.0,0.002694749334797518
2228.0,0.0027014039228348
2227.0,0.0027053469322786522
2226.0,0.002706219083468012
2225.0,0.0027036388300533246
2224.0,0.002692424677107542
2223.0,0.0026716737034629193
2222.0,0.0026536833460863744
2221.0,0.0026521394143915085
2220.0,0.002664879372459195
2219.0,0.0026799936997488312
2218.0,0.002692790895143714
2217.0,0.002704208818090536
2216.0,0.002710044186554247
2215.0,0.0027064653221868422
2214.0,0.0026997620109926973
2213.0,0.0026961958988507774
2212.0,0.0026896805016892395
2211.0,0.0026753115490107736
2210.0,0.0026662632482343652
2209.0,0.002677781720136524
2208.0,0.002701517771950892
2207.0,0.0027156501093235923
2206.0,0.002714894840725116
2205.0,0.0027103394779920613
2204.0,0.002706334793669023
2203.0,0.0026998668597837936
2202.0,0.0026973925233375606
2201.0,0.0027085143072827747
2200.0,0.0027245071790859303
2199.0,0.00272541418396087
2198.0,0.0027077065108306866
2197.0,0.002685853893153499
2196.0,0.002669645673101769
2195.0,0.002659804635720942
2194.0,0.0026617570682905254
2193.0,0.0026808376602203234
2192.0,0.002705750143100294
2191.0,0.002719417268703436
2190.0,0.0027240052013982764
2189.0,0.002733780234830382
2188.0,0.002746718084204182
2187.0,0.0027471071789136746
2186.0,0.002734131699224958
2185.0,0.0027226206269505187
2184.0,0.0027150332192904768
2183.0,0.002698421792633156
2182.0,0.0026723663927316586
2181.0,0.0026560427112012216
2180.0,0.0026628723411534
2179.0,0.002686880444549284
2178.0,0.0027137074969229126
2177.0,0.0027268453378648774
2176.0,0.0027098059403939463
2175.0,0.0026655767410044286
2174.0,0.0026286963249939417
2173.0,0.0026340030958300993
2172.0,0.002676204056939938
2171.0,0.0027220256642753356
2170.0,0.0027539669985101245
2169.0,0.0027785902904152856
2168.0,0.0028007666962577117
2167.0,0.002816998551058854
2166.0,0.002832337950614557
2165.0,0.0028574737465448465
2164.0,0.0028875944799732203
2163.0,0.0029064284648883548
2162.0,0.0029067906560185713
2161.0,0.0028826909305310075
2160.0,0.002811698817212585
2159.0,0.002683590404871378
2158.0,0.002543036666654505
2157.0,0.0024574777352909566
2156.0,0.0024445258385993136
2155.0,0.002470533090743065
2154.0,0.002503737822725906
2153.0,0.0025330664075014055
2152.0,0.0025523974556685655
2151.0,0.0025586171401165104
2150.0,0.002559879857684197
2149.0,0.0025630570946534345
2148.0,0.002558675036867997
2147.0,0.002538174375486088
2146.0,0.0025153451695141076
2145.0,0.002508466097627122
2144.0,0.0025121561007258033
2143.0,0.0025098232777742316
2142.0,0.0025028545235818178
2141.0,0.002503156822545485
2140.0,0.002506412864670989
2139.0,0.0024972791779368435
2138.0,0.002473893078860236
2137.0,0.0024451285109695527
2136.0,0.0024112687050195057
2135.0,0.0023696649668427123
2134.0,0.002332645765085507
2133.0,0.002316701379029144
2132.0,0.002319534177823068
2131.0,0.002327112769554375
2130.0,0.002336518525178615
2129.0,0.002353153972975778
2128.0,0.0023736861875916864
2127.0,0.0023899044475106405
2126.0,0.0024032337889566702
2125.0,0.0024184879025555828
2124.0,0.002429257432330863
2123.0,0.002426535055258855
2122.0,0.002416290888795629
2121.0,0.0024122406314678086
2120.0,0.002416064084212524
2119.0,0.0024215316374664427
2118.0,0.0024319679927706605
2117.0,0.0024554368152570685
2116.0,0.0024864462250597163
2115.0,0.0025103821509159245
2114.0,0.0025235263163679612
2113.0,0.0025323843776629473
2112.0,0.0025371577303050456
2111.0,0.0025326560710811088
2110.0,0.0025222384666889887
2109.0,0.0025135678829560372
2108.0,0.0025041474026249845
2107.0,0.0024888247933180386
2106.0,0.0024773173292603028
2105.0,0.0024838737281544926
2104.0,0.0025021801941965943
2103.0,0.0025106828893063475
2102.0,0.0025022711127841006
2101.0,0.002489498256231677
2100.0,0.0024820530958078015
2099.0,0.0024773020911955843
2098.0,0.0024726062529246188
2097.0,0.0024680016331127394
2096.0,0.0024572566841778993
2095.0,0.0024342235241074446
2094.0,0.0024077522482372736
2093.0,0.002393455742689834
2092.0,0.0023928221544358597
2091.0,0.0023964148195941646
2090.0,0.002402646937352208
2089.0,0.0024160221554769073
2088.0,0.00243106125925938
2087.0,0.0024366103409003575
2086.0,0.002433843900116104
2085.0,0.0024333035378590454
2084.0,0.002437418365066671
2083.0,0.002442635865903981
2082.0,0.0024539926414072805
2081.0,0.002477579520175473
2080.0,0.002501775528724548
2079.0,0.002507013034162614
2078.0,0.002493022512885197
2077.0,0.0024776556085809383
2076.0,0.0024711018869490505
2075.0,0.0024698079333306533
2074.0,0.002473057419073301
2073.0,0.002484282040661878
2072.0,0.0024978936001011547
2071.0,0.002504609301485595
2070.0,0.002507170723816881
2069.0,0.0025124587036132783
2068.0,0.002514056991058882
2067.0,0.0025036283445163286
2066.0,0.0024919190172017747
2065.0,0.0024942704359290514
2064.0,0.002501778378247128
2063.0,0.002494021889531977
2062.0,0.0024733920470482616
2061.0,0.0024582328702874683
2060.0,0.0024494727628041686
2059.0,0.002433844573235794
2058.0,0.0024160802981612194
2057.0,0.0024152799691362784
2056.0,0.0024301858543541916
2055.0,0.0024395999266815845
2054.0,0.0024402405687178382
2053.0,0.002452844055425098
2052.0,0.002486177210860886
2051.0,0.002523122173142183
2050.0,0.0025463866892099897
2049.0,0.0025539729901930593
2048.0,0.0025475168508737917
2047.0,0.0025310663304927796
2046.0,0.0025225994320829405
2045.0,0.002538407874165068
2044.0,0.0025649430302617324
2043.0,0.0025740849608769253
2042.0,0.0025621537149660015
2041.0,0.002546133716302458
2040.0,0.0025299339309292897
2039.0,0.002508834179312494
2038.0,0.002498727784195934
2037.0,0.0025191811663630194
2036.0,0.002552652769746903
2035.0,0.0025628939143521896
2034.0,0.002550054781469644
2033.0,0.0025444691628140844
2032.0,0.0025520086957359096
2031.0,0.002554718402736276
2030.0,0.0025573933299107483
2029.0,0.0025795314525781676
2028.0,0.002604606438485374
2027.0,0.002592796346741905
2026.0,0.0025481036821857323
2025.0,0.002521885751021838
2024.0,0.002542973833734388
2023.0,0.002588456788068135
2022.0,0.0026265277361468844
2021.0,0.002645485040940901
2020.0,0.0026399299695531297
2019.0,0.002608289997274841
2018.0,0.0025673629640792115
2017.0,0.0025349288691144385
2016.0,0.0024989974224973194
2015.0,0.0024398276741706706
2014.0,0.002373414090120366
2013.0,0.0023348006194613166
2012.0,0.0023286472570599385
2011.0,0.0023378426504548646
2010.0,0.0023679437783793206
2009.0,0.0024301527044251893
2008.0,0.0024877531492575283
2007.0,0.002477976140608116
2006.0,0.0023923258000276264
2005.0,0.0022879748365175166
2004.0,0.002216202913348753
2003.0,0.002183536100583528
2002.0,0.0021801793114664732
2001.0,0.0021981407702838353
2000.0,0.0022204360773848963
1999.0,0.0022338604202519347
1998.0,0.0022550241260589497
1997.0,0.0023079988334038758
1996.0,0.0023759258596817447
1995.0,0.0024111851942029477
1994.0,0.0023936662643029203
1993.0,0.002348510536552415
1992.0,0.002306847132907892
1991.0,0.0022784759390675276
1990.0,0.0022673483738972606
1989.0,0.0022805635737187285
1988.0,0.0023134428670898814
1987.0,0.0023517912410092935
1986.0,0.002391381104101793
1985.0,0.0024314994699522895
1984.0,0.002456142454454886
1983.0,0.0024514281831385498
1982.0,0.0024333765294781372
1981.0,0.0024256004800132735
1980.0,0.002417192564260603
1979.0,0.0023807443722535216
1978.0,0.0023274067582614907
1977.0,0.002298363507039076
1976.0,0.002299980794556548
1975.0,0.0022999679172158297
1974.0,0.0022852035044523718
1973.0,0.0022701825970670004
1972.0,0.002256187290765907
1971.0,0.002232223467743086
1970.0,0.0022095354872974766
1969.0,0.0022089790759423247
1968.0,0.0022190290412139003
1967.0,0.002210597615785819
1966.0,0.002189324871502051
1965.0,0.0021859480048358644
1964.0,0.002202950548386641
1963.0,0.0022163374309299164
1962.0,0.002217876183929806
1961.0,0.0022156178314111244
1960.0,0.002203957401618967
1959.0,0.0021747836142107044
1958.0,0.002148602389618312
1957.0,0.0021526123428752936
1956.0,0.0021767087595317308
1955.0,0.0021899659993360227
1954.0,0.0021899392019424533
1953.0,0.002197268034729088
1952.0,0.002211627737339761
1951.0,0.002213429096491416
1950.0,0.0022022768703216233
1949.0,0.0021961914107223447
1948.0,0.002196949977350257
1947.0,0.0021900055452805925
1946.0,0.002174419325464352
1945.0,0.0021605266944638214
1944.0,0.002144158538700768
1943.0,0.002116936642934931
1942.0,0.002096087374640299
1941.0,0.002103677127927692
1940.0,0.002124529166382858
1939.0,0.0021268744786659627
1938.0,0.0021094475190139685
1937.0,0.00209614869620038
1936.0,0.00209510582200695
1935.0,0.0020946530777198615
1934.0,0.002093801430141233
1933.0,0.002101743845672025
1932.0,0.0021110509327321187
1931.0,0.002105581717205468
1930.0,0.0020910270218364004
1929.0,0.0020874555104238874
1928.0,0.0020958596840960197
1927.0,0.0021003724724489403
1926.0,0.0020984890488025833
1925.0,0.00209972060337113
1924.0,0.0020993982846568716
1923.0,0.0020853494114244815
1922.0,0.002069119214288392
1921.0,0.00207482594263814
1920.0,0.002099812764598108
1919.0,0.0021171823531047065
1918.0,0.0021143381378472847
1917.0,0.002107290526331607
1916.0,0.002109019506432322
1915.0,0.002113938316779534
1914.0,0.0021186560503864598
1913.0,0.0021262424553617717
1912.0,0.002131053523816134
1911.0,0.00212333656781727
1910.0,0.0021087944343835506
1909.0,0.002103183117185602
1908.0,0.002107399667472324
1907.0,0.0021092548058276035
1906.0,0.00210780165638115
1905.0,0.002112520784693827
1904.0,0.0021217455028813854
1903.0,0.0021256995180226976
1902.0,0.0021276654544345806
1901.0,0.0021397582395114474
1900.0,0.0021586765310198847
1899.0,0.0021677309101841642
1898.0,0.002162731019667627
1897.0,0.0021545126843728175
1896.0,0.0021480095432143214
1895.0,0.0021392435391357047
1894.0,0.0021317126808621223
1893.0,0.00213267956346021
1892.0,0.002134982715212393
1891.0,0.002123900315261051
1890.0,0.0021011266118407816
1889.0,0.0020844952099612233
1888.0,0.0020787978403672214
1887.0,0.0020712433693077232
1886.0,0.0020587160453747607
1885.0,0.002051976788531799
1884.0,0.002053206165946421
1883.0,0.0020529894651759154
1882.0,0.0020491175667648248
1881.0,0.002048532249876337
1880.0,0.0020494200792329515
1879.0,0.0020415463311152754
1878.0,0.002025742069073811
1877.0,0.0020144062099081254
1876.0,0.002011640044997169
1875.0,0.002011162729396908
1874.0,0.0020122738430807677
1873.0,0.002018742405911606
1872.0,0.0020237041936844932
1871.0,0.0020142408876491816
1870.0,0.0019917762067944243
1869.0,0.0019743448287559756
1868.0,0.001972063619172234
1867.0,0.0019761884877196336
1866.0,0.0019790558448418228
1865.0,0.0019841835667567128
1864.0,0.0019919489276160256
1863.0,0.0019957880114180016
1862.0,0.001994697264117375
1861.0,0.001993094088992388
1860.0,0.001988552378339771
1859.0,0.001976222888355384
1858.0,0.00196325514090023
1857.0,0.001961650440358331
1856.0,0.0019695391407986065
1855.0,0.001975709891721051
1854.0,0.0019800704050800108
1853.0,0.0019908170448895055
1852.0,0.0020043453211303157
1851.0,0.0020078212048485287
1850.0,0.002000211812982486
1849.0,0.001992574553529213
1848.0,0.00198870894248705
1847.0,0.0019827538341415114
1846.0,0.00197401236341382
1845.0,0.0019679085724445063
1844.0,0.0019643295953593824
1843.0,0.0019612453245968285
1842.0,0.0019652052772519022
1841.0,0.0019823541680046007
1840.0,0.002003086326509856
1839.0,0.0020073404632418627
1838.0,0.0019918850043331884
1837.0,0.001976300461574267
1836.0,0.0019733230290325406
1835.0,0.001974660717339514
1834.0,0.001971676567453663
1833.0,0.001967039559611841
1832.0,0.0019609618838595834
1831.0,0.001946707102060841
1830.0,0.001929926426729856
1829.0,0.0019315902738367737
1828.0,0.0019518301578029837
1827.0,0.0019684620369573766
1826.0,0.0019717505740848027
1825.0,0.001969458619802958
1824.0,0.0019685825420347127
1823.0,0.0019692859108304413
1822.0,0.001974029503147092
1821.0,0.0019849920576031402
1820.0,0.001990406369116034
1819.0,0.001974925265446448
1818.0,0.0019460694114077585
1817.0,0.0019300011197839009
1816.0,0.001938705601191772
1815.0,0.0019597224625570882
1814.0,0.0019782489202970683
1813.0,0.0019898496639182994
1812.0,0.0019923091898926713
1811.0,0.001985673748244497
1810.0,0.0019793967467341637
1809.0,0.0019809627483632596
1808.0,0.0019840568317440227
1807.0,0.0019807552728039832
1806.0,0.001975954426917108
1805.0,0.0019788806906343268
1804.0,0.0019874867117749863
1803.0,0.001993442788548124
1802.0,0.001998176128236978
1801.0,0.0020090770045632805
1800.0,0.002021930664990357
1799.0,0.002025536866038942
1798.0,0.0020195812859191906
1797.0,0.0020131757892117223
1796.0,0.002010408708291343
1795.0,0.0020088027378268435
1794.0,0.002007963724594275
1793.0,0.0020076535612411402
1792.0,0.0020015935083372363
1791.0,0.0019908717345783235
1790.0,0.0019891586173285784
1789.0,0.0020027160765633155
1788.0,0.002021462099874835
1787.0,0.0020296150561034047
1786.0,0.0020241335782830382
1785.0,0.0020162604453037784
1784.0,0.002012265682542593
1783.0,0.0020060106735292184
1782.0,0.0019947721082644236
1781.0,0.0019853572239606682
1780.0,0.0019819054570335364
1779.0,0.001982338462279565
1778.0,0.0019864369601262574
1777.0,0.0019959171857377757
1776.0,0.00200716937044237
1775.0,0.0020135776593410704
1774.0,0.0020158809113788043
1773.0,0.00201738541858644
1772.0,0.0020138649271323967
1771.0,0.0020051981956230617
1770.0,0.0020042901307429635
1769.0,0.0020209126030243155
1768.0,0.0020458352200344696
1767.0,0.002059539642158348
1766.0,0.002061845474208753
1765.0,0.002067790789261479
1764.0,0.002080100875520369
1763.0,0.0020840777607489796
1762.0,0.0020745097716051643
1761.0,0.0020697618368738465
1760.0,0.0020764225431194323
1759.0,0.002080890696548259
1758.0,0.0020807752373406324
1757.0,0.0020879733551060964
1756.0,0.0021045572309146207
1755.0,0.0021178738386740652
1754.0,0.0021263516074130407
1753.0,0.002143376409811415
1752.0,0.0021685843892979327
1751.0,0.0021785975495562694
1750.0,0.0021688080537821536
1749.0,0.0021677524117637995
1748.0,0.0021881146366393425
1747.0,0.0022134776132724855
1746.0,0.0022340444165353957
1745.0,0.0022579943658503645
1744.0,0.0022890747558365647
1743.0,0.002321403467851691
1742.0,0.0023610090317971455
1741.0,0.0024229099983812323
1740.0,0.0024978197680701453
1739.0,0.002554061794760472
1738.0,0.0025888940486117214
1737.0,0.0026341097179417316
1736.0,0.0027109305723549797
1735.0,0.0028002044498931285
1734.0,0.002861956126956724
1733.0,0.0029012308654340077
1732.0,0.0029365329549541023
1731.0,0.0029638564175664493
1730.0,0.0029949113062919088
1729.0,0.003048620579321054
1728.0,0.003121167823856941
1727.0,0.003189102308382278
1726.0,0.0032455055699191506
1725.0,0.00330388269323553
1724.0,0.00336607932285513
1723.0,0.003414956201907784
1722.0,0.0034478158156166423
1721.0,0.003485866256882144
1720.0,0.0035419990485045954
1719.0,0.0036007681793679734
1718.0,0.0036436898798591208
1717.0,0.0036856199171991675
1716.0,0.0037399406220403747
1715.0,0.003791173685011062
1714.0,0.00383990983243085
1713.0,0.0039044625709035233
1712.0,0.003983574297557108
1711.0,0.004059746135206859
1710.0,0.004130879485649135
1709.0,0.004213457039961336
1708.0,0.0043124317715050485
1707.0,0.004414719114323307
1706.0,0.004516780314997418
1705.0,0.00463185275232019
1704.0,0.004759322724353736
1703.0,0.004891039122557734
1702.0,0.005053008043376035
1701.0,0.005288898910442914
1700.0,0.005557368884303323
1699.0,0.0057497172639398835
1698.0,0.005881410193461226
1697.0,0.006050381942318802
1696.0,0.006298953950400255
1695.0,0.006558266411961206
1694.0,0.006761651634543077
1693.0,0.006930492892399832
1692.0,0.007109648392260796
1691.0,0.007307484723921569
1690.0,0.007511224390165553
1689.0,0.0077159372038681125
1688.0,0.007920414321160477
1687.0,0.008123315108817959
1686.0,0.008348449502002923
1685.0,0.008637906286783653
1684.0,0.008963753675035829
1683.0,0.009227863178906328
1682.0,0.00942355424908616
1681.0,0.009611679674499225
1680.0,0.009827804761143711
1679.0,0.010049740888235615
1678.0,0.010262011233157875
1677.0,0.01049212949659652
1676.0,0.010764834181332
1675.0,0.011040623386136459
1674.0,0.01126407713490168
1673.0,0.011449749617408501
1672.0,0.01164105035932228
1671.0,0.011854140491869874
1670.0,0.0120814515417716
1669.0,0.012318572141563424
1668.0,0.012549762534618807
1667.0,0.012747925129675179
1666.0,0.012920737886387756
1665.0,0.013105386791376022
1664.0,0.013319769757805619
1663.0,0.013537964149578318
1662.0,0.013729580914979138
1661.0,0.013903081669002735
1660.0,0.014071252966031761
1659.0,0.014224528903013255
1658.0,0.014353189088874951
1657.0,0.014470301829441557
1656.0,0.014596295719964967
1655.0,0.014733144279984454
1654.0,0.01484219937246523
1653.0,0.014904257329274088
1652.0,0.014964929717901929
1651.0,0.014995056432900134
1650.0,0.014987631673164373
1649.0,0.01499287272311416
1648.0,0.015015015511311304
1647.0,0.015021140623065385
1646.0,0.0150088251250834
1645.0,0.015008973206164388
1644.0,0.015009902060023025
1643.0,0.014991990169805526
1642.0,0.014957624723769242
1641.0,0.014921967488564995
1640.0,0.01489336227137636
1639.0,0.01486428841090336
1638.0,0.014822666062802567
1637.0,0.014755303903891865
1636.0,0.014648770352744754
1635.0,0.014527179628208806
1634.0,0.014427143941874672
1633.0,0.014343357809015333
1632.0,0.014261390740067457
1631.0,0.014166605634857738
1630.0,0.014044434323227316
1629.0,0.013893504555836817
1628.0,0.013727182819224401
1627.0,0.013562591614798414
1626.0,0.013406721405985936
1625.0,0.013249484438819757
1624.0,0.013067080611384908
1623.0,0.012852908152773814
1622.0,0.012644912002038005
1621.0,0.012477656058710263
1620.0,0.012342322049513887
1619.0,0.01220693264008265
1618.0,0.012035023100565256
1617.0,0.011812410103646958
1616.0,0.011581652598223798
1615.0,0.011388579017773993
1614.0,0.011229118297141632
1613.0,0.011085116778303932
1612.0,0.01094242605042537
1611.0,0.010791688313926734
1610.0,0.010635746030938177
1609.0,0.010484504269445754
1608.0,0.01034182778537726
1607.0,0.010206530375173438
1606.0,0.010081435450204113
1605.0,0.009968895609428888
1604.0,0.009863304062747555
1603.0,0.009758496447515523
1602.0,0.009658292524915168
1601.0,0.009569956917957536
1600.0,0.00949147477351563
1599.0,0.009415313319745178
1598.0,0.009339402843047951
1597.0,0.009264970163080545
1596.0,0.009189471970186922
1595.0,0.009111921531146042
1594.0,0.009039213282119044
1593.0,0.008977175233100465
1592.0,0.008921043101182214
1591.0,0.008864073667837829
1590.0,0.008808703992245408
1589.0,0.008761037311701081
1588.0,0.008720164731349801
1587.0,0.008682319393366724
1586.0,0.008649695293547092
1585.0,0.008625176135426156
1584.0,0.008603830332874627
1583.0,0.008580231262154032
1582.0,0.008558155442338107
1581.0,0.008544158967816705
1580.0,0.008538155439139127
1579.0,0.008537410492746322
1578.0,0.008541258344923091
1577.0,0.008542384471281583
1576.0,0.00852944414030497
1575.0,0.008509838307926901
1574.0,0.008499108604370907
1573.0,0.008505095404982004
1572.0,0.008528305152011388
1571.0,0.008556347235901535
1570.0,0.00857453990568424
1569.0,0.008588103823792518
1568.0,0.008607594427338338
1567.0,0.008628914490049058
1566.0,0.008652258703551881
1565.0,0.00868185314111367
1564.0,0.008713193632027659
1563.0,0.008744026610963329
1562.0,0.008785802993920896
1561.0,0.008849873449159202
1560.0,0.008917544990488677
1559.0,0.008935278988379562
1558.0,0.008960330640455877
1557.0,0.009030648903244407
1556.0,0.009080819242315772
1555.0,0.009112402243316017
1554.0,0.009145018329912862
1553.0,0.009187578104396613
1552.0,0.009227442503860192
1551.0,0.009249949020351454
1550.0,0.009256469182017302
1549.0,0.009262209442526767
1548.0,0.009273046055741477
1547.0,0.009280516630968546
1546.0,0.009282077734686069
1545.0,0.009281494364577723
1544.0,0.009278266165027168
1543.0,0.009267572050470779
1542.0,0.009244423893833776
1541.0,0.00918944919225413
1540.0,0.00908136969345402
1539.0,0.00896694491212755
1538.0,0.008891866408582237
1537.0,0.008842379164422536
1536.0,0.008805188055216668
1535.0,0.008761383147708164
1534.0,0.00868951206770022
1533.0,0.008599933243570303
1532.0,0.008523272720191407
1531.0,0.008463506067934879
1530.0,0.008414819464625358
1529.0,0.008373847518663376
1528.0,0.008323041759180805
1527.0,0.008247824808207791
1526.0,0.008172515539330653
1525.0,0.00813605162629658
1524.0,0.008130642492648242
1523.0,0.00810953141403057
1522.0,0.008043323253328896
1521.0,0.007969385030948224
1520.0,0.007934502232476893
1519.0,0.007916162120182904
1518.0,0.007882339666908445
1517.0,0.007827518201965753
1516.0,0.0077626694668592264
1515.0,0.007704823273827479
1514.0,0.007661166409926437
1513.0,0.007624746883169635
1512.0,0.007573058217117918
1511.0,0.007495017866841109
1510.0,0.0074193687283426665
1509.0,0.007375266332123745
1508.0,0.007319062924495075
1507.0,0.007161694278652682
1506.0,0.0070085659673566805
1505.0,0.006985265864293384
1504.0,0.007005254064607872
1503.0,0.007009900817962968
1502.0,0.007006096842170609
1501.0,0.0070095492956817485
1500.0,0.007010842251154226
1499.0,0.00698415208875014
1498.0,0.006940180108651375
1497.0,0.006923683959022063
1496.0,0.006934189834488623
1495.0,0.0069297339058625625
1494.0,0.006917394638487421
1493.0,0.006932949456829731
1492.0,0.0069695024422171264
1491.0,0.00698956232794898
1490.0,0.007006930366296012
1489.0,0.007071863949879046
1488.0,0.0071550543429915025
1487.0,0.0071980293841368
1486.0,0.0072239215293279525
1485.0,0.007291779775180782
1484.0,0.007406166530004584
1483.0,0.0075393611321209735
1482.0,0.007706315126213571
1481.0,0.007951779708150903
1480.0,0.008286945124105188
1479.0,0.008753881703202505
1478.0,0.00956136455074681
1477.0,0.011049536458054385
1476.0,0.013431625513439545
1475.0,0.016622160988174022
1474.0,0.020212474377268252
1473.0,0.02318934513606015
1472.0,0.024394016959736746
1471.0,0.02413605555524327
1470.0,0.02365399309921858
1469.0,0.023558587475032932
1468.0,0.02385803504814643
1467.0,0.024532491765817874
1466.0,0.025777192589605733
1465.0,0.02758701968287118
1464.0,0.02917647714847472
1463.0,0.029589505886435795
1462.0,0.028656619395489313
1461.0,0.02680228181264044
1460.0,0.024572267612799552
1459.0,0.02243019956293264
1458.0,0.020648697071200164
1457.0,0.019298739158626163
1456.0,0.018340783056679334
1455.0,0.01763115734263055
1454.0,0.016992087895145797
1453.0,0.016325408672238573
1452.0,0.01565031551821169
1451.0,0.015057597028499781
1450.0,0.014583551946542136
1449.0,0.014183966069212876
1448.0,0.013832656706796445
1447.0,0.0135574102607043
1446.0,0.01336135441709305
1445.0,0.013201947202732803
1444.0,0.013050784470010984
1443.0,0.012907569066120558
1442.0,0.01276917364039952
1441.0,0.012627509982394869
1440.0,0.01249132284088542
1439.0,0.012371593052995065
1438.0,0.012244391837194656
1437.0,0.012061982857781586
1436.0,0.011838760886339509
1435.0,0.011641726643033144
1434.0,0.011476916881307538
1433.0,0.011307497928536607
1432.0,0.011116344866459961
1431.0,0.010911739625137312
1430.0,0.010704145882370682
1429.0,0.010501493633281126
1428.0,0.01032348552693233
1427.0,0.010183788550365093
1426.0,0.010064331571748027
1425.0,0.009935979408932677
1424.0,0.009803977332201045
1423.0,0.009704339683482879
1422.0,0.009645319012261873
1421.0,0.00959471976837103
1420.0,0.009517959437483866
1419.0,0.009411724171310644
1418.0,0.009307201228632085
1417.0,0.009223470317921562
1416.0,0.009157312930264868
1415.0,0.009103700122236852
1414.0,0.009049784866856326
1413.0,0.008979450796015429
1412.0,0.008892267050974009
1411.0,0.008800891887694864
1410.0,0.008710652611575501
1409.0,0.008616300222226151
1408.0,0.008516657235801762
1407.0,0.00841428799767111
1406.0,0.008301206674243427
1405.0,0.0081676252764135
1404.0,0.008029752473113497
1403.0,0.007916006080498118
1402.0,0.007824490640864152
1401.0,0.007726411436226471
1400.0,0.007603377877397196
1399.0,0.007468833642579073
1398.0,0.007346019252272271
1397.0,0.007234187642101278
1396.0,0.007119817261976089
1395.0,0.0070014518321647855
1394.0,0.006889865552678219
1393.0,0.0067944258966704495
1392.0,0.006718745998976674
1391.0,0.006662790930914757
1390.0,0.006616383426685232
1389.0,0.0065635061699676756
1388.0,0.006503277575441779
1387.0,0.006456231095405646
1386.0,0.006440268379386504
1385.0,0.006458573361301469
1384.0,0.006518534962689754
1383.0,0.006633265402177986
1382.0,0.006800427479081257
1381.0,0.006997565955743081
1380.0,0.007193692387039225
1379.0,0.007348609643788409
1378.0,0.007416587779084343
1377.0,0.007374806675748387
1376.0,0.007240581650196335
1375.0,0.00705969418327268
1374.0,0.006889429735976825
1373.0,0.0067761462029885065
1372.0,0.0067296978314565405
1371.0,0.006724576751814822
1370.0,0.006719955226543801
1369.0,0.006683241817339583
1368.0,0.006609603255121714
1367.0,0.006514082060150007
1366.0,0.006403950863390425
1365.0,0.006273284417966721
1364.0,0.00612095151423438
1363.0,0.005962218362546329
1362.0,0.00581920054160659
1361.0,0.005703811923206462
1360.0,0.0056162221640393434
1359.0,0.00555196063145653
1358.0,0.005503057492421207
1357.0,0.005462733419866494
1356.0,0.005432452319080667
1355.0,0.005415717113089395
1354.0,0.005405593546266024
1353.0,0.0053887876927621505
1352.0,0.005360234735098973
1351.0,0.005322937284744835
1350.0,0.005276109028404749
1349.0,0.005217771935239636
1348.0,0.005154597227047546
1347.0,0.005095838690953245
1346.0,0.00504092894296382
1345.0,0.00498445366549199
1344.0,0.004928601797338553
1343.0,0.004878381038037789
1342.0,0.004828121265450396
1341.0,0.004765516572926638
1340.0,0.004689412837069423
1339.0,0.00461280889493971
1338.0,0.004545099913633012
1337.0,0.004484416494933409
1336.0,0.004429023748996818
1335.0,0.004380626568375659
1334.0,0.004337085873012679
1333.0,0.0042947413008184296
1332.0,0.004257211991180473
1331.0,0.004231237519306848
1330.0,0.004215081800641691
1329.0,0.004201912990895527
1328.0,0.0041921643575934045
1327.0,0.004191330584245933
1326.0,0.004197659808886456
1325.0,0.004204449040128141
1324.0,0.004211491272884198
1323.0,0.004223410940206946
1322.0,0.0042389309436746845
1321.0,0.00425212162545167
1320.0,0.004262757359097021
1319.0,0.004275713931775516
1318.0,0.004291322193927423
1317.0,0.004305826446774003
1316.0,0.004319861003516735
1315.0,0.004336546536597045
1314.0,0.004353070729246484
1313.0,0.004363345829427528
1312.0,0.004367928717170023
1311.0,0.004372311044793094
1310.0,0.004376847619357096
1309.0,0.004377395314735767
1308.0,0.004373857988424945
1307.0,0.00436983775693864
1306.0,0.004364851956379275
1305.0,0.004355910581793476
1304.0,0.004344840833896943
1303.0,0.0043360773468520296
1302.0,0.0043284652715575465
1301.0,0.004317020532668965
1300.0,0.004301471513821644
1299.0,0.004285484782729033
1298.0,0.004268972101706454
1297.0,0.004248809838176002
1296.0,0.004226221856603665
1295.0,0.004205661834740621
1294.0,0.004187543106243289
1293.0,0.004169411479495523
1292.0,0.004152971599190614
1291.0,0.0041426238666723856
1290.0,0.0041380550226216275
1289.0,0.004135331075956012
1288.0,0.00413440474550879
1287.0,0.004138543100427424
1286.0,0.004147585790655284
1285.0,0.004158884403362307
1284.0,0.004173537848972034
1283.0,0.004194737231598507
1282.0,0.004221116205994913
1281.0,0.004248306236298027
1280.0,0.00427612294019363
1279.0,0.004307730962652945
1278.0,0.004343085019855534
1277.0,0.004379201340336722
1276.0,0.004415511187870747
1275.0,0.004452995972099537
1274.0,0.004489945357678121
1273.0,0.004524441497047442
1272.0,0.004558966731622356
1271.0,0.004596646485317663
1270.0,0.004635180922360786
1269.0,0.004670731298544854
1268.0,0.0047051591007260755
1267.0,0.004742638557653349
1266.0,0.004781694800487803
1265.0,0.0048173218856887735
1264.0,0.004849294043749315
1263.0,0.004882022827766399
1262.0,0.00491787579397418
1261.0,0.004956721084828607
1260.0,0.005000408274821472
1259.0,0.0050510840320354
1258.0,0.005106532725338145
1257.0,0.005162735434024874
1256.0,0.005219339589045045
1255.0,0.0052775490911709045
1254.0,0.005335055145666688
1253.0,0.005388555943583318
1252.0,0.005439467680383168
1251.0,0.005491685292871499
1250.0,0.005545308464548454
1249.0,0.005597606411534874
1248.0,0.005648425696091767
1247.0,0.005699685849148701
1246.0,0.005751386502018679
1245.0,0.005802604331453735
1244.0,0.005854544061170718
1243.0,0.005908073720721429
1242.0,0.005960087578432706
1241.0,0.006006863111023753
1240.0,0.00604935793059678
1239.0,0.006091058357611736
1238.0,0.006132285909594987
1237.0,0.006170619807003954
1236.0,0.006205182822186956
1235.0,0.0062364124658084875
1234.0,0.006263333378898431
1233.0,0.006285276841055303
1232.0,0.0063048900486873255
1231.0,0.006325418719803862
1230.0,0.006346027706853805
1229.0,0.006363241464343725
1228.0,0.00637586029902615
1227.0,0.00638529734210614
1226.0,0.00639245195910159
1225.0,0.006397471094360374
1224.0,0.006401310430737175
1223.0,0.0064043663561522066
1222.0,0.006404689470593557
1221.0,0.00640039179017636
1220.0,0.006392531339253807
1219.0,0.006382964668716505
1218.0,0.006371039662809892
1217.0,0.006355223696584828
1216.0,0.0063363123094199985
1215.0,0.0063161977467277985
1214.0,0.006295244974079442
1213.0,0.0062738350140896845
1212.0,0.0062546055296338
1211.0,0.006239951225040173
1210.0,0.006228787690315336
1209.0,0.006218894960954225
1208.0,0.006210843376538029
1207.0,0.006206496683015638
1206.0,0.006205209541061466
1205.0,0.006204633432426264
1204.0,0.006203924684593435
1203.0,0.006203388341974184
1202.0,0.006202633100053673
1201.0,0.006201691954967182
1200.0,0.00620201185342838
1199.0,0.006203726484085388
1198.0,0.006204182548456555
1197.0,0.006201810526352339
1196.0,0.006198980271418873
1195.0,0.0061982847402713825
1194.0,0.0061986104698855925
1193.0,0.006198170892934694
1192.0,0.006198792202254479
1191.0,0.006203427662686696
1190.0,0.006211623121714083
1189.0,0.0062212749761318235
1188.0,0.006232964688883439
1187.0,0.006248616472060847
1186.0,0.006267303320862323
1185.0,0.00628606307961955
1184.0,0.00630409985621235
1183.0,0.006323393642119379
1182.0,0.006346231757032868
1181.0,0.006374275910815727
1180.0,0.006408351323680197
1179.0,0.006446744710638792
1178.0,0.006485717443414606
1177.0,0.0065239475928282244
1176.0,0.006563969337098682
1175.0,0.006606978815539868
1174.0,0.00664917386012334
1173.0,0.006686234933700321
1172.0,0.0067187642723960765
1171.0,0.006750274260725119
1170.0,0.006782570601573973
1169.0,0.006816256158377122
1168.0,0.006853152307105722
1167.0,0.006894267963578615
1166.0,0.006937030078280481
1165.0,0.006978039975832033
1164.0,0.007017357468645803
1163.0,0.007057208461116004
1162.0,0.0070977680094374395
1161.0,0.007136894585250445
1160.0,0.007172893654655312
1159.0,0.007205316316541343
1158.0,0.007234405217253383
1157.0,0.007261764798745889
1156.0,0.007290206247612469
1155.0,0.007321027881673027
1154.0,0.007352538547631798
1153.0,0.007382480771302812
1152.0,0.007410335655084213
1151.0,0.0074362916269049475
1150.0,0.007460208332150919
1149.0,0.0074829719486843894
1148.0,0.007506803050762177
1147.0,0.007532809115917288
1146.0,0.007560080831516387
1145.0,0.007588310825149127
1144.0,0.007619281362446818
1143.0,0.007654579365547726
1142.0,0.007693693026108067
1141.0,0.0077351884783671745
1140.0,0.007777648696360816
1139.0,0.00781886088204865
1138.0,0.007856756695348983
1137.0,0.007892215968740119
1136.0,0.00792876053052268
1135.0,0.007968771447058216
1134.0,0.00801203856960504
1133.0,0.008058066338926861
1132.0,0.008107068086859175
1131.0,0.008158443958210892
1130.0,0.008211052999683197
1129.0,0.008265084129052096
1128.0,0.008320754963144304
1127.0,0.008375461717842732
1126.0,0.008426024904301709
1125.0,0.008474211391624818
1124.0,0.008526581691416133
1123.0,0.008588483941929223
1122.0,0.008661230487620433
1121.0,0.008744525385733944
1120.0,0.008837147997296357
1119.0,0.008934891902669323
1118.0,0.009032425296769652
1117.0,0.009128318623124286
1116.0,0.009224652966431756
1115.0,0.009321363271857801
1114.0,0.009414894275346627
1113.0,0.009502760442765447
1112.0,0.00958546979847733
1111.0,0.009663694076102281
1110.0,0.00973738700883946
1109.0,0.00980780557766873
1108.0,0.009876369996849653
1107.0,0.00994181850737625
1106.0,0.010001776786214592
1105.0,0.010056271248492033
1104.0,0.010106319133532934
1103.0,0.010150681139028636
1102.0,0.010188360158460183
1101.0,0.010223262627979212
1100.0,0.01026132543126862
1099.0,0.010304793096841694
1098.0,0.010351688374568815
1097.0,0.01040095376770558
1096.0,0.01045326243735973
1095.0,0.010507550063958709
1094.0,0.010561002012701558
1093.0,0.01061206767572609
1092.0,0.01066015594707702
1091.0,0.010703848109308169
1090.0,0.010743129730507102
1089.0,0.01078151948774166
1088.0,0.010821829924119297
1087.0,0.010861550780566675
1086.0,0.010896573909428144
1085.0,0.010927273052049633
1084.0,0.010955854136291234
1083.0,0.010979685336899636
1082.0,0.0109930482268084
1081.0,0.010994730174359856
1080.0,0.010988616873143781
1079.0,0.010977014806178777
1078.0,0.010957956889635394
1077.0,0.01092940951112971
1076.0,0.010892663949488318
1075.0,0.010851343340110856
1074.0,0.01080961293881821
1073.0,0.010771054080685839
1072.0,0.010736999903426287
1071.0,0.010705957288766674
1070.0,0.01067578397277096
1069.0,0.010645582678048082
1068.0,0.010614881346572966
1067.0,0.010583327089453037
1066.0,0.01055261861486517
1065.0,0.010526094272586597
1064.0,0.010504386813520686
1063.0,0.0104836582462634
1062.0,0.010459851854249693
1061.0,0.010432582811870495
1060.0,0.010403638795582605
1059.0,0.010374898826576313
1058.0,0.01034953049686246
1057.0,0.010331338731545996
1056.0,0.010320023303236071
1055.0,0.01031030547205026
1054.0,0.010298918210792615
1053.0,0.010289529360716315
1052.0,0.010286712533333398
1051.0,0.010287649855690268
1050.0,0.010285097659529771
1049.0,0.01027642647601603
1048.0,0.010263852876794375
1047.0,0.010248234216987057
1046.0,0.010228454282813479
1045.0,0.010204593374534842
1044.0,0.010176842661085622
1043.0,0.010142975157481908
1042.0,0.010100792913814787
1041.0,0.010052089974317729
1040.0,0.010001232236567261
1039.0,0.009950859514048178
1038.0,0.00990137129242831
1037.0,0.009853266285004618
1036.0,0.009807383763113185
1035.0,0.009763724754782415
1034.0,0.009721865033875739
1033.0,0.009680930379219016
1032.0,0.009636959526474097
1031.0,0.009582155354041179
1030.0,0.009509881892479964
1029.0,0.009419745744017015
1028.0,0.00931603249817995
1027.0,0.009202734054674372
1026.0,0.009081815817891137
1025.0,0.008954206727746765
1024.0,0.008820100537966915
1023.0,0.00868004453443872
1022.0,0.008538361948638485
1021.0,0.008404079851478894
1020.0,0.008285049883460145
1019.0,0.008180983613590057
1018.0,0.008084425223843669
1017.0,0.007989015731978091
1016.0,0.00789501802052597
1015.0,0.007807116193507078
1014.0,0.007729435535852907
1013.0,0.007663380442532014
1012.0,0.0076079024483612125
1011.0,0.00755984149728961
1010.0,0.00751457804629848
1009.0,0.0074675807423133685
1008.0,0.007415468965269595
1007.0,0.007355752867150976
1006.0,0.007286234364474594
1005.0,0.007204813829912546
1004.0,0.007109744248221842
1003.0,0.007000838208434784
1002.0,0.006881014255781241
1001.0,0.006755607885107481
1000.0,0.006628933915187082
999.0,0.006502029760610066
998.0,0.006374720516902271
997.0,0.006249016656643238
996.0,0.006128663772573855
995.0,0.006015340139155981
994.0,0.005907114035062621
993.0,0.005801378534681297
992.0,0.005697843105180905
991.0,0.005597567161260055
990.0,0.005500344814265375
989.0,0.005404646824750198
988.0,0.0053096247766605265
987.0,0.005215790031071478
986.0,0.005123820673776202
985.0,0.005033772008399891
984.0,0.004945561358432244
983.0,0.004859463072408559
982.0,0.0047759423478675135
981.0,0.004695402437199839
980.0,0.004618062888513369
979.0,0.004543713685301895
978.0,0.0044716554323511095
977.0,0.004401097922489519
976.0,0.00433146776694356
975.0,0.004262379827793414
974.0,0.004193801588408755
973.0,0.00412617524599205
972.0,0.004059611057693757
971.0,0.003993042968518769
970.0,0.003925406034073017
969.0,0.0038579897548206227
968.0,0.003794234706425194
967.0,0.003736270395005294
966.0,0.0036825772488293038
965.0,0.003629861644219372
964.0,0.0035762217779718823
963.0,0.003521614679954827
962.0,0.0034665946642708145
961.0,0.0034121784151499076
960.0,0.0033602572228059284
959.0,0.0033125511026237207
958.0,0.0032690933717363256
957.0,0.003228462680824721
956.0,0.003189161620071229
955.0,0.003150265196495001
954.0,0.003111568740791444
953.0,0.003074023518926919
952.0,0.0030393897032075616
951.0,0.003008571319037554
950.0,0.0029808149188655262
949.0,0.002955094130981193
948.0,0.0029313480653999444
947.0,0.002909617608469652
946.0,0.002889045647033326
945.0,0.0028688021309513775
944.0,0.002849182640313399
943.0,0.0028308352630424744
942.0,0.002813626268864936
941.0,0.002797051094260249
940.0,0.0027809542952201526
939.0,0.0027650732947442124
938.0,0.002748715887386518
937.0,0.002731619239778685
936.0,0.002714233495595855
935.0,0.0026965028221693586
934.0,0.002677362304590012
933.0,0.002656097733314964
932.0,0.0026332163909161604
931.0,0.0026095225096595684
930.0,0.002585615629005317
929.0,0.002562798124972567
928.0,0.0025428732758696632
927.0,0.00252619008542193
926.0,0.0025114221502563873
925.0,0.0024981976254910623
924.0,0.002488213525169523
923.0,0.0024825030960269733
922.0,0.002479403164605572
921.0,0.002476871253393709
920.0,0.002475262130243497
919.0,0.002475994787134129
918.0,0.0024788081358651914
917.0,0.0024822672501101798
916.0,0.002485840483705516
915.0,0.002489327356682441
914.0,0.002490867949519994
913.0,0.002487537757123193
912.0,0.002477777544502376
911.0,0.002461794890667104
910.0,0.002439946273420904
909.0,0.002412234943689276
908.0,0.002379312305815535
907.0,0.0023427530323735088
906.0,0.002304356519139919
905.0,0.0022659406934058234
904.0,0.002229348243355113
903.0,0.002195599264961835
902.0,0.002164319100105048
901.0,0.0021349179601635546
900.0,0.0021079384953474863
899.0,0.002084388168965663
898.0,0.0020641657109790774
897.0,0.0020463857212643178
896.0,0.0020309588720187396
895.0,0.00201894935785823
894.0,0.0020114587714541304
893.0,0.0020086852468754954
892.0,0.0020096715714248096
891.0,0.0020125404589727957
890.0,0.0020157963078181297
889.0,0.0020202249022709673
888.0,0.0020289655771743905
887.0,0.002045133839433856
886.0,0.0020701458699150287
885.0,0.00210509374005461
884.0,0.002152800092408076
883.0,0.0022172201341298468
882.0,0.0023008274539278867
881.0,0.002402577786673823
880.0,0.0025168928771354716
879.0,0.0026335400850158357
878.0,0.002740260557085288
877.0,0.0028281295252814576
876.0,0.002894710390792043
875.0,0.0029408111508193724
874.0,0.002963316735358704
873.0,0.002951346560935768
872.0,0.002891482510351523
871.0,0.0027805033386292654
870.0,0.002634830792000464
869.0,0.0024856770467345923
868.0,0.0023621835937557715
867.0,0.002277374217507163
866.0,0.002227339301757304
865.0,0.0022002709483926602
864.0,0.0021848701661259812
863.0,0.002173070006020672
862.0,0.0021600721154080007
861.0,0.002144344845798971
860.0,0.002126453894343878
859.0,0.002106835243864194
858.0,0.0020851803791301924
857.0,0.0020616271289832042
856.0,0.0020369811544247024
855.0,0.0020116802406673125
854.0,0.001986257364375634
853.0,0.0019633009383905487
852.0,0.0019471976312780666
851.0,0.0019406865538963928
850.0,0.0019422723959818282
849.0,0.0019475741575685872
848.0,0.0019526031543079256
847.0,0.0019556903813626103
846.0,0.0019576008012822336
845.0,0.001960688043230045
844.0,0.0019673776198040997
843.0,0.001978764304889688
842.0,0.0019943822828099155
841.0,0.0020127907039234937
840.0,0.002032045634630223
839.0,0.002050569814094878
838.0,0.002068655929370649
837.0,0.002088404617808793
836.0,0.0021110888134805144
835.0,0.0021354064053400864
834.0,0.0021595530793911914
833.0,0.0021838163791083687
832.0,0.0022090742292238874
831.0,0.002233559928042991
830.0,0.002253790763416549
829.0,0.0022689623584857656
828.0,0.00228222350133382
827.0,0.0022970738713650922
826.0,0.0023145880346882256
825.0,0.00233473776973713
824.0,0.00235794358491815
823.0,0.00238389537773324
822.0,0.002410496172985198
821.0,0.0024351868880841095
820.0,0.0024566272188557454
819.0,0.002475129815617893
818.0,0.0024923715978161613
817.0,0.002510484869830498
816.0,0.0025306866301462224
815.0,0.002552806641839216
814.0,0.0025760244928160108
813.0,0.002599142016166133
812.0,0.0026202527328093176
811.0,0.0026379210574223955
810.0,0.0026533733822934847
809.0,0.00266988674368503
808.0,0.002689160620234648
807.0,0.002709792971704583
806.0,0.0027299365692201004
805.0,0.002749562060991667
804.0,0.0027692173124307965
803.0,0.0027885282851864467
802.0,0.0028071564369293554
801.0,0.0028253933478634974
800.0,0.0028425578543371686
799.0,0.0028565337332203235
798.0,0.002866315338996301
797.0,0.0028737498478173694
796.0,0.0028818468488672148
795.0,0.0028926434192579646
794.0,0.0029070480658953827
793.0,0.0029249133773924007
792.0,0.0029446863650278944
791.0,0.0029645136968344038
790.0,0.002983675806079217
789.0,0.0030014283683270906
788.0,0.003015675273342974
787.0,0.0030257765458195354
786.0,0.0030355632151612645
785.0,0.0030496200499143195
784.0,0.003067100765435082
783.0,0.0030835552257930127
782.0,0.003098583229996397
781.0,0.003116411919648625
780.0,0.0031382137450388656
779.0,0.0031591897506066642
778.0,0.0031747118329949605
777.0,0.0031847615185719757
776.0,0.003191250216696059
775.0,0.0031958802407200965
774.0,0.003201869319853578
773.0,0.0032125260300938105
772.0,0.0032263240680328563
771.0,0.0032381235666115197
770.0,0.0032466993761905635
769.0,0.003256140135644488
768.0,0.0032686522052487984
767.0,0.003281654186989354
766.0,0.003293660543323771
765.0,0.003307353613438286
764.0,0.003324826042946807
763.0,0.003344977775879222
762.0,0.00336691466253714
761.0,0.003390475388663036
760.0,0.0034126257661084144
759.0,0.003429738162871192
758.0,0.0034445768147208225
757.0,0.003464336932255791
756.0,0.003490705613356203
755.0,0.0035188634774898702
754.0,0.003546860054508821
753.0,0.003577658259008484
752.0,0.0036109792296586283
751.0,0.0036425582259754317
750.0,0.0036730114110295475
749.0,0.0037075960053921586
748.0,0.0037452552930850053
747.0,0.003778182316713748
746.0,0.0038047802393428943
745.0,0.0038326968805016135
744.0,0.003866907602321272
743.0,0.0039060793124675725
742.0,0.003952649231106083
741.0,0.004013746924196665
740.0,0.004090393998695698
739.0,0.004180743771658731
738.0,0.004296784233977719
737.0,0.0044670116523301134
736.0,0.004736271220333332
735.0,0.00519846477418515
734.0,0.006019158590101265
733.0,0.007340026735218504
732.0,0.00907206797708371
731.0,0.01078331141231007
730.0,0.011892742366044125
729.0,0.012092450120028624
728.0,0.011593182290869957
727.0,0.010919401238039843
726.0,0.010512388338043311
725.0,0.010559955986354487
724.0,0.011119077416722937
723.0,0.012281321094730391
722.0,0.014123803136549033
721.0,0.01643209750882868
720.0,0.01850599118656882
719.0,0.01947799145135163
718.0,0.0189842958504032
717.0,0.017381593141221365
716.0,0.015333857250597608
715.0,0.013361583973863833
714.0,0.01170129377951176
713.0,0.01039368066523977
712.0,0.009401741966491316
711.0,0.008659911030476595
710.0,0.00809146071324296
709.0,0.007638445247632814
708.0,0.007275573269525803
707.0,0.006986680172578625
706.0,0.006746472357423379
705.0,0.006535910877271898
704.0,0.00635591849550585
703.0,0.006210944485803581
702.0,0.006091281330617518
701.0,0.005982752767965569
700.0,0.005881015061032849
699.0,0.005784652522761575
698.0,0.005688081568873099
697.0,0.005591823503356928
696.0,0.00550674803362153
695.0,0.005438090913447437
694.0,0.00537542489636028
693.0,0.005308823600439116
692.0,0.005244118965553516
691.0,0.005190248314154678
690.0,0.005143514189441124
689.0,0.005096048973072956
688.0,0.0050504682414037935
687.0,0.005013299891995842
686.0,0.004981053891913103
685.0,0.00494690067883774
684.0,0.004912876027819124
683.0,0.00488343669076907
682.0,0.0048562770933062455
681.0,0.004828259482903746
680.0,0.004802108344870392
679.0,0.004779548733222285
678.0,0.004756922664776307
677.0,0.004735783467061097
676.0,0.004722840455877297
675.0,0.00471842870872642
674.0,0.004712787691570769
673.0,0.004698447456745223
672.0,0.004674677577454668
671.0,0.00463718715748964
670.0,0.004574000225921138
669.0,0.004480268658900482
668.0,0.004402121184058789
667.0,0.00442005471613568
666.0,0.004483582375276466
665.0,0.004518645911053051
664.0,0.004529482240779608
663.0,0.004533353315954905
662.0,0.004529076820895445
661.0,0.004510669392521229
660.0,0.004487132137079505
659.0,0.0044723308204486865
658.0,0.004463457172234486
657.0,0.004447482356391318
656.0,0.004419602532696529
655.0,0.004386756391814099
654.0,0.004355918943760136
653.0,0.004329136933365705
652.0,0.004307237735236134
651.0,0.004289461445305707
650.0,0.0042716368667401056
649.0,0.00425297028370228
648.0,0.0042389175503009194
647.0,0.004229939577668868
646.0,0.004215215676647703
645.0,0.004185537227020985
644.0,0.004146997724914224
643.0,0.004113282761037871
642.0,0.004087115335834954
641.0,0.004058885172858082
640.0,0.004021540213940838
639.0,0.003978440036265662
638.0,0.003939019772469694
637.0,0.003912062732747646
636.0,0.0039003210025290707
635.0,0.0038966059822183492
634.0,0.0038879897429156627
633.0,0.0038689696043151516
632.0,0.0038446691887771087
631.0,0.003818764227022978
630.0,0.003787073245407881
629.0,0.0037459342317002035
628.0,0.0036962958586453116
627.0,0.00363580734398188
626.0,0.0035597980970272867
625.0,0.0034748621078535755
624.0,0.0033997515443343427
623.0,0.003345031223319633
622.0,0.0033035066073765712
621.0,0.0032700451609557687
620.0,0.003253189287159561
619.0,0.0032521005129167325
618.0,0.003242335062954559
617.0,0.0032084473668874316
616.0,0.003170986829675605
615.0,0.0031562392431750963
614.0,0.003161353235454972
613.0,0.003171586788467017
612.0,0.003188596000106625
611.0,0.0032212663348608417
610.0,0.0032666790741290933
609.0,0.00331733281500712
608.0,0.0033698082962272434
607.0,0.003412179839491455
606.0,0.0034276623366179667
605.0,0.003424902318290282
604.0,0.0034374813828563855
603.0,0.003478082981678712
602.0,0.003518501633673716
601.0,0.003530189417476204
600.0,0.0035189296727600764
599.0,0.0035027394862934694
598.0,0.003479537572410883
597.0,0.003438412814671516
596.0,0.003384807660512813
595.0,0.0033299924457234906
594.0,0.0032669517836302593
593.0,0.0031832536549600615
592.0,0.00309584308362455
591.0,0.003046460674368613
590.0,0.003051647014998767
589.0,0.0030770060615411066
588.0,0.0030682839031263218
587.0,0.002994151607427345
586.0,0.002869637715734929
585.0,0.002745527648600369
584.0,0.002663810734059597
583.0,0.002618163359816134
582.0,0.0025662915978849725
581.0,0.0024901491555328606
580.0,0.002425207933259537
579.0,0.002410094363774472
578.0,0.0024257853269322935
577.0,0.0024137735238091004
576.0,0.0023409387906853443
575.0,0.0022237022802806166
574.0,0.002104997667542844
573.0,0.002026121268659177
572.0,0.00201148298940679
571.0,0.00205157844429457
570.0,0.002101091423786128
569.0,0.002125639757848419
568.0,0.002137807428557413
567.0,0.0021633010474651796
566.0,0.0021942928106748263
565.0,0.002201186506409123
564.0,0.002171020545099096
563.0,0.002114823107911003
562.0,0.0020578037731266534
561.0,0.0020329865588442526
560.0,0.002062388838966752
559.0,0.0021285670053304007
558.0,0.002185255208234177
557.0,0.002212097008979676
556.0,0.002229775640899956
555.0,0.002246447767547298
554.0,0.002228958978779132
553.0,0.002154333664951876
552.0,0.0020504148598926982
551.0,0.001957232254637866
550.0,0.0018733889133554834
