cm-1,A
4000.0,0.003779402238738752
3999.0,0.0037777557247911965
3998.0,0.0037701966825746426
3997.0,0.003761745274522006
3996.0,0.003758952052015487
3995.0,0.003764393188087788
3994.0,0.0037744642218411947
3993.0,0.003783378625808048
3992.0,0.0037880793381852348
3991.0,0.0037896249004274653
3990.0,0.0037913417009257794
3989.0,0.0037956301389340703
3988.0,0.0038031441436693868
3987.0,0.0038134562303444013
3986.0,0.003825307306254848
3985.0,0.0038362083041247642
3984.0,0.0038423179206760784
3983.0,0.0038406915412555927
3982.0,0.0038325891130563863
3981.0,0.0038229759204463573
3980.0,0.003816497188681727
3979.0,0.003814245183441912
3978.0,0.0038141352669888162
3977.0,0.0038138437902051903
3976.0,0.003812167663869369
3975.0,0.0038080877629273514
3974.0,0.0038006716968187835
3973.0,0.0037910654608469003
3972.0,0.0037831532322852475
3971.0,0.003780665666863815
3970.0,0.0037839489681133365
3969.0,0.003789974081715093
3968.0,0.0037954959187058122
3967.0,0.0037991225488650127
3966.0,0.003800512596417855
3965.0,0.003798966547698115
3964.0,0.0037936818486035886
3963.0,0.003785824134865166
3962.0,0.003779274688625914
3961.0,0.0037783955627367586
3960.0,0.0037843140190886478
3959.0,0.0037932740529019616
3958.0,0.0037995119306880043
3957.0,0.003800613606356279
3956.0,0.0037994469581850814
3955.0,0.0038006887092882254
3954.0,0.003806219377232415
3953.0,0.003814024848764289
3952.0,0.0038195587620859905
3951.0,0.00381855594525928
3950.0,0.003809552569519885
3949.0,0.0037945800509098324
3948.0,0.003779110614111618
3947.0,0.0037701584409307338
3946.0,0.003771551641636393
3945.0,0.003779255426321409
3944.0,0.0037840914553489997
3943.0,0.003781510965581868
3942.0,0.003776440919164544
3941.0,0.003779060849318684
3940.0,0.0037934454185330757
3939.0,0.003810718979945324
3938.0,0.0038203369213174344
3937.0,0.003821845543999688
3936.0,0.0038221486514214177
3935.0,0.0038252978270178987
3934.0,0.003827697411348717
3933.0,0.0038243324506942247
3932.0,0.0038143497569502055
3931.0,0.003802627060935544
3930.0,0.0037964534143044588
3929.0,0.003799538553020749
3928.0,0.003809627335431722
3927.0,0.0038197985573924387
3926.0,0.003821659417534505
3925.0,0.003810558751971102
3924.0,0.003793217357403707
3923.0,0.0037849076566013606
3922.0,0.0037921774814870194
3921.0,0.0038047361049101756
3920.0,0.003809995391069661
3919.0,0.003807622893896955
3918.0,0.003804117491880211
3917.0,0.0038022893728353324
3916.0,0.0038026823123122316
3915.0,0.0038082849496034153
3914.0,0.003820351587500206
3913.0,0.0038333828203684465
3912.0,0.0038420018671314563
3911.0,0.0038468149190384274
3910.0,0.0038499569043554654
3909.0,0.0038502175300181053
3908.0,0.0038435049910978576
3907.0,0.003828213386768529
3906.0,0.003806878481200468
3905.0,0.003785017641373919
3904.0,0.0037646866235379554
3903.0,0.003747775135761078
3902.0,0.0037422670330286983
3901.0,0.0037513564893038257
3900.0,0.0037655272023911987
3899.0,0.0037749742716637995
3898.0,0.003780867327680711
3897.0,0.003788142222115808
3896.0,0.003792487081621049
3895.0,0.0037862866195467713
3894.0,0.0037765834412845454
3893.0,0.0037780780903773
3892.0,0.0037888421972084776
3891.0,0.0037882932926242424
3890.0,0.0037754500104192693
3889.0,0.0037752160148388104
3888.0,0.003789681933744033
3887.0,0.003797576460356812
3886.0,0.003787407194546559
3885.0,0.003765606988666257
3884.0,0.0037555331069205385
3883.0,0.0037747313345610914
3882.0,0.003804031258938894
3881.0,0.0038156174726587996
3880.0,0.00380452429850419
3879.0,0.003790038356989495
3878.0,0.0037969186135607697
3877.0,0.0038178310355411298
3876.0,0.0038223954208325243
3875.0,0.0038011532616682164
3874.0,0.0037713041385146603
3873.0,0.003759796814375221
3872.0,0.003777623082501981
3871.0,0.003799723929572894
3870.0,0.003789693577395555
3869.0,0.0037508434682131195
3868.0,0.003734264299853041
3867.0,0.0037640554362284896
3866.0,0.0038011587578778566
3865.0,0.0038123471372709253
3864.0,0.0038045702550678854
3863.0,0.0037952149654652285
3862.0,0.003793092010943813
3861.0,0.0037950330645136494
3860.0,0.0037953896028082475
3859.0,0.0037917191622722675
3858.0,0.0037798645198806064
3857.0,0.003760260208613901
3856.0,0.003742795304445626
3855.0,0.0037502750864500016
3854.0,0.0037857495136272394
3853.0,0.0037875752884077513
3852.0,0.003747939609345976
3851.0,0.0037522651175947823
3850.0,0.0037996017376378836
3849.0,0.003826949730130035
3848.0,0.003820657350830128
3847.0,0.003803202859360316
3846.0,0.0037933071580670405
3845.0,0.003793359378250657
3844.0,0.003794788707411864
3843.0,0.003784450527408967
3842.0,0.0037631166568217606
3841.0,0.00374643642834031
3840.0,0.0037448140476443823
3839.0,0.003754649754595769
3838.0,0.003764807406891826
3837.0,0.0037728843325336315
3836.0,0.0037860467508467124
3835.0,0.0038067914255380765
3834.0,0.003825224168605963
3833.0,0.0038310939062556094
3832.0,0.0038228775097297607
3831.0,0.003808496678093594
3830.0,0.003800437303428398
3829.0,0.0038046483878878563
3828.0,0.0038137733404224137
3827.0,0.003813540002762841
3826.0,0.003798335971793059
3825.0,0.003781016594084489
3824.0,0.00377690387383254
3823.0,0.003786096543313265
3822.0,0.003800781472197517
3821.0,0.0038021164906246133
3820.0,0.0037820229452490356
3819.0,0.003780893678998711
3818.0,0.003810450758540935
3817.0,0.0038333238634045003
3816.0,0.0038289879217081177
3815.0,0.0038089650602795956
3814.0,0.0038063080403257918
3813.0,0.003826306470000247
3812.0,0.003833186881143211
3811.0,0.0038097798191985104
3810.0,0.003778899237638385
3809.0,0.0037662125840439925
3808.0,0.003773321234251413
3807.0,0.003778142728376257
3806.0,0.003768417967005201
3805.0,0.0037675274052072797
3804.0,0.0037885974382788857
3803.0,0.003809354151335413
3802.0,0.003812462062255541
3801.0,0.0037933855768238125
3800.0,0.003778307449362097
3799.0,0.003804073282661723
3798.0,0.0038467331128409317
3797.0,0.0038625972545087662
3796.0,0.003850178321624191
3795.0,0.003838036279489282
3794.0,0.0038467842389087277
3793.0,0.003867156159315107
3792.0,0.0038792637628253064
3791.0,0.0038782023678117115
3790.0,0.003870600930603059
3789.0,0.0038598326029106646
3788.0,0.003846534946323854
3787.0,0.0038349435119151096
3786.0,0.003830208794530628
3785.0,0.003830013272804924
3784.0,0.0038289220844798643
3783.0,0.0038282205326433862
3782.0,0.003832357382517633
3781.0,0.0038383453957781906
3780.0,0.003839468284382092
3779.0,0.0038336009279625943
3778.0,0.0038300769154119953
3777.0,0.003841900465167145
3776.0,0.003863239305360527
3775.0,0.003875159911201873
3774.0,0.0038731533489938788
3773.0,0.003870536037084386
3772.0,0.003875925272288522
3771.0,0.003879997612865951
3770.0,0.003868809966461352
3769.0,0.003848310095085109
3768.0,0.003843730422281726
3767.0,0.0038647083387632333
3766.0,0.003890783238683271
3765.0,0.003900059207618877
3764.0,0.0038950582797267824
3763.0,0.003893571057963471
3762.0,0.0038981357771102265
3761.0,0.003895742101612674
3760.0,0.003883964407176168
3759.0,0.003870494219165817
3758.0,0.003860373949877486
3757.0,0.003855099386712202
3756.0,0.0038555369999243297
3755.0,0.003859710225615834
3754.0,0.0038613638420791603
3753.0,0.003862100194988295
3752.0,0.003876874116633922
3751.0,0.003904861697546084
3750.0,0.0039173722991748955
3749.0,0.003908740014695298
3748.0,0.003907322037490155
3747.0,0.003926132708112063
3746.0,0.003953417773232258
3745.0,0.0039772462270475095
3744.0,0.003972085076308438
3743.0,0.0039529218092200814
3742.0,0.003978448052915651
3741.0,0.0040226545889615216
3740.0,0.004023742291144803
3739.0,0.0039863608640518826
3738.0,0.003951015620604782
3737.0,0.003943537331585945
3736.0,0.003954189389007429
3735.0,0.003956264102350353
3734.0,0.003948873716463723
3733.0,0.003953533496931378
3732.0,0.003973099503616262
3731.0,0.004000038856466758
3730.0,0.004036626600400858
3729.0,0.00407860875418853
3728.0,0.004107119056593517
3727.0,0.004108553778273401
3726.0,0.004092141628039422
3725.0,0.004085103784210845
3724.0,0.004105160141268517
3723.0,0.004142056846580331
3722.0,0.00417680509806919
3721.0,0.004204198716478877
3720.0,0.004233719360035755
3719.0,0.004274639184250249
3718.0,0.004326017204913447
3717.0,0.004381962593540657
3716.0,0.004438706977408448
3715.0,0.004494913620717007
3714.0,0.0045553572267003056
3713.0,0.004640068121013512
3712.0,0.004766324953577225
3711.0,0.004915000527068189
3710.0,0.00505767923248031
3709.0,0.005196141933127675
3708.0,0.005341677800023623
3707.0,0.005498676001211135
3706.0,0.0056724632901236065
3705.0,0.005873507809800841
3704.0,0.006110865140810584
3703.0,0.006382682405960315
3702.0,0.006664858545901571
3701.0,0.006920771619886818
3700.0,0.00713843523353516
3699.0,0.007332543194605683
3698.0,0.007505289871334291
3697.0,0.007637394828799117
3696.0,0.0077131493175680715
3695.0,0.007736086462151102
3694.0,0.007716524742568759
3693.0,0.007656586534475238
3692.0,0.007557326756249545
3691.0,0.007430622361292247
3690.0,0.007295203853048889
3689.0,0.007163738085873797
3688.0,0.007047752710140472
3687.0,0.006968311062471871
3686.0,0.006931590422896643
3685.0,0.0069121002162078286
3684.0,0.006883133406889362
3683.0,0.0068442115324695175
3682.0,0.006810393529490892
3681.0,0.006788986602779318
3680.0,0.006771994226354376
3679.0,0.0067574845744243165
3678.0,0.006760697465300714
3677.0,0.006799533842285717
3676.0,0.0068667175855386346
3675.0,0.006916419290793476
3674.0,0.006953522653923124
3673.0,0.007036192382190772
3672.0,0.00715724030315912
3671.0,0.007284274833236105
3670.0,0.007406799576748601
3669.0,0.007508002978707394
3668.0,0.007599250216879216
3667.0,0.007701553140868244
3666.0,0.007804057684584942
3665.0,0.007896902752893911
3664.0,0.00798870910505629
3663.0,0.008090137810498672
3662.0,0.008200319759349336
3661.0,0.008309886862307778
3660.0,0.008415808205282387
3659.0,0.008530825345103587
3658.0,0.008673186245094338
3657.0,0.008839481713504536
3656.0,0.008991584710142102
3655.0,0.0091030348789431
3654.0,0.009192701277397478
3653.0,0.00927968065597045
3652.0,0.009368394413953759
3651.0,0.009480704018312625
3650.0,0.009635236182383811
3649.0,0.009798568562497875
3648.0,0.009930198643747404
3647.0,0.010042024831091744
3646.0,0.010163041556952544
3645.0,0.010300957515020566
3644.0,0.010447279558280894
3643.0,0.01059265723559829
3642.0,0.010736197187194513
3641.0,0.010884188142746238
3640.0,0.011040295492255455
3639.0,0.01119867105550267
3638.0,0.011350590265948502
3637.0,0.011499919953906914
3636.0,0.011659532164312803
3635.0,0.011829865443273241
3634.0,0.01199282460608309
3633.0,0.012134973603433467
3632.0,0.012272459994318273
3631.0,0.012447551784632811
3630.0,0.012707409852969608
3629.0,0.013021456433124422
3628.0,0.013279746852206661
3627.0,0.013480256201052164
3626.0,0.013698963042780354
3625.0,0.013942009896226112
3624.0,0.014186336058420675
3623.0,0.01442548143293981
3622.0,0.01466399836125942
3621.0,0.014902184499625652
3620.0,0.01512079181639656
3619.0,0.015281827426627634
3618.0,0.01537082588725884
3617.0,0.01542191109539591
3616.0,0.015471502552227442
3615.0,0.01553111277031632
3614.0,0.015602498853324289
3613.0,0.015683923956358484
3612.0,0.015772242729480093
3611.0,0.01587120870853631
3610.0,0.015991040144436267
3609.0,0.01613644823955742
3608.0,0.016294715033677562
3607.0,0.016443899564896003
3606.0,0.016577392819385115
3605.0,0.01670069494775709
3604.0,0.016818582450432
3603.0,0.016940882295809517
3602.0,0.017081007602262797
3601.0,0.01723798204688358
3600.0,0.017391323968936206
3599.0,0.01752375465502675
3598.0,0.01763902960106323
3597.0,0.01775413992357743
3596.0,0.017879502718517785
3595.0,0.018010153195194726
3594.0,0.018136874125170982
3593.0,0.018260093933300744
3592.0,0.018386375197744435
3591.0,0.01851932194496858
3590.0,0.018665324814631495
3589.0,0.018835856947425626
3588.0,0.019022427605104805
3587.0,0.019186468325138244
3586.0,0.019317075153347626
3585.0,0.019448413877733176
3584.0,0.01960215915846777
3583.0,0.01977282838630246
3582.0,0.019953149169200955
3581.0,0.02014107031577618
3580.0,0.020331847993720484
3579.0,0.02051543228722611
3578.0,0.020682952489776512
3577.0,0.020833265688111374
3576.0,0.0209741697703525
3575.0,0.021117035826737997
3574.0,0.021268298082170074
3573.0,0.021422084600690203
3572.0,0.021564888255791004
3571.0,0.021691395499203032
3570.0,0.021816491799102174
3569.0,0.021970160647874996
3568.0,0.022168585506265364
3567.0,0.022382471325791662
3566.0,0.022571159310964026
3565.0,0.022741125460731284
3564.0,0.022919465218001357
3563.0,0.023112774321886655
3562.0,0.023315397905195177
3561.0,0.023520675700071995
3560.0,0.023719978627545647
3559.0,0.02390642963809918
3558.0,0.024081224098224562
3557.0,0.02424954409566956
3556.0,0.024415339553288135
3555.0,0.024584072227906636
3554.0,0.02476367346522271
3553.0,0.02495476607118749
3552.0,0.02514329569018396
3551.0,0.025315812373689038
3550.0,0.025476321051701608
3549.0,0.02564014434860346
3548.0,0.025819190858467712
3547.0,0.026014323634819463
3546.0,0.026215302551140927
3545.0,0.026409307104859687
3544.0,0.026592036672867914
3543.0,0.026769679195696217
3542.0,0.02695199108648129
3541.0,0.02714441164884803
3540.0,0.02734549376745358
3539.0,0.027551272017844148
3538.0,0.027759410325726132
3537.0,0.02796583197293898
3536.0,0.028161605945682004
3535.0,0.028342450097999267
3534.0,0.028517010260318165
3533.0,0.028698480973602197
3532.0,0.028891703767263806
3531.0,0.029093888797144037
3530.0,0.029304034668251266
3529.0,0.029522158121559963
3528.0,0.029740346417363915
3527.0,0.02994591040126008
3526.0,0.03013602219429693
3525.0,0.0303202809402444
3524.0,0.030507912467529853
3523.0,0.03069989384508351
3522.0,0.030896418543175992
3521.0,0.031102529055899705
3520.0,0.031320923521316456
3519.0,0.031546126049122075
3518.0,0.0317698065679595
3517.0,0.03198827569837197
3516.0,0.03220166385014789
3515.0,0.03240961439884732
3514.0,0.032611916284602645
3513.0,0.03281194471015879
3512.0,0.033016763381200645
3511.0,0.03323310016864199
3510.0,0.03346129669211032
3509.0,0.03369173292091015
3508.0,0.03391195978613165
3507.0,0.03412074989036015
3506.0,0.034332034225789114
3505.0,0.03456173918240995
3504.0,0.03480928115983713
3503.0,0.035054670933606154
3502.0,0.03528035520175887
3501.0,0.0354905813298562
3500.0,0.03570314325127906
3499.0,0.03593163114826669
3498.0,0.036178328588710874
3497.0,0.036433711653018924
3496.0,0.03668101878880999
3495.0,0.03690765364303664
3494.0,0.03711496395148617
3493.0,0.03731511877711595
3492.0,0.03751951895701717
3491.0,0.037733704554090024
3490.0,0.03796030976528876
3489.0,0.03819843525462506
3488.0,0.03843947446282241
3487.0,0.03867186772914947
3486.0,0.03889266605440073
3485.0,0.03910890005507768
3484.0,0.03932623763139287
3483.0,0.039541168689714044
3482.0,0.03974625017587257
3481.0,0.03993998205754925
3480.0,0.04012921213886208
3479.0,0.04032415421479034
3478.0,0.04053250592497403
3477.0,0.04075477964331098
3476.0,0.040982837280761575
3475.0,0.041205047162391796
3474.0,0.04141539523636196
3473.0,0.04161631323111523
3472.0,0.04181302714188207
3471.0,0.04200952890839575
3470.0,0.042210350152746656
3469.0,0.04242032888123641
3468.0,0.04263939297280683
3467.0,0.042860782712546015
3466.0,0.04307693075955992
3465.0,0.043284842886375186
3464.0,0.04348515432712043
3463.0,0.043679692997563906
3462.0,0.043871745605790886
3461.0,0.04406691412057989
3460.0,0.044271636812483355
3459.0,0.0444898316950514
3458.0,0.0447193207296917
3457.0,0.04495089260939136
3456.0,0.04517426555599026
3455.0,0.04538788058378953
3454.0,0.045599465333724026
3453.0,0.045813841769096864
3452.0,0.04602463611774122
3451.0,0.04622403845458938
3450.0,0.046417206993818086
3449.0,0.046619094467629095
3448.0,0.04683730018542697
3447.0,0.04706388213458095
3446.0,0.047287227752554575
3445.0,0.04750529467412719
3444.0,0.047721930836048046
3443.0,0.04793761282533403
3442.0,0.048149038854141915
3441.0,0.048353535966646724
3440.0,0.048551135029054636
3439.0,0.04874400111158448
3438.0,0.0489360506046595
3437.0,0.04913287912174624
3436.0,0.04934006375057114
3435.0,0.0495600418915667
3434.0,0.049788659759094446
3433.0,0.05001502960287512
3432.0,0.05022862763026424
3431.0,0.050429066344421875
3430.0,0.05062696902455489
3429.0,0.05083315284464043
3428.0,0.05104922655727904
3427.0,0.051269687997609205
3426.0,0.05148930393476031
3425.0,0.05170508326954993
3424.0,0.05191437774115854
3423.0,0.052115576595764046
3422.0,0.05231023172580144
3421.0,0.05250226725003126
3420.0,0.05269520392556686
3419.0,0.05289075692575148
3418.0,0.053088017193067424
3417.0,0.05328299672528612
3416.0,0.05347156715798639
3415.0,0.053654136122744
3414.0,0.053835273688024946
3413.0,0.054018220103049436
3412.0,0.05420311748714167
3411.0,0.05439136296764534
3410.0,0.05458726740069698
3409.0,0.05479284723157414
3408.0,0.055004084011870034
3407.0,0.05521454572409689
3406.0,0.055420140694709574
3405.0,0.055619247105870386
3404.0,0.05581195653482863
3403.0,0.05600147581448608
3402.0,0.05619335070873162
3401.0,0.05639148971760162
3400.0,0.056597159927716495
3399.0,0.056811777991083084
3398.0,0.057035835221816135
3397.0,0.05726380525079497
3396.0,0.05748573826957541
3395.0,0.05769689940160065
3394.0,0.057901902375337815
3393.0,0.05810701361091159
3392.0,0.05831293003411424
3391.0,0.05851800916134283
3390.0,0.05872306488302027
3389.0,0.0589283589620888
3388.0,0.059130444574537595
3387.0,0.05932666699846415
3386.0,0.05951947800719984
3385.0,0.05971171110833039
3384.0,0.05990002295146189
3383.0,0.060077795462521774
3382.0,0.06024238124407999
3381.0,0.06039560896280205
3380.0,0.06053992238586925
3379.0,0.06067829342976473
3378.0,0.060815787142445274
3377.0,0.06095594405696042
3376.0,0.06109559837161818
3375.0,0.061226550494718035
3374.0,0.06134235967379881
3373.0,0.06144162295136382
3372.0,0.061526380130735456
3371.0,0.061600302258176226
3370.0,0.061667537289052415
3369.0,0.061730675069463226
3368.0,0.06178992431617175
3367.0,0.06184506315536796
3366.0,0.06189625855954277
3365.0,0.06194181783664525
3364.0,0.061977793717715585
3363.0,0.06200161926836159
3362.0,0.06201381458814745
3361.0,0.062014928775879705
3360.0,0.06200402372711833
3359.0,0.06198211927645689
3358.0,0.061953771462985946
3357.0,0.06192263764933274
3356.0,0.06188842453651934
3355.0,0.06185062786232365
3354.0,0.06181183481164383
3353.0,0.061774203589523055
3352.0,0.06173553776239561
3351.0,0.06169195374331858
3350.0,0.061642291250681144
3349.0,0.06158714448147175
3348.0,0.06152595568144023
3347.0,0.06145839661481681
3346.0,0.0613869197962343
3345.0,0.06131497483800495
3344.0,0.06124352926471359
3343.0,0.06117090481728245
3342.0,0.06109439197749594
3341.0,0.06101122658488807
3340.0,0.06092091185312157
3339.0,0.06082833183713912
3338.0,0.06074185068056838
3337.0,0.06066597885070188
3336.0,0.0605979230184938
3335.0,0.060532484159812994
3334.0,0.06046666094976211
3333.0,0.060397547424381526
3332.0,0.0603206430027841
3331.0,0.06023448523243047
3330.0,0.06014413507213173
3329.0,0.060056424337555994
3328.0,0.05997353509089362
3327.0,0.05989376271395719
3326.0,0.05981625468714108
3325.0,0.05974182307750611
3324.0,0.059670432240670715
3323.0,0.059600562271843995
3322.0,0.05953040784860707
3321.0,0.059458722325628016
3320.0,0.05938630261024637
3319.0,0.059317432900990376
3318.0,0.059257052212535404
3317.0,0.05920517721889229
3316.0,0.059156998057711026
3315.0,0.059109213779298016
3314.0,0.059062286088288896
3313.0,0.059015219980666195
3312.0,0.05896334950261919
3311.0,0.058904949761957
3310.0,0.058846297000989714
3309.0,0.05879604058034318
3308.0,0.05875710127621161
3307.0,0.058727342577438855
3306.0,0.058704850143935366
3305.0,0.05868793722715124
3304.0,0.05867219361109015
3303.0,0.05865238097390337
3302.0,0.05862705257874831
3301.0,0.05859894692557464
3300.0,0.058572245787136344
3299.0,0.058551512603219454
3298.0,0.058540430174695415
3297.0,0.058537942293809056
3296.0,0.05853731440635284
3295.0,0.058532278453976856
3294.0,0.05852333544466459
3293.0,0.058516114375943076
3292.0,0.05851508703724959
3291.0,0.05852054667417051
3290.0,0.05852918312211121
3289.0,0.058534849567482755
3288.0,0.0585312136702083
3287.0,0.058517419432672704
3286.0,0.05850022673945418
3285.0,0.05848789574623416
3284.0,0.058482629017863295
3283.0,0.058480176731066515
3282.0,0.058474536566091445
3281.0,0.05846060760790513
3280.0,0.05843464096184121
3279.0,0.05839625336354413
3278.0,0.058349827978302134
3277.0,0.05830117281302533
3276.0,0.05825257034714239
3275.0,0.05820221248654408
3274.0,0.05814716250174966
3273.0,0.058085410741536975
3272.0,0.05801693658990615
3271.0,0.057944806413252316
3270.0,0.057873294949191266
3269.0,0.05780242817585028
3268.0,0.05772591168871083
3267.0,0.05763697083586628
3266.0,0.05753518114970945
3265.0,0.05742571828843715
3264.0,0.05731364047484687
3263.0,0.05720115160572957
3262.0,0.05708855100750354
3261.0,0.056974173467617406
3260.0,0.05685387625066849
3259.0,0.05672414605454549
3258.0,0.05658637412736043
3257.0,0.05644586789996667
3256.0,0.05630684884124392
3255.0,0.05617091715636807
3254.0,0.05603971615080597
3253.0,0.05591508535941909
3252.0,0.05579483508165934
3251.0,0.05567142601324491
3250.0,0.05553830551419614
3249.0,0.055397465288594884
3248.0,0.05525839351662803
3247.0,0.05512835019008777
3246.0,0.055004712032966994
3245.0,0.05487827725627625
3244.0,0.05474353402261082
3243.0,0.054603190172295285
3242.0,0.054462445550282165
3241.0,0.05432270107081222
3240.0,0.05418345172088346
3239.0,0.054047182509130036
3238.0,0.05391731932845481
3237.0,0.05379129209428188
3236.0,0.053660575185335846
3235.0,0.0535201986902408
3234.0,0.05337533077989849
3233.0,0.05323607189060375
3232.0,0.05310754415246467
3231.0,0.05298672458773994
3230.0,0.05286687782910531
3229.0,0.05274269630723618
3228.0,0.0526123760168786
3227.0,0.05247703737111064
3226.0,0.052337909572852274
3225.0,0.05219339474378299
3224.0,0.052040347739210915
3223.0,0.05187903612406363
3222.0,0.05171475616912
3221.0,0.0515527413110226
3220.0,0.05139285801644079
3219.0,0.051231131967723983
3218.0,0.05106506308409815
3217.0,0.050894746651529606
3216.0,0.050719511690235246
3215.0,0.050536657691408395
3214.0,0.05034477031204733
3213.0,0.05014719716068795
3212.0,0.049951044544004175
3211.0,0.04976215630161476
3210.0,0.04958059046489553
3209.0,0.049401341423929504
3208.0,0.049219908341787404
3207.0,0.04903510608402424
3206.0,0.04884425894023235
3205.0,0.04863935443873136
3204.0,0.04841579174149876
3203.0,0.04818649050507769
3202.0,0.0479791954114263
3201.0,0.04781267717759008
3200.0,0.047677757068099465
3199.0,0.04754598362355421
3198.0,0.04739475729836773
3197.0,0.04722018900235731
3196.0,0.047029825203558015
3195.0,0.04683255170250168
3194.0,0.04663682248326588
3193.0,0.04644982528153665
3192.0,0.04627218646252504
3191.0,0.04609615081894652
3190.0,0.0459127952280289
3189.0,0.045720022980043434
3188.0,0.045521981919351445
3187.0,0.04532295671318216
3186.0,0.045123907586457256
3185.0,0.044922880110993484
3184.0,0.044716776798134336
3183.0,0.04450443683414531
3182.0,0.04428935160638196
3181.0,0.04407723729366661
3180.0,0.04386949775919493
3179.0,0.04366131944521031
3178.0,0.04344800622067908
3177.0,0.04323104176385173
3176.0,0.043015466981266015
3175.0,0.04280307666700085
3174.0,0.04259117418594174
3173.0,0.04237727016007535
3172.0,0.04216242717615942
3171.0,0.04195006414657114
3170.0,0.041743131035921845
3169.0,0.04154210460524997
3168.0,0.041344317403599916
3167.0,0.04114560958105328
3166.0,0.04094356802605988
3165.0,0.04073843611461997
3164.0,0.04053091512288111
3163.0,0.04032183200620184
3162.0,0.04011553422877033
3161.0,0.03992021354988157
3160.0,0.039740118791040356
3159.0,0.03956785477782958
3158.0,0.0393887340493143
3157.0,0.03919445909824599
3156.0,0.03899040777397974
3155.0,0.03878844240718892
3154.0,0.038595135161585324
3153.0,0.038408849510265276
3152.0,0.038225961123201375
3151.0,0.038046364677241304
3150.0,0.03787206322544823
3149.0,0.037702171819619136
3148.0,0.037531220083203004
3147.0,0.037352966661727806
3146.0,0.03716577070119906
3145.0,0.036974137840079906
3144.0,0.03678497480461697
3143.0,0.036602476060964645
3142.0,0.03642663819705942
3141.0,0.03625590318009269
3140.0,0.03608986437040112
3139.0,0.03592888862391547
3138.0,0.03577193913911289
3137.0,0.03561587721158545
3136.0,0.035457274680224846
3135.0,0.03529494070945605
3134.0,0.035130754376166314
3133.0,0.03496790522952943
3132.0,0.03480826441189037
3131.0,0.03465166305486153
3130.0,0.03449725032807791
3129.0,0.034344351437815716
3128.0,0.03419182059070232
3127.0,0.03403791428239076
3126.0,0.03388159857720554
3125.0,0.033723149749711585
3124.0,0.033563055394631496
3123.0,0.03340119967819849
3122.0,0.033237943873888454
3121.0,0.0330756402863576
3120.0,0.03291809729528683
3119.0,0.032768284379721464
3118.0,0.03262653003797246
3117.0,0.03249037388444972
3116.0,0.03235611453367045
3115.0,0.032221642006041724
3114.0,0.03208846074068746
3113.0,0.03196002945132726
3112.0,0.03183759744366776
3111.0,0.031719171969315806
3110.0,0.03160324292069486
3109.0,0.031491474339237095
3108.0,0.0313853508033129
3107.0,0.03128096855254654
3106.0,0.03117030240713556
3105.0,0.03104846575821689
3104.0,0.03091795278464459
3103.0,0.030784876064420236
3102.0,0.030652602792780557
3101.0,0.030520414351575008
3100.0,0.03038710568294945
3099.0,0.03025330529258783
3098.0,0.030119968501729072
3097.0,0.029986615926448884
3096.0,0.029851859652618655
3095.0,0.029715280008452916
3094.0,0.02957907352975707
3093.0,0.029448182251365716
3092.0,0.029327681905173424
3091.0,0.029218447457919468
3090.0,0.029115783807361358
3089.0,0.029014047943618677
3088.0,0.02891273699470133
3087.0,0.02881616486696037
3086.0,0.028726567485021448
3085.0,0.028640074556426684
3084.0,0.028550444372560452
3083.0,0.02845424173766556
3082.0,0.028350790765169352
3081.0,0.02823940722656103
3080.0,0.028120594826489997
3079.0,0.0279992864765434
3078.0,0.027882812823583222
3077.0,0.027774355064000455
3076.0,0.027670161907827014
3075.0,0.027564330231549455
3074.0,0.02745463355494704
3073.0,0.02734279644471348
3072.0,0.027231400705827778
3071.0,0.027122191520488687
3070.0,0.027016163672706223
3069.0,0.02691317830674249
3068.0,0.02681121874465403
3067.0,0.026706901269007773
3066.0,0.026596983289257938
3065.0,0.026479748442120216
3064.0,0.02635604199369477
3063.0,0.026229479206009532
3062.0,0.026104855329820004
3061.0,0.025986046432756482
3060.0,0.0258758195117956
3059.0,0.025776724072316057
3058.0,0.025689300586042556
3057.0,0.02560830381706284
3056.0,0.025523187689947244
3055.0,0.025425103742026323
3054.0,0.02531325570735159
3053.0,0.025192393300536818
3052.0,0.025065178265526792
3051.0,0.02492935492064717
3050.0,0.024782096302863297
3049.0,0.024625363043651757
3048.0,0.02446566324382269
3047.0,0.024309244697483603
3046.0,0.024158669414278792
3045.0,0.024013540899888965
3044.0,0.023873368102577945
3043.0,0.02373878291234896
3042.0,0.02361010909319076
3041.0,0.023486051194069442
3040.0,0.023365092088652263
3039.0,0.023248147736242123
3038.0,0.02313798340980805
3037.0,0.023035388821230258
3036.0,0.02293745341100201
3035.0,0.022840553183595434
3034.0,0.02274349423942562
3033.0,0.02264596124839051
3032.0,0.022545696533122203
3031.0,0.022440246189916902
3030.0,0.02233164269841306
3029.0,0.022226295042704892
3028.0,0.02212929250974889
3027.0,0.022040523904261186
3026.0,0.02195619162791978
3025.0,0.02187222732311334
3024.0,0.021785696582872986
3023.0,0.021695373734105357
3022.0,0.021603111033833604
3021.0,0.021513842471279923
3020.0,0.021432232830473373
3019.0,0.02135877204815259
3018.0,0.02128950890019958
3017.0,0.021219996246791384
3016.0,0.021149466066879827
3015.0,0.021081016041265863
3014.0,0.021018233177363434
3013.0,0.02096183608012563
3012.0,0.02090980959916283
3011.0,0.020860110944881542
3010.0,0.020812306536345093
3009.0,0.02076695639049936
3008.0,0.0207246884379182
3007.0,0.020686461004724446
3006.0,0.02065358142559125
3005.0,0.020626762473071283
3004.0,0.020606169479447687
3003.0,0.020592807209217186
3002.0,0.020588143940927797
3001.0,0.020590649456318708
3000.0,0.020593646094027168
2999.0,0.020588224629103154
2998.0,0.02056824232304981
2997.0,0.020532310555954926
2996.0,0.020482697324844448
2995.0,0.020424946052587295
2994.0,0.020368461434021393
2993.0,0.02032487200275288
2992.0,0.020303751711324203
2991.0,0.02030966694280225
2990.0,0.0203428400279989
2989.0,0.02040154039716801
2988.0,0.02048283130007915
2987.0,0.020580099990968718
2986.0,0.020679067387430833
2985.0,0.020757455491118366
2984.0,0.020792625891384524
2983.0,0.020773594217229862
2982.0,0.020707693935472237
2981.0,0.020615574689032263
2980.0,0.020520264575738457
2979.0,0.020438979106524223
2978.0,0.020379940440418097
2977.0,0.020342881693247706
2976.0,0.020322596087272184
2975.0,0.020315165871068887
2974.0,0.020321253637799234
2973.0,0.020342650563057278
2972.0,0.0203770105199791
2971.0,0.020417846877500524
2970.0,0.020459392934260492
2969.0,0.020499569115209188
2968.0,0.02053860223709767
2967.0,0.020576655009437336
2966.0,0.020612986711805212
2965.0,0.02064582658962803
2964.0,0.020672722217318043
2963.0,0.020691718289650947
2962.0,0.020701656588856816
2961.0,0.020700622032764408
2960.0,0.020684930478057025
2959.0,0.020650966069323668
2958.0,0.02059791506446737
2957.0,0.020527977143110044
2956.0,0.020444820985299757
2955.0,0.0203523910396599
2954.0,0.020253637993381805
2953.0,0.020148687587036775
2952.0,0.020035152006145897
2951.0,0.01991168584718305
2950.0,0.019780056767821186
2949.0,0.019642908910079745
2948.0,0.01950166107717938
2947.0,0.01935898382041119
2946.0,0.0192216450522549
2945.0,0.019097927012239925
2944.0,0.018992438843043566
2943.0,0.01890467174835147
2942.0,0.01883040459702958
2941.0,0.018761716550281516
2940.0,0.018687572198605746
2939.0,0.018599286383112063
2938.0,0.018496554664299295
2937.0,0.018385650803853473
2936.0,0.01827227792130419
2935.0,0.018158810455183434
2934.0,0.018047525694969032
2933.0,0.017941624431350386
2932.0,0.017841473269466016
2931.0,0.017742848069650485
2930.0,0.01764063044984518
2929.0,0.017533376474143297
2928.0,0.017424343338332902
2927.0,0.01731937859226692
2926.0,0.017222816606257536
2925.0,0.01713364093578759
2924.0,0.017046515964829874
2923.0,0.016958415028513037
2922.0,0.01687181739761125
2921.0,0.0167894415666614
2920.0,0.016709059841319693
2919.0,0.016627559472527628
2918.0,0.016547687373904288
2917.0,0.016475446543930086
2916.0,0.016412456962176095
2915.0,0.016355034121525457
2914.0,0.01629956081378594
2913.0,0.01624378636886357
2912.0,0.01618370860447515
2911.0,0.01611478314360117
2910.0,0.016036951756152548
2909.0,0.015955087476008302
2908.0,0.015873757785258156
2907.0,0.01579428430084969
2906.0,0.015717549812924864
2905.0,0.015646133613171423
2904.0,0.015582138463734907
2903.0,0.01552494313423259
2902.0,0.015471602099126399
2901.0,0.015418608762270834
2900.0,0.015363347006060676
2899.0,0.015306697179368212
2898.0,0.015253298555074332
2897.0,0.015207186358911245
2896.0,0.015167996837728917
2895.0,0.015132953056412341
2894.0,0.015100811659343221
2893.0,0.01507060006614138
2892.0,0.01503812512109248
2891.0,0.014998109070648705
2890.0,0.014950023864302973
2889.0,0.0148978100319293
2888.0,0.014843350412916477
2887.0,0.014783622932454273
2886.0,0.014715082053669316
2885.0,0.014638515029820512
2884.0,0.014559095264981402
2883.0,0.01448387189505779
2882.0,0.014418466793785702
2881.0,0.014363092226651723
2880.0,0.014311397650585544
2879.0,0.014255923751240657
2878.0,0.01419522262381465
2877.0,0.014133093552391396
2876.0,0.014071995869361555
2875.0,0.014010475089053565
2874.0,0.013947162765323238
2873.0,0.013883639395623117
2872.0,0.013822010761236129
2871.0,0.013762359945362842
2870.0,0.01370293598812812
2869.0,0.013640808970960275
2868.0,0.01357260715844073
2867.0,0.013497509303273016
2866.0,0.01341964996904241
2865.0,0.0133450487521455
2864.0,0.01327671493937429
2863.0,0.013214717801463214
2862.0,0.013159692725466627
2861.0,0.013112422509921352
2860.0,0.013070701702103608
2859.0,0.013030378226980947
2858.0,0.012988806910756224
2857.0,0.012944100688376693
2856.0,0.012893072808845626
2855.0,0.01283450061328749
2854.0,0.01277237982721798
2853.0,0.01271032075979323
2852.0,0.012644609480712938
2851.0,0.012569113104715195
2850.0,0.01248605174150827
2849.0,0.01240513474358835
2848.0,0.012331208749634883
2847.0,0.0122597640103277
2846.0,0.012185721468346341
2845.0,0.012109695433335451
2844.0,0.012034214495105576
2843.0,0.011959473203578671
2842.0,0.011884878093841927
2841.0,0.011810964768219443
2840.0,0.011738409734185985
2839.0,0.011668358412597236
2838.0,0.011603722935716817
2837.0,0.01154574044710958
2836.0,0.011489462015231806
2835.0,0.011428132408377747
2834.0,0.011362645119683254
2833.0,0.011301423485705932
2832.0,0.011249480066911002
2831.0,0.01120281357323378
2830.0,0.011155129790321556
2829.0,0.011104231753109874
2828.0,0.011050119337342972
2827.0,0.01099266477558447
2826.0,0.010934125294300441
2825.0,0.01087924546743193
2824.0,0.010829550675261186
2823.0,0.010781755832328745
2822.0,0.010734002880842145
2821.0,0.010688719932676073
2820.0,0.010646693706264074
2819.0,0.010603571038420736
2818.0,0.010556075026393982
2817.0,0.010507149462340774
2816.0,0.01046070509355987
2815.0,0.010415312497977823
2814.0,0.010367983573104703
2813.0,0.010321092886693393
2812.0,0.010280435458663669
2811.0,0.010247831054795146
2810.0,0.010219506844372561
2809.0,0.010190581264864017
2808.0,0.010158029382244404
2807.0,0.010121075067038682
2806.0,0.010081729320096586
2805.0,0.010043712722574503
2804.0,0.010008711929807776
2803.0,0.009974760300552265
2802.0,0.009939767192903081
2801.0,0.009904751964963175
2800.0,0.009871846019157698
2799.0,0.00984123034580045
2798.0,0.009811706674343845
2797.0,0.009781887082124165
2796.0,0.0097493665061839
2795.0,0.009711784217540194
2794.0,0.00967059924902647
2793.0,0.009630864007096054
2792.0,0.009595148078888024
2791.0,0.009560558067180666
2790.0,0.009524104341228166
2789.0,0.009487912802075598
2788.0,0.009455830193080276
2787.0,0.009427222381314226
2786.0,0.009397704096747351
2785.0,0.009364609909119965
2784.0,0.009328847824624335
2783.0,0.009292703292768136
2782.0,0.009258188327606774
2781.0,0.009226284456341449
2780.0,0.009195911888297019
2779.0,0.009164840130725896
2778.0,0.009132894578493788
2777.0,0.00910267988829376
2776.0,0.00907590271607154
2775.0,0.009050867937852107
2774.0,0.00902494700147829
2773.0,0.008997409530979392
2772.0,0.00896867518408499
2771.0,0.00893926609787203
2770.0,0.008910975336623687
2769.0,0.00888656180205517
2768.0,0.008866493174924633
2767.0,0.008848199686201664
2766.0,0.008829630577509984
2765.0,0.008810635063068164
2764.0,0.008789875020287415
2763.0,0.008764486523162907
2762.0,0.008735283039406573
2761.0,0.00870849179136139
2760.0,0.008688982566204179
2759.0,0.008674507134991127
2758.0,0.008659746434652725
2757.0,0.008643267604440534
2756.0,0.008626870153341857
2755.0,0.008610788430238048
2754.0,0.008593886605677448
2753.0,0.00857707993730378
2752.0,0.008562417372979622
2751.0,0.008549317999973844
2750.0,0.008535488341228886
2749.0,0.008521515890723412
2748.0,0.00851131217585042
2747.0,0.008507478308989683
2746.0,0.008508080091834794
2745.0,0.00850806328424342
2744.0,0.008502240843965956
2743.0,0.008487343914693052
2742.0,0.008463402327961838
2741.0,0.00843440122477034
2740.0,0.008406945659223435
2739.0,0.00838728115697212
2738.0,0.008378168189723001
2737.0,0.008376576621387983
2736.0,0.008374463922817205
2735.0,0.008364451864508841
2734.0,0.008346002060001335
2733.0,0.008324544651752912
2732.0,0.008304108845248152
2731.0,0.008283268487071234
2730.0,0.00825875418608496
2729.0,0.008229899395166941
2728.0,0.008197822934578223
2727.0,0.008162965417358423
2726.0,0.00812590071571536
2725.0,0.008088605289699569
2724.0,0.008052483345751605
2723.0,0.008016506564634495
2722.0,0.007979319155259075
2721.0,0.00794181044471011
2720.0,0.007905957394650005
2719.0,0.007872766141830155
2718.0,0.007843036322474763
2717.0,0.007818068116370851
2716.0,0.00779706843916963
2715.0,0.007775269046768125
2714.0,0.0077477442491723225
2713.0,0.007714943894403862
2712.0,0.0076824821939183215
2711.0,0.007655345334135975
2710.0,0.007633426528218582
2709.0,0.007612704062333039
2708.0,0.007589646102147971
2707.0,0.007564330162290189
2706.0,0.007539393216531102
2705.0,0.0075158963185925284
2704.0,0.007491299520898343
2703.0,0.007463153872654242
2702.0,0.0074343277436867625
2701.0,0.007411817786702976
2700.0,0.0073995894207321885
2699.0,0.0073942940569592976
2698.0,0.0073886857406603185
2697.0,0.007377618149832642
2696.0,0.007360507457536844
2695.0,0.007340732037607
2694.0,0.0073236442146591575
2693.0,0.007312852061659951
2692.0,0.00730682319801766
2691.0,0.007300596538057371
2690.0,0.007291623172392037
2689.0,0.007281857703405737
2688.0,0.007273380484852382
2687.0,0.007264635164367386
2686.0,0.007252726142693303
2685.0,0.007237319554246514
2684.0,0.007220121825704693
2683.0,0.007201847349651519
2682.0,0.007181814320808076
2681.0,0.0071600347235386795
2680.0,0.007138532433532576
2679.0,0.007120608280902134
2678.0,0.0071085808259987015
2677.0,0.0071009333437560985
2676.0,0.007092079582417608
2675.0,0.00707701139047338
2674.0,0.007056364897514085
2673.0,0.007035026838011592
2672.0,0.007016069561625576
2671.0,0.006998900988516766
2670.0,0.0069832878210697846
2669.0,0.006971484408477668
2668.0,0.006965061623900027
2667.0,0.006963043882444222
2666.0,0.006964758981774292
2665.0,0.006971230244494012
2664.0,0.006981503937210585
2663.0,0.006990637848116089
2662.0,0.0069943777942603445
2661.0,0.0069942227968565265
2660.0,0.006995186688284966
2659.0,0.006999945235620067
2658.0,0.007007333612632952
2657.0,0.007015179609536137
2656.0,0.007022047193750882
2655.0,0.007026763316043849
2654.0,0.007028648305491108
2653.0,0.007028505211168117
2652.0,0.007028501462781903
2651.0,0.007031131015436816
2650.0,0.00703811473006398
2649.0,0.0070485972209091904
2648.0,0.007058192429942656
2647.0,0.007062355523402007
2646.0,0.007061972256201188
2645.0,0.007063445738254145
2644.0,0.007071417555392008
2643.0,0.007083353503067017
2642.0,0.007093228505962156
2641.0,0.007098481579639746
2640.0,0.007101090046769072
2639.0,0.007103568354217526
2638.0,0.007107217444614745
2637.0,0.0071137046315596884
2636.0,0.007125180742758936
2635.0,0.007141591044726088
2634.0,0.007159383536747062
2633.0,0.007174041188750969
2632.0,0.0071839760762582045
2631.0,0.0071919768215579355
2630.0,0.007202450011906602
2629.0,0.007216560192710971
2628.0,0.007230274605818484
2627.0,0.007238170138922622
2626.0,0.007238917322959773
2625.0,0.00723566731958835
2624.0,0.0072313506220566485
2623.0,0.007225560796005243
2622.0,0.007216578166722236
2621.0,0.007204371746795514
2620.0,0.00719040117187094
2619.0,0.0071756511770843315
2618.0,0.0071603280171963855
2617.0,0.007145560736831567
2616.0,0.007134580964140724
2615.0,0.007130823248831493
2614.0,0.007133141783071041
2613.0,0.007133642351855363
2612.0,0.007124433828091805
2611.0,0.007108235501916367
2610.0,0.00709807785810811
2609.0,0.00710255081554882
2608.0,0.007114177560746832
2607.0,0.007118033700752629
2606.0,0.007109555859251977
2605.0,0.0070976699095251315
2604.0,0.007090779396746105
2603.0,0.007085881193054335
2602.0,0.007073156375650669
2601.0,0.007046264856710414
2600.0,0.007006270583018495
2599.0,0.006959801234079041
2598.0,0.006915837725599476
2597.0,0.006881894248216938
2596.0,0.006860997916163845
2595.0,0.006852510071477767
2594.0,0.006853920440906025
2593.0,0.0068590849366711015
2592.0,0.00685788657294561
2591.0,0.006843896148880391
2590.0,0.006821915584104469
2589.0,0.006802562174345186
2588.0,0.00678970091351863
2587.0,0.006778606253205819
2586.0,0.006765887884482284
2585.0,0.0067544871423207715
2584.0,0.006747811531428635
2583.0,0.0067454379228882085
2582.0,0.00674627196460173
2581.0,0.006750025240480777
2580.0,0.006753715368765801
2579.0,0.0067525620332027966
2578.0,0.006746734072497455
2577.0,0.006742028635734559
2576.0,0.006741629506257795
2575.0,0.006742348726992146
2574.0,0.006741116375408191
2573.0,0.006739484078648746
2572.0,0.006738617286774466
2571.0,0.0067350574057878625
2570.0,0.00672537081750799
2569.0,0.006711286631566898
2568.0,0.006696902316423541
2567.0,0.0066837683601699924
2566.0,0.006671205667870711
2565.0,0.006658811087500556
2564.0,0.006646764262879091
2563.0,0.006635948250441323
2562.0,0.006628213645899559
2561.0,0.00662328615297395
2560.0,0.006615950223502391
2559.0,0.0066012409215154035
2558.0,0.006582434150799
2557.0,0.006568287478580676
2556.0,0.0065618332261077866
2555.0,0.006557926182922568
2554.0,0.006552828539851629
2553.0,0.006548851096996438
2552.0,0.006546939655254103
2551.0,0.006542227341479398
2550.0,0.006531214282616727
2549.0,0.006517324238570293
2548.0,0.006504570045467064
2547.0,0.006490777340253481
2546.0,0.00647231977819827
2545.0,0.0064515655969057655
2544.0,0.006434311058189254
2543.0,0.006422466018444825
2542.0,0.006413670025653604
2541.0,0.0064060313864944835
2540.0,0.006399179413471665
2539.0,0.0063922049054472825
2538.0,0.006384349954465798
2537.0,0.00637715326839737
2536.0,0.006373360906860771
2535.0,0.006373763100331055
2534.0,0.00637605631101253
2533.0,0.00637651183234694
2532.0,0.00637335627794336
2531.0,0.006369959721155246
2530.0,0.006373287813769167
2529.0,0.006386053560454739
2528.0,0.0064012367092629785
2527.0,0.006408364225960834
2526.0,0.0064053445637913846
2525.0,0.006400483122101365
2524.0,0.006402759220294941
2523.0,0.006413616942684742
2522.0,0.006427832321986052
2521.0,0.006437988402247789
2520.0,0.006437987599304708
2519.0,0.006426682313617622
2518.0,0.006409368291051945
2517.0,0.006393331690488495
2516.0,0.006382495155857599
2515.0,0.006378734771603068
2514.0,0.006385105618087658
2513.0,0.006401844423263067
2512.0,0.006420935039638649
2511.0,0.006431556995281427
2510.0,0.006431303884657638
2509.0,0.006426892160173181
2508.0,0.006424233535308602
2507.0,0.006423224923794756
2506.0,0.006421397533683379
2505.0,0.006416117260140263
2504.0,0.006403397974712795
2503.0,0.006381642245247588
2502.0,0.006357326870967551
2501.0,0.006340212395193868
2500.0,0.006331418156228633
2499.0,0.006321955755638576
2498.0,0.006304024699863589
2497.0,0.006278524298587863
2496.0,0.006251410356331405
2495.0,0.006228650601735351
2494.0,0.006214339953613137
2493.0,0.006206770799838907
2492.0,0.006196275264614945
2491.0,0.0061743107615352105
2490.0,0.0061448941839776046
2489.0,0.006119390267704729
2488.0,0.006100201361142891
2487.0,0.006078915228747261
2486.0,0.006051389167762974
2485.0,0.006024148766973698
2484.0,0.006003096867228334
2483.0,0.005986289310700186
2482.0,0.005972124521615297
2481.0,0.0059643323232779375
2480.0,0.00596222083193113
2479.0,0.005954695085036108
2478.0,0.005932564586810346
2477.0,0.005901977017689145
2476.0,0.005878662249783297
2475.0,0.005872048401942578
2474.0,0.005879517459334989
2473.0,0.005891347890117922
2472.0,0.0058958244536797015
2471.0,0.0058841046358672116
2470.0,0.00585714240700259
2469.0,0.005826835314225383
2468.0,0.005806056103151398
2467.0,0.00579810098164909
2466.0,0.0057973988841816615
2465.0,0.005797439012584942
2464.0,0.005795436394317068
2463.0,0.005791854288072191
2462.0,0.005788020796224246
2461.0,0.005783395598875035
2460.0,0.005775558575616244
2459.0,0.005765311617721275
2458.0,0.005759790137980382
2457.0,0.00576513211687538
2456.0,0.005776878143683739
2455.0,0.005784119443346928
2454.0,0.005783376635310391
2453.0,0.0057814834908039864
2452.0,0.005783906703367728
2451.0,0.005787725199563236
2450.0,0.005788083832379512
2449.0,0.005784126495833715
2448.0,0.005776100462841979
2447.0,0.005764225699980784
2446.0,0.005753376290240198
2445.0,0.005750603264501522
2444.0,0.005753610404581837
2443.0,0.005749707401569109
2442.0,0.005732177584905372
2441.0,0.005710948205236101
2440.0,0.005700025403231282
2439.0,0.005699270736039918
2438.0,0.00569584705962183
2437.0,0.00568087638327129
2436.0,0.005658706205719371
2435.0,0.005641404058135883
2434.0,0.005638518372252178
2433.0,0.00565045303076273
2432.0,0.005668043816049438
2431.0,0.005679878947534653
2430.0,0.005682351156716967
2429.0,0.005681121366093327
2428.0,0.005682302093998419
2427.0,0.0056858742947982375
2426.0,0.00568884903092378
2425.0,0.005690054662409958
2424.0,0.005689167339493175
2423.0,0.0056851952320114705
2422.0,0.005679145798100203
2421.0,0.005675127171319023
2420.0,0.005676150762889514
2419.0,0.005681278128581771
2418.0,0.005688202656628633
2417.0,0.005695395887344259
2416.0,0.00570074578003947
2415.0,0.005702102215733718
2414.0,0.005700794119823682
2413.0,0.005700985309844492
2412.0,0.005703955720359357
2411.0,0.005706154433097204
2410.0,0.005703714079631774
2409.0,0.005695564162403894
2408.0,0.005682247137823615
2407.0,0.005666259430671103
2406.0,0.005653317983092484
2405.0,0.0056472180987115735
2404.0,0.005642822959857848
2403.0,0.005630766230973893
2402.0,0.005610631954139248
2401.0,0.005592904145484596
2400.0,0.005585278430471882
2399.0,0.005583386305846711
2398.0,0.0055787026531206
2397.0,0.0055698847714200726
2396.0,0.005561718747389177
2395.0,0.005557317294934858
2394.0,0.0055563184334923655
2393.0,0.00555769399480361
2392.0,0.00556009509783063
2391.0,0.0055613278194813565
2390.0,0.005560294945543828
2389.0,0.005557893852989995
2388.0,0.00555473367123089
2387.0,0.005550571950042205
2386.0,0.005546688008415708
2385.0,0.005544497593048938
2384.0,0.005539571967879178
2383.0,0.005521114018290966
2382.0,0.005481007036832188
2381.0,0.0054216484260337
2380.0,0.00535279487939804
2379.0,0.005283134057823831
2378.0,0.005217698791191167
2377.0,0.0051599456786853015
2376.0,0.005111633977878403
2375.0,0.005073001670187052
2374.0,0.0050456125480402665
2373.0,0.005031978964618615
2372.0,0.00502935406168408
2371.0,0.005030211453597096
2370.0,0.005033977811233314
2369.0,0.00504970739953695
2368.0,0.005079040263542811
2367.0,0.005106076986293893
2366.0,0.005112781524002828
2365.0,0.005096342772181006
2364.0,0.005065774634775268
2363.0,0.00503576983255473
2362.0,0.005024514366874048
2361.0,0.0050362263259436475
2360.0,0.005049348238394517
2359.0,0.005039116131208247
2358.0,0.005007127974066057
2357.0,0.0049759875898489105
2356.0,0.004952285388178316
2355.0,0.004925639488679431
2354.0,0.004888644433173611
2353.0,0.0048489428566381625
2352.0,0.00482914588098591
2351.0,0.00484531703328704
2350.0,0.004893773457747094
2349.0,0.004953540872927302
2348.0,0.005002363317430975
2347.0,0.005029681691149621
2346.0,0.005036848304777389
2345.0,0.005044564231352449
2344.0,0.005069238072367553
2343.0,0.005100610359059643
2342.0,0.005106831645045304
2341.0,0.005077976197488685
2340.0,0.005047499080971305
2339.0,0.005046592103975169
2338.0,0.005075665955394819
2337.0,0.005112169158212219
2336.0,0.005141637616698662
2335.0,0.005157912638082241
2334.0,0.005156356356106285
2333.0,0.005130612622228589
2332.0,0.005093955952456521
2331.0,0.00507102555114597
2330.0,0.005085610279160508
2329.0,0.005139645858369827
2328.0,0.005226721217963834
2327.0,0.005344562978169833
2326.0,0.0054814954992255084
2325.0,0.005605577139555239
2324.0,0.0056696371022914695
2323.0,0.005651877848234448
2322.0,0.005579253065603803
2321.0,0.0055017238320936935
2320.0,0.0054541413979429755
2319.0,0.005440593206170126
2318.0,0.005456418815525789
2317.0,0.0054884067299900505
2316.0,0.005519854930868485
2315.0,0.005536910840942199
2314.0,0.005546627974712888
2313.0,0.005563621830347062
2312.0,0.005591770936407024
2311.0,0.005619910444169217
2310.0,0.005642171471017776
2309.0,0.005662260704456793
2308.0,0.005681674269734721
2307.0,0.0056943392451122175
2306.0,0.005699750282346154
2305.0,0.0057075738640210375
2304.0,0.005726684503002432
2303.0,0.00575435355267674
2302.0,0.00578396380301185
2301.0,0.005812562430316853
2300.0,0.005841814689976546
2299.0,0.00587248482218123
2298.0,0.005906009483369805
2297.0,0.005943158051498024
2296.0,0.005981706478198319
2295.0,0.0060182018432824134
2294.0,0.006054161075815737
2293.0,0.006095418997781167
2292.0,0.006142963187129117
2291.0,0.006191040899979827
2290.0,0.006234015003826981
2289.0,0.006271767663393553
2288.0,0.006305217257154076
2287.0,0.006333241142066732
2286.0,0.0063543215861008315
2285.0,0.0063675091204344475
2284.0,0.006369823302964303
2283.0,0.006358860056665446
2282.0,0.006338929828138945
2281.0,0.006319150877654019
2280.0,0.006303543635268181
2279.0,0.006288501059129867
2278.0,0.006271845066437793
2277.0,0.006258007264564656
2276.0,0.0062528844401244085
2275.0,0.00625785645856566
2274.0,0.006269812842936109
2273.0,0.006281842722228909
2272.0,0.00628576619883599
2271.0,0.006281151723204005
2270.0,0.006278998021945649
2269.0,0.0062879994802720815
2268.0,0.0062986712310641214
2267.0,0.006292996408315536
2266.0,0.00626925047385225
2265.0,0.006246236094316102
2264.0,0.006240859003502948
2263.0,0.00625336507401182
2262.0,0.00627583476233858
2261.0,0.006303821702484408
2260.0,0.006333848109566507
2259.0,0.006358942650451411
2258.0,0.0063710053831353974
2257.0,0.006363110041489069
2256.0,0.006331604119594846
2255.0,0.006283651612938218
2254.0,0.0062415239168666144
2253.0,0.006225989354115393
2252.0,0.0062350815936230404
2251.0,0.006248948827392919
2250.0,0.006256725909758662
2249.0,0.006266223215524469
2248.0,0.0062864604006994855
2247.0,0.006313281079440062
2246.0,0.006334970204686552
2245.0,0.006343798631111933
2244.0,0.006338577109993499
2243.0,0.006325084276026074
2242.0,0.006314292425785226
2241.0,0.006311501600436296
2240.0,0.006306525623248509
2239.0,0.006285309187003265
2238.0,0.00625149351345595
2237.0,0.0062263993037015375
2236.0,0.006226071047701176
2235.0,0.006245972217727099
2234.0,0.0062679655671135535
2233.0,0.0062734655551332594
2232.0,0.006254430069344394
2231.0,0.006221149623355766
2230.0,0.006197100687566589
2229.0,0.0061962370631542495
2228.0,0.006209428433791769
2227.0,0.006221109822635555
2226.0,0.006228058211613028
2225.0,0.0062295720062577565
2224.0,0.006213446448496966
2223.0,0.006174009049665405
2222.0,0.006134004725729947
2221.0,0.006124482087909078
2220.0,0.006146056168477928
2219.0,0.006172977597984294
2218.0,0.006188982256979143
2217.0,0.006194394886025628
2216.0,0.006184594850417172
2215.0,0.0061520215088183405
2214.0,0.006110595606346047
2213.0,0.006089524750204225
2212.0,0.006097568438602908
2211.0,0.006115948221228562
2210.0,0.006128893177567606
2209.0,0.006136824264744081
2208.0,0.006138898995747603
2207.0,0.006128914519816134
2206.0,0.006112190715966185
2205.0,0.006102625062180551
2204.0,0.006099686948064774
2203.0,0.006092152183829242
2202.0,0.006084600674194902
2201.0,0.006092786475710789
2200.0,0.006111376099411974
2199.0,0.00611628733149355
2198.0,0.006103125242299098
2197.0,0.006093234145048754
2196.0,0.006095036343630317
2195.0,0.006090220448472127
2194.0,0.0060692859804866
2193.0,0.006052262742237556
2192.0,0.006059707700779993
2191.0,0.006084830788807324
2190.0,0.006106254644706972
2189.0,0.006109877379848238
2188.0,0.006092019474093584
2187.0,0.006061204193797832
2186.0,0.006039581106384297
2185.0,0.006039428282256047
2184.0,0.006036797410204235
2183.0,0.0059966863043893984
2182.0,0.005927662785464044
2181.0,0.005878964699293869
2180.0,0.005875938930327086
2179.0,0.005890607243808902
2178.0,0.005883665895224162
2177.0,0.005844853682363577
2176.0,0.005787164620455133
2175.0,0.005732396918843682
2174.0,0.005710405044998383
2173.0,0.0057428303630238
2172.0,0.0058177075335543215
2171.0,0.005904691937045002
2170.0,0.005995303208332466
2169.0,0.006098892481496205
2168.0,0.006200244653960959
2167.0,0.006256810407663993
2166.0,0.0062507827717510275
2165.0,0.0062166277843821866
2164.0,0.006202561144440033
2163.0,0.006222050059150972
2162.0,0.006241571769368645
2161.0,0.006189581504267326
2160.0,0.005990621657643333
2159.0,0.0056474289574080395
2158.0,0.005287560873357121
2157.0,0.005062648415666522
2156.0,0.005005668909207643
2155.0,0.005044273258634837
2154.0,0.005117238849620824
2153.0,0.005209758696932805
2152.0,0.005305029510195184
2151.0,0.0053699827736404405
2150.0,0.005394974433723576
2149.0,0.005401955448828689
2148.0,0.005403693731301172
2147.0,0.0053898496072362695
2146.0,0.005358334073391212
2145.0,0.005325852153109046
2144.0,0.005301596875479203
2143.0,0.005282158699993711
2142.0,0.00527407546815205
2141.0,0.005287875555574655
2140.0,0.005308612402725335
2139.0,0.005304814045707802
2138.0,0.0052685406748924175
2137.0,0.005216623289751164
2136.0,0.005155287444884821
2135.0,0.005078724121050843
2134.0,0.005003417959404819
2133.0,0.004964860036514101
2132.0,0.004973822564187894
2131.0,0.00500703898381921
2130.0,0.0050444426381467755
2129.0,0.005084469631084736
2128.0,0.005122845517967384
2127.0,0.005146703800225502
2126.0,0.00515625882654519
2125.0,0.005167056454973874
2124.0,0.005185510123171175
2123.0,0.005204143884534151
2122.0,0.0052228312240089215
2121.0,0.005249460159577131
2120.0,0.005277501841286303
2119.0,0.005290687436692191
2118.0,0.005294367120511697
2117.0,0.005314134662388529
2116.0,0.005356065846627104
2115.0,0.005396100697962279
2114.0,0.005418169961178037
2113.0,0.005434454326172731
2112.0,0.0054558907025001714
2111.0,0.005470157475015639
2110.0,0.005465690857382965
2109.0,0.005453411443772964
2108.0,0.005446187440986586
2107.0,0.005437652425902364
2106.0,0.00541931933779563
2105.0,0.005400713571614976
2104.0,0.005394884131951317
2103.0,0.005399428927532598
2102.0,0.0054055729445918665
2101.0,0.005410375000148046
2100.0,0.005408306588297338
2099.0,0.005387563856087795
2098.0,0.005346709102039617
2097.0,0.005300126942249599
2096.0,0.005257461463093939
2095.0,0.005214668302871537
2094.0,0.0051731706421926605
2093.0,0.005147444407056823
2092.0,0.005144225792930269
2091.0,0.005153765222691795
2090.0,0.005168416017829041
2089.0,0.0051905462907415705
2088.0,0.005216002691145546
2087.0,0.005231802196724698
2086.0,0.00523787410800147
2085.0,0.005249295208086372
2084.0,0.00526850007468978
2083.0,0.005277313614193387
2082.0,0.005266916796644852
2081.0,0.005252964439109701
2080.0,0.005249844533329622
2079.0,0.005251483348017033
2078.0,0.005250369577108457
2077.0,0.00525188522858749
2076.0,0.00525735169839204
2075.0,0.005255480460933553
2074.0,0.0052442009327287
2073.0,0.0052377026520563814
2072.0,0.005238527366118182
2071.0,0.005227226550993791
2070.0,0.005194431287392684
2069.0,0.005158802241596052
2068.0,0.005137419500042873
2067.0,0.005122761435833187
2066.0,0.005106279901037245
2065.0,0.005098287017937768
2064.0,0.0051042240447457185
2063.0,0.005104332331437453
2062.0,0.005079747391248304
2061.0,0.005040827355822608
2060.0,0.005014470606123294
2059.0,0.005016599188858954
2058.0,0.005044825859904658
2057.0,0.005079646264756954
2056.0,0.005090346642760314
2055.0,0.0050684533084445075
2054.0,0.005059017108232856
2053.0,0.005121271008765029
2052.0,0.0052469989268995884
2051.0,0.005353375767136242
2050.0,0.005370927093131595
2049.0,0.005311042900147071
2048.0,0.005230406306216586
2047.0,0.005161078046115497
2046.0,0.005108473128503415
2045.0,0.005081488474079408
2044.0,0.005081184835478734
2043.0,0.005087175312266874
2042.0,0.005087393736027331
2041.0,0.00509539954403312
2040.0,0.005115801212075634
2039.0,0.005126720722342341
2038.0,0.005120009355711145
2037.0,0.0051180302233136046
2036.0,0.005125002372995462
2035.0,0.005103409957146864
2034.0,0.005031749889650979
2033.0,0.004946015448252869
2032.0,0.004887910029428652
2031.0,0.004852950750031449
2030.0,0.004823883327399891
2029.0,0.004809053381362783
2028.0,0.00481366135435286
2027.0,0.0048166243307167945
2026.0,0.004809190175386417
2025.0,0.004814446830210321
2024.0,0.0048383247192252616
2023.0,0.004846683973193638
2022.0,0.0048215653227510055
2021.0,0.004796460488950429
2020.0,0.004803523633711413
2019.0,0.004826373675756169
2018.0,0.004837516896760452
2017.0,0.004843689140728523
2016.0,0.004860605474868623
2015.0,0.0048783757833948255
2014.0,0.004885515298333105
2013.0,0.004893601401157645
2012.0,0.0049108396683193506
2011.0,0.004920304400878371
2010.0,0.004905936419156169
2009.0,0.004870325678232206
2008.0,0.004812885230530512
2007.0,0.004728715612997163
2006.0,0.004643373059887781
2005.0,0.004603265269540439
2004.0,0.004613723721160427
2003.0,0.004633134164977115
2002.0,0.00463970886924295
2001.0,0.004656138482271045
2000.0,0.004695778453921315
1999.0,0.004733936015167717
1998.0,0.004756176774589792
1997.0,0.0047873572687282765
1996.0,0.00484552530897454
1995.0,0.004906896777966357
1994.0,0.004942209449807266
1993.0,0.0049533515776320905
1992.0,0.004952217521535482
1991.0,0.004937459297899395
1990.0,0.004918455012122641
1989.0,0.004924795534670624
1988.0,0.004966771274450936
1987.0,0.0050172264063492854
1986.0,0.005053427679077333
1985.0,0.0050873434782918924
1984.0,0.005136889737053778
1983.0,0.005202461190071391
1982.0,0.005285390650298267
1981.0,0.005383170302040068
1980.0,0.005446151655116889
1979.0,0.005393739621158232
1978.0,0.005218383565668166
1977.0,0.005027351374428998
1976.0,0.004924446528775178
1975.0,0.00490200618415868
1974.0,0.00490212643627006
1973.0,0.004910575911764309
1972.0,0.004935730439683459
1971.0,0.004956820062188752
1970.0,0.004950332659679264
1969.0,0.004928854452599259
1968.0,0.004911284448461222
1967.0,0.004888857529285386
1966.0,0.0048599164592839595
1965.0,0.004855469488285068
1964.0,0.00488783812405173
1963.0,0.004918004794308993
1962.0,0.0049070683538883966
1961.0,0.004867115009915044
1960.0,0.004832101047567564
1959.0,0.004809783816661622
1958.0,0.004795193099626439
1957.0,0.004797779155721755
1956.0,0.004822380925501806
1955.0,0.0048508543822978955
1954.0,0.004868302776945908
1953.0,0.004882065133178307
1952.0,0.00489511825523547
1951.0,0.0048913084073985485
1950.0,0.004866501399667591
1949.0,0.0048448725946657846
1948.0,0.004842471718487371
1947.0,0.004842281150138967
1946.0,0.004825306819282627
1945.0,0.004796793319696815
1944.0,0.004762066939737699
1943.0,0.0047084689273823805
1942.0,0.00463770117842247
1941.0,0.004581835774081692
1940.0,0.004555766557321761
1939.0,0.004537562382096359
1938.0,0.004513946419101565
1937.0,0.004502029022096409
1936.0,0.004509535924466454
1935.0,0.004509885350032679
1934.0,0.004480896309132149
1933.0,0.004438244502611794
1932.0,0.0044050567897526574
1931.0,0.004376236602717853
1930.0,0.004337862810025723
1929.0,0.004296773406388779
1928.0,0.004265404678474497
1927.0,0.004238937061134037
1926.0,0.004210169733488788
1925.0,0.004185301419775715
1924.0,0.004169495802224219
1923.0,0.004152950452614245
1922.0,0.004133426928009823
1921.0,0.004128858021915894
1920.0,0.004144567663392737
1919.0,0.0041575862328957795
1918.0,0.004149392997872336
1917.0,0.004134768286960289
1916.0,0.004134238984843002
1915.0,0.0041402465119380815
1914.0,0.004138250788995926
1913.0,0.004130304019367261
1912.0,0.004119609436224649
1911.0,0.004096138683904593
1910.0,0.004056428210382549
1909.0,0.004019943390169071
1908.0,0.004004324010882893
1907.0,0.004002150145509702
1906.0,0.004001185296484164
1905.0,0.004003886473143108
1904.0,0.004012191049334454
1903.0,0.004012182065712508
1902.0,0.003994289123016324
1901.0,0.003971627012295737
1900.0,0.003959729529445097
1899.0,0.003953906418524735
1898.0,0.003943623260995132
1897.0,0.003930714929644608
1896.0,0.003919601349242904
1895.0,0.003904849037372455
1894.0,0.0038857575407848137
1893.0,0.003874364944258763
1892.0,0.003872501733635318
1891.0,0.0038625760351313843
1890.0,0.003834207991903199
1889.0,0.003806474720773308
1888.0,0.0038026336622861995
1887.0,0.00381634096585812
1886.0,0.0038281849927010426
1885.0,0.0038343249716937433
1884.0,0.0038385316382499144
1883.0,0.0038373549012058715
1882.0,0.0038303278814283874
1881.0,0.0038280931918183384
1880.0,0.003834143824702315
1879.0,0.003834599172266682
1878.0,0.0038214436251658066
1877.0,0.0038084990635367287
1876.0,0.0038099082724435836
1875.0,0.0038187260323281763
1874.0,0.0038214686139018024
1873.0,0.003818648350086042
1872.0,0.003816147036935236
1871.0,0.0038089924538232188
1870.0,0.0037877649808841407
1869.0,0.003755980829231855
1868.0,0.0037295338893376883
1867.0,0.0037197183969187213
1866.0,0.003727828639954257
1865.0,0.0037513433409390234
1864.0,0.0037810681630156395
1863.0,0.0037989548220754205
1862.0,0.0037959781953693624
1861.0,0.0037852664670498157
1860.0,0.0037828797317692956
1859.0,0.0037870239253095933
1858.0,0.0037892084346461325
1857.0,0.0037908036271055243
1856.0,0.0037954346053131354
1855.0,0.0037985945978854917
1854.0,0.0037972756155845444
1853.0,0.003798590698583434
1852.0,0.0038064628600404642
1851.0,0.003810715519301939
1850.0,0.003803549463031111
1849.0,0.0037891622592684956
1848.0,0.0037727255172080093
1847.0,0.0037551349073322686
1846.0,0.0037445927033126383
1845.0,0.003755889172550759
1844.0,0.003785016730530946
1843.0,0.0038061403379746495
1842.0,0.003810605269432746
1841.0,0.0038152327288720565
1840.0,0.003832743076056945
1839.0,0.0038514545011672932
1838.0,0.0038532547688167025
1837.0,0.003844019807670092
1836.0,0.003843915566105636
1835.0,0.0038547550190202572
1834.0,0.0038645656223695096
1833.0,0.0038728388448039195
1832.0,0.0038866338858993647
1831.0,0.003898304757132689
1830.0,0.003891598772975349
1829.0,0.0038750599944216953
1828.0,0.003873660636047037
1827.0,0.0038842198116624963
1826.0,0.003888804924511044
1825.0,0.003886673578134885
1824.0,0.0038885638675169535
1823.0,0.0038975303651491468
1822.0,0.003907554444516712
1821.0,0.0039155870376383845
1820.0,0.003917185968675897
1819.0,0.0038995069843625815
1818.0,0.0038600466669366515
1817.0,0.0038219421930025324
1816.0,0.0038105500901117768
1815.0,0.003820853097441625
1814.0,0.0038287806875831696
1813.0,0.003823259711900077
1812.0,0.0038096581644956017
1811.0,0.003794120977605713
1810.0,0.0037816474398329114
1809.0,0.0037822478890735005
1808.0,0.003798751759208176
1807.0,0.0038180340056260488
1806.0,0.0038272900001600956
1805.0,0.003828304311892936
1804.0,0.0038273795815661985
1803.0,0.0038210178753147975
1802.0,0.003805638395665465
1801.0,0.003795604745669468
1800.0,0.003809614449378315
1799.0,0.003843019217445797
1798.0,0.0038721517513183703
1797.0,0.0038854074078573317
1796.0,0.0038908994975876392
1795.0,0.0038984843882495217
1794.0,0.003908897284636725
1793.0,0.0039187188752531224
1792.0,0.003923637550965775
1791.0,0.003921070727609435
1790.0,0.003919354498563133
1789.0,0.003932226076537268
1788.0,0.0039629560879172335
1787.0,0.003997028687458393
1786.0,0.004013817799281442
1785.0,0.004012932504659179
1784.0,0.0040147123955414955
1783.0,0.004026220541164147
1782.0,0.004033544375759193
1781.0,0.004031950765416623
1780.0,0.004033948138288691
1779.0,0.004049518646572439
1778.0,0.0040702330539831785
1777.0,0.00408488641031142
1776.0,0.004095628719154413
1775.0,0.004111651894731873
1774.0,0.004139926852250126
1773.0,0.004184125844912994
1772.0,0.004239840552667651
1771.0,0.004287062612472545
1770.0,0.004312258487540924
1769.0,0.004332683953451845
1768.0,0.004381961701540634
1767.0,0.004461216893265091
1766.0,0.004535653008223099
1765.0,0.0045897730765685745
1764.0,0.0046481992144901275
1763.0,0.0047369928927694475
1762.0,0.004841317570554908
1761.0,0.004934276575579906
1760.0,0.005025325190204147
1759.0,0.005135651966055282
1758.0,0.0052724902982420165
1757.0,0.005440325415037014
1756.0,0.005637660761173389
1755.0,0.005847854512954136
1754.0,0.006055758833105252
1753.0,0.006283261184621398
1752.0,0.006588376767424622
1751.0,0.0069987378820218936
1750.0,0.007472968396278895
1749.0,0.00798980502443159
1748.0,0.008592131059784902
1747.0,0.009299173936180195
1746.0,0.010094793210892104
1745.0,0.010998983657221578
1744.0,0.012053621721405063
1743.0,0.013236000239277802
1742.0,0.014504149679097637
1741.0,0.01594331194045703
1740.0,0.017662688945406436
1739.0,0.019462572302573186
1738.0,0.02095912456792028
1737.0,0.022124617652152186
1736.0,0.023359118925871843
1735.0,0.025239147897948226
1734.0,0.027772620044138815
1733.0,0.03001215058086214
1732.0,0.03157865998833774
1731.0,0.032934051462445456
1730.0,0.034418891450220646
1729.0,0.036017806533054086
1728.0,0.03757054932411599
1727.0,0.03901506393662099
1726.0,0.04040186252693157
1725.0,0.041802032956270635
1724.0,0.043240572235648145
1723.0,0.044638636981558816
1722.0,0.045838152875197866
1721.0,0.04676708592760612
1720.0,0.04756788722216262
1719.0,0.048553854040585306
1718.0,0.04987199627283462
1717.0,0.0511093012270798
1716.0,0.051840936996595935
1715.0,0.05217634027904306
1714.0,0.05225411702973658
1713.0,0.052018936438224035
1712.0,0.05143934167555203
1711.0,0.050567387973611884
1710.0,0.04944699497125709
1709.0,0.0480865740455268
1708.0,0.04648508768541691
1707.0,0.04460674387280196
1706.0,0.04246163942121249
1705.0,0.0403385700049383
1704.0,0.038608590134875616
1703.0,0.03726262953305837
1702.0,0.03598197801642317
1701.0,0.03442424288556064
1700.0,0.03273666072528753
1699.0,0.0314511786079414
1698.0,0.0305697420296632
1697.0,0.029808062249034737
1696.0,0.029063844138457036
1695.0,0.0284250427617601
1694.0,0.027960551976714217
1693.0,0.027608627281799383
1692.0,0.027312682433393052
1691.0,0.027051637429421804
1690.0,0.026830588269449895
1689.0,0.02668356563055429
1688.0,0.02660940966694336
1687.0,0.026570260892024897
1686.0,0.02657161555053389
1685.0,0.02670502020806987
1684.0,0.026954986261442434
1683.0,0.027104620802113316
1682.0,0.027143887055909557
1681.0,0.02720533073155888
1680.0,0.02734012866163128
1679.0,0.027500115097310828
1678.0,0.027650646285268598
1677.0,0.027860475481168167
1676.0,0.028210004692295395
1675.0,0.028622729962703743
1674.0,0.028937363361866864
1673.0,0.029152820597749356
1672.0,0.02937625824185074
1671.0,0.02968467969120942
1670.0,0.03009501518992961
1669.0,0.030561531371642518
1668.0,0.030987875036084453
1667.0,0.031304143123453414
1666.0,0.031544707992009396
1665.0,0.0318283298777297
1664.0,0.0322599036624666
1663.0,0.03282031020767885
1662.0,0.03338153948506503
1661.0,0.03388779682848073
1660.0,0.03437673822645625
1659.0,0.0348592409780545
1658.0,0.03531068748355831
1657.0,0.035706245744654315
1656.0,0.0360819576355704
1655.0,0.036563480861638284
1654.0,0.03746296070105958
1653.0,0.03874513234494332
1652.0,0.03963788226344552
1651.0,0.03995290402135566
1650.0,0.04000434089653952
1649.0,0.04010877510902261
1648.0,0.04046500471182701
1647.0,0.04096910407767008
1646.0,0.041319527625231
1645.0,0.04143233221250498
1644.0,0.041371912300320925
1643.0,0.0411390995576748
1642.0,0.04074158938634008
1641.0,0.040227868354846784
1640.0,0.039649562740100695
1639.0,0.03902681373661523
1638.0,0.03835248501158489
1637.0,0.037594076407812975
1636.0,0.036726527498384134
1635.0,0.0358709740025203
1634.0,0.03519000069954645
1633.0,0.03465637326042544
1632.0,0.03418216477730395
1631.0,0.0337189583957825
1630.0,0.033233909133989895
1629.0,0.03271966119421339
1628.0,0.032197374438677887
1627.0,0.03169687163612044
1626.0,0.03123494839011383
1625.0,0.030803575162032408
1624.0,0.03036088180270987
1623.0,0.029872531141344055
1622.0,0.02938827951907879
1621.0,0.028987571546609348
1620.0,0.028679113512529716
1619.0,0.02842846940655096
1618.0,0.028195165047067344
1617.0,0.02794449388913527
1616.0,0.027665707609424627
1615.0,0.027357927928744696
1614.0,0.027017529645692876
1613.0,0.026655269712190052
1612.0,0.02627631896021876
1611.0,0.025855793168133474
1610.0,0.025375895655079944
1609.0,0.02486116397619034
1608.0,0.02435009121303328
1607.0,0.023858472714054255
1606.0,0.023386998816651017
1605.0,0.022936265154779954
1604.0,0.022499580294397328
1603.0,0.02206616816598163
1602.0,0.02163767891678942
1601.0,0.021229026528918758
1600.0,0.020848734077347414
1599.0,0.02049002547714905
1598.0,0.020142964839580817
1597.0,0.019803619383914103
1596.0,0.019470936191686456
1595.0,0.01914548811431998
1594.0,0.018833666912657542
1593.0,0.01854312473687039
1592.0,0.018272049806099314
1591.0,0.018011859202512467
1590.0,0.017760004524689184
1589.0,0.0175237026035188
1588.0,0.017312855517891315
1587.0,0.01713833877444867
1586.0,0.01701653923183913
1585.0,0.016967074433665092
1584.0,0.017000761188683558
1583.0,0.0171115649284957
1582.0,0.01727391912206857
1581.0,0.017438558720796825
1580.0,0.017552797788746737
1579.0,0.017580599939758332
1578.0,0.01748845804175864
1577.0,0.017213313842393146
1576.0,0.016744935105743257
1575.0,0.016224205164598562
1574.0,0.015767858957565516
1573.0,0.015370473972790184
1572.0,0.01501036263496755
1571.0,0.014660221244589256
1570.0,0.014287766291415472
1569.0,0.01392203288397732
1568.0,0.013628727631889805
1567.0,0.013410312811347386
1566.0,0.01322562253576001
1565.0,0.013048172782494646
1564.0,0.012878569845876178
1563.0,0.012737202340429682
1562.0,0.012646630292249121
1561.0,0.012605525262815599
1560.0,0.012566232265523862
1559.0,0.012429122998600417
1558.0,0.01225662504913116
1557.0,0.012190687770525288
1556.0,0.012146559012490251
1555.0,0.012093440748645944
1554.0,0.012062236306384573
1553.0,0.012035690197431547
1552.0,0.011984225848712522
1551.0,0.01191021209773491
1550.0,0.011838577601475487
1549.0,0.01178283970248612
1548.0,0.011741217065213135
1547.0,0.011696992659467303
1546.0,0.011630829591791384
1545.0,0.011526902701577975
1544.0,0.011390293419186643
1543.0,0.011264469649936062
1542.0,0.011190685236368392
1541.0,0.011151903287670859
1540.0,0.011098347090281357
1539.0,0.011052471393331391
1538.0,0.011037880041369958
1537.0,0.010994006639626592
1536.0,0.01091807342101641
1535.0,0.010858192486726365
1534.0,0.01082834693081419
1533.0,0.010803325164677184
1532.0,0.010774590637540363
1531.0,0.01075870170009329
1530.0,0.01075442771350583
1529.0,0.010745493655035644
1528.0,0.01071453205172455
1527.0,0.01066338537508448
1526.0,0.010615935383554495
1525.0,0.010585579713082905
1524.0,0.01056325968423347
1523.0,0.010548468730756433
1522.0,0.01055016018831742
1521.0,0.010551280553281008
1520.0,0.010531552139229568
1519.0,0.010496575493547404
1518.0,0.010464692884935666
1517.0,0.010447287633399647
1516.0,0.010438967510127139
1515.0,0.01045204830566607
1514.0,0.010506942572704592
1513.0,0.010599652125921127
1512.0,0.010712981901466358
1511.0,0.010825748927613288
1510.0,0.01096261321097254
1509.0,0.011205965341270992
1508.0,0.011734122183205234
1507.0,0.012612201282342937
1506.0,0.013415072528748663
1505.0,0.01376659817638307
1504.0,0.013677471494520543
1503.0,0.013282903027803303
1502.0,0.012745051393687836
1501.0,0.012180711005640046
1500.0,0.011649575270666193
1499.0,0.011181524433942137
1498.0,0.010798902184877394
1497.0,0.010525165748898713
1496.0,0.01034875920412393
1495.0,0.010231079628894866
1494.0,0.010155346735763293
1493.0,0.010128685538081873
1492.0,0.010143169153649859
1491.0,0.010170067354856087
1490.0,0.01021193522965538
1489.0,0.010320428526828278
1488.0,0.010520434214887835
1487.0,0.010791579177970578
1486.0,0.011120001772587755
1485.0,0.011503348320457261
1484.0,0.01194263793616032
1483.0,0.012463459136340931
1482.0,0.01310100325314023
1481.0,0.013814283849293542
1480.0,0.014479748750683395
1479.0,0.015002523600847365
1478.0,0.01534824257589135
1477.0,0.01548613897435365
1476.0,0.015405578164202328
1475.0,0.01516363161021769
1474.0,0.014831465931408234
1473.0,0.014446000552960879
1472.0,0.014090807561008091
1471.0,0.01387165525612729
1470.0,0.013782296631916824
1469.0,0.013757022757371229
1468.0,0.013764203256607786
1467.0,0.013808761766646492
1466.0,0.013919032781817008
1465.0,0.014108396871108465
1464.0,0.014338453972691224
1463.0,0.0145652782356346
1462.0,0.014786720478556548
1461.0,0.01501386753537037
1460.0,0.015254322596761703
1459.0,0.015527824365902734
1458.0,0.015893152653069606
1457.0,0.01631955065111775
1456.0,0.01662842406313529
1455.0,0.016753674693850043
1454.0,0.016765795217115208
1453.0,0.016729822549395187
1452.0,0.016663247280386023
1451.0,0.01656522514064349
1450.0,0.016453141920336006
1449.0,0.01634221240563613
1448.0,0.01623273185256409
1447.0,0.016139267084221236
1446.0,0.016089884621131065
1445.0,0.016082815678693383
1444.0,0.01608734300557518
1443.0,0.016089005265544715
1442.0,0.016094135963714083
1441.0,0.01609855701656752
1440.0,0.016083170069647372
1439.0,0.016042848980613835
1438.0,0.01599068691822833
1437.0,0.0159234191627104
1436.0,0.01582575061167578
1435.0,0.01571704352611966
1434.0,0.015624616449894008
1433.0,0.015546026335215134
1432.0,0.015459750329969331
1431.0,0.015340084467228274
1430.0,0.015178234054358263
1429.0,0.014984297099954715
1428.0,0.014773582304107344
1427.0,0.01455652939388042
1426.0,0.014335706050318212
1425.0,0.014110639904924008
1424.0,0.013896440529295648
1423.0,0.013735134361090588
1422.0,0.013663332336281954
1421.0,0.013694205353248567
1420.0,0.013844032086601402
1419.0,0.014131111504981177
1418.0,0.01455689904529138
1417.0,0.01513734064598269
1416.0,0.01591305929542411
1415.0,0.016920003633649098
1414.0,0.018173691009846775
1413.0,0.01964979051993175
1412.0,0.021227763401185113
1411.0,0.022663322925422773
1410.0,0.02370138297139479
1409.0,0.024203476523640282
1408.0,0.02412504775815705
1407.0,0.023479392949246034
1406.0,0.022378459603466044
1405.0,0.021044502822006966
1404.0,0.019741812456064513
1403.0,0.018648958523453198
1402.0,0.017775530948172635
1401.0,0.01701987601627688
1400.0,0.016281833149678564
1399.0,0.015559688355475821
1398.0,0.014934270021856096
1397.0,0.014428872576696537
1396.0,0.01397894351776479
1395.0,0.013539317775046179
1394.0,0.013141205803853369
1393.0,0.012821570100644105
1392.0,0.01256232347202322
1391.0,0.012331967113044892
1390.0,0.012119062620910443
1389.0,0.011922582824043682
1388.0,0.011753508937950687
1387.0,0.011645832086742311
1386.0,0.011635709489017343
1385.0,0.011735235426257757
1384.0,0.011951352506325055
1383.0,0.012303802654114683
1382.0,0.012803777047735002
1381.0,0.013439742259903742
1380.0,0.014180802668068433
1379.0,0.014960201603252395
1378.0,0.015675189749797123
1377.0,0.01624222550496548
1376.0,0.016631079150666146
1375.0,0.016840839193450398
1374.0,0.016908280016213917
1373.0,0.016940637069481658
1372.0,0.017057439292911963
1371.0,0.017309087451493555
1370.0,0.01766827798033733
1369.0,0.01802907658518787
1368.0,0.018225843234029943
1367.0,0.01812937366041254
1366.0,0.01770810096300169
1365.0,0.01697596239979729
1364.0,0.015948673475083754
1363.0,0.01471517366935525
1362.0,0.01350008485013874
1361.0,0.012510207041690136
1360.0,0.011768760780504553
1359.0,0.01119295089687439
1358.0,0.010720164019158233
1357.0,0.010325239898857884
1356.0,0.009995559827733877
1355.0,0.009724288335702823
1354.0,0.009513773358661277
1353.0,0.009364831082576684
1352.0,0.009269023238867549
1351.0,0.009218732764179711
1350.0,0.009215567672407745
1349.0,0.009263233378808444
1348.0,0.00936033847645319
1347.0,0.00950443099048385
1346.0,0.009693182879199222
1345.0,0.009914448175554414
1344.0,0.010140929648076157
1343.0,0.010340730606986901
1342.0,0.010487341700449692
1341.0,0.010554592545404697
1340.0,0.01051199477627846
1339.0,0.010343844079256067
1338.0,0.010068328891095915
1337.0,0.009718123950196726
1336.0,0.00932022088532081
1335.0,0.00890522418729103
1334.0,0.008510025984453398
1333.0,0.00816372749595765
1332.0,0.007882806636571623
1331.0,0.007678536172895732
1330.0,0.0075561954289307155
1329.0,0.0075085670558930374
1328.0,0.00752150944854584
1327.0,0.0075860174701802025
1326.0,0.007698891897247923
1325.0,0.007854616449685018
1324.0,0.008043452105636588
1323.0,0.00825707166568405
1322.0,0.008493508869136423
1321.0,0.008757122469147135
1320.0,0.009056160684902772
1319.0,0.009399841182597507
1318.0,0.009794373393170424
1317.0,0.010237674465497556
1316.0,0.01071452185308845
1315.0,0.011194285244500052
1314.0,0.011633601682491548
1313.0,0.01198876351231766
1312.0,0.012237766775581294
1311.0,0.012396684995754692
1310.0,0.012512162288644484
1309.0,0.012633321571937715
1308.0,0.012786477313557275
1307.0,0.012973370191968273
1306.0,0.013189277918935718
1305.0,0.013437424260266256
1304.0,0.01372846444319871
1303.0,0.01407829359642421
1302.0,0.01451003640931501
1301.0,0.015045924169833611
1300.0,0.01568905930074423
1299.0,0.01641974275710215
1298.0,0.01721406951372022
1297.0,0.018055807755599628
1296.0,0.018925818484715428
1295.0,0.01979707957137124
1294.0,0.020652200093872548
1293.0,0.021490536980679754
1292.0,0.022307844308969725
1291.0,0.023087284953984422
1290.0,0.023820786285163032
1289.0,0.024517948371457505
1288.0,0.025180814279919462
1287.0,0.025792013547978908
1286.0,0.026340863462323703
1285.0,0.02683695933749214
1284.0,0.02728580399086412
1283.0,0.02767626543054403
1282.0,0.028003892366245592
1281.0,0.028282934018623203
1280.0,0.028525810353280612
1279.0,0.02873629663892608
1278.0,0.028932661872503138
1277.0,0.02915189233305185
1276.0,0.02942228365472161
1275.0,0.029756756568127637
1274.0,0.030179906507850927
1273.0,0.030732978984881143
1272.0,0.0314377791722858
1271.0,0.032277059446357094
1270.0,0.033222357436901155
1269.0,0.034256511107496716
1268.0,0.03535550647156334
1267.0,0.03647968699225525
1266.0,0.03760288451072524
1265.0,0.03872161606478202
1264.0,0.03982023489422382
1263.0,0.040863084097232744
1262.0,0.041836333444520465
1261.0,0.04275454560305416
1260.0,0.04360824605577634
1259.0,0.04435321026509327
1258.0,0.044971451020638015
1257.0,0.045491674398980705
1256.0,0.045933851193365904
1255.0,0.046289755687998355
1254.0,0.046574683967475286
1253.0,0.04684285547424042
1252.0,0.047131712500798305
1251.0,0.047441218786886515
1250.0,0.04778307404594079
1249.0,0.048195588054115564
1248.0,0.04869057890484942
1247.0,0.049236961565728175
1246.0,0.0498158645858503
1245.0,0.050440610466139964
1244.0,0.051102191175847515
1243.0,0.05174931021283538
1242.0,0.052345354111974406
1241.0,0.0528897654244978
1240.0,0.05336075374186457
1239.0,0.05369449642884157
1238.0,0.05384392645926701
1237.0,0.05380120190011622
1236.0,0.053544460571398445
1235.0,0.053028087468295924
1234.0,0.0522476069297775
1233.0,0.051253950690625084
1232.0,0.05009091494953465
1231.0,0.048778675862524844
1230.0,0.047362166135512626
1229.0,0.04590990235915645
1228.0,0.044455935849787506
1227.0,0.04299509992236205
1226.0,0.0415367416884564
1225.0,0.04011453971724927
1224.0,0.03874361685417514
1223.0,0.03741394038220454
1222.0,0.03612772788870448
1221.0,0.0349043322190374
1220.0,0.03374883162610307
1219.0,0.032651212405249916
1218.0,0.031616021303970024
1217.0,0.030660938682547295
1216.0,0.02978629275199974
1215.0,0.02897412172439951
1214.0,0.028216473324139645
1213.0,0.027519541866628125
1212.0,0.0268811980939612
1211.0,0.026288477349412587
1210.0,0.025736960578439
1209.0,0.02523051133212889
1208.0,0.024762659396376622
1207.0,0.024318920071422476
1206.0,0.023896529100093062
1205.0,0.023502301562793697
1204.0,0.023132308528404415
1203.0,0.022772999595313155
1202.0,0.022421111815081114
1201.0,0.02208328517794852
1200.0,0.02175678517158591
1199.0,0.021429530192875006
1198.0,0.0211001202175346
1197.0,0.020780554516538492
1196.0,0.020477570825167258
1195.0,0.02018701965130668
1194.0,0.019907768223706743
1193.0,0.019646346966818055
1192.0,0.019405975484876582
1191.0,0.01918424187891365
1190.0,0.018984172874137586
1189.0,0.01881649443931527
1188.0,0.018689005524242294
1187.0,0.018603333786185304
1186.0,0.018563608328581543
1185.0,0.018579265263984117
1184.0,0.018657230514229944
1183.0,0.018798032223807184
1182.0,0.01899924977945163
1181.0,0.01925450338448525
1180.0,0.019547958754053442
1179.0,0.019858644943946867
1178.0,0.020172035584061315
1177.0,0.020478154176282962
1176.0,0.020757557895905117
1175.0,0.020981795992529348
1174.0,0.02113099821712682
1173.0,0.021198871724084863
1172.0,0.021179708281630565
1171.0,0.021068027245711028
1170.0,0.020875701174939268
1169.0,0.020634865379090282
1168.0,0.02038047435303815
1167.0,0.020140717819956223
1166.0,0.01994020779993282
1165.0,0.01979434849028774
1164.0,0.019699173447334843
1163.0,0.019639919466217955
1162.0,0.019611056954120805
1161.0,0.019617910157029954
1160.0,0.019661819802425963
1159.0,0.019739028724791764
1158.0,0.01985433509878568
1157.0,0.02002090247738512
1156.0,0.020244095768513725
1155.0,0.020518610732965296
1154.0,0.02084326073222676
1153.0,0.021224270336205664
1152.0,0.021660602692320667
1151.0,0.022141065833376935
1150.0,0.02266152325389688
1149.0,0.023230904395682837
1148.0,0.023854613321472762
1147.0,0.02452619485234331
1146.0,0.025239742853911926
1145.0,0.025993401751299307
1144.0,0.02677459501156331
1143.0,0.027560636823789085
1142.0,0.028341809087075336
1141.0,0.029123744619567078
1140.0,0.029900045359553505
1139.0,0.030647931373440164
1138.0,0.03136078877123837
1137.0,0.032058505564209035
1136.0,0.03275667269543104
1135.0,0.03345611219358192
1134.0,0.034172921584021104
1133.0,0.034944686782535886
1132.0,0.0357917616449965
1131.0,0.03670106641688944
1130.0,0.037657789299332584
1129.0,0.03865835929667619
1128.0,0.03967975849403045
1127.0,0.04067732397607514
1126.0,0.041634174789417104
1125.0,0.04257477829490358
1124.0,0.04351172240988653
1123.0,0.04442060005497701
1122.0,0.04528113337515061
1121.0,0.046091927707324475
1120.0,0.04682638522412171
1119.0,0.047428110589355
1118.0,0.04786996679174237
1117.0,0.048164560025298675
1116.0,0.04830465743343234
1115.0,0.04826009454690452
1114.0,0.04805496524258585
1113.0,0.047787649895696914
1112.0,0.04756121439729901
1111.0,0.04745273880248448
1110.0,0.047549009188093794
1109.0,0.047934580710120016
1108.0,0.048622308825137815
1107.0,0.04955111525719835
1106.0,0.05066882477799996
1105.0,0.05196357400654435
1104.0,0.0534025914618886
1103.0,0.054911623302736
1102.0,0.056442877547972774
1101.0,0.05799475945152001
1100.0,0.05953501848937945
1099.0,0.06098313174037169
1098.0,0.062301870470389126
1097.0,0.06351999667852702
1096.0,0.06463183371311462
1095.0,0.06557085732861351
1094.0,0.06631831122629027
1093.0,0.0669319010540056
1092.0,0.06742920516351357
1091.0,0.06775059193910385
1090.0,0.06787388746287265
1089.0,0.06785787371794942
1088.0,0.06773876849237903
1087.0,0.06749217007740621
1086.0,0.06712498885624642
1085.0,0.06669022013981461
1084.0,0.06618040600834067
1083.0,0.06551637735789885
1082.0,0.06466725831454405
1081.0,0.06367665949121686
1080.0,0.06255730923167101
1079.0,0.061273548260424665
1078.0,0.059842995319749334
1077.0,0.05834764022512687
1076.0,0.05683179302349782
1075.0,0.05528637826391725
1074.0,0.0537366976108453
1073.0,0.05224773500057539
1072.0,0.050836934750646386
1071.0,0.049470670946110115
1070.0,0.04815166309753559
1069.0,0.046927608148458255
1068.0,0.04580876511094812
1067.0,0.04475359288276671
1066.0,0.04374279987150463
1065.0,0.04279980378100124
1064.0,0.041931856905387456
1063.0,0.041114904801646306
1062.0,0.04034648235984616
1061.0,0.039657413557296774
1060.0,0.03906074839188208
1059.0,0.03853916040731509
1058.0,0.03809071654745466
1057.0,0.0377386769687654
1056.0,0.03748769022408233
1055.0,0.03731613359553861
1054.0,0.037222415809341367
1053.0,0.03723557708647622
1052.0,0.03736412859002478
1051.0,0.037574870416716706
1050.0,0.037839942903319226
1049.0,0.03815853328327055
1048.0,0.038514717776907924
1047.0,0.03886732700031704
1046.0,0.03919576734081767
1045.0,0.03950411228358576
1044.0,0.03977187867727333
1043.0,0.03995018392882829
1042.0,0.04001613106368856
1041.0,0.03998804044426102
1040.0,0.03988170386543834
1039.0,0.0396979118745279
1038.0,0.039457853986425775
1037.0,0.03920195471090063
1036.0,0.03894465953266154
1035.0,0.03867120045533558
1034.0,0.038382157263402786
1033.0,0.038098235507672905
1032.0,0.037817432938559374
1031.0,0.037511427049701514
1030.0,0.03717018625230286
1029.0,0.03681110279086017
1028.0,0.036445839221486295
1027.0,0.036086647952667396
1026.0,0.03579563649589033
1025.0,0.035692630410887535
1024.0,0.03591068573803099
1023.0,0.03656956882308357
1022.0,0.03777318400180538
1021.0,0.03956776075544678
1020.0,0.04185971868084432
1019.0,0.0443785556629549
1018.0,0.04673065538547984
1017.0,0.04848244533551512
1016.0,0.04924012874148505
1015.0,0.048796560045268535
1014.0,0.04729127135514026
1013.0,0.04516166912493427
1012.0,0.04288528911535109
1011.0,0.04077893644739169
1010.0,0.03897742428050396
1009.0,0.03749242567731006
1008.0,0.03626550697552607
1007.0,0.035220049268283704
1006.0,0.03430800410634444
1005.0,0.03351168336788199
1004.0,0.032810090417925576
1003.0,0.032168968527103985
1002.0,0.03156265918198566
1001.0,0.030980362188793097
1000.0,0.0304109216050492
999.0,0.029845894065057166
998.0,0.029296832231251978
997.0,0.02878449817983584
996.0,0.028309666160499514
995.0,0.027854997758082575
994.0,0.027413698976684435
993.0,0.026994787201440433
992.0,0.026602211078162873
991.0,0.02623138219523758
990.0,0.025884981218222476
989.0,0.025569737920835462
988.0,0.025278287857610347
987.0,0.024995479316140764
986.0,0.024721775272957224
985.0,0.024469792949317358
984.0,0.024239141183928885
983.0,0.024015987355927616
982.0,0.023797144132827117
981.0,0.0235932638316854
980.0,0.023406630072732585
979.0,0.02322556046706084
978.0,0.023042494832169004
977.0,0.022858863449472924
976.0,0.022671016120985033
975.0,0.02246980612351536
974.0,0.022254857610894248
973.0,0.022031637309923937
972.0,0.021794730714815618
971.0,0.021531746052592848
970.0,0.021243124089219974
969.0,0.02094030108385274
968.0,0.020624983376159894
967.0,0.02028808357194986
966.0,0.019929017222337024
965.0,0.0195593779556767
964.0,0.019188471783806352
963.0,0.018821300613508646
962.0,0.018468282287177278
961.0,0.018139786270585108
960.0,0.01783214382310741
959.0,0.017534014663903846
958.0,0.017244520346667427
957.0,0.01697053210187257
956.0,0.01670933476809502
955.0,0.016450708478825786
954.0,0.01619551168484424
953.0,0.015956654617042508
952.0,0.015741418996110913
951.0,0.015546887663738886
950.0,0.015372403211339002
949.0,0.015222160079722057
948.0,0.015094632045667678
947.0,0.01498216791324251
946.0,0.014881459978175419
945.0,0.014792116711547953
944.0,0.014704703355846602
943.0,0.014603215805357516
942.0,0.014481677975591273
941.0,0.014347960912622828
940.0,0.014210691452197572
939.0,0.014072820843738662
938.0,0.013937390969438329
937.0,0.013807674813036734
936.0,0.013680659952016682
935.0,0.013550431023591509
934.0,0.013418142685867052
933.0,0.013289534119258505
932.0,0.013164053617716956
931.0,0.013036489646268482
930.0,0.012907715443800271
929.0,0.012783293187655871
928.0,0.012662959781334467
927.0,0.012542409730681811
926.0,0.012424468421483561
925.0,0.012317494662295637
924.0,0.012223210093476811
923.0,0.012136669043533214
922.0,0.012057691380028393
921.0,0.011991697494388581
920.0,0.011939430920244281
919.0,0.011896584187471339
918.0,0.011864173115372467
917.0,0.011849034676581046
916.0,0.011853038969489988
915.0,0.011871574301561768
914.0,0.011904110827862191
913.0,0.011956660711332449
912.0,0.012031613105723964
911.0,0.012124233376758765
910.0,0.012231955904915982
909.0,0.01235853377867865
908.0,0.012505566061783938
907.0,0.0126672158663611
906.0,0.012836040291170577
905.0,0.01300729856485617
904.0,0.013175631279320168
903.0,0.013334031481356989
902.0,0.013476750536057194
901.0,0.013596496408312578
900.0,0.01368016789540643
899.0,0.013716901623696893
898.0,0.01370991842511688
897.0,0.013671306648948889
896.0,0.01360756394515309
895.0,0.013520729683403433
894.0,0.013419721631214718
893.0,0.013317586760371754
892.0,0.013220474894349476
891.0,0.013132052213747605
890.0,0.013065627511824902
889.0,0.013038586169190208
888.0,0.013057446787390938
887.0,0.013121835871609068
886.0,0.013240702423296499
885.0,0.013429958872216475
884.0,0.013695321845312056
883.0,0.014033386268211455
882.0,0.014451389165157109
881.0,0.014969664255241839
880.0,0.015598928363688463
879.0,0.016327907792556197
878.0,0.01713617987004914
877.0,0.018001474909329546
876.0,0.018885740416856808
875.0,0.01972945751397205
874.0,0.020465624791013604
873.0,0.021019674743409256
872.0,0.021296834850105664
871.0,0.021211945979024906
870.0,0.0207561202440671
869.0,0.020013316219173453
868.0,0.01910556551572441
867.0,0.01814361321110489
866.0,0.01721581246685438
865.0,0.016379657849979634
864.0,0.01565116018864138
863.0,0.015019985305169875
862.0,0.01447954844255404
861.0,0.014032925862248809
860.0,0.013675642703610887
859.0,0.013390638852594748
858.0,0.01316054240007107
857.0,0.01297145681336959
856.0,0.012806346861827782
855.0,0.01265001345203719
854.0,0.012501776951195913
853.0,0.012370211677089613
852.0,0.0122557702620987
851.0,0.012151597808608996
850.0,0.012059273153807757
849.0,0.011987997608224887
848.0,0.01193787874558783
847.0,0.011898785114991806
846.0,0.011866279549593867
845.0,0.01184421326671442
844.0,0.011831069297469608
843.0,0.011818327210262745
842.0,0.011803302779935097
841.0,0.011789419959637788
840.0,0.011772909343626691
839.0,0.011743445728248224
838.0,0.011698528864410956
837.0,0.01164298381329813
836.0,0.011574652444396108
835.0,0.011486487373414327
834.0,0.011383307052221556
833.0,0.011280042434105377
832.0,0.011181967797030151
831.0,0.011082814755978079
830.0,0.010983576863387471
829.0,0.010894814303607368
828.0,0.01081635476013101
827.0,0.010734383829641127
826.0,0.010646294239938115
825.0,0.010568714603891114
824.0,0.010511834371774938
823.0,0.010465925630995875
822.0,0.010421111395666267
821.0,0.010379421283276527
820.0,0.010341786938501008
819.0,0.010303654446043881
818.0,0.010268576211006117
817.0,0.010250065633577988
816.0,0.01025483759210128
815.0,0.010274736276148885
814.0,0.010297788181122942
813.0,0.010317580962097606
812.0,0.010330918573678478
811.0,0.010337755155552679
810.0,0.010345370134933866
809.0,0.010361950255338016
808.0,0.010384559289797195
807.0,0.010402800763482892
806.0,0.010413360013993046
805.0,0.010419949043718211
804.0,0.010420421124144673
803.0,0.010406409480508041
802.0,0.010377169981939736
801.0,0.010347405779162745
800.0,0.010347736277350646
799.0,0.010426661201271267
798.0,0.010637637645914636
797.0,0.010998848523761057
796.0,0.01146138559073272
795.0,0.011927710781992187
794.0,0.01230272124190647
793.0,0.01252352250298271
792.0,0.012558399154614413
791.0,0.01241146789123643
790.0,0.012131460685562308
789.0,0.01178695835632089
788.0,0.011424178997578721
787.0,0.011062243145523419
786.0,0.010719793663738025
785.0,0.010419059873921083
784.0,0.010165615913194356
783.0,0.009949146623839996
782.0,0.00976640778933819
781.0,0.009624163629474863
780.0,0.009521247457315845
779.0,0.009450176679092395
778.0,0.009417039738541428
777.0,0.009436455698375094
776.0,0.009500972226169645
775.0,0.009571563295669785
774.0,0.009600881620268623
773.0,0.009552180784560875
772.0,0.00940108374519611
771.0,0.009146095228454897
770.0,0.008822793478648203
769.0,0.008485324952376028
768.0,0.008167939810609625
767.0,0.007878601793244778
766.0,0.007623232290810149
765.0,0.007411048371821051
764.0,0.007236437862417124
763.0,0.007080478348379434
762.0,0.006935210435204564
761.0,0.0068068505965007495
760.0,0.0066928447330935215
759.0,0.006577436036478229
758.0,0.006454429249882834
757.0,0.006333933227183345
756.0,0.0062215302710134385
755.0,0.006110163182067011
754.0,0.005997656274802194
753.0,0.0058933899545361695
752.0,0.005802645127815795
751.0,0.005722741598636515
750.0,0.0056592307901927805
749.0,0.005628597455077766
748.0,0.005642135613664338
747.0,0.005705435199892896
746.0,0.0058370944425445905
745.0,0.006070139899632357
744.0,0.006433558701486385
743.0,0.006953031099348415
742.0,0.007671361941571819
741.0,0.00864134660660907
740.0,0.009886282428910341
739.0,0.01138384908547415
738.0,0.013091140174764832
737.0,0.014960747469827538
736.0,0.016929945430285805
735.0,0.018933604949865818
734.0,0.020950997889829848
733.0,0.02301418058192273
732.0,0.025157604195347558
731.0,0.02739409242831315
730.0,0.029750399692973613
729.0,0.03227278324237561
728.0,0.03495694086307231
727.0,0.03769069348413627
726.0,0.04026639931815597
725.0,0.04240515554681792
724.0,0.04378250087370515
723.0,0.04412353278833938
722.0,0.043332202367292516
721.0,0.041541500926038394
720.0,0.039070956259151676
719.0,0.03632539531453564
718.0,0.03365643884448446
717.0,0.03127173984491149
716.0,0.029248938770993806
715.0,0.027594339387889875
714.0,0.0262776568399445
713.0,0.02523812721279571
712.0,0.024393754665261405
711.0,0.02367408388006362
710.0,0.02305033994071798
709.0,0.022521685930812118
708.0,0.02207379749915093
707.0,0.021670372603668057
706.0,0.021286016703928014
705.0,0.020920765439378708
704.0,0.02057357762960904
703.0,0.02022545175528469
702.0,0.019856991754336938
701.0,0.0194618354016033
700.0,0.019040075943302506
699.0,0.018602588048838412
698.0,0.01818304933496179
697.0,0.01781488987264485
696.0,0.017490676422673036
695.0,0.017175143413853507
694.0,0.01686314357633498
693.0,0.016591387807126053
692.0,0.01638377774592722
691.0,0.016219174558354206
690.0,0.016068922604178446
689.0,0.015933870627275946
688.0,0.01582577565064701
687.0,0.015745483287088486
686.0,0.015700294488933838
685.0,0.015707442613685223
684.0,0.015760054102442248
683.0,0.01582201275676214
682.0,0.01586928002318176
681.0,0.015903953586390986
680.0,0.01592048502939118
679.0,0.015896109794854566
678.0,0.015828202461344903
677.0,0.01574408228021082
676.0,0.015654600551109517
675.0,0.015537961234332456
674.0,0.015385899654078761
673.0,0.015223662145538944
672.0,0.015067570622007108
671.0,0.014899713959589778
670.0,0.014702959801278042
669.0,0.014495083145146234
668.0,0.01431852896234579
667.0,0.014209317258921047
666.0,0.014135246997725372
665.0,0.01405480246226233
664.0,0.013982964240278065
663.0,0.0139334801351522
662.0,0.013896673055468184
661.0,0.013862090879006882
660.0,0.013827823073330584
659.0,0.013796441127541734
658.0,0.013778764428207312
657.0,0.013785893940607374
656.0,0.01379696766601662
655.0,0.013769006667325716
654.0,0.013697342686934653
653.0,0.01362440932274064
652.0,0.013571374748075023
651.0,0.013513959038187869
650.0,0.013443387433616588
649.0,0.01339075860987805
648.0,0.01336137465721858
647.0,0.013309906322870678
646.0,0.013217959474172616
645.0,0.013126103343899489
644.0,0.013051906119752675
643.0,0.012944206511589076
642.0,0.012765547850333944
641.0,0.012564167243219748
640.0,0.012409824191288416
639.0,0.012306199305878462
638.0,0.012218944805418595
637.0,0.012155564661605008
636.0,0.012162704230753912
635.0,0.012263148811052397
634.0,0.012430422535653254
633.0,0.012602725748302079
632.0,0.012690143716025483
631.0,0.012609215338339426
630.0,0.012367983662993777
629.0,0.0120708846197289
628.0,0.011801682701316138
627.0,0.011559856614457981
626.0,0.01132375872103717
625.0,0.01110512709896301
624.0,0.010907519352258505
623.0,0.010699132144726693
622.0,0.010475161119800649
621.0,0.010285105731813876
620.0,0.010157065947000794
619.0,0.010047257967938716
618.0,0.009903791170282353
617.0,0.009731201133219836
616.0,0.009559835224219743
615.0,0.009424425629615558
614.0,0.00938653791297207
613.0,0.009496933567920036
612.0,0.009712652922267959
611.0,0.009908736494737492
610.0,0.01000571769499237
609.0,0.010026539695295156
608.0,0.010007493892632172
607.0,0.009960217354935543
606.0,0.009946508828640736
605.0,0.010058136272708379
604.0,0.010283252266727327
603.0,0.010506004141571445
602.0,0.010663286610335932
601.0,0.010785372671534742
600.0,0.01085551756917957
599.0,0.01078031057286474
598.0,0.010565710556978032
597.0,0.010366498636295601
596.0,0.010278976450756462
595.0,0.010209311175898437
594.0,0.010019931118602193
593.0,0.009714924620889943
592.0,0.009395321773963915
591.0,0.009122206312860592
590.0,0.008901157661885213
589.0,0.00872640747455971
588.0,0.008573883467171799
587.0,0.008403266927218631
586.0,0.008212128103269569
585.0,0.008030511535558563
584.0,0.007836134714191274
583.0,0.007561423120690226
582.0,0.0072232272859862594
581.0,0.006934814598758358
580.0,0.006749421005492171
579.0,0.006610688022831834
578.0,0.006478323643497317
577.0,0.0063792362250436815
576.0,0.0062809092388849685
575.0,0.006066151782132021
574.0,0.005740419953531112
573.0,0.005481851814279879
572.0,0.005407620779654888
571.0,0.005426379872404746
570.0,0.005374104034412051
569.0,0.00523505655369441
568.0,0.005115531285568067
567.0,0.00507452970711581
566.0,0.0050760956028944905
565.0,0.005058101915129547
564.0,0.004986450939191601
563.0,0.004897194932688347
562.0,0.004916060495694902
561.0,0.005120217442408334
560.0,0.005371686157826143
559.0,0.00539025487645646
558.0,0.0050697252355659615
557.0,0.004621628113765366
556.0,0.004298167770946798
555.0,0.0041347058139235265
554.0,0.004023019135391201
553.0,0.0039113872150476035
552.0,0.003823932275995777
551.0,0.0037564609014635614
550.0,0.0036797985265966515
