cm-1,A
4000.0,0.005656288635277118
3999.0,0.005666286889030525
3998.0,0.005663108410059841
3997.0,0.005655726067844046
3996.0,0.005648641122618212
3995.0,0.005640155027626363
3994.0,0.005629535087779571
3993.0,0.0056215434877454175
3992.0,0.005621819242846646
3991.0,0.005628658422417875
3990.0,0.005633177001051297
3989.0,0.005629374632681578
3988.0,0.005620177049209594
3987.0,0.005613863380808989
3986.0,0.005615947853615127
3985.0,0.00562514643753737
3984.0,0.005636082433491091
3983.0,0.005643108848265775
3982.0,0.005643874099025595
3981.0,0.005640279103278755
3980.0,0.005637041052242821
3979.0,0.005638006245796407
3978.0,0.00564226478397335
3977.0,0.0056456707321173175
3976.0,0.005645088976184227
3975.0,0.005642684981913587
3974.0,0.005643074496033939
3973.0,0.0056465920565095095
3972.0,0.005649062614255231
3971.0,0.005647155491479467
3970.0,0.005643179842770019
3969.0,0.005642124426254198
3968.0,0.0056459942797362946
3967.0,0.005652896326706666
3966.0,0.0056609924074536916
3965.0,0.005671182465122409
3964.0,0.005683622570655859
3963.0,0.005693187497951786
3962.0,0.005690734611513644
3961.0,0.005673060683715657
3960.0,0.0056496930636847804
3959.0,0.005634822469953404
3958.0,0.0056365632641293215
3957.0,0.005650610992706479
3956.0,0.005665108259555959
3955.0,0.005670627475670069
3954.0,0.005665100834292218
3953.0,0.0056539657322557035
3952.0,0.0056457892815002875
3951.0,0.0056445200575030025
3950.0,0.005645433229484597
3949.0,0.005639531721541728
3948.0,0.005623463914262278
3947.0,0.005602718397467856
3946.0,0.005584464096596387
3945.0,0.005581011968027929
3944.0,0.005602903289724933
3943.0,0.0056387280810507815
3942.0,0.005665312960900611
3941.0,0.00566897969820117
3940.0,0.005651955643054189
3939.0,0.005627381668800481
3938.0,0.0056079644292868144
3937.0,0.005596815761958199
3936.0,0.0055917559051145895
3935.0,0.005594157087136449
3934.0,0.005605051188178429
3933.0,0.005617880971546606
3932.0,0.0056175596978038115
3931.0,0.005599448239509977
3930.0,0.005573832017669833
3929.0,0.005545736806602178
3928.0,0.005517427530494138
3927.0,0.005500396804862843
3926.0,0.005509884384915299
3925.0,0.005538759150535326
3924.0,0.005561331185526981
3923.0,0.00556975563487895
3922.0,0.005574814073870242
3921.0,0.005584806552284567
3920.0,0.005596049599024414
3919.0,0.005599404033380467
3918.0,0.005597736051298195
3917.0,0.005601961625110744
3916.0,0.005615426422685019
3915.0,0.005634190648164471
3914.0,0.005654708751559471
3913.0,0.005674115973670319
3912.0,0.005684946442785497
3911.0,0.005675512984636513
3910.0,0.005645564961765167
3909.0,0.005604980597531652
3908.0,0.005568826887445186
3907.0,0.005555785272831711
3906.0,0.005582970636667238
3905.0,0.005635329831347635
3904.0,0.005660516955305088
3903.0,0.005630914683690058
3902.0,0.00557804419423878
3901.0,0.0055535604242000535
3900.0,0.005572843428783975
3899.0,0.0056110083203000614
3898.0,0.005642278625706336
3897.0,0.0056611389424602475
3896.0,0.005673229961339565
3895.0,0.005680510706253288
3894.0,0.005684677532323919
3893.0,0.005692090873246608
3892.0,0.005700764257783847
3891.0,0.005701327250962128
3890.0,0.005686508816990973
3889.0,0.005641623271316941
3888.0,0.005581855883572414
3887.0,0.00556002794385353
3886.0,0.005583122928996724
3885.0,0.0055894345796517406
3884.0,0.005542400450934497
3883.0,0.00546619167634213
3882.0,0.005417211508599987
3881.0,0.005425381782222195
3880.0,0.005468237996486504
3879.0,0.00550780659383925
3878.0,0.005512806194009046
3877.0,0.00547991425535882
3876.0,0.005448438180110721
3875.0,0.005450156510664896
3874.0,0.005462811831601905
3873.0,0.005452653933056249
3872.0,0.005441233065694608
3871.0,0.005480630252098108
3870.0,0.005556929613918079
3869.0,0.005605353618375802
3868.0,0.005598381526094392
3867.0,0.005565897926395036
3866.0,0.005562487962875145
3865.0,0.0055863453859764335
3864.0,0.00558278963033302
3863.0,0.005545084802648229
3862.0,0.005514908418386784
3861.0,0.005511366561521207
3860.0,0.005529481778225257
3859.0,0.005559248365839955
3858.0,0.005584561123174555
3857.0,0.005575073565574063
3856.0,0.005524714754861136
3855.0,0.005516080076092063
3854.0,0.005579274463267989
3853.0,0.005588916188494016
3852.0,0.005541651101852964
3851.0,0.0055100269224357635
3850.0,0.005509824130748852
3849.0,0.005529760643560804
3848.0,0.005546701666272149
3847.0,0.005545303441260857
3846.0,0.005528864785097451
3845.0,0.005508627826916169
3844.0,0.0054924061310274
3843.0,0.005477800443812245
3842.0,0.005457498661082721
3841.0,0.005432972259463075
3840.0,0.005415746376186413
3839.0,0.005403757701291911
3838.0,0.005395112266343069
3837.0,0.005397165147748173
3836.0,0.0054092416971130725
3835.0,0.0054200376032160795
3834.0,0.005427783357411234
3833.0,0.005440547610565529
3832.0,0.00545736783863747
3831.0,0.005464969112336246
3830.0,0.005452773711990665
3829.0,0.005427426824605692
3828.0,0.00541737478582252
3827.0,0.00544478469734828
3826.0,0.0054925388762698734
3825.0,0.0055140706957739795
3824.0,0.00548537142811936
3823.0,0.005454442879759474
3822.0,0.005485188736951776
3821.0,0.005529184461907859
3820.0,0.005529856152259131
3819.0,0.005494754030446603
3818.0,0.005459410830381
3817.0,0.005467761809985416
3816.0,0.0055038993192773385
3815.0,0.005520955020269318
3814.0,0.005511143728534384
3813.0,0.005503235481153707
3812.0,0.005519677834205269
3811.0,0.005548649723021961
3810.0,0.005561054295373205
3809.0,0.005563577942071149
3808.0,0.005585160661694298
3807.0,0.005609124501955329
3806.0,0.005594135500468673
3805.0,0.005528840161655255
3804.0,0.005450743297068726
3803.0,0.00543231726235961
3802.0,0.005466012798127838
3801.0,0.005466045417926511
3800.0,0.005421939656745879
3799.0,0.0053768024217999534
3798.0,0.0053678996530415616
3797.0,0.005404621852001303
3796.0,0.005456349018197434
3795.0,0.005489143190636781
3794.0,0.005497483803970978
3793.0,0.005496966691526648
3792.0,0.00549920437474055
3791.0,0.005504004791506456
3790.0,0.005506460693289811
3789.0,0.005502044402111255
3788.0,0.005486348306044298
3787.0,0.005460084271930387
3786.0,0.00543165135484264
3785.0,0.005411129727974228
3784.0,0.0053994928150957544
3783.0,0.005390026621028513
3782.0,0.005382401648867044
3781.0,0.005392445662426627
3780.0,0.005424021301594333
3779.0,0.005454099852876246
3778.0,0.005469379863289199
3777.0,0.005475626716927543
3776.0,0.005484501676618805
3775.0,0.005499007008258856
3774.0,0.005505365684936141
3773.0,0.005493510007935751
3772.0,0.0054804559853029065
3771.0,0.005483756922338847
3770.0,0.005485222634555009
3769.0,0.005461542898772401
3768.0,0.005422707872055853
3767.0,0.005399607940320918
3766.0,0.005408638366503449
3765.0,0.005432735971436294
3764.0,0.005442341584454922
3763.0,0.0054283336978020475
3762.0,0.005415974553134415
3761.0,0.005433735412567222
3760.0,0.005463047343848329
3759.0,0.005463662660659643
3758.0,0.00544049745366119
3757.0,0.005424999201725561
3756.0,0.005419803825996825
3755.0,0.005419890434560318
3754.0,0.005447708446470523
3753.0,0.005535941242352956
3752.0,0.005645025542487271
3751.0,0.0056638239814266935
3750.0,0.005605583443385447
3749.0,0.005572015772913618
3748.0,0.005559566956619962
3747.0,0.0055194534755601534
3746.0,0.0054821601211465084
3745.0,0.005484105150870731
3744.0,0.0054836281551577685
3743.0,0.0054509515472544266
3742.0,0.005410063201456389
3741.0,0.005395335979351038
3740.0,0.005405824118000213
3739.0,0.005400894098872673
3738.0,0.005366356532371197
3737.0,0.005335221847041441
3736.0,0.005313964474112821
3735.0,0.005289441145138806
3734.0,0.00529046785618246
3733.0,0.005334737536395641
3732.0,0.005392996114953881
3731.0,0.005433572979044348
3730.0,0.005449116092623962
3729.0,0.005457763621590109
3728.0,0.005487623138283319
3727.0,0.005534578611457727
3726.0,0.005560560322959233
3725.0,0.005553987511333228
3724.0,0.005542492852396213
3723.0,0.005546419558164448
3722.0,0.0055541750466549305
3721.0,0.005547665409098435
3720.0,0.005528256216058345
3719.0,0.005514088070690388
3718.0,0.005521530211032889
3717.0,0.005542000078626132
3716.0,0.005548567281830555
3715.0,0.005531381988468764
3714.0,0.005515701479773213
3713.0,0.005538161736486748
3712.0,0.005581305887072641
3711.0,0.005595451424918075
3710.0,0.005597037988100862
3709.0,0.005623412346968585
3708.0,0.005676169387649603
3707.0,0.005736138787739235
3706.0,0.005782816563356443
3705.0,0.005808865466633094
3704.0,0.005828918054038606
3703.0,0.005866104995624635
3702.0,0.005920547032898196
3701.0,0.0059723673897525646
3700.0,0.006007388698793539
3699.0,0.006026248779116172
3698.0,0.0060421265118869565
3697.0,0.006062082239777051
3696.0,0.0060712054582167324
3695.0,0.006052623506043933
3694.0,0.006007689025587143
3693.0,0.005951574604183859
3692.0,0.005904849965631814
3691.0,0.005876568193399845
3690.0,0.00584365080646707
3689.0,0.005788120876223867
3688.0,0.0057449749755893445
3687.0,0.005733711910960062
3686.0,0.005739660427737452
3685.0,0.005758349557696168
3684.0,0.005788036228189303
3683.0,0.005810770577114538
3682.0,0.005815135365493513
3681.0,0.005816528093032232
3680.0,0.005823584252080866
3679.0,0.005812708594064567
3678.0,0.005773731159477089
3677.0,0.0057625830106862235
3676.0,0.005787015950276079
3675.0,0.005791673576951728
3674.0,0.005784822015466202
3673.0,0.005771201783430113
3672.0,0.005771405923031579
3671.0,0.005805656635433333
3670.0,0.005812395597602058
3669.0,0.005769452327787443
3668.0,0.005743451232927701
3667.0,0.005759937636410144
3666.0,0.005803876237303121
3665.0,0.005855032784598844
3664.0,0.005900712966256038
3663.0,0.005942480321950271
3662.0,0.005988662928076088
3661.0,0.006034290958885863
3660.0,0.00605848452659651
3659.0,0.00605257161362515
3658.0,0.006041431431975733
3657.0,0.006057703214159933
3656.0,0.006093537844739604
3655.0,0.006118178544704976
3654.0,0.006106952191018165
3653.0,0.006060619999990559
3652.0,0.00602419376147348
3651.0,0.006045618859951587
3650.0,0.006070733508955864
3649.0,0.0060064913709126115
3648.0,0.005926437797120892
3647.0,0.005924433517157415
3646.0,0.005982474999698197
3645.0,0.006053429437670037
3644.0,0.0061169459717569504
3643.0,0.0061693197352663
3642.0,0.006207571762929456
3641.0,0.0062303121189929665
3640.0,0.006244133443277034
3639.0,0.006256731711744986
3638.0,0.006265594417679027
3637.0,0.0062687681406719455
3636.0,0.006283031424388742
3635.0,0.006332276841051123
3634.0,0.006407509463888238
3633.0,0.006463214768056146
3632.0,0.006466809035344907
3631.0,0.006452793085279065
3630.0,0.006487645750694324
3629.0,0.006523117805463778
3628.0,0.006502990018610454
3627.0,0.006480695345245146
3626.0,0.006489391765892657
3625.0,0.006525456703160348
3624.0,0.006567119453245304
3623.0,0.006587265766124495
3622.0,0.006583942418719809
3621.0,0.006586993441071457
3620.0,0.006610181023250903
3619.0,0.006622258773511213
3618.0,0.006605733555241461
3617.0,0.006576910389720152
3616.0,0.006557881550010113
3615.0,0.006568040075191381
3614.0,0.006605402823150468
3613.0,0.006645610385813114
3612.0,0.006670774657712915
3611.0,0.006682530849428775
3610.0,0.006688432308493285
3609.0,0.006683131886592507
3608.0,0.006653836273533209
3607.0,0.006618246401611771
3606.0,0.006612439541668629
3605.0,0.006643512000192382
3604.0,0.006692230966511764
3603.0,0.006738925142218222
3602.0,0.006772515564977694
3601.0,0.006789040949510501
3600.0,0.006788365171785391
3599.0,0.006777654502459504
3598.0,0.006768178071937978
3597.0,0.006771128360033545
3596.0,0.006791554450114694
3595.0,0.006825016816418778
3594.0,0.00685826902013572
3593.0,0.006882061191332086
3592.0,0.006890867673711645
3591.0,0.006883600142946707
3590.0,0.006879564682410749
3589.0,0.00690445771154926
3588.0,0.00693217764521398
3587.0,0.006921258847694559
3586.0,0.006901433362837242
3585.0,0.006910892640201649
3584.0,0.006944944785220741
3583.0,0.0069839452414542195
3582.0,0.0070142918075244524
3581.0,0.007034500925354826
3580.0,0.007051461874781763
3579.0,0.007073400053146021
3578.0,0.0071018370587895285
3577.0,0.007130970655918851
3576.0,0.00715319216811833
3575.0,0.0071664029343840715
3574.0,0.007176032593050641
3573.0,0.007186339046397836
3572.0,0.007190720909266461
3571.0,0.007175398750669855
3570.0,0.0071444491476051995
3569.0,0.007132272743807724
3568.0,0.00715079291445924
3567.0,0.0071527539315381075
3566.0,0.007125685728651622
3565.0,0.00711289170440153
3564.0,0.00713097794860605
3563.0,0.007166766003003102
3562.0,0.0072059232262441176
3561.0,0.007241312716416383
3560.0,0.007273652485204523
3559.0,0.0073076882762021095
3558.0,0.007344346731348589
3557.0,0.007375521927845393
3556.0,0.007390148346994284
3555.0,0.007385866006522935
3554.0,0.00737430994101437
3553.0,0.007371415814915606
3552.0,0.007386206322598432
3551.0,0.007416037727563599
3550.0,0.007450546234927107
3549.0,0.007482414831961507
3548.0,0.007509385198275849
3547.0,0.007526672594950858
3546.0,0.007530732985052683
3545.0,0.007529517502344041
3544.0,0.007534086972294355
3543.0,0.007543825101533759
3542.0,0.007554062661647509
3541.0,0.007567043210323986
3540.0,0.0075885586017007045
3539.0,0.007618196496542767
3538.0,0.007645898632745348
3537.0,0.007659491940072888
3536.0,0.007658367531112147
3535.0,0.007655764996941213
3534.0,0.00766198431220002
3533.0,0.007676047826171366
3532.0,0.007691305564778287
3531.0,0.007705342902719818
3530.0,0.007720980741020146
3529.0,0.0077382064153668755
3528.0,0.007750818540146503
3527.0,0.0077552989324968236
3526.0,0.0077573109089710095
3525.0,0.0077635728614553
3524.0,0.007772008711341695
3523.0,0.007777250107575675
3522.0,0.007782461670328865
3521.0,0.007795160897781945
3520.0,0.007815355667007693
3519.0,0.007833740142305874
3518.0,0.007839999823337544
3517.0,0.007833514801294916
3516.0,0.00782459659459317
3515.0,0.007826468346064232
3514.0,0.007844558377952416
3513.0,0.00787400084333939
3512.0,0.007903446315690947
3511.0,0.007920339423497565
3510.0,0.007916860241003895
3509.0,0.0078971943556369
3508.0,0.007877515714605099
3507.0,0.007876771550401111
3506.0,0.007907547128267724
3505.0,0.007966621002661213
3504.0,0.008025741719959284
3503.0,0.008049152900934893
3502.0,0.008032052677296633
3501.0,0.00800217214048174
3500.0,0.007985662764949567
3499.0,0.007990008898997862
3498.0,0.008009498639313734
3497.0,0.008033990190763594
3496.0,0.00805438640297573
3495.0,0.008065813598289683
3494.0,0.008069346318760015
3493.0,0.00807082724133965
3492.0,0.008076526419412098
3491.0,0.00808911487571218
3490.0,0.00810639059701727
3489.0,0.008122456729277172
3488.0,0.008131125603377636
3487.0,0.008130652383472728
3486.0,0.008125636738684525
3485.0,0.00812460219179524
3484.0,0.008134753267766224
3483.0,0.008156278869451732
3482.0,0.008180492716217987
3481.0,0.008196431839484196
3480.0,0.008200577303871649
3479.0,0.008200664188634058
3478.0,0.008210178130061986
3477.0,0.008236561157915523
3476.0,0.008271965079007649
3475.0,0.008297108194720767
3474.0,0.008298836017928064
3473.0,0.008282157559198998
3472.0,0.008262804148158595
3471.0,0.008251680902149864
3470.0,0.008249246804965162
3469.0,0.008251725088490218
3468.0,0.008258825795423077
3467.0,0.008273766690012405
3466.0,0.008297773934460774
3465.0,0.008326524171452588
3464.0,0.008351179377486143
3463.0,0.008362965032456772
3462.0,0.008359816642203184
3461.0,0.00834989856031909
3460.0,0.00834521494417489
3459.0,0.00834982015872538
3458.0,0.008356288478967366
3457.0,0.00835596752649661
3456.0,0.008350480109455242
3455.0,0.008350425806337847
3454.0,0.00836215702906349
3453.0,0.008379974801142488
3452.0,0.00839243257293103
3451.0,0.008395962677167794
3450.0,0.008399166203329088
3449.0,0.00841215022946549
3448.0,0.00843247947618913
3447.0,0.00844776916657116
3446.0,0.008453078647259108
3445.0,0.00845412103672272
3444.0,0.00845458808042222
3443.0,0.008451230195589274
3442.0,0.008441333176268589
3441.0,0.008429526996554153
3440.0,0.008423271918058249
3439.0,0.008425119348864411
3438.0,0.008433815439709757
3437.0,0.008449138016974684
3436.0,0.008470304664917988
3435.0,0.008493161443455015
3434.0,0.00851311373219312
3433.0,0.00852993424775077
3432.0,0.008544865270579283
3431.0,0.008555915800788454
3430.0,0.008560642290065822
3429.0,0.008560916061863847
3428.0,0.008559821028862562
3427.0,0.008555481373131252
3426.0,0.008544214588618745
3425.0,0.00852873497899795
3424.0,0.008517788354633968
3423.0,0.008516281131553269
3422.0,0.008519089009189304
3421.0,0.008517418936192678
3420.0,0.008509668160462168
3419.0,0.00850301151602097
3418.0,0.00850553089311105
3417.0,0.008518803386981511
3416.0,0.00853655746890711
3415.0,0.008549922522905838
3414.0,0.008555292249927307
3413.0,0.00855590006812806
3412.0,0.008555364330420425
3411.0,0.008553728153220164
3410.0,0.00855230656151494
3409.0,0.008557448053753478
3408.0,0.008573432510957065
3407.0,0.008593341547535866
3406.0,0.00860380404450299
3405.0,0.008599694221490371
3404.0,0.00858940511251021
3403.0,0.008584652169151089
3402.0,0.008588694782148493
3401.0,0.008596759770716056
3400.0,0.008603564673053905
3399.0,0.008606895724672953
3398.0,0.008606631486607608
3397.0,0.008604913536971027
3396.0,0.00860608309884138
3395.0,0.008612049243208636
3394.0,0.00861762096912046
3393.0,0.008613444294380995
3392.0,0.008595355778929233
3391.0,0.008569726061210878
3390.0,0.00854977602665231
3389.0,0.008548117376260479
3388.0,0.008569147473976165
3387.0,0.008603139696114039
3386.0,0.008629195062355221
3385.0,0.00863146616140751
3384.0,0.008614530422537322
3383.0,0.008597910286658494
3382.0,0.008593941736005247
3381.0,0.008597274334737191
3380.0,0.008597709008453486
3379.0,0.008596972311469159
3378.0,0.008605826654674641
3377.0,0.008626990183519544
3376.0,0.008649189566611036
3375.0,0.0086597623531487
3374.0,0.008657387928173027
3373.0,0.008649530755854874
3372.0,0.008642024166232706
3371.0,0.008634851730288804
3370.0,0.008626135532784438
3369.0,0.008616304259674232
3368.0,0.008607676809797488
3367.0,0.008601707304326791
3366.0,0.008597756239903297
3365.0,0.008594266446270014
3364.0,0.008590668696510397
3363.0,0.008587974129887758
3362.0,0.0085873070646432
3361.0,0.00858831531164307
3360.0,0.008590129581907245
3359.0,0.00859377890077896
3358.0,0.00860147531388719
3357.0,0.00861198417832386
3356.0,0.00861842072299648
3355.0,0.008613718317435239
3354.0,0.008598813721781019
3353.0,0.008583376398918836
3352.0,0.00857754170032492
3351.0,0.008583059285238349
3350.0,0.008592635806487552
3349.0,0.00859698530728307
3348.0,0.008592301410548
3347.0,0.008582171659852597
3346.0,0.00857376106056739
3345.0,0.008572436391915933
3344.0,0.008578530044370435
3343.0,0.008588204017789267
3342.0,0.008596893509808407
3341.0,0.008602200045760523
3340.0,0.008603916172513321
3339.0,0.008601818214579818
3338.0,0.008594522650523566
3337.0,0.00858139088841689
3336.0,0.008565164240182447
3335.0,0.008550942742550456
3334.0,0.008541635512442981
3333.0,0.008535902705853186
3332.0,0.008532099231816777
3331.0,0.0085330695954825
3330.0,0.008544053369100049
3329.0,0.008564547104478333
3328.0,0.00858449796679076
3327.0,0.00859166747164427
3326.0,0.008582668957061642
3325.0,0.008564760866445658
3324.0,0.008547194838972856
3323.0,0.008534161823322724
3322.0,0.00852635820942078
3321.0,0.00852501674988169
3320.0,0.00853069064216326
3319.0,0.008539833696958243
3318.0,0.008546494338983484
3317.0,0.008548028658780857
3316.0,0.008546712647119425
3315.0,0.00854546873812836
3314.0,0.008544514481091541
3313.0,0.008543195894285137
3312.0,0.008542479683713347
3311.0,0.008542863813875583
3310.0,0.008540804732706167
3309.0,0.00853072563931751
3308.0,0.00851234635630199
3307.0,0.008494419165414017
3306.0,0.008488932677574414
3305.0,0.008500740018499143
3304.0,0.008522412190151131
3303.0,0.008539279309154844
3302.0,0.008540775851623238
3301.0,0.008528291685917221
3300.0,0.008512459843123526
3299.0,0.008503230335914677
3298.0,0.008502252252742147
3297.0,0.00850408176310947
3296.0,0.008503191896704699
3295.0,0.008498710058969442
3294.0,0.00849286821552363
3293.0,0.008486574978783109
3292.0,0.008477814156850031
3291.0,0.008464570129700451
3290.0,0.008448623352875077
3289.0,0.00843519783264859
3288.0,0.008427729308436958
3287.0,0.008423428232227963
3286.0,0.008416032623219799
3285.0,0.008404133097749338
3284.0,0.008395286336261909
3283.0,0.008398755457251343
3282.0,0.00841356588339516
3281.0,0.008426526830822578
3280.0,0.008424285675140936
3279.0,0.008406085766244038
3278.0,0.008383181902683483
3277.0,0.008367181481664949
3276.0,0.008360856017048874
3275.0,0.008359131080002346
3274.0,0.008355368386998222
3273.0,0.00834533697888457
3272.0,0.008327890296289012
3271.0,0.008305375898387455
3270.0,0.00828374704096954
3269.0,0.008269879666519023
3268.0,0.00826640983156731
3267.0,0.008268679177643528
3266.0,0.008267685885413817
3265.0,0.008257474727072233
3264.0,0.008240294731635109
3263.0,0.008223344024507296
3262.0,0.008210266298388644
3261.0,0.008197560414388924
3260.0,0.008180475553227658
3259.0,0.008159807393426796
3258.0,0.00814055314431892
3257.0,0.008125642575499996
3256.0,0.00811388415224358
3255.0,0.008103229176172112
3254.0,0.008092592133160787
3253.0,0.00808072607887657
3252.0,0.00806651131006708
3251.0,0.008050914577492383
3250.0,0.008035459609557377
3249.0,0.00801867269234446
3248.0,0.007998026721058416
3247.0,0.007976036841846775
3246.0,0.00795921304828559
3245.0,0.007948127521122925
3244.0,0.007933934164977886
3243.0,0.007909946174261797
3242.0,0.007882765527901825
3241.0,0.00786573972803229
3240.0,0.007862763537627293
3239.0,0.00786402910892329
3238.0,0.007858728867282097
3237.0,0.007846754546827175
3236.0,0.00783516762184736
3235.0,0.007827202921797227
3234.0,0.007818931649404002
3233.0,0.00780555918437339
3232.0,0.0077871121392142995
3231.0,0.007767243220153257
3230.0,0.007748507642956085
3229.0,0.007730588133398549
3228.0,0.007713092930100909
3227.0,0.0076984707402706345
3226.0,0.0076902424510832635
3225.0,0.007687926996512303
3224.0,0.007685643699042387
3223.0,0.007677460326444744
3222.0,0.0076631330223787585
3221.0,0.007646901418991311
3220.0,0.007632004715201719
3219.0,0.007618709557375313
3218.0,0.007607081713358563
3217.0,0.007597949593532301
3216.0,0.00758972872603825
3215.0,0.007576887114799219
3214.0,0.007554749334961189
3213.0,0.007525591827303369
3212.0,0.007497724189531139
3211.0,0.007478663482328594
3210.0,0.007470043654004107
3209.0,0.007467793002317045
3208.0,0.0074657782862929
3207.0,0.007459792585314174
3206.0,0.007449881558236839
3205.0,0.007439428275822563
3204.0,0.0074314021926746255
3203.0,0.007424912774126921
3202.0,0.007415777834946144
3201.0,0.0074005077774312545
3200.0,0.0073798601860032955
3199.0,0.007358535736072061
3198.0,0.007341342490761137
3197.0,0.0073290265426674845
3196.0,0.007317754022678727
3195.0,0.007303130741202271
3194.0,0.007284479423071911
3193.0,0.007264740340121345
3192.0,0.007246805330453307
3191.0,0.007231225481837288
3190.0,0.007216853157952076
3189.0,0.0072018287716863775
3188.0,0.007184248873392936
3187.0,0.007164255056265532
3186.0,0.007146341252237442
3185.0,0.0071364244712953185
3184.0,0.007134356165088489
3183.0,0.007131190166073679
3182.0,0.007116920846582984
3181.0,0.007090017315892474
3180.0,0.0070574774549904285
3179.0,0.00702753798898134
3178.0,0.007005246877673132
3177.0,0.006993365681706212
3176.0,0.00699261422413539
3175.0,0.006999767829397449
3174.0,0.00700861498234434
3173.0,0.007014363369811235
3172.0,0.007015334821328176
3171.0,0.0070099362707089045
3170.0,0.006995131524554664
3169.0,0.006970661600629061
3168.0,0.006943274110453309
3167.0,0.006923392101472158
3166.0,0.006916904137648505
3165.0,0.0069208989553100194
3164.0,0.006927079055182209
3163.0,0.006928459679384209
3162.0,0.006923134744730355
3161.0,0.0069123283006760645
3160.0,0.006895785886346392
3159.0,0.006870994272779283
3158.0,0.006838273809593243
3157.0,0.006804801526091765
3156.0,0.006779727284405628
3155.0,0.006764140782490639
3154.0,0.006748549334696697
3153.0,0.006722350640170266
3152.0,0.0066849426317872095
3151.0,0.00664635700672203
3150.0,0.00661738091318006
3149.0,0.006599971316626173
3148.0,0.006587267758086421
3147.0,0.0065722666918071005
3146.0,0.006555736764204538
3145.0,0.00654463169014614
3144.0,0.006542596869136158
3143.0,0.006544225050506036
3142.0,0.006540465215303711
3141.0,0.0065283889798521235
3140.0,0.006513111915907863
3139.0,0.006500409147616239
3138.0,0.0064898597288808105
3137.0,0.006476042712184988
3136.0,0.006454313444789045
3135.0,0.006424546338591755
3134.0,0.00639099322920115
3133.0,0.00635955755979558
3132.0,0.0063339025631235805
3131.0,0.006313546984129838
3130.0,0.006296811018689578
3129.0,0.006285051846883836
3128.0,0.006281099852109106
3127.0,0.006283711113410139
3126.0,0.006287500299759764
3125.0,0.006289006150499328
3124.0,0.006289178830555972
3123.0,0.0062888715085967955
3122.0,0.006285985214066084
3121.0,0.006279563903519396
3120.0,0.006273239016615288
3119.0,0.006271647038510456
3118.0,0.006275996213402494
3117.0,0.0062864666398438915
3116.0,0.006306868878205376
3115.0,0.006342635690333896
3114.0,0.006394654401987183
3113.0,0.006459144675596943
3112.0,0.006533681587482024
3111.0,0.006619824968056906
3110.0,0.006719027098088687
3109.0,0.006828289056300535
3108.0,0.006940642052523083
3107.0,0.007048732284710339
3106.0,0.007146981728198414
3105.0,0.007230142910308535
3104.0,0.007290344692189433
3103.0,0.00731727138165937
3102.0,0.007304468649012829
3101.0,0.007257022083817155
3100.0,0.007191618405652329
3099.0,0.007126490954630776
3098.0,0.00707206698733645
3097.0,0.007032254795419255
3096.0,0.007012423427451712
3095.0,0.007024118456838346
3094.0,0.007081341267397114
3093.0,0.00719307953110322
3092.0,0.007360531531465153
3091.0,0.00758139910012644
3090.0,0.007855701418353083
3089.0,0.00818531336032349
3088.0,0.008565621103370679
3087.0,0.008977577222886259
3086.0,0.009389176139567438
3085.0,0.009763211170179541
3084.0,0.010061979003416578
3083.0,0.010248886141597786
3082.0,0.01029633593921287
3081.0,0.01020104992707434
3080.0,0.009992790738643348
3079.0,0.009724219732685557
3078.0,0.009448446180813223
3077.0,0.009202151715088702
3076.0,0.009003069567602122
3075.0,0.008857200593044724
3074.0,0.008766596972296986
3073.0,0.008732982363535514
3072.0,0.008757509218717145
3071.0,0.008840752100513452
3070.0,0.0089853227705816
3069.0,0.00919693829387807
3068.0,0.009479242753322594
3067.0,0.009826422371387714
3066.0,0.01022221914358836
3065.0,0.010645742017203478
3064.0,0.011074926012989709
3063.0,0.011482084985887821
3062.0,0.011830006772277576
3061.0,0.012077928866702638
3060.0,0.012194146822247363
3059.0,0.012164493072783005
3058.0,0.011992031143913956
3057.0,0.011695252547790982
3056.0,0.01130859359845347
3055.0,0.01087867429241615
3054.0,0.0104515442714419
3053.0,0.010058335455114874
3052.0,0.009709652100684524
3051.0,0.009400941333670854
3050.0,0.00912465740414339
3049.0,0.008880125003888628
3048.0,0.008673360393940718
3047.0,0.008510240818598956
3046.0,0.008393791086634815
3045.0,0.008327773735299642
3044.0,0.008317971354543782
3043.0,0.008366343146819579
3042.0,0.008467077783047545
3041.0,0.008612185222126572
3040.0,0.008801188454040126
3039.0,0.009044482961499749
3038.0,0.009359069105085913
3037.0,0.009762641955532848
3036.0,0.010268816737794664
3035.0,0.01088483177727225
3034.0,0.011613873637234005
3033.0,0.0124584315587066
3032.0,0.013414981104668074
3031.0,0.014459706030799506
3030.0,0.015539966018433016
3029.0,0.016581674950538108
3028.0,0.01750078321313765
3027.0,0.018208282958554124
3026.0,0.01861954283170017
3025.0,0.0186750248026684
3024.0,0.018358960730912362
3023.0,0.017702837642562315
3022.0,0.016777881995627224
3021.0,0.015684298435174757
3020.0,0.014531196474006684
3019.0,0.013410165133882044
3018.0,0.01238058618704025
3017.0,0.01147287072870592
3016.0,0.01069974476054741
3015.0,0.010061931816959864
3014.0,0.009548785766358885
3013.0,0.009141729442833367
3012.0,0.008822171107805848
3011.0,0.008577606853546018
3010.0,0.008401708469356608
3009.0,0.008291760875600318
3008.0,0.008246485941620271
3007.0,0.008262650859551622
3006.0,0.00832987937635654
3005.0,0.008428251423407454
3004.0,0.008532116801918097
3003.0,0.00861530057111213
3002.0,0.008652785404127441
3001.0,0.008622528398868325
3000.0,0.008512892242478955
2999.0,0.008330399072754749
2998.0,0.00809786975738669
2997.0,0.007842168248376129
2996.0,0.0075836242426386286
2995.0,0.007335278380386545
2994.0,0.0071079993885451685
2993.0,0.006913059848237723
2992.0,0.00675819183561883
2991.0,0.0066425004673353735
2990.0,0.006556047259910238
2989.0,0.006485662449281696
2988.0,0.0064229492081986994
2987.0,0.00636758563954043
2986.0,0.006323589366325888
2985.0,0.006293080015779015
2984.0,0.0062749370918701195
2983.0,0.006267741073333872
2982.0,0.006271417582822656
2981.0,0.006285287474349936
2980.0,0.006306358659689909
2979.0,0.006331078301587206
2978.0,0.006357645238644151
2977.0,0.006384994955319113
2976.0,0.006410301730831767
2975.0,0.0064301264490779315
2974.0,0.006445379567158318
2973.0,0.0064635189868636166
2972.0,0.006494163555009948
2971.0,0.00654220963017186
2970.0,0.006606141292369564
2969.0,0.006681746151827557
2968.0,0.006766039628353954
2967.0,0.006857895533879743
2966.0,0.0069572815891311675
2965.0,0.007065494404761677
2964.0,0.0071842966900823955
2963.0,0.007312594542712941
2962.0,0.007444427120356518
2961.0,0.007573105247731846
2960.0,0.007698104119534619
2959.0,0.007826399316555132
2958.0,0.007966034524269094
2957.0,0.0081189864923651
2956.0,0.008280532364675233
2955.0,0.008444411978905815
2954.0,0.00860882554997077
2953.0,0.008778965414748685
2952.0,0.008964528327854965
2951.0,0.009173093307450999
2950.0,0.009405185718737377
2949.0,0.009656631961005227
2948.0,0.009926214693490445
2947.0,0.010219340558945614
2946.0,0.010543233892332728
2945.0,0.010899722337866702
2944.0,0.011284697297728514
2943.0,0.011694019749004862
2942.0,0.012128880127755927
2941.0,0.01259544099290274
2940.0,0.013100040137323778
2939.0,0.013644534882705561
2938.0,0.014225616318598274
2937.0,0.01483780665936679
2936.0,0.01547561015026958
2935.0,0.016132116474011256
2934.0,0.016797451176461715
2933.0,0.01746177775151794
2932.0,0.01811883647226016
2931.0,0.01876194888103636
2930.0,0.019376757637326096
2929.0,0.019943104706550172
2928.0,0.020445327971085808
2927.0,0.020876335788576506
2926.0,0.021230135508424522
2925.0,0.021496968622174092
2924.0,0.021669685320233167
2923.0,0.021750820714864522
2922.0,0.02174977742518387
2921.0,0.021676074501078148
2920.0,0.02153834527877037
2919.0,0.02134633941110223
2918.0,0.021110565683398478
2917.0,0.020841475089150484
2916.0,0.020549925224529392
2915.0,0.020245383931231303
2914.0,0.019930845885848036
2913.0,0.019602062257095598
2912.0,0.0192544685263498
2911.0,0.018889920106079216
2910.0,0.018515279713763058
2909.0,0.018135082647150868
2908.0,0.0177482309055134
2907.0,0.017351610009843536
2906.0,0.016944725118425152
2905.0,0.01652994964229582
2904.0,0.01610913641797071
2903.0,0.015683449248834015
2902.0,0.015255595860322385
2901.0,0.014833716727746228
2900.0,0.014428191287262963
2899.0,0.01404458345522785
2898.0,0.013681544815844006
2897.0,0.01333509191537155
2896.0,0.013004610274408223
2895.0,0.012693256535478014
2894.0,0.012404106039229711
2893.0,0.012137558707273725
2892.0,0.011892347193699348
2891.0,0.011666895821996037
2890.0,0.011458887099097408
2889.0,0.011264995198106852
2888.0,0.011082582808017716
2887.0,0.010911159886119723
2886.0,0.010750727301168803
2885.0,0.010598447360413415
2884.0,0.010448441956691215
2883.0,0.01029572235876095
2882.0,0.01014030512019303
2881.0,0.00998733837462261
2880.0,0.009843341920557802
2879.0,0.009712607588935948
2878.0,0.009595652110377988
2877.0,0.009490122816902584
2876.0,0.00939316554731219
2875.0,0.009304266202235728
2874.0,0.009226359772144142
2873.0,0.009163782983528185
2872.0,0.009118749213748013
2871.0,0.009090000818185352
2870.0,0.009075035794146303
2869.0,0.009073176210142902
2868.0,0.009086660533120884
2867.0,0.009119430569573825
2866.0,0.009175565772900178
2865.0,0.009258784780692614
2864.0,0.009372924796870848
2863.0,0.009522064207646223
2862.0,0.00970906293117962
2861.0,0.009932872209316938
2860.0,0.010186951701700747
2859.0,0.010460214758655557
2858.0,0.010739898460517417
2857.0,0.011013951675589516
2856.0,0.01127171554705162
2855.0,0.011503530538411815
2854.0,0.011700584973452364
2853.0,0.011856299026973376
2852.0,0.011968229145318305
2851.0,0.012038296604250145
2850.0,0.012069924886235565
2849.0,0.0120635941219581
2848.0,0.012013678848585636
2847.0,0.01190914537947137
2846.0,0.011738944684947199
2845.0,0.011498430453882323
2844.0,0.011192100424158824
2843.0,0.01083096342222321
2842.0,0.0104280320232779
2841.0,0.009997180795501782
2840.0,0.009554459376069085
2839.0,0.009117590091336026
2838.0,0.0087018273064755
2837.0,0.008316395176806926
2836.0,0.007965713403571863
2835.0,0.007653998536898516
2834.0,0.007386242649814953
2833.0,0.007163228287580544
2832.0,0.006977589986749256
2831.0,0.006817826264485306
2830.0,0.0066770308525921215
2829.0,0.006555662732155772
2828.0,0.006455629267107077
2827.0,0.006374513019911158
2826.0,0.006306521423674803
2825.0,0.0062466902057613915
2824.0,0.006192264100724982
2823.0,0.006141161576009634
2822.0,0.006091880978682581
2821.0,0.006044876449044331
2820.0,0.006002022037891512
2819.0,0.0059637833075994575
2818.0,0.005927866669140491
2817.0,0.005891465403137254
2816.0,0.005854337085145776
2815.0,0.005819061902127323
2814.0,0.005788453742481322
2813.0,0.005763079728945667
2812.0,0.005741321288624851
2811.0,0.005721265116122785
2810.0,0.005701728931460353
2809.0,0.005681629516323332
2808.0,0.005659312397149506
2807.0,0.005633224500695269
2806.0,0.005602897497763208
2805.0,0.0055689750699089895
2804.0,0.005532998456495577
2803.0,0.005497609941161127
2802.0,0.005465987616157682
2801.0,0.005439488922002258
2800.0,0.005416305986895084
2799.0,0.005393993147491035
2798.0,0.0053730779878208915
2797.0,0.005356575876619667
2796.0,0.005345410075067767
2795.0,0.005335670238737926
2794.0,0.0053215011088876135
2793.0,0.00530042092157997
2792.0,0.00527530062432596
2791.0,0.005251467248414884
2790.0,0.0052322792495441695
2789.0,0.005216822367186983
2788.0,0.0052015075695067544
2787.0,0.005184102459357618
2786.0,0.0051658010744478275
2785.0,0.005149321010868594
2784.0,0.005135832144624239
2783.0,0.0051245264282562515
2782.0,0.005114708754417446
2781.0,0.005106942694348455
2780.0,0.00510189840949198
2779.0,0.005098716916006966
2778.0,0.0050945209376820145
2777.0,0.005085483121256569
2776.0,0.005069381875798016
2775.0,0.0050481072641461655
2774.0,0.005026544664373681
2773.0,0.005007398593695206
2772.0,0.0049880577641388
2771.0,0.004964615322262062
2770.0,0.0049383665103375505
2769.0,0.004915623771721871
2768.0,0.00490070203165558
2767.0,0.004891474725371766
2766.0,0.004882562361019969
2765.0,0.004870771334525625
2764.0,0.004856731351338155
2763.0,0.004843166368690875
2762.0,0.0048327254772240775
2761.0,0.004826028287640677
2760.0,0.0048202886519784684
2759.0,0.004810873821999706
2758.0,0.004795523415050323
2757.0,0.004776883563335208
2756.0,0.0047604327371057464
2755.0,0.004750252097775115
2754.0,0.004746741901284615
2753.0,0.004746811050705346
2752.0,0.0047453644864495275
2751.0,0.004737825207665387
2750.0,0.004722749694608749
2749.0,0.004702770891880849
2748.0,0.004683458432897262
2747.0,0.00467084366125957
2746.0,0.00466751126257279
2745.0,0.004669145883310713
2744.0,0.00466655660949465
2743.0,0.004654266649462021
2742.0,0.0046369938598547
2741.0,0.004624928981927307
2740.0,0.004622596135494212
2739.0,0.004625186787204685
2738.0,0.004625876649095802
2737.0,0.004623057756418916
2736.0,0.00461859775725338
2735.0,0.004612721262179307
2734.0,0.004604139141086879
2733.0,0.004593573563928466
2732.0,0.004584142728785966
2731.0,0.004578253065474092
2730.0,0.004575610855677871
2729.0,0.004574101177891171
2728.0,0.0045719516880084275
2727.0,0.004569557206591652
2726.0,0.0045692136275233535
2725.0,0.004571798690658333
2724.0,0.004573808863220346
2723.0,0.004569668654955867
2722.0,0.004557591357041683
2721.0,0.004541299126162362
2720.0,0.004525627707954755
2719.0,0.0045130699115362525
2718.0,0.004504971825420362
2717.0,0.004502304530997669
2716.0,0.004502970055860746
2715.0,0.004501181365803506
2714.0,0.004492842691885896
2713.0,0.004480105661420955
2712.0,0.00446807403039138
2711.0,0.004458334775030973
2710.0,0.0044483373086899106
2709.0,0.004436534946345529
2708.0,0.0044254860618244615
2707.0,0.004419390712820389
2706.0,0.004419759203148031
2705.0,0.004423246063136583
2704.0,0.0044233658623727
2703.0,0.004415663705605429
2702.0,0.004402453730159335
2701.0,0.004391374905432406
2700.0,0.004388086219108928
2699.0,0.004391088284064396
2698.0,0.004394052051980024
2697.0,0.004391620262484339
2696.0,0.004382417141048102
2695.0,0.004369383989556251
2694.0,0.004358854397982722
2693.0,0.004356613384360679
2692.0,0.004361950308956498
2691.0,0.004367119855165772
2690.0,0.004365314546484925
2689.0,0.004357703521014201
2688.0,0.0043503777357655335
2687.0,0.004346132688654623
2686.0,0.00434261904511328
2685.0,0.004337447104361753
2684.0,0.004331107685514016
2683.0,0.004324498372518764
2682.0,0.0043167770955673665
2681.0,0.004306938903754949
2680.0,0.004295815375209525
2679.0,0.004285627702398688
2678.0,0.004278681721233593
2677.0,0.004276489078620156
2676.0,0.004278660646591788
2675.0,0.004282354634021205
2674.0,0.004283760453192284
2673.0,0.004280644969892788
2672.0,0.004273300440883858
2671.0,0.004263687932273899
2670.0,0.004254177160649481
2669.0,0.0042461100337685695
2668.0,0.004238997737477851
2667.0,0.004232342718145515
2666.0,0.00422909412997286
2665.0,0.004235189873538995
2664.0,0.004253482343296451
2663.0,0.004279083134539484
2662.0,0.004302359798278265
2661.0,0.004316476997869224
2660.0,0.004321474233953749
2659.0,0.004322813066156239
2658.0,0.004327455643246182
2657.0,0.004339110741240049
2656.0,0.00435448537361544
2655.0,0.004365023549409369
2654.0,0.004364890986923973
2653.0,0.004357157639898044
2652.0,0.004350596701862426
2651.0,0.00435139254513836
2650.0,0.004359691897164997
2649.0,0.004372081714506483
2648.0,0.004384274637446664
2647.0,0.004392440882935442
2646.0,0.0043955914496257315
2645.0,0.004397220495594007
2644.0,0.004402028537175029
2643.0,0.004411118436647741
2642.0,0.004422417880050405
2641.0,0.004434634730696255
2640.0,0.004447548844068077
2639.0,0.004458994785217563
2638.0,0.004465923314211377
2637.0,0.004469275549697434
2636.0,0.004474407781246521
2635.0,0.004485111719889005
2634.0,0.0044994852366365525
2633.0,0.004512693965487001
2632.0,0.004521185459990576
2631.0,0.004523336808142008
2630.0,0.004518721145809972
2629.0,0.004508731351108574
2628.0,0.004496524799965029
2627.0,0.004484862456738364
2626.0,0.004474973907109526
2625.0,0.004467865700802866
2624.0,0.004464796330204714
2623.0,0.004465366844667672
2622.0,0.004466341271073349
2621.0,0.004463452947277715
2620.0,0.004454381140872158
2619.0,0.004440313123632774
2618.0,0.004425496771833746
2617.0,0.00441477526825422
2616.0,0.004410168144777437
2615.0,0.004410262147042619
2614.0,0.004413752527341589
2613.0,0.004421984450418148
2612.0,0.004436067370154568
2611.0,0.004452938349633554
2610.0,0.004466888410441102
2609.0,0.004474244996796369
2608.0,0.004474642475576315
2607.0,0.004469310504869875
2606.0,0.004461451991832595
2605.0,0.004456956773865308
2604.0,0.004460097334528982
2603.0,0.004468220623936557
2602.0,0.004474259727285661
2601.0,0.004474728705650417
2600.0,0.004471583326813277
2599.0,0.00446598517084802
2598.0,0.0044549800807353835
2597.0,0.004436707472311314
2596.0,0.004415790459918588
2595.0,0.004400762654154952
2594.0,0.004397206923160455
2593.0,0.0044041177064272
2592.0,0.00441457242899164
2591.0,0.004419156554389161
2590.0,0.004411754151479022
2589.0,0.00439459423803968
2588.0,0.004377258333251395
2587.0,0.004369401236588919
2586.0,0.0043740095673437
2585.0,0.004386737866593166
2584.0,0.004400113830307775
2583.0,0.004408682891226549
2582.0,0.0044120340441133376
2581.0,0.004413077346518411
2580.0,0.004412814488796312
2579.0,0.004408333871725123
2578.0,0.004397307708921246
2577.0,0.0043823117815367475
2576.0,0.004367833895602587
2575.0,0.00435480859615031
2574.0,0.004341818478338298
2573.0,0.0043302477484055526
2572.0,0.004323638594236982
2571.0,0.004322101830595107
2570.0,0.004321482730659834
2569.0,0.0043181543974258945
2568.0,0.004310990697149854
2567.0,0.0042993503018968655
2566.0,0.0042841463625295445
2565.0,0.004271139271835863
2564.0,0.004267413528248591
2563.0,0.004272619807404087
2562.0,0.004278332301162478
2561.0,0.004278090225336028
2560.0,0.004273593383888556
2559.0,0.004268684202814743
2558.0,0.004262611454129359
2557.0,0.004253739363207021
2556.0,0.004245738356101525
2555.0,0.00424414175801463
2554.0,0.004248115562982073
2553.0,0.004251077279333172
2552.0,0.004249726100401419
2551.0,0.004247898057120892
2550.0,0.004250302803955933
2549.0,0.004255965668433237
2548.0,0.004260157244476316
2547.0,0.004260769440558329
2546.0,0.004259837692815313
2545.0,0.004259113535707772
2544.0,0.004256894986420028
2543.0,0.004250497709103011
2542.0,0.0042402199159620995
2541.0,0.00422879653939191
2540.0,0.004217538570281332
2539.0,0.00420552772857614
2538.0,0.004192934580539478
2537.0,0.004182597432665873
2536.0,0.00417708836975378
2535.0,0.00417593686372374
2534.0,0.004176767656110963
2533.0,0.004177416879145051
2532.0,0.004176153952288747
2531.0,0.004172270933699261
2530.0,0.004167702504781906
2529.0,0.00416531047977992
2528.0,0.00416381598999027
2527.0,0.004157447099293482
2526.0,0.004143217995203174
2525.0,0.004125995079454339
2524.0,0.004113661047830479
2523.0,0.004109888786650076
2522.0,0.004114162579012902
2521.0,0.0041248793769358685
2520.0,0.004137970724493696
2519.0,0.004145804696177201
2518.0,0.004143552542295664
2517.0,0.004135924983340572
2516.0,0.004132708282914124
2515.0,0.004137731006891314
2514.0,0.004145757342832116
2513.0,0.004149038921283544
2512.0,0.004143356643604134
2511.0,0.0041296097648053365
2510.0,0.004113862360288617
2509.0,0.004103946744633703
2508.0,0.004101193938549813
2507.0,0.0040976385251560495
2506.0,0.004086745898228033
2505.0,0.004074023279391885
2504.0,0.004069617372047747
2503.0,0.004072561186155523
2502.0,0.00407174564428362
2501.0,0.004062558278688635
2500.0,0.0040524006274241485
2499.0,0.004047020238887485
2498.0,0.004041106350292933
2497.0,0.0040280842294577865
2496.0,0.004011830264879051
2495.0,0.004001715702917899
2494.0,0.004000559690501647
2493.0,0.004003454038247513
2492.0,0.004005047449995912
2491.0,0.004002485011382944
2490.0,0.003994115838084553
2489.0,0.0039812368454944045
2488.0,0.003969907457134909
2487.0,0.003966257276739902
2486.0,0.0039702114389703344
2485.0,0.003976578733821372
2484.0,0.003981091911640229
2483.0,0.003982827829595764
2482.0,0.003982170393778703
2481.0,0.0039789076123100085
2480.0,0.003971188789939786
2479.0,0.003955225794892542
2478.0,0.003929109858955792
2477.0,0.0038991700324683435
2476.0,0.003878653119610144
2475.0,0.0038756546831671015
2474.0,0.0038842814431112255
2473.0,0.003891425328536359
2472.0,0.003890452255580605
2471.0,0.003884670493567237
2470.0,0.0038798404375049297
2469.0,0.0038786852294717443
2468.0,0.00388193739266465
2467.0,0.003889021413013709
2466.0,0.0038963633248538737
2465.0,0.0038993659141281266
2464.0,0.003898079887860096
2463.0,0.0038977925156870375
2462.0,0.003902067458473591
2461.0,0.003907876788415567
2460.0,0.003909847952593976
2459.0,0.0039070841255895335
2458.0,0.003902817405082977
2457.0,0.003898451285456668
2456.0,0.003891425232768024
2455.0,0.003880016396839872
2454.0,0.003868086889167843
2453.0,0.0038628379171368687
2452.0,0.0038677213244032883
2451.0,0.003878622278330764
2450.0,0.0038873449340091353
2449.0,0.0038882661046367
2448.0,0.003881606015119971
2447.0,0.0038713240738618877
2446.0,0.003860801537005133
2445.0,0.0038503749745319514
2444.0,0.0038383928778610407
2443.0,0.003824347554648607
2442.0,0.003810343941394775
2441.0,0.0037985930945022505
2440.0,0.0037881813145693617
2439.0,0.0037766405154847746
2438.0,0.0037649567393407864
2437.0,0.003757824546129925
2436.0,0.00375709756925493
2435.0,0.003758048635453219
2434.0,0.0037552245181573353
2433.0,0.003749503667753154
2432.0,0.003745194169622319
2431.0,0.003741863633881048
2430.0,0.003734551176245061
2429.0,0.003722375941050309
2428.0,0.0037115526508301666
2427.0,0.003707682175334135
2426.0,0.003708883413281841
2425.0,0.003708889891057126
2424.0,0.003703915754965405
2423.0,0.003694259839243632
2422.0,0.0036821322180499213
2421.0,0.0036708594124546137
2420.0,0.0036639273850404067
2419.0,0.0036615119922295577
2418.0,0.0036592179824905
2417.0,0.003653019085565858
2416.0,0.0036445672911812835
2415.0,0.003639081647329529
2414.0,0.003638640475271659
2413.0,0.003640239434279666
2412.0,0.0036404532425477467
2411.0,0.0036393251964572234
2410.0,0.003638423686654099
2409.0,0.003636567902658392
2408.0,0.003629267399043639
2407.0,0.0036128813824355217
2406.0,0.003589126172187127
2405.0,0.003565066230695571
2404.0,0.003548060013037864
2403.0,0.0035404435811729135
2402.0,0.0035390439272047994
2401.0,0.003538908390772413
2400.0,0.003536325295579956
2399.0,0.003529005852253482
2398.0,0.0035160670762717037
2397.0,0.0034993878004702474
2396.0,0.003483604558686467
2395.0,0.003472991532679829
2394.0,0.003468562561481982
2393.0,0.0034685851179237187
2392.0,0.0034706597729304584
2391.0,0.0034725385015085793
2390.0,0.003472595763404969
2389.0,0.003471518195806415
2388.0,0.003472911840591756
2387.0,0.003480193345174866
2386.0,0.0034926705657657236
2385.0,0.003505900912167165
2384.0,0.003515735344573091
2383.0,0.003520540379676431
2382.0,0.003519439230863101
2381.0,0.0035103673356619725
2380.0,0.0034913758513371697
2379.0,0.0034631835827461615
2378.0,0.0034296556477238825
2377.0,0.003397938555632995
2376.0,0.0033790092306490156
2375.0,0.003384126264721666
2374.0,0.0034140506416043444
2373.0,0.0034520176788034713
2372.0,0.0034740784762140207
2371.0,0.0034692420858138296
2370.0,0.0034460789153052474
2369.0,0.0034208735894968737
2368.0,0.003406154743433103
2367.0,0.0034090769789011616
2366.0,0.0034297338407965287
2365.0,0.003458173935726264
2364.0,0.00347993658515792
2363.0,0.003488703361150091
2362.0,0.0034913257608352112
2361.0,0.003493076308989117
2360.0,0.003492199888146968
2359.0,0.003492528352271382
2358.0,0.003500135009654601
2357.0,0.003512602811940834
2356.0,0.0035174584889641
2355.0,0.0035043320972642264
2354.0,0.0034759211126554807
2353.0,0.003447153984748998
2352.0,0.003440922037818884
2351.0,0.0034669943279972506
2350.0,0.0035100248663921057
2349.0,0.003543349921528101
2348.0,0.003549298170157615
2347.0,0.003539576441186806
2346.0,0.0035436797234597974
2345.0,0.00357935211902878
2344.0,0.003628434369852207
2343.0,0.00365381779278302
2342.0,0.003642290213164394
2341.0,0.003612885848225586
2340.0,0.003597470256373062
2339.0,0.0036054335951431486
2338.0,0.0036215796116099972
2337.0,0.003630025077174009
2336.0,0.0036301249678132638
2335.0,0.003623730729985747
2334.0,0.003608276929918472
2333.0,0.003584372494977358
2332.0,0.0035638925889309053
2331.0,0.0035519594042690496
2330.0,0.0035415177012106283
2329.0,0.0035334059613238806
2328.0,0.003544416858403174
2327.0,0.0035977428318123904
2326.0,0.003692415954062396
2325.0,0.0038016356235760764
2324.0,0.0038849409637393014
2323.0,0.003911833518090869
2322.0,0.0038851816900656432
2321.0,0.003834868160931025
2320.0,0.0037950206104375864
2319.0,0.0037779967339246733
2318.0,0.003779754858136255
2317.0,0.0037914906288960596
2316.0,0.003806679721823151
2315.0,0.0038176518520403125
2314.0,0.0038186197850590747
2313.0,0.003812555169562933
2312.0,0.0038097700457908105
2311.0,0.003816881874257825
2310.0,0.0038291178719982986
2309.0,0.0038365001129249017
2308.0,0.0038324268497234334
2307.0,0.003818320214915985
2306.0,0.0038019771515493093
2305.0,0.0037929617788032824
2304.0,0.003795086850540985
2303.0,0.0038027659660207027
2302.0,0.003807324670413776
2301.0,0.0038074193116973175
2300.0,0.0038102672532670107
2299.0,0.0038224008974981918
2298.0,0.003840609994119728
2297.0,0.003854853845361707
2296.0,0.0038575089362556255
2295.0,0.0038509092063341724
2294.0,0.0038449957860879507
2293.0,0.0038500757293699187
2292.0,0.0038693130644140592
2291.0,0.0038983337367707346
2290.0,0.003930572528451976
2289.0,0.003962189678754258
2288.0,0.0039908660776941185
2287.0,0.0040127658564086365
2286.0,0.004023790168610376
2285.0,0.0040236723108117815
2284.0,0.004016210386104249
2283.0,0.004005076817219724
2282.0,0.003992044529223669
2281.0,0.0039785090106885645
2280.0,0.0039657367514744305
2279.0,0.0039523419643188095
2278.0,0.003935557032011346
2277.0,0.003917195261354957
2276.0,0.0039060250611187286
2275.0,0.003909551864220098
2274.0,0.003923304424560374
2273.0,0.0039323547244456076
2272.0,0.003925651151707344
2271.0,0.003907475247725113
2270.0,0.0038921841156389367
2269.0,0.0038899768585851837
2268.0,0.0039006828819747354
2267.0,0.003919397652211396
2266.0,0.003940900339033271
2265.0,0.0039567821924995725
2264.0,0.003956641611211808
2263.0,0.003940192364853715
2262.0,0.00392402402232489
2261.0,0.003927786796486318
2260.0,0.0039534784674144716
2259.0,0.00398405083181536
2258.0,0.0040015788342309885
2257.0,0.003999261404249102
2256.0,0.0039786043120796965
2255.0,0.0039466935932552715
2254.0,0.003919750480926075
2253.0,0.003917535852554033
2252.0,0.003944543394139429
2251.0,0.003981928377738979
2250.0,0.004004312897717719
2249.0,0.004002598941960905
2248.0,0.003987579285491151
2247.0,0.003976849001530874
2246.0,0.003982464028311944
2245.0,0.004004215370882419
2244.0,0.0040284376905354415
2243.0,0.00403710986965931
2242.0,0.004024212245219746
2241.0,0.004001034475839381
2240.0,0.003982405982145256
2239.0,0.003972097162263342
2238.0,0.003965049382674113
2237.0,0.003957760516856665
2236.0,0.003950474771153304
2235.0,0.003943966429717647
2234.0,0.0039398739729383115
2233.0,0.003940731037730107
2232.0,0.0039456708314299024
2231.0,0.003950875094972382
2230.0,0.003957130442946081
2229.0,0.003969061364413694
2228.0,0.0039827030202236775
2227.0,0.003983789158833092
2226.0,0.00396654856300408
2225.0,0.003946431160871131
2224.0,0.003944058674891817
2223.0,0.003962471198704017
2222.0,0.003989262339551004
2221.0,0.0040142020642403116
2220.0,0.004034040715215614
2219.0,0.004045050152638669
2218.0,0.004043398626984644
2217.0,0.004032218080542245
2216.0,0.0040196094005002245
2215.0,0.004011067299498343
2214.0,0.0040100960488204185
2213.0,0.004020532153141979
2212.0,0.004039489488282133
2211.0,0.004053519033804637
2210.0,0.004052060779188378
2209.0,0.004041318667905563
2208.0,0.00403488062198073
2207.0,0.004034315800272993
2206.0,0.004028991947807588
2205.0,0.004011063811695272
2204.0,0.003981163002269836
2203.0,0.003943920102984904
2202.0,0.0039101651840391955
2201.0,0.003899702918735227
2200.0,0.003926539199383558
2199.0,0.003981232937352176
2198.0,0.0040367483533270965
2197.0,0.004070498498007643
2196.0,0.0040745642746486425
2195.0,0.004051019740922436
2194.0,0.004012348358295654
2193.0,0.003984625401083569
2192.0,0.003993446138933515
2191.0,0.004041223192929614
2190.0,0.004106813254977151
2189.0,0.004167376204307492
2188.0,0.004212617230681426
2187.0,0.004240721159642907
2186.0,0.004251836193692773
2185.0,0.004246992939944054
2184.0,0.0042233717138121084
2183.0,0.004171168788480469
2182.0,0.004087855777920078
2181.0,0.0039963368721734616
2180.0,0.0039340049291552515
2179.0,0.003919272127666477
2178.0,0.003939530133481947
2177.0,0.003970783169910933
2176.0,0.003998256341441833
2175.0,0.00401809205201538
2174.0,0.004030047379806049
2173.0,0.004035711300328955
2172.0,0.004040991379580329
2171.0,0.004056565905236782
2170.0,0.004093940063262508
2169.0,0.004156057891083302
2168.0,0.004229155109952577
2167.0,0.004290980525349797
2166.0,0.00433338871429793
2165.0,0.00437182981757041
2164.0,0.004425060436372594
2163.0,0.00448706758509938
2162.0,0.004520676212191391
2161.0,0.004472384298755738
2160.0,0.004299331475383573
2159.0,0.004010040626630431
2158.0,0.003690641527334711
2157.0,0.00345876142001398
2156.0,0.0033688357485793445
2155.0,0.0033837743118473283
2154.0,0.0034373133710463594
2153.0,0.0034919693485594237
2152.0,0.0035394030767191926
2151.0,0.003576059554111107
2150.0,0.0035973799231286373
2149.0,0.003604218589847208
2148.0,0.0035983442318991304
2147.0,0.0035787252090074824
2146.0,0.003551431603261148
2145.0,0.003530700758218835
2144.0,0.003517938801208888
2143.0,0.0034943645834811343
2142.0,0.0034495971471354193
2141.0,0.0034042340615713833
2140.0,0.0033860250750942303
2139.0,0.0033930666451447364
2138.0,0.003396238198460216
2137.0,0.0033695345278115622
2136.0,0.0033055287726917555
2135.0,0.0032131956673528096
2134.0,0.00311954089178624
2133.0,0.003063933374224918
2132.0,0.0030679691653114544
2131.0,0.003112626237187804
2130.0,0.00315937252188437
2129.0,0.0031889926124304847
2128.0,0.003209352242998818
2127.0,0.0032316266627448196
2126.0,0.0032552633549694575
2125.0,0.0032761505298172823
2124.0,0.0032938834073542025
2123.0,0.00330669033991978
2122.0,0.003309097091051224
2121.0,0.003299853569722788
2120.0,0.0032864205044456506
2119.0,0.003279429697414444
2118.0,0.00328669655928848
2117.0,0.003311376039526374
2116.0,0.0033504978804140546
2115.0,0.0033959674784165834
2114.0,0.003440709793215271
2113.0,0.0034803321127038567
2112.0,0.0035061588651794334
2111.0,0.0035051623178282165
2110.0,0.0034759690721047494
2109.0,0.0034386233418993665
2108.0,0.003416607926989905
2107.0,0.003413292497974461
2106.0,0.003416270961626454
2105.0,0.003418472572629069
2104.0,0.0034213237949468098
2103.0,0.003423410282108523
2102.0,0.003422629962771004
2101.0,0.0034261496856124772
2100.0,0.0034400362094794378
2099.0,0.0034494127231372088
2098.0,0.0034273849037645457
2097.0,0.00336872117662593
2096.0,0.0032999748857050174
2095.0,0.0032513265721965754
2094.0,0.0032323252217610196
2093.0,0.003237586344315597
2092.0,0.0032595959128201004
2091.0,0.0032882137329836737
2090.0,0.0033110809353538964
2089.0,0.003324282340432714
2088.0,0.003335565905798071
2087.0,0.0033521227849679625
2086.0,0.003372455453145217
2085.0,0.0033929896332181436
2084.0,0.0034133479446398366
2083.0,0.0034321878372350063
2082.0,0.0034470834075932817
2081.0,0.0034620380184176985
2080.0,0.003484478640916178
2079.0,0.003510124888000353
2078.0,0.0035220340474214165
2077.0,0.0035118625682567907
2076.0,0.0034930036520525133
2075.0,0.0034839755958271557
2074.0,0.0034875601862080076
2073.0,0.0034934002330092562
2072.0,0.003493951450899477
2071.0,0.0034910644717581676
2070.0,0.0034911276823762953
2069.0,0.0034995001000161516
2068.0,0.0035142407313575315
2067.0,0.003521531362462233
2066.0,0.0035037080608050926
2065.0,0.0034586786603838945
2064.0,0.003407020325207916
2063.0,0.0033728772273672585
2062.0,0.003365253103009634
2061.0,0.003380783813774389
2060.0,0.0034132712737217643
2059.0,0.003455576375229553
2058.0,0.0034976804936383537
2057.0,0.0035282124047168436
2056.0,0.003540036693589688
2055.0,0.0035387828880514894
2054.0,0.0035486567525487263
2053.0,0.003598895528486002
2052.0,0.003690390358282409
2051.0,0.0037796161741403874
2050.0,0.003810539500723427
2049.0,0.0037706275400499795
2048.0,0.003705142421456216
2047.0,0.003665148118146864
2046.0,0.0036598725992524456
2045.0,0.0036716777368105613
2044.0,0.0036911903689404117
2043.0,0.003718445719082098
2042.0,0.003747076572652316
2041.0,0.0037707130586263453
2040.0,0.0037980836309815186
2039.0,0.003839870919745618
2038.0,0.0038831043781354943
2037.0,0.003895717039796404
2036.0,0.0038588992259588144
2035.0,0.0037865191553884702
2034.0,0.00371111088409267
2033.0,0.0036566620138274476
2032.0,0.0036239983219288766
2031.0,0.0036003951788684914
2030.0,0.0035838980974157715
2029.0,0.003590120389476839
2028.0,0.0036261452420334253
2027.0,0.0036650459740343263
2026.0,0.0036657490869207937
2025.0,0.003620900198660881
2024.0,0.0035684622769562835
2023.0,0.0035493453576479262
2022.0,0.003567252349497991
2021.0,0.003596524799432629
2020.0,0.003613326226443571
2019.0,0.003608146521838944
2018.0,0.003578500835119599
2017.0,0.003527276990570887
2016.0,0.003467987256691681
2015.0,0.003420586059913251
2014.0,0.0034036319151450356
2013.0,0.0034285922041785
2012.0,0.0034876815916675226
2011.0,0.003546380594503185
2010.0,0.0035609536878134394
2009.0,0.0035136376992026216
2008.0,0.0034320243536811726
2007.0,0.003366575913883289
2006.0,0.0033473598814619207
2005.0,0.0033625993826410477
2004.0,0.0033762039692255092
2003.0,0.003367360421932169
2002.0,0.0033516514174729757
2001.0,0.003362611483284916
2000.0,0.0034110656133989475
1999.0,0.003471722858883599
1998.0,0.0035141429404634728
1997.0,0.003531065501011329
1996.0,0.003530709694385829
1995.0,0.003517850430312056
1994.0,0.0034979560868966635
1993.0,0.0034894769352364404
1992.0,0.003510872569043876
1991.0,0.003555327801964848
1990.0,0.003598092588877804
1989.0,0.0036256821024484905
1988.0,0.0036402064842502684
1987.0,0.003644194992731525
1986.0,0.0036403862985357337
1985.0,0.003643850200048338
1984.0,0.003676332722793783
1983.0,0.0037446684863374066
1982.0,0.003832758353393529
1981.0,0.003913389481959059
1980.0,0.003957134188021602
1979.0,0.003938422371217903
1978.0,0.003856330757626345
1977.0,0.0037488830637346033
1976.0,0.003663739227977473
1975.0,0.003613612225456284
1974.0,0.0035811674201254823
1973.0,0.00355752895235052
1972.0,0.003551224315051817
1971.0,0.003565580610054193
1970.0,0.003592197364889067
1969.0,0.003627260227251577
1968.0,0.0036746568620302828
1967.0,0.0037295092683191054
1966.0,0.0037764516948263103
1965.0,0.003808312743408376
1964.0,0.0038296287285079344
1963.0,0.0038419047966704984
1962.0,0.0038409833115707515
1961.0,0.0038307774909651596
1960.0,0.003827496399815368
1959.0,0.0038456152774143408
1958.0,0.0038874506424768033
1957.0,0.003946076589651036
1956.0,0.0040093802727656
1955.0,0.0040622449319723895
1954.0,0.004095820026206215
1953.0,0.004115838516302522
1952.0,0.00413724231394361
1951.0,0.004171632566663882
1950.0,0.0042225486986418904
1949.0,0.004288403256541352
1948.0,0.004359231807396358
1947.0,0.004416104638440082
1946.0,0.004448788385536242
1945.0,0.004469631764828475
1944.0,0.00449543055223263
1943.0,0.0045162412572218435
1942.0,0.00450445165298594
1941.0,0.004456776017810564
1940.0,0.004393546254502366
1939.0,0.00432567184309075
1938.0,0.004250816813142187
1937.0,0.0041687928487041314
1936.0,0.004083508199872048
1935.0,0.003992948309898459
1934.0,0.0038924695852548107
1933.0,0.003787621768882957
1932.0,0.003691500066480609
1931.0,0.0036085059635412755
1930.0,0.003532409481833722
1929.0,0.003464371443492782
1928.0,0.003413530694523651
1927.0,0.0033808594906991696
1926.0,0.0033534190648521504
1925.0,0.00331833813278772
1924.0,0.003277274617406798
1923.0,0.0032415570786247707
1922.0,0.0032219180126646777
1921.0,0.0032184269552649252
1920.0,0.003217351458104352
1919.0,0.003198499697365804
1918.0,0.0031523131773881817
1917.0,0.003098647817248301
1916.0,0.003064255504445808
1915.0,0.00304779130945841
1914.0,0.0030323793625485415
1913.0,0.0030101158630547638
1912.0,0.002987217755943311
1911.0,0.0029718001338826672
1910.0,0.0029626513333436016
1909.0,0.002955943419829534
1908.0,0.002950309028340871
1907.0,0.0029443840220841596
1906.0,0.002936292387827989
1905.0,0.0029296591845021378
1904.0,0.002934016241863068
1903.0,0.0029509101770621034
1902.0,0.002970448717234368
1901.0,0.0029841044019874243
1900.0,0.0029921560692398124
1899.0,0.0030005425721303233
1898.0,0.003015228747112063
1897.0,0.0030390768922876443
1896.0,0.0030706056888459925
1895.0,0.003101831745860909
1894.0,0.003126174359394565
1893.0,0.0031476040773571715
1892.0,0.00317516431873798
1891.0,0.003212523919021989
1890.0,0.0032537540780793292
1889.0,0.0032930625494999935
1888.0,0.0033326505358115648
1887.0,0.003371706437570743
1886.0,0.003403676444868156
1885.0,0.0034259482952892976
1884.0,0.0034430631854604947
1883.0,0.0034590542764587075
1882.0,0.0034722439438771998
1881.0,0.00348283428363637
1880.0,0.0034959514060491272
1879.0,0.0035155762487851273
1878.0,0.0035405980670441236
1877.0,0.0035671356047578522
1876.0,0.0035942795230650706
1875.0,0.003624892936883572
1874.0,0.0036616154106917653
1873.0,0.003706023088627066
1872.0,0.00375591140123837
1871.0,0.0038001140757113936
1870.0,0.0038155588877032466
1869.0,0.0037816888972833727
1868.0,0.0037144644423846617
1867.0,0.003648995625232289
1866.0,0.003594323697345977
1865.0,0.0035463691505057864
1864.0,0.003506937823155868
1863.0,0.003473199738534749
1862.0,0.003432481984065759
1861.0,0.0033738563117490343
1860.0,0.0032990010689958405
1859.0,0.003216247592097645
1858.0,0.0031338063588130993
1857.0,0.003061447750627722
1856.0,0.0030043489926985184
1855.0,0.002955058539922134
1854.0,0.0029027980161098837
1853.0,0.0028518985029225875
1852.0,0.0028145847667744583
1851.0,0.0027916941877238225
1850.0,0.002776219709437257
1849.0,0.002764323015028229
1848.0,0.0027580069663682987
1847.0,0.002756464562074542
1846.0,0.002754963372545465
1845.0,0.0027457035399663624
1844.0,0.002720708898178869
1843.0,0.0026815511477180625
1842.0,0.0026386211924660278
1841.0,0.0026063868253387626
1840.0,0.002594357221148851
1839.0,0.002596552251752412
1838.0,0.002595919783121109
1837.0,0.002585902534459499
1836.0,0.0025774969970397145
1835.0,0.002578015984774248
1834.0,0.0025826983753826126
1833.0,0.0025878818238414983
1832.0,0.0025974922018471734
1831.0,0.002618105320416091
1830.0,0.002644801499423448
1829.0,0.002664888145504861
1828.0,0.0026771444025264065
1827.0,0.0026878362827287582
1826.0,0.002704528924881952
1825.0,0.0027304293234340915
1824.0,0.0027603719934306127
1823.0,0.002787723855768367
1822.0,0.0028093507572391563
1821.0,0.0028272493951148835
1820.0,0.002843682037143115
1819.0,0.002859124155163639
1818.0,0.0028735015704369335
1817.0,0.0028906687491602316
1816.0,0.0029196216967236495
1815.0,0.002961492033718899
1814.0,0.003007361040137632
1813.0,0.00304739894304251
1812.0,0.0030794125362510628
1811.0,0.003111235231277894
1810.0,0.0031476027636941776
1809.0,0.003186407646001797
1808.0,0.0032271450523744883
1807.0,0.003269482355964883
1806.0,0.0033089784262652177
1805.0,0.003342035491251594
1804.0,0.0033716987815190663
1803.0,0.003398602945452979
1802.0,0.0034123427586814467
1801.0,0.00339948253896813
1800.0,0.0033670991235963065
1799.0,0.003336814808355629
1798.0,0.0033104383425482794
1797.0,0.003275716129489569
1796.0,0.0032299497677006146
1795.0,0.0031786369840098145
1794.0,0.0031234054729026694
1793.0,0.003053249952618759
1792.0,0.002962944343144688
1791.0,0.0028726541367669425
1790.0,0.0027972657007508403
1789.0,0.0027360413783193618
1788.0,0.0026917175657659434
1787.0,0.0026662507401336052
1786.0,0.002650316609029108
1785.0,0.002629509239060399
1784.0,0.002598646122467938
1783.0,0.002560571510630326
1782.0,0.002526267429701401
1781.0,0.002510297057688479
1780.0,0.0025146350847688953
1779.0,0.002526941888466686
1778.0,0.0025318329417565906
1777.0,0.0025269850087811492
1776.0,0.0025185314609870186
1775.0,0.002510265249536351
1774.0,0.0025084944661077388
1773.0,0.0025160038755606333
1772.0,0.0025238752984926283
1771.0,0.002529771176773324
1770.0,0.002534347791396366
1769.0,0.0025334953898513415
1768.0,0.002529560736070833
1767.0,0.0025257723807020896
1766.0,0.00252384555518346
1765.0,0.0025285277879196558
1764.0,0.0025485016381396326
1763.0,0.002586409026849049
1762.0,0.002630488687952943
1761.0,0.002668357203019516
1760.0,0.0026997932698948237
1759.0,0.002730756956220195
1758.0,0.0027672158216289606
1757.0,0.002814567095057425
1756.0,0.0028671873451770065
1755.0,0.0029172497695506647
1754.0,0.002967742502247428
1753.0,0.0030326814262538657
1752.0,0.0031147517951882055
1751.0,0.003190465573330637
1750.0,0.003239591453517661
1749.0,0.003271368710866714
1748.0,0.003301161064804409
1747.0,0.00332871572973568
1746.0,0.0033520631020919423
1745.0,0.0033682634186085756
1744.0,0.003372098958354372
1743.0,0.003366339788335447
1742.0,0.003362466977964019
1741.0,0.003364103597162531
1740.0,0.00336167280813466
1739.0,0.0033473168154283133
1738.0,0.0033326489389021298
1737.0,0.0033283787703497895
1736.0,0.003341219709227025
1735.0,0.0033513262464686003
1734.0,0.0033086834937344047
1733.0,0.0032349836489426183
1732.0,0.0031758252655087926
1731.0,0.0031207942377301976
1730.0,0.003064186148945199
1729.0,0.0030217023196430154
1728.0,0.00299664309214189
1727.0,0.0029795783034502186
1726.0,0.0029652152909002433
1725.0,0.0029550166104649243
1724.0,0.0029457798698372365
1723.0,0.0029350167248576703
1722.0,0.0029212517781187835
1721.0,0.0029058012130900954
1720.0,0.002889697208573778
1719.0,0.002884720945905138
1718.0,0.002897451386400612
1717.0,0.0029086323622574766
1716.0,0.0029092063073466396
1715.0,0.002897270124384844
1714.0,0.0028722465159469425
1713.0,0.002849678577870196
1712.0,0.002839792279502593
1711.0,0.0028390388584939676
1710.0,0.0028423842244123584
1709.0,0.002852356123567416
1708.0,0.0028699975810965533
1707.0,0.0028916877328345808
1706.0,0.0029140528667921865
1705.0,0.002938230994805718
1704.0,0.002970510423418689
1703.0,0.0030070847661648778
1702.0,0.0030522853497097564
1701.0,0.0031093814585351274
1700.0,0.0031608478480321177
1699.0,0.003181391788842986
1698.0,0.0031654018402089428
1697.0,0.00314684026613288
1696.0,0.0031669887973953354
1695.0,0.00322362537337767
1694.0,0.003268190926505544
1693.0,0.003282760165403846
1692.0,0.0032934456442631527
1691.0,0.00332362405976716
1690.0,0.003369984115393288
1689.0,0.003412201603907651
1688.0,0.0034388422102410686
1687.0,0.003453385608195097
1686.0,0.003480523006267027
1685.0,0.003542085428251592
1684.0,0.0036253209326303506
1683.0,0.0037027333283211443
1682.0,0.0037511622140009374
1681.0,0.0037759529082274945
1680.0,0.0037996042235611325
1679.0,0.003834074788116878
1678.0,0.0038764458258177662
1677.0,0.0039318074988247825
1676.0,0.003999288503266512
1675.0,0.004056378460796136
1674.0,0.004085905705845878
1673.0,0.0041007517736877525
1672.0,0.004122127885443159
1671.0,0.004159646504268525
1670.0,0.00419511382942542
1669.0,0.0042165108733887985
1668.0,0.0042333908913494795
1667.0,0.004245485991798018
1666.0,0.004254678636859669
1665.0,0.004272338899421816
1664.0,0.004303776548331183
1663.0,0.004330690665430005
1662.0,0.0043313151976949555
1661.0,0.004319409714869061
1660.0,0.004307605159164991
1659.0,0.004301127355952753
1658.0,0.004293737443765746
1657.0,0.004294313534411199
1656.0,0.004293401316868146
1655.0,0.00430761119912084
1654.0,0.004301248248696371
1653.0,0.004225198573234203
1652.0,0.0041875062958570165
1651.0,0.004185618199544573
1650.0,0.004168093304655208
1649.0,0.004150685842444644
1648.0,0.004147501230654889
1647.0,0.0041200836685183735
1646.0,0.0040650861159052375
1645.0,0.004035095180671851
1644.0,0.004027170885619093
1643.0,0.004015613657948086
1642.0,0.003996951161279202
1641.0,0.003972674530693046
1640.0,0.003949239311074918
1639.0,0.003926513243551723
1638.0,0.003904993488955897
1637.0,0.0038825073402772516
1636.0,0.003847717584360178
1635.0,0.003819276999780777
1634.0,0.0038144341716478706
1633.0,0.0038079976304710465
1632.0,0.003796547094525605
1631.0,0.0037889830850196806
1630.0,0.003780432839251102
1629.0,0.0037666622739733176
1628.0,0.003748298592771984
1627.0,0.003729039828395299
1626.0,0.0037090391240842896
1625.0,0.0036876703656491053
1624.0,0.003657950372868752
1623.0,0.0036085633293425467
1622.0,0.0035486861224645013
1621.0,0.0034975865720299256
1620.0,0.0034540783829031803
1619.0,0.0034147844154742693
1618.0,0.0033853316281987128
1617.0,0.0033698555004104303
1616.0,0.0033688494085310065
1615.0,0.0033756641511375487
1614.0,0.0033857887183457174
1613.0,0.003417698519378903
1612.0,0.003504414064505638
1611.0,0.0036670301979054346
1610.0,0.003921374006622169
1609.0,0.004298750188229644
1608.0,0.004830764935065856
1607.0,0.00550527280762242
1606.0,0.006278647920952695
1605.0,0.007123453310175716
1604.0,0.008001291792720746
1603.0,0.008786822041163279
1602.0,0.009292708193946767
1601.0,0.009413173286345873
1600.0,0.009169601029462382
1599.0,0.00863645407763946
1598.0,0.007917165039962622
1597.0,0.007141273880366791
1596.0,0.006415696690037977
1595.0,0.005791318426617031
1594.0,0.005282443977044021
1593.0,0.004886981123600942
1592.0,0.004583177666345203
1591.0,0.004340765009009576
1590.0,0.004152254981628348
1589.0,0.004044357872681469
1588.0,0.004049603388951298
1587.0,0.004175286132423346
1586.0,0.004393979661155255
1585.0,0.004647341617371735
1584.0,0.004848621713777838
1583.0,0.00490067483687624
1582.0,0.004756978118628707
1581.0,0.004469730784069791
1580.0,0.004143744134717782
1579.0,0.003844122880400937
1578.0,0.003582529135631925
1577.0,0.003341289160013706
1576.0,0.0031301860618598376
1575.0,0.0029939502876899166
1574.0,0.002920192003738931
1573.0,0.0028643693703234835
1572.0,0.002812405443082203
1571.0,0.0027633445078996044
1570.0,0.0027087586100995385
1569.0,0.0026577159353759535
1568.0,0.0026256780477605522
1567.0,0.0026046209621216542
1566.0,0.0025834604396968728
1565.0,0.0025642846867578975
1564.0,0.002545346498431844
1563.0,0.0025214037191144774
1562.0,0.002491640803250021
1561.0,0.0024649059719636236
1560.0,0.0024701131577442516
1559.0,0.002528619312885582
1558.0,0.002602685970714104
1557.0,0.0026570333007626882
1556.0,0.0026816437943336926
1555.0,0.00268628125920257
1554.0,0.002705072012298663
1553.0,0.0027292112815126843
1552.0,0.0027606291293353026
1551.0,0.002797067030169994
1550.0,0.002836346210035257
1549.0,0.0028674756812301816
1548.0,0.0028949558555138467
1547.0,0.002926735056458036
1546.0,0.002971496494980929
1545.0,0.0030234233331947334
1544.0,0.0030674464062804066
1543.0,0.00308855128654926
1542.0,0.0030888517159513434
1541.0,0.003035943009724146
1540.0,0.002920430511125294
1539.0,0.0028569061379551393
1538.0,0.002862124629998649
1537.0,0.002862649264147809
1536.0,0.0028457645359948884
1535.0,0.002819522357126261
1534.0,0.002774495673639708
1533.0,0.002709091451696903
1532.0,0.0026504714114819754
1531.0,0.002607522129291831
1530.0,0.0025667611128595657
1529.0,0.0025295903111121104
1528.0,0.002504661945984958
1527.0,0.002489199780017362
1526.0,0.0024633217269917833
1525.0,0.0024209757835552213
1524.0,0.0023778284639006794
1523.0,0.00235458432301673
1522.0,0.0023420026754742565
1521.0,0.0023159581890663077
1520.0,0.0022879245925120925
1519.0,0.002259337179648659
1518.0,0.002223482394735588
1517.0,0.0021922388992498994
1516.0,0.0021777540184680744
1515.0,0.0021743520097905387
1514.0,0.002164056582013091
1513.0,0.0021489541454030405
1512.0,0.002139561629474096
1511.0,0.0021343581598839124
1510.0,0.002114861058352782
1509.0,0.00208322148735483
1508.0,0.002067592307458042
1507.0,0.0020729193038622386
1506.0,0.0021276782467175444
1505.0,0.002233271684463514
1504.0,0.0023429721172013715
1503.0,0.0024694024440245523
1502.0,0.0026613056297277826
1501.0,0.0029722947994259485
1500.0,0.0034886393788268813
1499.0,0.004365300872269038
1498.0,0.0059383306315391755
1497.0,0.008598670131776138
1496.0,0.012054441688387771
1495.0,0.01527210582884705
1494.0,0.0175907938330749
1493.0,0.018863625979529185
1492.0,0.018895145211316702
1491.0,0.01732971044039499
1490.0,0.014343115671653072
1489.0,0.011237182433240994
1488.0,0.009042303205389396
1487.0,0.007628398550638627
1486.0,0.006624783739779308
1485.0,0.005873616392966216
1484.0,0.00528639325046849
1483.0,0.004782659878435527
1482.0,0.004324932802149462
1481.0,0.003946667491136663
1480.0,0.0036777614707996856
1479.0,0.0034921601572827526
1478.0,0.0033506216607662536
1477.0,0.003239695040030871
1476.0,0.0031594505145026543
1475.0,0.003101976944397008
1474.0,0.003065240515566559
1473.0,0.0030486168288022504
1472.0,0.0030317892995253143
1471.0,0.0030111891619240363
1470.0,0.0030070995853511183
1469.0,0.003036959980750836
1468.0,0.003096251493838656
1467.0,0.0031599156442590954
1466.0,0.0032176706258222024
1465.0,0.003290935344553854
1464.0,0.0033885693012710182
1463.0,0.0034780425065362042
1462.0,0.0035759213669492493
1461.0,0.003713076831224398
1460.0,0.003967070676844828
1459.0,0.004496265347221338
1458.0,0.0059320882102366305
1457.0,0.008837902667768875
1456.0,0.01211061992342039
1455.0,0.014596885448798853
1454.0,0.01644962265214474
1453.0,0.0177770321224608
1452.0,0.01835636383810384
1451.0,0.018086272888920722
1450.0,0.01718200980196781
1449.0,0.015922878562481237
1448.0,0.01453051879250921
1447.0,0.013288092234842607
1446.0,0.012350999098634364
1445.0,0.01161245887012484
1444.0,0.010900681158058081
1443.0,0.010171256265926135
1442.0,0.009487488198578291
1441.0,0.008905156194051505
1440.0,0.008420569745619819
1439.0,0.007992715689154337
1438.0,0.007533365493217743
1437.0,0.0069202783692742876
1436.0,0.006220255421778581
1435.0,0.00566469533978806
1434.0,0.005292431406061428
1433.0,0.004988800769291042
1432.0,0.004680798684865665
1431.0,0.004368616325873509
1430.0,0.004088584844927563
1429.0,0.0038529861426528675
1428.0,0.003663267477082301
1427.0,0.0035225361459541023
1426.0,0.003418381954227364
1425.0,0.0033213271448389813
1424.0,0.003215482699297536
1423.0,0.0031279494808227207
1422.0,0.003081529806985256
1421.0,0.003058040560220515
1420.0,0.0030244754699812093
1419.0,0.002971867148326802
1418.0,0.0029186639857403693
1417.0,0.002866569428237811
1416.0,0.0028101279025328214
1415.0,0.002762273435407337
1414.0,0.0027321356138583445
1413.0,0.0027090247095877006
1412.0,0.0026811726322137994
1411.0,0.0026524417568145136
1410.0,0.0026289557306760675
1409.0,0.0026030734683836067
1408.0,0.0025705428689490385
1407.0,0.0025416804033107495
1406.0,0.0025248387075381498
1405.0,0.0025119266851888287
1404.0,0.002494686251268525
1403.0,0.002484019530569834
1402.0,0.002487680290326652
1401.0,0.00249833560885667
1400.0,0.002509037632751354
1399.0,0.002523420995422999
1398.0,0.0025469214216795313
1397.0,0.0025754597914218243
1396.0,0.0026075770704185935
1395.0,0.002649351502757544
1394.0,0.00270157760251836
1393.0,0.0027540259669106386
1392.0,0.002803040182015118
1391.0,0.0028620385735128534
1390.0,0.0029447275084179556
1389.0,0.0030545169076813994
1388.0,0.00318657430361071
1387.0,0.0033259063094980205
1386.0,0.0034527017624730615
1385.0,0.0035611771551670337
1384.0,0.0036621376127772233
1383.0,0.0037684862706513934
1382.0,0.003882697290305112
1381.0,0.003999881689110444
1380.0,0.00411876375301022
1379.0,0.004237700857297633
1378.0,0.0043486504331333555
1377.0,0.004444605232504292
1376.0,0.004526870528372956
1375.0,0.004593618739003092
1374.0,0.004632055923940324
1373.0,0.004638662361146773
1372.0,0.004627723288595395
1371.0,0.004611282745993428
1370.0,0.004590920351247721
1369.0,0.004563956222528288
1368.0,0.004530961223042792
1367.0,0.004500482302641364
1366.0,0.004478691362713007
1365.0,0.004461486283206505
1364.0,0.004437494202618962
1363.0,0.004394968597979804
1362.0,0.0043345455736716046
1361.0,0.004270377770600941
1360.0,0.004210815312708753
1359.0,0.004154967097250561
1358.0,0.004102448077476096
1357.0,0.004054420873402605
1356.0,0.004012104355421328
1355.0,0.003977917529326839
1354.0,0.003954534045384756
1353.0,0.00394086723694938
1352.0,0.003933010939655589
1351.0,0.003926159697115765
1350.0,0.00391494032106025
1349.0,0.0038964215363617295
1348.0,0.0038712716593397897
1347.0,0.003842304120495643
1346.0,0.0038093355787237587
1345.0,0.0037703802138997354
1344.0,0.003727756865782603
1343.0,0.0036888040792808995
1342.0,0.0036570825487816016
1341.0,0.003626093681115559
1340.0,0.0035847992431716396
1339.0,0.003536494053216349
1338.0,0.00350232355123381
1337.0,0.003495942906141132
1336.0,0.0035152256934868203
1335.0,0.0035558241123901714
1334.0,0.003614942942257012
1333.0,0.003686742894251921
1332.0,0.0037619918130784337
1331.0,0.003831440440379771
1330.0,0.003886805877328294
1329.0,0.003920110478281469
1328.0,0.003926572409805803
1327.0,0.003908927223324918
1326.0,0.0038764338293163056
1325.0,0.0038384859965392465
1324.0,0.003800186630248357
1323.0,0.0037654930294813544
1322.0,0.0037386464599770373
1321.0,0.003720759374508311
1320.0,0.003709206768883552
1319.0,0.003703404972099959
1318.0,0.00370776082107371
1317.0,0.003725578082323705
1316.0,0.003753525639439736
1315.0,0.0037844247366234656
1314.0,0.0038114961807279735
1313.0,0.003829141858181204
1312.0,0.0038341237489355824
1311.0,0.0038266076712446277
1310.0,0.0038080918209860964
1309.0,0.00377888939167713
1308.0,0.0037399700493287655
1307.0,0.003695694969086863
1306.0,0.0036515114745955574
1305.0,0.0036092155911186963
1304.0,0.0035663651626812068
1303.0,0.0035208625053849666
1302.0,0.0034728664497349496
1301.0,0.003423843797934118
1300.0,0.003377028546065801
1299.0,0.003338061569118454
1298.0,0.0033106664053017903
1297.0,0.0032921193701533637
1296.0,0.003276613990421823
1295.0,0.0032621617064780414
1294.0,0.00325052138737105
1293.0,0.0032411081704962984
1292.0,0.003229869680683511
1291.0,0.00321420892307209
1290.0,0.0031948573392052864
1289.0,0.0031726959672939495
1288.0,0.0031480040941371124
1287.0,0.0031235909384039117
1286.0,0.0031044389468617693
1285.0,0.0030928483172668413
1284.0,0.0030869225828466804
1283.0,0.003083916392226359
1282.0,0.0030817462491335565
1281.0,0.0030774310633740116
1280.0,0.0030670705671038156
1279.0,0.003048241965835087
1278.0,0.0030211247691048207
1277.0,0.0029874327763639106
1276.0,0.0029504652303965393
1275.0,0.0029150924524354903
1274.0,0.002884947265622422
1273.0,0.0028597405343274867
1272.0,0.002837490978493662
1271.0,0.002818266204770209
1270.0,0.0028030978275877688
1269.0,0.0027908122262443563
1268.0,0.0027795120701038798
1267.0,0.002770302969228039
1266.0,0.002766069005075761
1265.0,0.0027669671614802536
1264.0,0.002770612084590449
1263.0,0.0027760149372705843
1262.0,0.002783878892045299
1261.0,0.0027937950662040223
1260.0,0.0028045598208643646
1259.0,0.002817026935174038
1258.0,0.0028336265709362134
1257.0,0.0028548853470430086
1256.0,0.002879429643784959
1255.0,0.0029067934036898506
1254.0,0.002937585324508491
1253.0,0.002971317053329476
1252.0,0.003006676562899217
1251.0,0.003043521505568779
1250.0,0.00308220162928116
1249.0,0.0031212921481924027
1248.0,0.0031585890439805617
1247.0,0.0031942025276929906
1246.0,0.0032299258754381333
1245.0,0.0032651188118535805
1244.0,0.003296342076414395
1243.0,0.0033218650816972516
1242.0,0.00334386938780504
1241.0,0.0033653046317211653
1240.0,0.003387240134049822
1239.0,0.003410118167467424
1238.0,0.003434886848299633
1237.0,0.0034617401000633864
1236.0,0.003489825715278323
1235.0,0.0035189664578822695
1234.0,0.003549638382833025
1233.0,0.0035808810158570892
1232.0,0.003610858985579351
1231.0,0.0036404203809307155
1230.0,0.003673270072251958
1229.0,0.0037109109621151354
1228.0,0.0037497044376750147
1227.0,0.0037845744383670503
1226.0,0.0038139404496451987
1225.0,0.003839742219999022
1224.0,0.0038643242654333334
1223.0,0.003888929403705898
1222.0,0.003913908033306268
1221.0,0.00393894744434037
1220.0,0.003963949481653905
1219.0,0.0039903544719089475
1218.0,0.004020347762700275
1217.0,0.004054346709572571
1216.0,0.004091113985701109
1215.0,0.004130589104070758
1214.0,0.004174197290838332
1213.0,0.004221591977898524
1212.0,0.0042698302932359005
1211.0,0.004317536326325378
1210.0,0.004367640189092476
1209.0,0.004424259674796746
1208.0,0.004488671221769889
1207.0,0.004559514541045911
1206.0,0.004634748143621823
1205.0,0.00471210134086093
1204.0,0.0047897832372508185
1203.0,0.004868412893913033
1202.0,0.0049501337432252554
1201.0,0.005033825625532332
1200.0,0.005113309222971476
1199.0,0.005182686760718778
1198.0,0.005241833897707465
1197.0,0.0052942602814546064
1196.0,0.00534209112340935
1195.0,0.005386416113893918
1194.0,0.0054298053112200656
1193.0,0.005474244558733152
1192.0,0.0055182778797594305
1191.0,0.00556039920756328
1190.0,0.00560441492891959
1189.0,0.005658559044054456
1188.0,0.005731154063947548
1187.0,0.00582954886442975
1186.0,0.005959105508765961
1185.0,0.006117117775992251
1184.0,0.006287998996429719
1183.0,0.006447779967844489
1182.0,0.006573023728570301
1181.0,0.00664372191458823
1180.0,0.006642886966514424
1179.0,0.006564931430329992
1178.0,0.0064267489874641195
1177.0,0.006262569893625025
1176.0,0.0061058439408925485
1175.0,0.00597805102413708
1174.0,0.005887760180638994
1173.0,0.005831483795321304
1172.0,0.005796972197331116
1171.0,0.005772607017633288
1170.0,0.005755141561162789
1169.0,0.0057466056425566165
1168.0,0.005746445533899706
1167.0,0.005751392413365841
1166.0,0.005761185447340705
1165.0,0.005779047756151881
1164.0,0.005807449457957317
1163.0,0.005848821999601439
1162.0,0.005910354968825316
1161.0,0.006003082623805791
1160.0,0.0061348178667410685
1159.0,0.0063054418451312195
1158.0,0.006506167141368788
1157.0,0.006717035752885632
1156.0,0.006904063285871192
1155.0,0.007026405308017094
1154.0,0.007054214191506234
1153.0,0.006981541825995307
1152.0,0.00682560980586655
1151.0,0.006620098696506451
1150.0,0.006405862488214606
1149.0,0.006215870582331865
1148.0,0.006063531767080736
1147.0,0.005945095894340206
1146.0,0.005849973405293599
1145.0,0.0057674579858506304
1144.0,0.005689634330566855
1143.0,0.005614764611776158
1142.0,0.005547637775808957
1141.0,0.005492973256223853
1140.0,0.005449430054678751
1139.0,0.005412104670885156
1138.0,0.005377944160781174
1137.0,0.005345733690890563
1136.0,0.005314086077763523
1135.0,0.005283481373443366
1134.0,0.005257619723124907
1133.0,0.005238696022932744
1132.0,0.005223625925715999
1131.0,0.005208573056483148
1130.0,0.005194827891552994
1129.0,0.005186324327140243
1128.0,0.005183559497077969
1127.0,0.0051842047544077095
1126.0,0.00518797570280705
1125.0,0.005196724237496006
1124.0,0.005211043478204258
1123.0,0.005230718561647505
1122.0,0.005257541682777597
1121.0,0.005293953040029581
1120.0,0.00533935578678452
1119.0,0.005390428659695324
1118.0,0.005444055116824131
1117.0,0.00549758836400947
1116.0,0.005547944604195464
1115.0,0.00559338338835414
1114.0,0.00563451807939097
1113.0,0.0056705813705669635
1112.0,0.005697148871173933
1111.0,0.005711463049380382
1110.0,0.005717697614484194
1109.0,0.005722289454151974
1108.0,0.005726335621069524
1107.0,0.005727560044158896
1106.0,0.005726817300200714
1105.0,0.005727594335994165
1104.0,0.0057313955584839295
1103.0,0.005738479395060062
1102.0,0.0057510816761761055
1101.0,0.005770423659015642
1100.0,0.005792576698558152
1099.0,0.00581260452915888
1098.0,0.005829745616884407
1097.0,0.005845146529435402
1096.0,0.005856553350872944
1095.0,0.005861419528402708
1094.0,0.005863005213658797
1093.0,0.00586745882720465
1092.0,0.005876288779398209
1091.0,0.005886896752697492
1090.0,0.005898503108650157
1089.0,0.00591228372961432
1088.0,0.005927837872346141
1087.0,0.005945426338762838
1086.0,0.005970093187245055
1085.0,0.0060075961130914065
1084.0,0.006057277233949318
1083.0,0.006113815108306963
1082.0,0.006174020750029529
1081.0,0.0062365221040624735
1080.0,0.006297298832044096
1079.0,0.006353230253971849
1078.0,0.0064102176031266955
1077.0,0.006481363885187641
1076.0,0.006576074355506599
1075.0,0.0066943806676584144
1074.0,0.006829470809319737
1073.0,0.006969580023753159
1072.0,0.007098251065677932
1071.0,0.007199626573175419
1070.0,0.007264815782797796
1069.0,0.007288921017883911
1068.0,0.0072649086899534455
1067.0,0.007188772029538447
1066.0,0.007068859856953544
1065.0,0.0069215490566178605
1064.0,0.006759681878472522
1063.0,0.006592353205621082
1062.0,0.006431014530679963
1061.0,0.00628562069614848
1060.0,0.006156586523634657
1059.0,0.006038144581250479
1058.0,0.005927459001116047
1057.0,0.005824271943984146
1056.0,0.005725387323030303
1055.0,0.005627700288480327
1054.0,0.00553505752345425
1053.0,0.005454649764091792
1052.0,0.005386820850964205
1051.0,0.005324777965088757
1050.0,0.005264069392726979
1049.0,0.005205643771874823
1048.0,0.0051503620305879995
1047.0,0.005097801291870693
1046.0,0.00504978520736616
1045.0,0.005009294075061032
1044.0,0.004976808873176929
1043.0,0.004951790459552457
1042.0,0.004936784331625853
1041.0,0.004937610314115141
1040.0,0.004962153326453331
1039.0,0.005023038030124506
1038.0,0.005140570231156998
1037.0,0.0053400736846975026
1036.0,0.005645000256427817
1035.0,0.006068697983705965
1034.0,0.006604197057728743
1033.0,0.0072159973508987415
1032.0,0.007843356907421044
1031.0,0.008417879342644884
1030.0,0.008881971040086572
1029.0,0.009189174477129658
1028.0,0.009297003406251714
1027.0,0.009183290822304768
1026.0,0.008876680252552938
1025.0,0.008453246980216579
1024.0,0.007994471860933538
1023.0,0.0075543097926160895
1022.0,0.007158293980577271
1021.0,0.006814403356270544
1020.0,0.006519293726297287
1019.0,0.006264467041624623
1018.0,0.006043954967788786
1017.0,0.005855090464788749
1016.0,0.005692837611118635
1015.0,0.005548800097959772
1014.0,0.005417006905469092
1013.0,0.005296775561402221
1012.0,0.005189175865525464
1011.0,0.005094609055296774
1010.0,0.005015264542917648
1009.0,0.00495715464032333
1008.0,0.004927764213378076
1007.0,0.004931169179317483
1006.0,0.004962735186111519
1005.0,0.0050046961963300576
1004.0,0.005027098061380376
1003.0,0.0049985837684419065
1002.0,0.004902582787595238
1001.0,0.004746152919769974
1000.0,0.004555312338840177
999.0,0.004362814817678022
998.0,0.004195274047902376
997.0,0.004064479586703864
996.0,0.0039678505296027525
995.0,0.0038965016013643755
994.0,0.0038424733165969174
993.0,0.003800411904717266
992.0,0.003767102268310738
991.0,0.0037422446070947166
990.0,0.0037281648813905087
989.0,0.0037266283878030085
988.0,0.0037365915425630583
987.0,0.003755958564693675
986.0,0.003783944099910856
985.0,0.0038200052281318
984.0,0.003861272812068446
983.0,0.0039023807170401764
982.0,0.003937153900638068
981.0,0.0039594862012989835
980.0,0.0039639131388517655
979.0,0.003947623094580554
978.0,0.0039120154500460165
977.0,0.0038614600341355396
976.0,0.003801992411997403
975.0,0.0037425775254846046
974.0,0.0036952482483841986
973.0,0.0036709370820687884
972.0,0.0036752339878605694
971.0,0.0037085112634236274
970.0,0.0037679767191809662
969.0,0.003847799219646797
968.0,0.003938237812856415
967.0,0.004026767514214649
966.0,0.004101084273267388
965.0,0.00415146311388569
964.0,0.004171857299373045
963.0,0.004160759341538163
962.0,0.004120717053687003
961.0,0.0040558604317513566
960.0,0.003971239357797892
959.0,0.003875640002447703
958.0,0.003781924184481149
957.0,0.003701253802449323
956.0,0.0036379133207229265
955.0,0.0035909297672645467
954.0,0.003558633037875898
953.0,0.003540336698808612
952.0,0.0035360454045069113
951.0,0.003546659882035942
950.0,0.003572954103732555
949.0,0.0036126371087732787
948.0,0.0036595462792419035
947.0,0.003706779240331781
946.0,0.003749404871866458
945.0,0.003783701534548479
944.0,0.0038063260243813477
943.0,0.0038160579530655326
942.0,0.0038141470092512737
941.0,0.0038008188204491002
940.0,0.0037736711749129814
939.0,0.003731756955428589
938.0,0.0036786441940775765
937.0,0.003618849126447808
936.0,0.0035541560069987264
935.0,0.0034864380592211463
934.0,0.003420799991364046
933.0,0.003361860953092442
932.0,0.003309209033974216
931.0,0.0032602572704700525
930.0,0.003215776263156613
929.0,0.0031792775182202353
928.0,0.003152610957911219
927.0,0.0031352979985356617
926.0,0.003126596688892115
925.0,0.0031252213663144845
924.0,0.003128729191987951
923.0,0.0031365784527506583
922.0,0.0031524589911245504
921.0,0.0031802083573853972
920.0,0.0032187995429017375
919.0,0.0032654619678289106
918.0,0.0033235076459825997
917.0,0.0034032510812232277
916.0,0.003514506494197585
915.0,0.0036606278959221304
914.0,0.003839389072521304
913.0,0.004045626391477787
912.0,0.00427111536378533
911.0,0.004504186473941756
910.0,0.004730841654662112
909.0,0.004933811312538442
908.0,0.005090494064132419
907.0,0.0051779082340431505
906.0,0.005183622985167502
905.0,0.005108835896970274
904.0,0.00496076487180528
903.0,0.004748657121159782
902.0,0.00448802028882913
901.0,0.004200982848628986
900.0,0.003909117639891782
899.0,0.003628923920772815
898.0,0.003373101207621327
897.0,0.003150735960752858
896.0,0.0029643412075344455
895.0,0.002809561995451851
894.0,0.002679430647743836
893.0,0.0025685716701792333
892.0,0.002473796014313474
891.0,0.002392509279545169
890.0,0.002321624391771676
889.0,0.0022576420853099586
888.0,0.002197322632546067
887.0,0.0021383975941427443
886.0,0.0020798621345263424
885.0,0.0020219160965635496
884.0,0.0019660771347367796
883.0,0.0019149034471275363
882.0,0.0018700942349150686
881.0,0.0018303145914839926
880.0,0.001792015896142311
879.0,0.0017529815894586503
878.0,0.0017141279293522867
877.0,0.0016773089200312673
876.0,0.0016426931799565832
875.0,0.001609372554203947
874.0,0.0015774634106648048
873.0,0.001548201331451953
872.0,0.001522219904694495
871.0,0.00149857938989728
870.0,0.0014755743798502835
869.0,0.0014523698347521233
868.0,0.0014300532953347375
867.0,0.0014109662856764506
866.0,0.0013963325820324456
865.0,0.0013843957261377082
864.0,0.0013715473018538818
863.0,0.0013557295998500452
862.0,0.0013385975095135548
861.0,0.0013241022450875362
860.0,0.0013149868295002755
859.0,0.0013107418109607717
858.0,0.0013088221030524256
857.0,0.001307656461112405
856.0,0.0013084317148153825
855.0,0.00131441873627358
854.0,0.001329506849318023
853.0,0.0013576144992066492
852.0,0.0014021240781356204
851.0,0.0014643436960075724
850.0,0.001542794440264094
849.0,0.001634815476107974
848.0,0.0017376569863605989
847.0,0.0018466334410616242
846.0,0.0019538912045150526
845.0,0.002051421655730193
844.0,0.0021346078049969963
843.0,0.0022009262387802935
842.0,0.0022459757011679417
841.0,0.002263226696238148
840.0,0.0022483718286170117
839.0,0.0022025095202522
838.0,0.002130100737920375
837.0,0.002035159290719776
836.0,0.0019217593432045343
835.0,0.0017978735085363135
834.0,0.0016755198612265088
833.0,0.0015657242434271503
832.0,0.0014744919309125635
831.0,0.0014027608631664507
830.0,0.0013474239347416692
829.0,0.0013029465433657475
828.0,0.0012653391794016113
827.0,0.0012352516579684494
826.0,0.0012150505631151505
825.0,0.0012032788178397665
824.0,0.0011951265882732306
823.0,0.001187766996429219
822.0,0.0011815125618613964
821.0,0.0011761605255452064
820.0,0.0011702195932009963
819.0,0.0011639263032898039
818.0,0.0011596487742681228
817.0,0.0011585320398886886
816.0,0.001158836459687398
815.0,0.0011581700274100818
814.0,0.0011557024523270963
813.0,0.001151577558766642
812.0,0.0011458660991322533
811.0,0.0011393728447856338
810.0,0.0011343880098793882
809.0,0.0011332054519080862
808.0,0.0011358171553315516
807.0,0.0011392124764200158
806.0,0.0011388852741948273
805.0,0.0011319449667735032
804.0,0.0011202153390408962
803.0,0.0011103371452349884
802.0,0.0011092125894341658
801.0,0.0011183917069932082
800.0,0.0011335998334324805
799.0,0.001149654523322784
798.0,0.001164695773822314
797.0,0.0011799334028528342
796.0,0.001197797497047782
795.0,0.0012220450477519696
794.0,0.001257698564703374
793.0,0.001307691499664794
792.0,0.0013695355223104053
791.0,0.0014377141882532555
790.0,0.0015100912322083895
789.0,0.0015898781484692346
788.0,0.0016802167827414702
787.0,0.001779276158047862
786.0,0.0018829987768190434
785.0,0.0019912550019523176
784.0,0.002108903435563578
783.0,0.002242116116089635
782.0,0.0023965052199632626
781.0,0.0025778328120168253
780.0,0.002791175060638212
779.0,0.0030391068731241205
778.0,0.0033229025199239194
777.0,0.0036450310434043196
776.0,0.0040079011891680436
775.0,0.004411182650454983
774.0,0.004853592217676335
773.0,0.005335825410513153
772.0,0.005857454728972342
771.0,0.0064122582345683115
770.0,0.006990571881853746
769.0,0.007583105446785181
768.0,0.008177207674736625
767.0,0.00875510986441423
766.0,0.009306111180181759
765.0,0.009838253728656992
764.0,0.010369748184127985
763.0,0.010911541380484642
762.0,0.011463294328213075
761.0,0.012017944935674528
760.0,0.012558202721522723
759.0,0.01305218882059415
758.0,0.013464496706099414
757.0,0.013772626040593509
756.0,0.013969839009248726
755.0,0.014061326848614547
754.0,0.014067264875202547
753.0,0.014023535414000898
752.0,0.013969887827004293
751.0,0.013935380447022255
750.0,0.013928350972300673
749.0,0.013926592036544363
748.0,0.013874227139678712
747.0,0.01370056779003284
746.0,0.013353431452865208
745.0,0.012817785066959145
744.0,0.012111916960754133
743.0,0.011280636088105004
742.0,0.010389710988405873
741.0,0.009506649991334893
740.0,0.008674316598936516
739.0,0.007902469040870979
738.0,0.007181251127187281
737.0,0.006497478130269037
736.0,0.005841633313877978
735.0,0.00520985570870272
734.0,0.004605417829724104
733.0,0.004038006235735147
732.0,0.0035204002530359576
731.0,0.003064249172932862
730.0,0.0026753849849421884
729.0,0.002350847905742732
728.0,0.0020806169626897504
727.0,0.0018538194871672254
726.0,0.0016638768006315913
725.0,0.001507239162227175
724.0,0.001378373715836663
723.0,0.0012674130882920848
722.0,0.001163504415021038
721.0,0.0010614025431530622
720.0,0.0009658831404727385
719.0,0.0008892187463448643
718.0,0.0008426508943885993
717.0,0.0008313556209397671
716.0,0.0008595636683379708
715.0,0.0009399819819472891
714.0,0.0010978407574186424
713.0,0.0013668936514688195
712.0,0.0017828956514554508
711.0,0.0023810431385982104
710.0,0.0031966490421092087
709.0,0.004263415584251632
708.0,0.005606193719272603
707.0,0.007234563868115658
706.0,0.009146072061235334
705.0,0.011332049598284316
704.0,0.013775128004753306
703.0,0.016447036424019755
702.0,0.019315791731575986
701.0,0.02234720668771999
700.0,0.025487827950179662
699.0,0.028641592162358252
698.0,0.03164183918733657
697.0,0.03420082322132379
696.0,0.03588343162617571
695.0,0.03621687853910458
694.0,0.03494493104862486
693.0,0.03223958707245257
692.0,0.028658189200238375
691.0,0.024867361570226877
690.0,0.021372985497865732
689.0,0.01842584164492811
688.0,0.016069336376281395
687.0,0.014230881608128167
686.0,0.012799814144126618
685.0,0.011672264730439865
684.0,0.010764011446280515
683.0,0.010010396651234476
682.0,0.009367565830237148
681.0,0.008810870208863113
680.0,0.008327289974110825
679.0,0.007907610813653968
678.0,0.007543819532104914
677.0,0.007227910085656266
676.0,0.0069474586769829325
675.0,0.006687952928342574
674.0,0.006443755947338223
673.0,0.006221021940388027
672.0,0.006024687297783968
671.0,0.005842904755606934
670.0,0.005646075566484049
669.0,0.005396948170303663
668.0,0.0051167596855796905
667.0,0.004915927924622389
666.0,0.004807505864890322
665.0,0.004720857840653716
664.0,0.004613931986298201
663.0,0.004477339456364879
662.0,0.004320758144642922
661.0,0.0041584825632568065
660.0,0.0039944282746668825
659.0,0.0038299856688021653
658.0,0.0036734421839170342
657.0,0.003532247119959302
656.0,0.003403223385634366
655.0,0.003281704421752757
654.0,0.0031722851257994346
653.0,0.0030816705820053522
652.0,0.003006489113543136
651.0,0.0029352953964760947
650.0,0.0028586741746466733
649.0,0.002773344126820672
648.0,0.0026791781705897116
647.0,0.002579421129202427
646.0,0.0024827285971800927
645.0,0.0023984098592332633
644.0,0.0023313990529746226
643.0,0.002282400166567959
642.0,0.0022476945445607218
641.0,0.0022190668509316155
640.0,0.002188269765795878
639.0,0.0021546797593200305
638.0,0.0021283220568278616
637.0,0.002121401938708003
636.0,0.0021355709784266204
635.0,0.0021569205083710043
634.0,0.002163847710130905
633.0,0.002144677785578809
632.0,0.0021073182657613135
631.0,0.0020726472388288204
630.0,0.0020569231188947434
629.0,0.0020563917339753144
628.0,0.002052527621194383
627.0,0.0020344295517935517
626.0,0.0020117209051595387
625.0,0.001997368928790713
624.0,0.0019827594076019966
623.0,0.0019440315630520424
622.0,0.001873621130735478
621.0,0.0017915616041175267
620.0,0.0017224754243668787
619.0,0.0016736273599583767
618.0,0.0016321637002041903
617.0,0.0015748806937942211
616.0,0.00148779906407568
615.0,0.001387120309312477
614.0,0.0013135231680030078
613.0,0.0012920649274067472
612.0,0.001307276946856435
611.0,0.0013221506320205084
610.0,0.0013174964420341855
609.0,0.0013072843063248762
608.0,0.0013103378054818001
607.0,0.0013220372514293412
606.0,0.0013237639274457761
605.0,0.0013104412530691835
604.0,0.001295877346351036
603.0,0.0012911758214135477
602.0,0.0012895374963084831
601.0,0.001277641700896385
600.0,0.0012556419026622896
599.0,0.0012385279608733831
598.0,0.0012353805993297595
597.0,0.0012345031555821943
596.0,0.0012198743474015623
595.0,0.0011991999610555424
594.0,0.0012019977063021793
593.0,0.0012388021058991026
592.0,0.001272866220515668
591.0,0.0012499878411669383
590.0,0.0011634454139808805
589.0,0.0010623540819499036
588.0,0.000993801784155114
587.0,0.0009681729047029643
586.0,0.0009628201826495313
585.0,0.000944386988462388
584.0,0.0008951446407057851
583.0,0.0008290189617776424
582.0,0.0007822210133451128
581.0,0.0007733204914027004
580.0,0.000781512773792333
579.0,0.0007751348927219075
578.0,0.0007494412671337353
577.0,0.0007212691594106058
576.0,0.0006958737519201171
575.0,0.0006673213343217417
574.0,0.0006539378645303228
573.0,0.0006967542909514025
572.0,0.0008121570501702243
571.0,0.0009512574128643738
570.0,0.0010215277489051713
569.0,0.0009719505491653197
568.0,0.0008346778031362002
567.0,0.0007058573404443507
566.0,0.0006810204313285521
565.0,0.0007651702181453043
564.0,0.0008672261455755459
563.0,0.0008911738808074954
562.0,0.0008412637082980646
561.0,0.0007984825386674928
560.0,0.000793679531252714
559.0,0.0007870697841028465
558.0,0.0007704256451902849
557.0,0.0007984398988026312
556.0,0.0008855262821483581
555.0,0.000954833235355129
554.0,0.000944055438462645
553.0,0.0008972477041496027
552.0,0.000878036606241084
551.0,0.0008766292121059373
550.0,0.0008607160080494713
