cm-1,A
4000.0,0.0035245138111764385
3999.0,0.0035212124993308233
3998.0,0.0035348488696880483
3997.0,0.003558199582862841
3996.0,0.0035803261917443964
3995.0,0.003595837441867677
3994.0,0.0036097676771815607
3993.0,0.0036289161678456612
3992.0,0.003650904440647817
3991.0,0.003664203737312424
3990.0,0.0036592344281292308
3989.0,0.0036391020895034003
3988.0,0.0036153841635098403
3987.0,0.003597585337616985
3986.0,0.003587812537927027
3985.0,0.0035826200915587145
3984.0,0.0035783280933832286
3983.0,0.0035730202344343206
3982.0,0.0035671688683799763
3981.0,0.0035631959744281162
3980.0,0.0035650852993661135
3979.0,0.0035763048214584384
3978.0,0.0035959349125121
3977.0,0.0036177710596711583
3976.0,0.0036326057360865404
3975.0,0.003636327337454094
3974.0,0.003634656574699635
3973.0,0.003637914792514297
3972.0,0.003650629594046627
3971.0,0.003665426933002856
3970.0,0.0036712225095644124
3969.0,0.0036635339622166207
3968.0,0.0036461411225274347
3967.0,0.0036260347369784594
3966.0,0.00360884679085175
3965.0,0.003600220075168253
3964.0,0.003604952394423269
3963.0,0.003620664686845615
3962.0,0.003634629249173145
3961.0,0.0036353691793259407
3960.0,0.0036256517268031105
3959.0,0.003617468090997702
3958.0,0.003619667234754662
3957.0,0.0036293051512646035
3956.0,0.003635772413129316
3955.0,0.0036329704650931794
3954.0,0.0036233520756857145
3953.0,0.003615235412834166
3952.0,0.003617916265459189
3951.0,0.0036345735257069262
3950.0,0.0036589744297660766
3949.0,0.003675091014178635
3948.0,0.0036698269289453696
3947.0,0.0036452698236040994
3946.0,0.0036121404277712566
3945.0,0.003586960171167346
3944.0,0.0035825437513748587
3943.0,0.003595174773816644
3942.0,0.0036133729320915135
3941.0,0.0036292892058955636
3940.0,0.0036409507668512782
3939.0,0.0036478536899115926
3938.0,0.003648007178040695
3937.0,0.0036392602888987323
3936.0,0.0036224582055952755
3935.0,0.0036066795597732657
3934.0,0.0036039891058606156
3933.0,0.0036187806973186597
3932.0,0.003638472503240153
3931.0,0.003647382208543883
3930.0,0.003640295593764966
3929.0,0.0036159452547939877
3928.0,0.0035815139516806455
3927.0,0.0035563705317341165
3926.0,0.003563047100044599
3925.0,0.003601583293067168
3924.0,0.003645378744324165
3923.0,0.0036708819833891617
3922.0,0.0036717198658513727
3921.0,0.003656107286350247
3920.0,0.0036386477734969246
3919.0,0.0036297499764752217
3918.0,0.003632024333546293
3917.0,0.0036404222491027358
3916.0,0.0036480188802770286
3915.0,0.0036484137426818254
3914.0,0.0036356124280509383
3913.0,0.0036122355463521945
3912.0,0.0035888720661540092
3911.0,0.0035725915452750542
3910.0,0.0035604585936851087
3909.0,0.003541957836057293
3908.0,0.0035126597104237194
3907.0,0.003484761828401047
3906.0,0.0034826161817898705
3905.0,0.0035185709935952126
3904.0,0.003573612871983641
3903.0,0.0036172088443871646
3902.0,0.0036383941372816466
3901.0,0.003646326311877437
3900.0,0.003652186705610465
3899.0,0.0036640017150875647
3898.0,0.00368219484570222
3897.0,0.0036954690201198848
3896.0,0.0036923856281162347
3895.0,0.0036696292631198616
3894.0,0.0036346049242832424
3893.0,0.0036022116679416136
3892.0,0.0035821937849201523
3891.0,0.003577213043881808
3890.0,0.003580635652072111
3889.0,0.0035747044022865163
3888.0,0.003555575970610206
3887.0,0.0035449823734393527
3886.0,0.0035583557869550793
3885.0,0.0035759276487792096
3884.0,0.003571243622837882
3883.0,0.003540630815485401
3882.0,0.0035066745446887147
3881.0,0.003501217058292606
3880.0,0.003535681943958032
3879.0,0.0035877874363984194
3878.0,0.003616589847017797
3877.0,0.0035981109953575697
3876.0,0.0035455806991977245
3875.0,0.0034965480218445352
3874.0,0.0034778558834543108
3873.0,0.0034867344331694352
3872.0,0.0035074808445210263
3871.0,0.003527721650414287
3870.0,0.0035447763700623396
3869.0,0.0035684715174936843
3868.0,0.0035994160263050842
3867.0,0.003621423139548439
3866.0,0.003629940942683602
3865.0,0.0036328371762845008
3864.0,0.003633848377454627
3863.0,0.003636064599173223
3862.0,0.0036409627377398408
3861.0,0.0036383513519085567
3860.0,0.003615715801654063
3859.0,0.00357299296037709
3858.0,0.0035232157433658816
3857.0,0.003485551285079487
3856.0,0.0034813098254803934
3855.0,0.0035210441832456505
3854.0,0.003577743569452305
3853.0,0.0035816667728626106
3852.0,0.003564471751667426
3851.0,0.003578884711245972
3850.0,0.003608199787232323
3849.0,0.003627855497478419
3848.0,0.0036289935063867837
3847.0,0.003611026589185714
3846.0,0.0035794121325985837
3845.0,0.0035448651365659733
3844.0,0.0035196711430825886
3843.0,0.0035125312590822627
3842.0,0.0035256726770822727
3841.0,0.0035532035871992766
3840.0,0.0035804293065756455
3839.0,0.003587853883143516
3838.0,0.003576453333165288
3837.0,0.0035697104678671567
3836.0,0.0035790124850994106
3835.0,0.003593635242552011
3834.0,0.0036023034066386215
3833.0,0.0036012267283353685
3832.0,0.0035926301973195794
3831.0,0.003583014823931944
3830.0,0.003578312247038349
3829.0,0.0035820750439557614
3828.0,0.003595882543930798
3827.0,0.003617905960530069
3826.0,0.0036408707726001324
3825.0,0.003653989063403325
3824.0,0.003645277606196641
3823.0,0.0036111286615823418
3822.0,0.0035700498209290006
3821.0,0.0035400405847384377
3820.0,0.003529064008940648
3819.0,0.0035317515037133077
3818.0,0.003534563630443968
3817.0,0.00353236440622355
3816.0,0.0035299577051939165
3815.0,0.0035396904771173784
3814.0,0.003560562262722799
3813.0,0.003577601824662817
3812.0,0.003582320868968936
3811.0,0.0035778404680945194
3810.0,0.003573272732354296
3809.0,0.0035802722848368856
3808.0,0.0036015986166439687
3807.0,0.0036209885683359654
3806.0,0.0036196146240110747
3805.0,0.0035944585180930867
3804.0,0.0035579028816741225
3803.0,0.0035258487617520814
3802.0,0.0034985275937193076
3801.0,0.003478083426347712
3800.0,0.003486035223251328
3799.0,0.003520079203272775
3798.0,0.003556261668093229
3797.0,0.003575534310050225
3796.0,0.0035771318478535147
3795.0,0.003573978518472744
3794.0,0.0035763408535574607
3793.0,0.003585103652859632
3792.0,0.0035957092878179057
3791.0,0.0036016472294485274
3790.0,0.003600503397606901
3789.0,0.0035978163915049823
3788.0,0.003603389066909422
3787.0,0.0036221554896707893
3786.0,0.0036465857683324714
3785.0,0.003659649346656902
3784.0,0.0036515328601311
3783.0,0.00362677915601832
3782.0,0.0035944434250520588
3781.0,0.0035681935343760745
3780.0,0.0035606801428261997
3779.0,0.0035726657941677915
3778.0,0.0035958791727231255
3777.0,0.0036191085506751403
3776.0,0.00363397709731934
3775.0,0.0036395331714106317
3774.0,0.003641572883977256
3773.0,0.0036484980322522547
3772.0,0.00366510793384168
3771.0,0.003684279643094269
3770.0,0.003690093520383476
3769.0,0.0036777806381424975
3768.0,0.0036594974148451307
3767.0,0.0036497333282247187
3766.0,0.0036518793007658777
3765.0,0.0036589466585315025
3764.0,0.0036627760767218454
3763.0,0.0036575057405638474
3762.0,0.0036440518932636225
3761.0,0.0036339533431019866
3760.0,0.0036363619885866174
3759.0,0.0036469591373874287
3758.0,0.003659765206422429
3757.0,0.0036728176265925635
3756.0,0.003672443762541758
3755.0,0.003646565510771284
3754.0,0.0036080511180071415
3753.0,0.003605382076699265
3752.0,0.0036809270238349883
3751.0,0.0037920387898764335
3750.0,0.0038623544778703667
3749.0,0.0038825000442846373
3748.0,0.0038726496189434648
3747.0,0.0038486014938747433
3746.0,0.0038258377325144878
3745.0,0.0038124924102550346
3744.0,0.0038159796925423617
3743.0,0.003838681982388694
3742.0,0.00386254818036111
3741.0,0.003862657261674924
3740.0,0.0038218534456652435
3739.0,0.003736891758286777
3738.0,0.0036311008547641214
3737.0,0.003562018668292345
3736.0,0.0035700066290983512
3735.0,0.0036335242347231254
3734.0,0.003721689410039011
3733.0,0.0038124408233085666
3732.0,0.0038765133407493487
3731.0,0.0039006172496848833
3730.0,0.003895866849556163
3729.0,0.0038825430297146305
3728.0,0.00388076677491782
3727.0,0.003902377388031654
3726.0,0.003944747268617919
3725.0,0.003994445947582162
3724.0,0.004033457078643014
3723.0,0.004049514894038993
3722.0,0.004045686608022709
3721.0,0.004039049199998956
3720.0,0.004045413110092907
3719.0,0.0040666106983720625
3718.0,0.00409598219720849
3717.0,0.004128659689459876
3716.0,0.0041644782957504095
3715.0,0.004210243030116066
3714.0,0.004278483221388496
3713.0,0.004380422014079126
3712.0,0.004499445612085558
3711.0,0.004598373036573168
3710.0,0.004688141409385576
3709.0,0.004797610913748969
3708.0,0.004922574529648883
3707.0,0.005047305366059344
3706.0,0.005164638569240009
3705.0,0.005280898986976059
3704.0,0.005416725342974447
3703.0,0.005599611548849201
3702.0,0.0058357273239943745
3701.0,0.006097375547087959
3700.0,0.006350539106775049
3699.0,0.006576294796845799
3698.0,0.0067643925058492645
3697.0,0.0069077359222447475
3696.0,0.007005728693378343
3695.0,0.007064690578579769
3694.0,0.007089694679911455
3693.0,0.007078277956209325
3692.0,0.007031211418975402
3691.0,0.006949674678777741
3690.0,0.006827891518580407
3689.0,0.00669169475401517
3688.0,0.0066072749882813515
3687.0,0.006593385645850773
3686.0,0.006614194134522518
3685.0,0.006636917052124594
3684.0,0.006648653076857925
3683.0,0.006646314276881903
3682.0,0.006630076838980211
3681.0,0.006603886205900685
3680.0,0.006575541323491764
3679.0,0.006553939191544812
3678.0,0.006549736791757002
3677.0,0.006572113607800556
3676.0,0.006613898673630314
3675.0,0.006675276815970741
3674.0,0.006786558857192151
3673.0,0.006943942440713809
3672.0,0.007135813842556885
3671.0,0.007335898365249948
3670.0,0.007475906644259581
3669.0,0.007542756549595582
3668.0,0.007606325430160495
3667.0,0.007695210323527981
3666.0,0.007796800080640058
3665.0,0.00789569224198751
3664.0,0.007987554933647691
3663.0,0.008079782243645207
3662.0,0.008185353059110676
3661.0,0.008308957418397945
3660.0,0.00844237448844401
3659.0,0.008576919480287366
3658.0,0.008713271018183923
3657.0,0.00885330767230074
3656.0,0.008986670339292737
3655.0,0.009104912273118935
3654.0,0.009210700486638714
3653.0,0.009315677479111257
3652.0,0.009453096221503459
3651.0,0.009661217965646325
3650.0,0.009882487185263468
3649.0,0.009969032841981945
3648.0,0.00996785675861383
3647.0,0.010032319022689869
3646.0,0.010184286902508811
3645.0,0.010372122022615084
3644.0,0.010557487349834862
3643.0,0.010723725182893107
3642.0,0.010868139996290042
3641.0,0.010999281873792713
3640.0,0.011127796102787187
3639.0,0.011259026321918136
3638.0,0.011393777896768506
3637.0,0.011535124535247453
3636.0,0.011689771500309651
3635.0,0.011860212740954964
3634.0,0.012039165536752433
3633.0,0.012216949509684133
3632.0,0.012396624324054969
3631.0,0.012599899347304894
3630.0,0.012838794786147328
3629.0,0.013057306303291454
3628.0,0.013224302040199972
3627.0,0.013405144218957006
3626.0,0.013627590941588384
3625.0,0.013878682203644126
3624.0,0.014144021748810836
3623.0,0.01441622799517103
3622.0,0.014692658283622836
3621.0,0.014962810225670158
3620.0,0.015190216643124182
3619.0,0.015340271875669057
3618.0,0.015445772472922722
3617.0,0.01556479979910855
3616.0,0.015705284912730374
3615.0,0.015833109823929936
3614.0,0.015912172531580247
3613.0,0.01594867029544666
3612.0,0.015990095432917097
3611.0,0.016070485523951315
3610.0,0.01618079542417596
3609.0,0.01628910083992409
3608.0,0.016376498468819417
3607.0,0.01646603186301177
3606.0,0.016595318505739465
3605.0,0.016769888932127042
3604.0,0.016968647397661976
3603.0,0.017170863980987418
3602.0,0.01736393180262309
3601.0,0.017542607834849833
3600.0,0.017708872686277494
3599.0,0.017867327276472354
3598.0,0.018020800530996337
3597.0,0.0181697910186547
3596.0,0.018307961921652155
3595.0,0.018426047019806803
3594.0,0.018533285159109684
3593.0,0.018663085577311684
3592.0,0.018842387169990753
3591.0,0.0190695616866378
3590.0,0.019325202676319243
3589.0,0.019567247747656873
3588.0,0.019720431616413812
3587.0,0.019776277541133938
3586.0,0.019853312174462758
3585.0,0.020031015513204423
3584.0,0.02027866588364987
3583.0,0.020535111283857536
3582.0,0.02076191315246203
3581.0,0.02095225402522977
3580.0,0.021120653757322756
3579.0,0.02128402367265735
3578.0,0.021450256103257195
3577.0,0.02161946717624494
3576.0,0.021791599592309727
3575.0,0.021969375373399498
3574.0,0.022158634083877853
3573.0,0.022362645303673614
3572.0,0.022576041855481243
3571.0,0.022788240488579626
3570.0,0.022998454711366342
3569.0,0.023217684404069107
3568.0,0.023424195146110993
3567.0,0.023553880734269853
3566.0,0.023626107376565456
3565.0,0.02374280998255921
3564.0,0.023943253001913297
3563.0,0.02419680676840701
3562.0,0.024462154454485335
3561.0,0.024711320701934134
3560.0,0.02493297878804527
3559.0,0.02513142103733316
3558.0,0.025320231646517043
3557.0,0.025514045618819495
3556.0,0.025722831767439114
3555.0,0.0259441102886621
3554.0,0.02615752873549359
3553.0,0.026338335859410818
3552.0,0.02649226852287549
3551.0,0.026660730078007278
3550.0,0.026879025436345558
3549.0,0.027148191137649685
3548.0,0.027437044801221708
3547.0,0.027692843688702992
3546.0,0.02787305922236673
3545.0,0.027987969916867597
3544.0,0.0280940835278398
3543.0,0.028237598514930694
3542.0,0.028428951136722228
3541.0,0.028657482211863695
3540.0,0.028908921982482197
3539.0,0.029170008027469236
3538.0,0.029421363397318635
3537.0,0.029637037520772902
3536.0,0.02980683516066454
3535.0,0.029956719503458455
3534.0,0.030128123562130276
3533.0,0.03034277373844309
3532.0,0.030590264518134395
3531.0,0.030840494488572352
3530.0,0.03106430042838359
3529.0,0.031247682326524695
3528.0,0.031399266568406886
3527.0,0.0315475196081142
3526.0,0.03172009692268177
3525.0,0.03191753951803545
3524.0,0.0321117160611755
3523.0,0.03227944329142028
3522.0,0.032431889816076184
3521.0,0.03259694567942255
3520.0,0.03278454654344387
3519.0,0.032982976632837564
3518.0,0.033179447287291636
3517.0,0.033375562925113234
3516.0,0.0335809214144716
3515.0,0.033800274534247686
3514.0,0.03402972698835789
3513.0,0.034259938511187985
3512.0,0.034476646745080206
3511.0,0.034662269534332185
3510.0,0.03480973804717247
3509.0,0.03494030848632804
3508.0,0.035096034868639964
3507.0,0.03530538061714453
3506.0,0.03555859348928185
3505.0,0.035808984760485656
3504.0,0.03599618205201247
3503.0,0.03609642840141186
3502.0,0.036157760810835
3501.0,0.03625604528862996
3500.0,0.03642664216851063
3499.0,0.03665343632820931
3498.0,0.036894913245865336
3497.0,0.03711170573694768
3496.0,0.037287685734650425
3495.0,0.037436755664097765
3494.0,0.03758889369431842
3493.0,0.037766087358187386
3492.0,0.037969519638193394
3491.0,0.038185177222291714
3490.0,0.03839469977332139
3489.0,0.038581352164609346
3488.0,0.038738680652474995
3487.0,0.03888095552347713
3486.0,0.03903661314694229
3485.0,0.03922377407579954
3484.0,0.03943185530276023
3483.0,0.03962887821803661
3482.0,0.03978978192582722
3481.0,0.03991831590862623
3480.0,0.04003979620474083
3479.0,0.04017729577119889
3478.0,0.040338201294671416
3477.0,0.0405156550440086
3476.0,0.040696460585920365
3475.0,0.04087071991191867
3474.0,0.04103889290226837
3473.0,0.0412085318775236
3472.0,0.04138430405178589
3471.0,0.04156474880878549
3470.0,0.041746755361377945
3469.0,0.04192766994747072
3468.0,0.04210461946294651
3467.0,0.04227592434697099
3466.0,0.042441883206926184
3465.0,0.042600898901553726
3464.0,0.04274752344101015
3463.0,0.042880267461135574
3462.0,0.04300964831405634
3461.0,0.04315104222950629
3460.0,0.0433084771155544
3459.0,0.04347182638378066
3458.0,0.0436303963654225
3457.0,0.0437832948923131
3456.0,0.0439344500731089
3455.0,0.0440852319491444
3454.0,0.044236081617927546
3453.0,0.04439317591357672
3452.0,0.044568471399058326
3451.0,0.044769799261005036
3450.0,0.04498807490735459
3449.0,0.04519085435480143
3448.0,0.04533562476307062
3447.0,0.045410390559454575
3446.0,0.04545986144205677
3445.0,0.045545890179074684
3444.0,0.04568847846274684
3443.0,0.04586046471137526
3442.0,0.046027186495249554
3441.0,0.046180281261010155
3440.0,0.04633153640443268
3439.0,0.04648676904252114
3438.0,0.046640021280641604
3437.0,0.046786640991231324
3436.0,0.046926684417775665
3435.0,0.047057373468889434
3434.0,0.047172700823579064
3433.0,0.047273411418746546
3432.0,0.04737002976386857
3431.0,0.04747296014182016
3430.0,0.04758463828766711
3429.0,0.04770176255416389
3428.0,0.047820804604596076
3427.0,0.04794054716189544
3426.0,0.04806368137704083
3425.0,0.048195830168431514
3424.0,0.04833707335662821
3423.0,0.0484725877197456
3422.0,0.04857874041951883
3421.0,0.0486472236227552
3420.0,0.048700515383039135
3419.0,0.0487742838580259
3418.0,0.048885763593122564
3417.0,0.04902304993478814
3416.0,0.049160593807419835
3415.0,0.049280908466368165
3414.0,0.0493844882246107
3413.0,0.04948318996197833
3412.0,0.049586709150568675
3411.0,0.04969513750513337
3410.0,0.04980115583254355
3409.0,0.04989657972324584
3408.0,0.04997788294643999
3407.0,0.05004889382492601
3406.0,0.05011953358241571
3405.0,0.05019969538096535
3404.0,0.050291671167965436
3403.0,0.05038972716141818
3402.0,0.050487477380214786
3401.0,0.05058280353197961
3400.0,0.05067379536785843
3399.0,0.050754830326742995
3398.0,0.05082282967573624
3397.0,0.05088517982073486
3396.0,0.050954061084189435
3395.0,0.0510308101353369
3394.0,0.051101416991131285
3393.0,0.05115152075638907
3392.0,0.05118409556869718
3391.0,0.05121799612305359
3390.0,0.05127010050166737
3389.0,0.05134353725511631
3388.0,0.05142990550391557
3387.0,0.051516104782485334
3386.0,0.051589115719304114
3385.0,0.05164144211808676
3384.0,0.05167705797683003
3383.0,0.05171049594434473
3382.0,0.051755224012525185
3381.0,0.05181208608653149
3380.0,0.051870541994634624
3379.0,0.0519212453536135
3378.0,0.05196555448009393
3377.0,0.05201153095766951
3376.0,0.05206338260699992
3375.0,0.052117848100401154
3374.0,0.0521701122267911
3373.0,0.0522200162924041
3372.0,0.05227188715943422
3371.0,0.05232974825780238
3370.0,0.052392744125711495
3369.0,0.05245346966695267
3368.0,0.0525010908023983
3367.0,0.052529547305911056
3366.0,0.05254496651183439
3365.0,0.05256312001281153
3364.0,0.05259693977851365
3363.0,0.05264658123831096
3362.0,0.052701889082527736
3361.0,0.052752756303986764
3360.0,0.052795507599004365
3359.0,0.052830933663890044
3358.0,0.052859771774342715
3357.0,0.05288170082957006
3356.0,0.05289749122734822
3355.0,0.052910893278471004
3354.0,0.05292832814737852
3353.0,0.05295570633376272
3352.0,0.05299395104496947
3351.0,0.05303744365323883
3350.0,0.05307862453256489
3349.0,0.053114664607538664
3348.0,0.05314855341414944
3347.0,0.05318405797176144
3346.0,0.05322094080325771
3345.0,0.05325554554667566
3344.0,0.05328463122530746
3343.0,0.05330890702357219
3342.0,0.05333434613344994
3341.0,0.053369049924190524
3340.0,0.05341615953657934
3339.0,0.05346927742024236
3338.0,0.05351691124766521
3337.0,0.05355217408298271
3336.0,0.05357698134041948
3335.0,0.05359756964028074
3334.0,0.05361966350955161
3333.0,0.053648885272496505
3332.0,0.053690703602963255
3331.0,0.053745370678690084
3330.0,0.053804142996582566
3329.0,0.05385412778488111
3328.0,0.053888550367529986
3327.0,0.05391337824492135
3326.0,0.0539446883734964
3325.0,0.053998333088186384
3324.0,0.05407850360296894
3323.0,0.0541748136244242
3322.0,0.05427181800250616
3321.0,0.054361076466058776
3320.0,0.05444213490477917
3319.0,0.05451449776117755
3318.0,0.05457540955908838
3317.0,0.05462694081999549
3316.0,0.05467846349877986
3315.0,0.05473816406211879
3314.0,0.054806834625876946
3313.0,0.05488321782079114
3312.0,0.05496920138361074
3311.0,0.055062989439255305
3310.0,0.05515178195990263
3309.0,0.05522169280547
3308.0,0.05527649057674485
3307.0,0.05533861943183245
3306.0,0.055428101771975886
3305.0,0.05554418032205623
3304.0,0.055667908784590256
3303.0,0.05577873234067734
3302.0,0.05586794455006194
3301.0,0.05593987956293848
3300.0,0.05600333461591891
3299.0,0.05606335971245914
3298.0,0.0561216469556538
3297.0,0.056182648358405265
3296.0,0.0562534747635667
3295.0,0.05633450026085309
3294.0,0.05641448691023839
3293.0,0.05648047706229308
3292.0,0.0565312479448276
3291.0,0.05657641034923687
3290.0,0.05662327551202222
3289.0,0.056670086713255755
3288.0,0.05671210855420704
3287.0,0.05674861350332221
3286.0,0.056781785683702166
3285.0,0.056811768754239024
3284.0,0.05683476418837695
3283.0,0.05684502156076609
3282.0,0.05683933365529399
3281.0,0.056821429122524664
3280.0,0.05680108079579802
3279.0,0.05678646809248197
3278.0,0.056776624789018765
3277.0,0.056761789429720676
3276.0,0.05673016462725387
3275.0,0.056674586805683914
3274.0,0.05659663705974708
3273.0,0.05650665810268377
3272.0,0.05641619231904209
3271.0,0.056327485210166735
3270.0,0.056233163803682984
3269.0,0.05612822196797425
3268.0,0.056017931687255905
3267.0,0.05590997545711228
3266.0,0.05580307062974938
3265.0,0.05568922157737036
3264.0,0.055564760346795396
3263.0,0.05543272277371947
3262.0,0.05529626426027068
3261.0,0.055156024304730863
3260.0,0.05501301038342709
3259.0,0.05486789011909043
3258.0,0.054717356198550386
3257.0,0.054557204618081515
3256.0,0.05439001604399476
3255.0,0.05422517968809088
3254.0,0.05406947383123962
3253.0,0.0539207198986831
3252.0,0.05377125302101327
3251.0,0.053615542266595186
3250.0,0.053455486969312696
3249.0,0.05330020800168518
3248.0,0.05315815065450285
3247.0,0.0530261233227608
3246.0,0.05288914218391114
3245.0,0.05273603356600097
3244.0,0.05257235103859228
3243.0,0.05241194584582043
3242.0,0.052260458289886805
3241.0,0.052114992649395994
3240.0,0.05197547808381748
3239.0,0.05184577439812954
3238.0,0.05172396283297591
3237.0,0.05160162874036702
3236.0,0.05147588910686942
3235.0,0.051354981256650736
3234.0,0.05124756094364957
3233.0,0.05115089810267099
3232.0,0.05105223898635533
3231.0,0.05093874088830298
3230.0,0.050805847001071144
3229.0,0.050660585737336
3228.0,0.050518539505270445
3227.0,0.05039366242242882
3226.0,0.050288417297436126
3225.0,0.05019474016202923
3224.0,0.05010285445068571
3223.0,0.050005538879663664
3222.0,0.049896731659370745
3221.0,0.049773482213131805
3220.0,0.049641530684050895
3219.0,0.049513561486258725
3218.0,0.04939853791050594
3217.0,0.04929504701853677
3216.0,0.04919560589001275
3215.0,0.04909429934571834
3214.0,0.04898990248623922
3213.0,0.04888414399424578
3212.0,0.04877705083672581
3211.0,0.04866339811458302
3210.0,0.04853692958002518
3209.0,0.048400501581400496
3208.0,0.04826750395120695
3207.0,0.0481476886492438
3206.0,0.0480351506970902
3205.0,0.04791672473434009
3204.0,0.04779019155728876
3203.0,0.047666965606497046
3202.0,0.047557362020473073
3201.0,0.04746005590359864
3200.0,0.04736610517706984
3199.0,0.04726590227076129
3198.0,0.04715105514928377
3197.0,0.04701720992591415
3196.0,0.04686904711631582
3195.0,0.046718524426202196
3194.0,0.04657558659521811
3193.0,0.04644261247716661
3192.0,0.046317274312099956
3191.0,0.04619677529621809
3190.0,0.046078438604202555
3189.0,0.04595912036746577
3188.0,0.0458357047239367
3187.0,0.045704898953117995
3186.0,0.04556429469712398
3185.0,0.0454166989746334
3184.0,0.04527160964167781
3183.0,0.04513736256302673
3182.0,0.04501148586140912
3181.0,0.04488222385847633
3180.0,0.04473910616049975
3179.0,0.04458024206987217
3178.0,0.04441208653689453
3177.0,0.044245563852450175
3176.0,0.04409018905385064
3175.0,0.04394772160087089
3174.0,0.04381180727532156
3173.0,0.043675838735585684
3172.0,0.04353905369136709
3171.0,0.04340256687434289
3170.0,0.043263701212673686
3169.0,0.04311932654341584
3168.0,0.04297088800464987
3167.0,0.04281889990672318
3166.0,0.0426561154777552
3165.0,0.0424754647469201
3164.0,0.04228451935895157
3163.0,0.04210385357170204
3162.0,0.041948252591632526
3161.0,0.04181414300399044
3160.0,0.041686356243085525
3159.0,0.04155218396586487
3158.0,0.04140816400203641
3157.0,0.04125895536425742
3156.0,0.041112033258208225
3155.0,0.040970342560903115
3154.0,0.04082933833875718
3153.0,0.04068319772958045
3152.0,0.04053248152449584
3151.0,0.040382766716391176
3150.0,0.040237691641173204
3149.0,0.040097553513450915
3148.0,0.03996269625607152
3147.0,0.03983229029754927
3146.0,0.03970039901607261
3145.0,0.03955907832736765
3144.0,0.03940608454437884
3143.0,0.039245956304510415
3142.0,0.039084185326169314
3141.0,0.03892477730329553
3140.0,0.038772859598637716
3139.0,0.03863417136702465
3138.0,0.038509953482964564
3137.0,0.03839501473111625
3136.0,0.038280820960176785
3135.0,0.038158673904643135
3134.0,0.03802332002533768
3133.0,0.037879070620377354
3132.0,0.037740332444141454
3131.0,0.037619304335180945
3130.0,0.03751302512393673
3129.0,0.037407113702694436
3128.0,0.037291404131354094
3127.0,0.037167987372481635
3126.0,0.03704567698294399
3125.0,0.0369318528503338
3124.0,0.0368294857351895
3123.0,0.036736348106473415
3122.0,0.03664530836467144
3121.0,0.03654945574195672
3120.0,0.03644826435559432
3119.0,0.036346498355294056
3118.0,0.03624774707461171
3117.0,0.0361517310869559
3116.0,0.03605720308918077
3115.0,0.03596471642441496
3114.0,0.03587681402583425
3113.0,0.035797589633142224
3112.0,0.03572961203244321
3111.0,0.035668633334088005
3110.0,0.035604595523722055
3109.0,0.03553188494297141
3108.0,0.03545657589423681
3107.0,0.03538928298038314
3106.0,0.03533341635146352
3105.0,0.035284143908860165
3104.0,0.035234982181409254
3103.0,0.035181093245870584
3102.0,0.03512082040539391
3101.0,0.035059925078346495
3100.0,0.035010695815125115
3099.0,0.03497889867890812
3098.0,0.034954099082124254
3097.0,0.03491960987611742
3096.0,0.034869576046562635
3095.0,0.0348117268289971
3094.0,0.034755502673548204
3093.0,0.034705377512508774
3092.0,0.034664737267911055
3091.0,0.034636025783149865
3090.0,0.034615533204172294
3089.0,0.03459548672844238
3088.0,0.03457365558419086
3087.0,0.03455522012524958
3086.0,0.0345426503681243
3085.0,0.034529408632800504
3084.0,0.034506410199251915
3083.0,0.034470622434868946
3082.0,0.034425657715639164
3081.0,0.03437713192635038
3080.0,0.034329431332088024
3079.0,0.034284491945478536
3078.0,0.03424218291511974
3077.0,0.03420303635543158
3076.0,0.0341691934728666
3075.0,0.0341399337596056
3074.0,0.034108065215227266
3073.0,0.034065656924556084
3072.0,0.03401307099565431
3071.0,0.03395876990939019
3070.0,0.03391024332142582
3069.0,0.033868073836167745
3068.0,0.03382810919534309
3067.0,0.03378502580926304
3066.0,0.033734425380189184
3065.0,0.03367547494826518
3064.0,0.03361185849701211
3063.0,0.03354709616257456
3062.0,0.03347962069017226
3061.0,0.033405199927886264
3060.0,0.033322640536343574
3059.0,0.03323421458465525
3058.0,0.033141732577438805
3057.0,0.03304641375692602
3056.0,0.032950872931623285
3055.0,0.032856935333079346
3054.0,0.032762112111712094
3053.0,0.03266240616407822
3052.0,0.03255797354003138
3051.0,0.03245207490794555
3050.0,0.03234585904297412
3049.0,0.03223836340278356
3048.0,0.03213098498135096
3047.0,0.032026378231482897
3046.0,0.03192301447116195
3045.0,0.031815679545729766
3044.0,0.03170285719689529
3043.0,0.03158975417511822
3042.0,0.03148232204988757
3041.0,0.03138108138850575
3040.0,0.031281656634204937
3039.0,0.031180080473030683
3038.0,0.0310768915297044
3037.0,0.030977053660490222
3036.0,0.030885181474487572
3035.0,0.030799258547616077
3034.0,0.0307105630665853
3033.0,0.030611819024610437
3032.0,0.030503918433954468
3031.0,0.03039350026786224
3030.0,0.030286287122279598
3029.0,0.030184650977166598
3028.0,0.03008838906014612
3027.0,0.02999378540524738
3026.0,0.029894611558375948
3025.0,0.029789149320044107
3024.0,0.029684629676126395
3023.0,0.02959112454742956
3022.0,0.029512585835629063
3021.0,0.029446154029720138
3020.0,0.029386690466411063
3019.0,0.02932754830047761
3018.0,0.02926103447681972
3017.0,0.02918467557854485
3016.0,0.029104897814929757
3015.0,0.029028478699616524
3014.0,0.028951728935771973
3013.0,0.028863828784504622
3012.0,0.028760625477917193
3011.0,0.028648823005419155
3010.0,0.028537127501146536
3009.0,0.028428278082469373
3008.0,0.02831986940565722
3007.0,0.028208003445371135
3006.0,0.028089547971133565
3005.0,0.027965574978684536
3004.0,0.027843350398857238
3003.0,0.027731369730884976
3002.0,0.027632341233407673
3001.0,0.027543183885739436
3000.0,0.027461272468340292
2999.0,0.02738704730050398
2998.0,0.027321954246499705
2997.0,0.027267808929351607
2996.0,0.027227663416029693
2995.0,0.0272034461435329
2994.0,0.027192451601874012
2993.0,0.027189529813857718
2992.0,0.027192687687677543
2991.0,0.027203413483505356
2990.0,0.027222242120493654
2989.0,0.02724755381739594
2988.0,0.02727926573511361
2987.0,0.02732055654897256
2986.0,0.027375254359790692
2985.0,0.02744496555666155
2984.0,0.02752854742656526
2983.0,0.02762250776322583
2982.0,0.027722557593175403
2981.0,0.0278266988236718
2980.0,0.02793603579717648
2979.0,0.028051665181296356
2978.0,0.028172912992168807
2977.0,0.028300738570960826
2976.0,0.02843987368504683
2975.0,0.02859370157089129
2974.0,0.028758193621867018
2973.0,0.02892381590982135
2972.0,0.029082396827362446
2971.0,0.029230455149447047
2970.0,0.02936838655044302
2969.0,0.029499988764625264
2968.0,0.02963057462728433
2967.0,0.029761543831930498
2966.0,0.029887381360581944
2965.0,0.029999254381722535
2964.0,0.030090144290549205
2963.0,0.030155386411655143
2962.0,0.030193368208120304
2961.0,0.030209060979026963
2960.0,0.030211709534528203
2959.0,0.030204100454043203
2958.0,0.030177253387058144
2957.0,0.03012122464909703
2956.0,0.030036728491410966
2955.0,0.029931508739121874
2954.0,0.02981013994708414
2953.0,0.029675555812695154
2952.0,0.029537660133879037
2951.0,0.029411951971585942
2950.0,0.029309946103374077
2949.0,0.029236445764913556
2948.0,0.02919411232044924
2947.0,0.02918356942425781
2946.0,0.029199734123530673
2945.0,0.029235063649288764
2944.0,0.029287766786246897
2943.0,0.029361932572755746
2942.0,0.02945926811757452
2941.0,0.0295751379493248
2940.0,0.029702849369886666
2939.0,0.029837634396394867
2938.0,0.029976813772132942
2937.0,0.030120008125328442
2936.0,0.030268160292783185
2935.0,0.03041807091002031
2934.0,0.030559524685663975
2933.0,0.030682786410275272
2932.0,0.03078788259542966
2931.0,0.03088092604540289
2930.0,0.0309632181238519
2929.0,0.03103005431269488
2928.0,0.031078528249148668
2927.0,0.031109235849437138
2926.0,0.031119399084554217
2925.0,0.031099929744574248
2924.0,0.03104005471041687
2923.0,0.030931521697671823
2922.0,0.030769977636167158
2921.0,0.03055703620604716
2920.0,0.030299042793986788
2919.0,0.030000631815058194
2918.0,0.029663788886090538
2917.0,0.029298603509952174
2916.0,0.028928957472929975
2915.0,0.028579163074941842
2914.0,0.02825660877908497
2913.0,0.027953205223770622
2912.0,0.027660759225474257
2911.0,0.02737893668451371
2910.0,0.027111608605806616
2909.0,0.02686236911959641
2908.0,0.026632882265826767
2907.0,0.02642029621854008
2906.0,0.026216852756450013
2905.0,0.026017148676312947
2904.0,0.025824859661981284
2903.0,0.025648319979204387
2902.0,0.02548747586183082
2901.0,0.02533352038995533
2900.0,0.025177935737741745
2899.0,0.02501872909495399
2898.0,0.024859605426293844
2897.0,0.024705642080625662
2896.0,0.024560493690889376
2895.0,0.02442363175116576
2894.0,0.02429055336205757
2893.0,0.024158374297265067
2892.0,0.024029867959215356
2891.0,0.02390961380720254
2890.0,0.023798074071992473
2889.0,0.023693220330225036
2888.0,0.023595876461918325
2887.0,0.023508727600044695
2886.0,0.023431831698383608
2885.0,0.02336401913418764
2884.0,0.02330790705725356
2883.0,0.023268739719300262
2882.0,0.02324794357027161
2881.0,0.023241815355437945
2880.0,0.023246408000373052
2879.0,0.02325884767983422
2878.0,0.023273773603019805
2877.0,0.023282867497557286
2876.0,0.023279629439887282
2875.0,0.023262434330389208
2874.0,0.02323200210517898
2873.0,0.02318821285063231
2872.0,0.023129496839582105
2871.0,0.023053421170932863
2870.0,0.0229584158851413
2869.0,0.02284724721818677
2868.0,0.02272820646000341
2867.0,0.022610277111765775
2866.0,0.022497941104561124
2865.0,0.02239306132935667
2864.0,0.022300347354598436
2863.0,0.02222777528290722
2862.0,0.022182024976528963
2861.0,0.02216611152702227
2860.0,0.02218059204760072
2859.0,0.022223244600698928
2858.0,0.022288143271861283
2857.0,0.022367333326060324
2856.0,0.0224524488276186
2855.0,0.022530986629612587
2854.0,0.02258114301551472
2853.0,0.02257476765290516
2852.0,0.02248796730772774
2851.0,0.02231270977450738
2850.0,0.02206160019207723
2849.0,0.021763503187907124
2848.0,0.021449129026848847
2847.0,0.021136066313299277
2846.0,0.020827459221299385
2845.0,0.0205241238636832
2844.0,0.020234170869489063
2843.0,0.019968678341152103
2842.0,0.01973229447383276
2841.0,0.019522072536964842
2840.0,0.019332585323860344
2839.0,0.019159323138420403
2838.0,0.018999327607952837
2837.0,0.01885252701886504
2836.0,0.018721218634903832
2835.0,0.01860476755125708
2834.0,0.018496334583475042
2833.0,0.018388084588766163
2832.0,0.01827897517064608
2831.0,0.01817462972550042
2830.0,0.01807987802616935
2829.0,0.017993488803255894
2828.0,0.017908877527807076
2827.0,0.01781767901807607
2826.0,0.017715497847138387
2825.0,0.01760745471634413
2824.0,0.01750668652330384
2823.0,0.017423665240325313
2822.0,0.01735587612864212
2821.0,0.017290603273840098
2820.0,0.01721740185499716
2819.0,0.017135685759020504
2818.0,0.01705127920292117
2817.0,0.016968891636912935
2816.0,0.016889289729101743
2815.0,0.01681180517098107
2814.0,0.016737660051758262
2813.0,0.01666994724367722
2812.0,0.016609806477956998
2811.0,0.01655332184490693
2810.0,0.016493908818784358
2809.0,0.01642818012450729
2808.0,0.016357745985665882
2807.0,0.01628572107988484
2806.0,0.016214732370386065
2805.0,0.01614825615692711
2804.0,0.01608956331282801
2803.0,0.016036793952937233
2802.0,0.015982186128026
2801.0,0.015919560988235753
2800.0,0.015850467059808193
2799.0,0.01578123089861177
2798.0,0.015716349156966965
2797.0,0.01565608793524353
2796.0,0.015597999052755822
2795.0,0.015538446231908191
2794.0,0.015475053631937904
2793.0,0.015410053870680285
2792.0,0.015348658568091757
2791.0,0.015291867190167618
2790.0,0.015234125996384029
2789.0,0.015171177419545065
2788.0,0.015106757460900597
2787.0,0.015047570740257593
2786.0,0.014994348267770677
2785.0,0.014942094746884554
2784.0,0.01488767264986328
2783.0,0.014832854578540926
2782.0,0.014780212916827688
2781.0,0.014729713638315965
2780.0,0.014679591844949538
2779.0,0.014628020357939942
2778.0,0.01457403440046186
2777.0,0.014518961555765748
2776.0,0.01446627764959956
2775.0,0.014417819547926137
2774.0,0.014370963181235638
2773.0,0.014321619008931117
2772.0,0.014269284028706999
2771.0,0.014217138755173697
2770.0,0.014168146681144531
2769.0,0.014123200652010255
2768.0,0.014081867746603938
2767.0,0.014042427938785988
2766.0,0.014001586654693225
2765.0,0.013956250956847936
2764.0,0.013905955761634295
2763.0,0.013852725840464134
2762.0,0.013799155873834776
2761.0,0.013747326014339149
2760.0,0.01369800702487765
2759.0,0.01364984328565961
2758.0,0.013600948428931682
2757.0,0.013552275434541116
2756.0,0.01350731502473956
2755.0,0.01346714672760242
2754.0,0.01342829906638404
2753.0,0.013387462005096804
2752.0,0.01334580634855488
2751.0,0.013306159250322264
2750.0,0.013268030442180896
2749.0,0.013228230438577624
2748.0,0.01318509800776524
2747.0,0.013139540755934662
2746.0,0.01309317080814846
2745.0,0.013047864249214457
2744.0,0.01300578620835446
2743.0,0.012967292320009611
2742.0,0.01292974017850603
2741.0,0.012890454832833855
2740.0,0.01284979077023182
2739.0,0.012809193456840264
2738.0,0.012767726158593439
2737.0,0.012723332717438562
2736.0,0.012676933125279623
2735.0,0.01263260230066965
2734.0,0.012593233381819951
2733.0,0.01255748844820529
2732.0,0.01252098156417956
2731.0,0.012479684483742615
2730.0,0.012433021056103354
2729.0,0.012384557353765216
2728.0,0.012338897349298774
2727.0,0.012297506536590097
2726.0,0.012258840499682061
2725.0,0.012222353417131838
2724.0,0.01218924141765542
2723.0,0.012158244131979773
2722.0,0.012124168871425723
2721.0,0.012083212001683039
2720.0,0.012037807156158084
2719.0,0.011993728045112891
2718.0,0.011954118919636755
2717.0,0.011918305289569015
2716.0,0.011884204458121495
2715.0,0.011849192030324135
2714.0,0.011810458490167697
2713.0,0.011767573378332844
2712.0,0.011723796136387098
2711.0,0.01168254065456697
2710.0,0.01164361759011409
2709.0,0.011605298528495477
2708.0,0.011568464810233879
2707.0,0.011535707729222562
2706.0,0.011507074708325205
2705.0,0.011479213308053175
2704.0,0.011448478287016114
2703.0,0.011413152276763774
2702.0,0.01137394593964115
2701.0,0.011334591263023597
2700.0,0.011300530514671527
2699.0,0.011273830302745563
2698.0,0.011249769017192119
2697.0,0.011221128299080764
2696.0,0.011185752372483745
2695.0,0.011147700737910562
2694.0,0.011111380396117853
2693.0,0.011077586035202997
2692.0,0.011045457118503427
2691.0,0.011015119624480974
2690.0,0.010986362664377497
2689.0,0.010956371411970416
2688.0,0.010921478548595874
2687.0,0.01088190324759799
2686.0,0.010843500727515451
2685.0,0.01081288020175199
2684.0,0.010789994558128384
2683.0,0.01076698843278702
2682.0,0.010736386537870938
2681.0,0.010699686883186937
2680.0,0.010665276787776207
2679.0,0.01063792556912906
2678.0,0.010613527234333937
2677.0,0.010585376213969816
2676.0,0.010552569170697704
2675.0,0.010520055074644541
2674.0,0.010492670346924271
2673.0,0.010471281952939483
2672.0,0.010453037919874664
2671.0,0.010433208362540223
2670.0,0.010408373283939735
2669.0,0.010380172057314506
2668.0,0.01035474712621015
2667.0,0.010336548599516038
2666.0,0.010323908327647131
2665.0,0.01031248805997478
2664.0,0.010301145899708422
2663.0,0.01029166708904667
2662.0,0.010284241646127778
2661.0,0.010276796077170412
2660.0,0.010268564658677783
2659.0,0.010261041512389123
2658.0,0.010254684913070388
2657.0,0.010247310303389507
2656.0,0.010237098097887185
2655.0,0.010225552710269804
2654.0,0.01021608274032715
2653.0,0.010209974598257609
2652.0,0.010204298147592739
2651.0,0.010193921458629584
2650.0,0.010176170862709343
2649.0,0.010154081423744188
2648.0,0.01013418311501583
2647.0,0.010120428702036992
2646.0,0.010111403922146702
2645.0,0.010104015668960577
2644.0,0.010097871170876382
2643.0,0.010093711835468037
2642.0,0.010088798605796666
2641.0,0.010077102934922992
2640.0,0.01005483354168033
2639.0,0.010024690281851583
2638.0,0.009994366381317827
2637.0,0.00997141424148208
2636.0,0.009958490931916877
2635.0,0.009951489909732087
2634.0,0.00994274231224684
2633.0,0.009927598629592617
2632.0,0.009908068230666294
2631.0,0.009889236046109454
2630.0,0.009872771933544303
2629.0,0.009855895486903188
2628.0,0.009836523017446325
2627.0,0.009816993821582297
2626.0,0.009801276525053084
2625.0,0.009789156527781381
2624.0,0.00977480398564529
2623.0,0.009752322531788028
2622.0,0.009722747690314537
2621.0,0.009694531235838579
2620.0,0.00967557186962103
2619.0,0.009665040078856995
2618.0,0.009654693998562872
2617.0,0.009637671499310397
2616.0,0.009613872949699512
2615.0,0.009586969599942886
2614.0,0.009559902333222223
2613.0,0.00953542636528691
2612.0,0.009517540132850087
2611.0,0.00950829881751394
2610.0,0.009503631273831768
2609.0,0.00949504031046334
2608.0,0.009476183795070264
2607.0,0.009446832503474204
2606.0,0.009411522343564228
2605.0,0.009376567923556161
2604.0,0.00934745422399524
2603.0,0.009326229655673273
2602.0,0.009310267188285353
2601.0,0.009294323334418115
2600.0,0.009274413189224062
2599.0,0.009249787439690097
2598.0,0.009222295448665171
2597.0,0.009195302962043045
2596.0,0.00917254829742192
2595.0,0.00915574391411319
2594.0,0.009142222926447747
2593.0,0.009125638135699212
2592.0,0.009100437249234383
2591.0,0.009067127742058366
2590.0,0.009033419392606556
2589.0,0.009008737891524895
2588.0,0.008995736679502408
2587.0,0.008987306483715036
2586.0,0.008973871675912277
2585.0,0.008953604078317854
2584.0,0.00893297273958071
2583.0,0.008917095411572006
2582.0,0.008902977084876945
2581.0,0.008884568801324502
2580.0,0.008861575500639656
2579.0,0.008839083411437227
2578.0,0.008819727367627291
2577.0,0.008800539909962237
2576.0,0.008778161300003995
2575.0,0.00875326503553445
2574.0,0.008727821614273863
2573.0,0.00870153578731247
2572.0,0.008674654181896611
2571.0,0.008652126930941261
2570.0,0.008639714099693071
2569.0,0.008635213383960214
2568.0,0.00862798436361479
2567.0,0.008609709453061488
2566.0,0.008582885752283598
2565.0,0.008556033294547072
2564.0,0.008533714748656981
2563.0,0.008515512732016853
2562.0,0.00850189282347097
2561.0,0.008494136274771755
2560.0,0.00848785739520296
2559.0,0.008473187534243311
2558.0,0.008445113649892224
2557.0,0.008410021521136667
2556.0,0.00837876581245772
2555.0,0.008355674222226077
2554.0,0.008336889956825376
2553.0,0.008316791349142396
2552.0,0.008292780006739824
2551.0,0.008266230816127292
2550.0,0.008242605686396337
2549.0,0.008229068289361294
2548.0,0.008227948427959916
2547.0,0.008232579571354008
2546.0,0.008232064795965126
2545.0,0.008219904027264845
2544.0,0.008196712552629713
2543.0,0.008166370092661737
2542.0,0.008132441918761682
2541.0,0.008098063699307271
2540.0,0.008066893857297188
2539.0,0.008043131359833176
2538.0,0.008030061104383852
2537.0,0.008026839012530972
2536.0,0.008026625749958612
2535.0,0.008020909177640536
2534.0,0.00800708896441068
2533.0,0.0079894514473755
2532.0,0.007972096233718563
2531.0,0.007954800683511662
2530.0,0.007937245346810395
2529.0,0.007922335728518764
2528.0,0.007912021968567893
2527.0,0.00790397656039884
2526.0,0.007896254616758972
2525.0,0.007891049113437812
2524.0,0.007888825684903853
2523.0,0.00788269325507284
2522.0,0.007865357046082348
2521.0,0.007840019883272919
2520.0,0.007817969847078318
2519.0,0.007805067173341666
2518.0,0.007795598711252615
2517.0,0.007780281552689113
2516.0,0.007756454358950216
2515.0,0.007729411354387006
2514.0,0.007706418497119087
2513.0,0.007689991294400589
2512.0,0.00767554906686705
2511.0,0.007656438396692585
2510.0,0.007632253378865698
2509.0,0.007609646436983008
2508.0,0.007592962145589084
2507.0,0.007577655553761581
2506.0,0.0075564855342611205
2505.0,0.007528752965625294
2504.0,0.007498967217219589
2503.0,0.0074698025331142405
2502.0,0.007442085060530988
2501.0,0.0074190765457115854
2500.0,0.007403979095742197
2499.0,0.007394101824208766
2498.0,0.007383593618580842
2497.0,0.007371723106612497
2496.0,0.007362699902928883
2495.0,0.0073568575447607015
2494.0,0.007347291786581008
2493.0,0.007326365283939759
2492.0,0.007291995271844856
2491.0,0.007248156517994009
2490.0,0.0072039848314639264
2489.0,0.007171706472596517
2488.0,0.0071588359859659865
2487.0,0.007160259379203104
2486.0,0.007162083721116239
2485.0,0.0071545754284770375
2484.0,0.007138283977404635
2483.0,0.007118361640507189
2482.0,0.007098601732446206
2481.0,0.0070819408691869855
2480.0,0.007070456795884074
2479.0,0.00706137498646644
2478.0,0.0070473772479858286
2477.0,0.007024939791993619
2476.0,0.007000150416799198
2475.0,0.00698290217149074
2474.0,0.00697620917668042
2473.0,0.00697307961106736
2472.0,0.006963021660367126
2471.0,0.006940685600690243
2470.0,0.0069095220681579415
2469.0,0.006878329774413584
2468.0,0.006853819413863761
2467.0,0.006836323894041961
2466.0,0.006822854248857626
2465.0,0.006812325011174347
2464.0,0.006805285898321665
2463.0,0.0067999284346745795
2462.0,0.006792320117520693
2461.0,0.006781122299089298
2460.0,0.006768834969767651
2459.0,0.006757454160188027
2458.0,0.0067461513742731625
2457.0,0.006734984307983568
2456.0,0.006727698467484929
2455.0,0.006727113321262189
2454.0,0.0067284899790191624
2453.0,0.006721405883115804
2452.0,0.006700465222186847
2451.0,0.006672512546781066
2450.0,0.006650144231208713
2449.0,0.006637632133094836
2448.0,0.006626291487582379
2447.0,0.006605934382320181
2446.0,0.006577963675996189
2445.0,0.0065527063997916045
2444.0,0.0065351762988378245
2443.0,0.00651939639052145
2442.0,0.006498075584562849
2441.0,0.006472264540240704
2440.0,0.006447999039022942
2439.0,0.006427441433785288
2438.0,0.006407670933165521
2437.0,0.00638610466643968
2436.0,0.00636347622355476
2435.0,0.0063426768000402305
2434.0,0.006327161748549924
2433.0,0.006318989817273509
2432.0,0.006316158530363384
2431.0,0.0063132724187182215
2430.0,0.006306377151936376
2429.0,0.006295313333940651
2428.0,0.0062806177796223585
2427.0,0.006261695739198383
2426.0,0.006239947073723537
2425.0,0.006219711958502965
2424.0,0.00620292626022778
2423.0,0.0061861479657349654
2422.0,0.006166274323664671
2421.0,0.006145963574414149
2420.0,0.006129612220872032
2419.0,0.00611708613593902
2418.0,0.006105647769174977
2417.0,0.006095143427507744
2416.0,0.006086326344242332
2415.0,0.006076039503400307
2414.0,0.006059453136059875
2413.0,0.006036912651501951
2412.0,0.00601441347112832
2411.0,0.005996850463349767
2410.0,0.005983381724853443
2409.0,0.00596901016453531
2408.0,0.0059485074240876465
2407.0,0.005919996932834307
2406.0,0.00588730586861118
2405.0,0.005857589909757585
2404.0,0.005834170049831283
2403.0,0.005813214885633288
2402.0,0.005789840366197339
2401.0,0.005765507001513393
2400.0,0.0057463851858840145
2399.0,0.005735981919029348
2398.0,0.005732520555527265
2397.0,0.005732136063315788
2396.0,0.005731154372791766
2395.0,0.00572617337863122
2394.0,0.0057154298607317786
2393.0,0.005700312018868912
2392.0,0.005683527812380184
2391.0,0.0056661769120548685
2390.0,0.0056480294033054
2389.0,0.005629154689968806
2388.0,0.0056090812837618406
2387.0,0.005585743850118727
2386.0,0.00555764241367668
2385.0,0.005525629675516164
2384.0,0.005490080694503468
2383.0,0.00544797731556259
2382.0,0.005396490857406383
2381.0,0.005339900641157569
2380.0,0.0052902246730036654
2379.0,0.00525905376157547
2378.0,0.005249519333218072
2377.0,0.005254554844959789
2376.0,0.005262005765156632
2375.0,0.00526180235004451
2374.0,0.005251650310221889
2373.0,0.005237032438276727
2372.0,0.005223640001200409
2371.0,0.005210432643239878
2370.0,0.005193573415952711
2369.0,0.005173922688234585
2368.0,0.0051547545769558695
2367.0,0.005135879511456909
2366.0,0.005119808928496583
2365.0,0.0051143695208820715
2364.0,0.005117096986836866
2363.0,0.005115714325873358
2362.0,0.005102937808716363
2361.0,0.005085424486857087
2360.0,0.005076679964000602
2359.0,0.0050711930910558424
2358.0,0.0050571302933938985
2357.0,0.0050311296817438485
2356.0,0.004991170757479059
2355.0,0.004938445609472853
2354.0,0.004888364185350918
2353.0,0.004878335820486288
2352.0,0.00492297503470444
2351.0,0.00499327715989219
2350.0,0.005049208861184205
2349.0,0.005063339107433933
2348.0,0.005047346040132505
2347.0,0.005031591801666285
2346.0,0.005037762822110545
2345.0,0.005053764543578792
2344.0,0.005053143780705304
2343.0,0.005043162795777329
2342.0,0.005043223461529893
2341.0,0.005065041245173336
2340.0,0.005094236514162283
2339.0,0.005110362818259785
2338.0,0.005106548661574948
2337.0,0.005092997248479729
2336.0,0.005073915192366349
2335.0,0.005048827824395102
2334.0,0.005023021091657374
2333.0,0.0050204444687632155
2332.0,0.0050504709888952734
2331.0,0.005090319452249311
2330.0,0.005116101472552503
2329.0,0.005125979124499267
2328.0,0.0051533076011344835
2327.0,0.005219697719220101
2326.0,0.005321682717843033
2325.0,0.0054297442939473485
2324.0,0.005503836763163646
2323.0,0.0055242287002215795
2322.0,0.005496884188112744
2321.0,0.005453626024442833
2320.0,0.005416611664193298
2319.0,0.005392150687717277
2318.0,0.0053728964649633676
2317.0,0.005354072920531529
2316.0,0.005335296593248696
2315.0,0.005320002113854358
2314.0,0.005313463355778956
2313.0,0.005317076695754081
2312.0,0.005326634233297415
2311.0,0.005334853380794033
2310.0,0.005342092310081394
2309.0,0.005353535758043093
2308.0,0.0053720947468029
2307.0,0.005394516645424784
2306.0,0.005417038487386344
2305.0,0.005437172712179457
2304.0,0.005450749032435329
2303.0,0.005455853934399066
2302.0,0.005459203800613498
2301.0,0.005470151752449588
2300.0,0.0054872561158603225
2299.0,0.005497559334081807
2298.0,0.005496038511795134
2297.0,0.005493143687866636
2296.0,0.005502442011213954
2295.0,0.005523798364221734
2294.0,0.00555045049199795
2293.0,0.005580891016023069
2292.0,0.005617979360696676
2291.0,0.005657998175688246
2290.0,0.005691423085779945
2289.0,0.005712185653135817
2288.0,0.005721205222329409
2287.0,0.00572260081237611
2286.0,0.005721255512307687
2285.0,0.005721729974423334
2284.0,0.005723388703493726
2283.0,0.005720017371789779
2282.0,0.005708349044774478
2281.0,0.0056946310561089685
2280.0,0.005686119459621946
2279.0,0.005680537097686982
2278.0,0.005669612157981547
2277.0,0.005651177661327131
2276.0,0.005630660989644935
2275.0,0.005612777314643445
2274.0,0.005598462244774474
2273.0,0.0055874776136245205
2272.0,0.005578741351808075
2271.0,0.005569791557136713
2270.0,0.005561258473936788
2269.0,0.005558581184662538
2268.0,0.005564087733843393
2267.0,0.0055714495094161195
2266.0,0.005573777918451332
2265.0,0.005572587747488532
2264.0,0.005573202173183947
2263.0,0.005575747762483409
2262.0,0.005579032068286363
2261.0,0.005588791905029223
2260.0,0.005611878901621585
2259.0,0.005643862719788089
2258.0,0.005669549400028723
2257.0,0.005677014492929876
2256.0,0.0056659026926278834
2255.0,0.005643905330119609
2254.0,0.005620960169563706
2253.0,0.005606178753850641
2252.0,0.005604000662346123
2251.0,0.005612383723518429
2250.0,0.005626796847523069
2249.0,0.005645984108652893
2248.0,0.00566846810426562
2247.0,0.005686234088066798
2246.0,0.005688352946525351
2245.0,0.005670971188419937
2244.0,0.005644770084775182
2243.0,0.005630528556821873
2242.0,0.005643983461016163
2241.0,0.005680037759215543
2240.0,0.005713033677408773
2239.0,0.0057195089710334705
2238.0,0.005700766136556114
2237.0,0.005677174568490814
2236.0,0.0056621708210679335
2235.0,0.005651572997258481
2234.0,0.005639232661000438
2233.0,0.005629718055354874
2232.0,0.005629458883236742
2231.0,0.005636052761563411
2230.0,0.00564408851546583
2229.0,0.005653784748497891
2228.0,0.005666239205441639
2227.0,0.005676516510759151
2226.0,0.0056789212224506985
2225.0,0.0056753723476003146
2224.0,0.005673565052394023
2223.0,0.005680044779355198
2222.0,0.005696619759127781
2221.0,0.005717696595374322
2220.0,0.005730092505217339
2219.0,0.005723680794891968
2218.0,0.005704747729861277
2217.0,0.005690319692145224
2216.0,0.005687575671162432
2215.0,0.005688474562971792
2214.0,0.005686377935063826
2213.0,0.005684853543713197
2212.0,0.005684899698658924
2211.0,0.005677089018493825
2210.0,0.005655378104920626
2209.0,0.005629936195338736
2208.0,0.005618212471171087
2207.0,0.005630505501436146
2206.0,0.005668825304950044
2205.0,0.005729335758720943
2204.0,0.0057979221121613475
2203.0,0.0058522467746131845
2202.0,0.005877896304968232
2201.0,0.005878968266876318
2200.0,0.005869712127831342
2199.0,0.0058598229949000675
2198.0,0.005849986926888801
2197.0,0.005835859841977774
2196.0,0.005813861238318665
2195.0,0.005789439963806783
2194.0,0.005778837859053994
2193.0,0.005792430423518124
2192.0,0.005816970544739146
2191.0,0.0058283250849610465
2190.0,0.005823343248127195
2189.0,0.005825278017765874
2188.0,0.005853584408264875
2187.0,0.005900821103589027
2186.0,0.0059435915798295965
2185.0,0.005962065256690541
2184.0,0.005944326081657745
2183.0,0.005888035909516526
2182.0,0.005809608224499655
2181.0,0.005742846481527428
2180.0,0.005715929996998964
2179.0,0.005731073435048663
2178.0,0.005768055758523307
2177.0,0.005800051372755689
2176.0,0.005809846642866045
2175.0,0.0058033307400410725
2174.0,0.0058050353575818895
2173.0,0.005829534704493785
2172.0,0.005861815894256314
2171.0,0.005878640175061291
2170.0,0.00588259583212386
2169.0,0.0058988542954654865
2168.0,0.005941791612677566
2167.0,0.006001693191137966
2166.0,0.006061915584770706
2165.0,0.006110945876523456
2164.0,0.006139239931068568
2163.0,0.006140224385486673
2162.0,0.006110173025291265
2161.0,0.006031082142787387
2160.0,0.005868048300475498
2159.0,0.005619538046792996
2158.0,0.005360908939140151
2157.0,0.005187107068494971
2156.0,0.005117565989104151
2155.0,0.005103795688043944
2154.0,0.0051097662410816685
2153.0,0.005138339819440596
2152.0,0.005194185860063238
2151.0,0.00526210202907953
2150.0,0.005323753924268889
2149.0,0.005369003138339711
2148.0,0.0053906676349149765
2147.0,0.005390327991545809
2146.0,0.005386621637685334
2145.0,0.00539434159060109
2144.0,0.005398974746795968
2143.0,0.0053763722111395355
2142.0,0.005332462066302266
2141.0,0.0052978734867548645
2140.0,0.005286085830441946
2139.0,0.005283506404791771
2138.0,0.005278563446854879
2137.0,0.005272033222069719
2136.0,0.0052582419181307636
2135.0,0.0052247132531064245
2134.0,0.00517605553932875
2133.0,0.005134558752599638
2132.0,0.005112574724409003
2131.0,0.0051044006066688595
2130.0,0.005106093753252202
2129.0,0.005122452956088337
2128.0,0.005153700239223135
2127.0,0.005193237505619298
2126.0,0.005238664877117168
2125.0,0.0052883321498858535
2124.0,0.005329323408628412
2123.0,0.005348314486407223
2122.0,0.005353468605229985
2121.0,0.005366392007740545
2120.0,0.0053921287426645795
2119.0,0.0054168794630574555
2118.0,0.005435286430087577
2117.0,0.005457988125532705
2116.0,0.005488629911262574
2115.0,0.005514982602750026
2114.0,0.0055290910796628664
2113.0,0.0055368081343814685
2112.0,0.005541315971020062
2111.0,0.005536355804687697
2110.0,0.005523507431356867
2109.0,0.005517158935318579
2108.0,0.005522801548140558
2107.0,0.005526713518845398
2106.0,0.005515915228609441
2105.0,0.005494496843089058
2104.0,0.005474104517588154
2103.0,0.005462490270264612
2102.0,0.005465841303733505
2101.0,0.005485484737159604
2100.0,0.005508388135512421
2099.0,0.005516857795844627
2098.0,0.005509680773709178
2097.0,0.005498054066776338
2096.0,0.005481089680813324
2095.0,0.005448028375726137
2094.0,0.005406104971402895
2093.0,0.00537974242904045
2092.0,0.00537704616903698
2091.0,0.005381318317228605
2090.0,0.005381695860584047
2089.0,0.005388870530736942
2088.0,0.005411310107060065
2087.0,0.005437782871521132
2086.0,0.005454652452835857
2085.0,0.005463032921300214
2084.0,0.0054707929432681246
2083.0,0.005482439383485657
2082.0,0.005502104281553651
2081.0,0.005529157701318308
2080.0,0.005547521756712311
2079.0,0.005539417110080456
2078.0,0.005512242099352004
2077.0,0.005491475147497929
2076.0,0.0054834941835636255
2075.0,0.005471754481006674
2074.0,0.0054525174471230535
2073.0,0.005442193964023846
2072.0,0.005443184373316722
2071.0,0.005434384832321307
2070.0,0.0054081635253095004
2069.0,0.005384950860674576
2068.0,0.005376221803799246
2067.0,0.00536435191955262
2066.0,0.005335960632221545
2065.0,0.005307607244592561
2064.0,0.0052991354504121095
2063.0,0.0053053263310498325
2062.0,0.005313569533828894
2061.0,0.005324426319120919
2060.0,0.005338344874198551
2059.0,0.005348405298367663
2058.0,0.0053583813722784335
2057.0,0.005380968925214805
2056.0,0.005407456704734999
2055.0,0.005412871194239517
2054.0,0.005405418551713794
2053.0,0.0054310560130940025
2052.0,0.0055071476971501965
2051.0,0.005586499434223647
2050.0,0.005611205892397007
2049.0,0.005576298102723399
2048.0,0.005514673444665068
2047.0,0.00544388501331404
2046.0,0.005365628107551617
2045.0,0.005295555526715222
2044.0,0.005252982486632192
2043.0,0.00523806896623269
2042.0,0.00524685662136905
2041.0,0.005286261040751294
2040.0,0.005348785543268022
2039.0,0.005399229727112701
2038.0,0.005413285745914386
2037.0,0.005404663737195858
2036.0,0.005392590152762913
2035.0,0.005368793430649565
2034.0,0.0053212184626754205
2033.0,0.005264385954479473
2032.0,0.005217993297447359
2031.0,0.0051823420831578195
2030.0,0.005156368298994429
2029.0,0.005150421032605314
2028.0,0.0051602430497257965
2027.0,0.005160485979556863
2026.0,0.0051434695207141536
2025.0,0.005130610898359767
2024.0,0.005133574193741691
2023.0,0.00513681166792772
2022.0,0.005130977056503728
2021.0,0.0051262716334767875
2020.0,0.005120496299997312
2019.0,0.005093935923904875
2018.0,0.005050037748486706
2017.0,0.005024649030662729
2016.0,0.00503519758278027
2015.0,0.0050576337388759714
2014.0,0.005069550379434309
2013.0,0.005073289598842855
2012.0,0.005065860479559709
2011.0,0.005031748977059067
2010.0,0.004977094783292065
2009.0,0.004928389173641978
2008.0,0.004884077011793995
2007.0,0.0048153982773572164
2006.0,0.00473067670447583
2005.0,0.004683137348560447
2004.0,0.004700222875802826
2003.0,0.004751661824802405
2002.0,0.004802262555617201
2001.0,0.004845724518009579
2000.0,0.0048746644064313616
1999.0,0.004873142634487476
1998.0,0.004850594011771078
1997.0,0.004840093531156946
1996.0,0.004846572876597737
1995.0,0.004840075042175622
1994.0,0.004812267009566978
1993.0,0.004795614019359093
1992.0,0.004813036050873166
1991.0,0.0048501533186490935
1990.0,0.004892745570573192
1989.0,0.004943529093046504
1988.0,0.004987999224951059
1987.0,0.004994774121706766
1986.0,0.004969175552161647
1985.0,0.0049576896735160966
1984.0,0.0049827992678590964
1983.0,0.005017941675234201
1982.0,0.005042747341913233
1981.0,0.005067714340036829
1980.0,0.005081104515374336
1979.0,0.005034257108619827
1978.0,0.004914258498504691
1977.0,0.004782852618332549
1976.0,0.004699353097819047
1975.0,0.004658737972019265
1974.0,0.0046385454120309935
1973.0,0.004636376096598736
1972.0,0.0046328295122641345
1971.0,0.004587412327968783
1970.0,0.00450296829296542
1969.0,0.004440546929746677
1968.0,0.004441904926061875
1967.0,0.004480906775935971
1966.0,0.0045208391852002636
1965.0,0.0045596665143984695
1964.0,0.0045895148000275774
1963.0,0.004581759283472656
1962.0,0.004536357065611341
1961.0,0.004493066023136603
1960.0,0.004474035717871982
1959.0,0.004461490773179685
1958.0,0.004447466489738956
1957.0,0.004451344946803367
1956.0,0.004471243808431761
1955.0,0.0044747378664698936
1954.0,0.004454306361763805
1953.0,0.00444200553364499
1952.0,0.0044517739200443445
1951.0,0.004451613535955465
1950.0,0.0044179075930007704
1949.0,0.004369225547846138
1948.0,0.004323097940396842
1947.0,0.004265901807661796
1946.0,0.00418859123877778
1945.0,0.00411333017305792
1944.0,0.004061168112200162
1943.0,0.004028947575379524
1942.0,0.0040259200255543
1941.0,0.004078046721188872
1940.0,0.004168345631811646
1939.0,0.004240470884211167
1938.0,0.00426505866506786
1937.0,0.004260276348750322
1936.0,0.004250009651057496
1935.0,0.00423590340172445
1934.0,0.004220414538688438
1933.0,0.004220074735681192
1932.0,0.004235581986056181
1931.0,0.004236048424863112
1930.0,0.004206618926380448
1929.0,0.004169122986379304
1928.0,0.004141056101363106
1927.0,0.004106609317511307
1926.0,0.004046826880032637
1925.0,0.003984441150973339
1924.0,0.0039515020588304795
1923.0,0.003940235697403455
1922.0,0.003929568536108694
1921.0,0.003927561864810412
1920.0,0.003954573827056959
1919.0,0.004007653258848375
1918.0,0.004062589115664499
1917.0,0.004103105585424714
1916.0,0.00412288353669547
1915.0,0.004118230969793119
1914.0,0.004095393970281722
1913.0,0.004066523310836962
1912.0,0.004036921495959659
1911.0,0.004003056290938205
1910.0,0.003974351526173478
1909.0,0.003970484547310572
1908.0,0.003993254417937668
1907.0,0.004020549266097865
1906.0,0.004035345645503717
1905.0,0.004049364657670734
1904.0,0.004068248163829058
1903.0,0.004072472807951281
1902.0,0.004057004140041315
1901.0,0.004046377183578726
1900.0,0.004054875956390612
1899.0,0.004059861546993128
1898.0,0.004034489962077019
1897.0,0.003991571090533809
1896.0,0.003965313426542733
1895.0,0.003964311987666454
1894.0,0.003968037622059663
1893.0,0.003954699780076899
1892.0,0.003917293470054395
1891.0,0.003866543538497601
1890.0,0.003831931891519596
1889.0,0.0038468303754401775
1888.0,0.003905110950375797
1887.0,0.003960218768349224
1886.0,0.003984713567923128
1885.0,0.003990173951440327
1884.0,0.003991540710786431
1883.0,0.003985652129911855
1882.0,0.003974447357967851
1881.0,0.003974120718702075
1880.0,0.003987772675518525
1879.0,0.003998352896409562
1878.0,0.003993515844121895
1877.0,0.003984926039590856
1876.0,0.003986937966716241
1875.0,0.003984514475322519
1874.0,0.0039479274417205616
1873.0,0.003867659917262639
1872.0,0.00375857186301004
1871.0,0.0036447660564394692
1870.0,0.0035546770051734103
1869.0,0.0035192570072211525
1868.0,0.0035494476142505413
1867.0,0.0036225475381274665
1866.0,0.0037113716607330297
1865.0,0.0038024141996466244
1864.0,0.003876987565733687
1863.0,0.003912204339025947
1862.0,0.003909082301845051
1861.0,0.00389436797017931
1860.0,0.0038872042878733493
1859.0,0.0038843090368986402
1858.0,0.0038830054768751216
1857.0,0.0038915809437574775
1856.0,0.003909427589773991
1855.0,0.003916097184585845
1854.0,0.0039049673743584007
1853.0,0.0038891395138870343
1852.0,0.0038689295991708806
1851.0,0.003835916149717974
1850.0,0.0037823866549451884
1849.0,0.003706509392780279
1848.0,0.003618133758284688
1847.0,0.0035516205241373287
1846.0,0.003557317425910421
1845.0,0.003650296269377375
1844.0,0.0037682579587557706
1843.0,0.0038191787543920054
1842.0,0.0037972256848031573
1841.0,0.003775001193786214
1840.0,0.0037888043753522634
1839.0,0.003804383972126245
1838.0,0.003790476722025414
1837.0,0.0037739538155585582
1836.0,0.0037793478816064994
1835.0,0.0037738797753782164
1834.0,0.003721112421092397
1833.0,0.0036300059916968383
1832.0,0.0035392207090737485
1831.0,0.0034838520961133863
1830.0,0.003471982609768901
1829.0,0.0034879769569977994
1828.0,0.0034965342131429732
1827.0,0.003481662505473357
1826.0,0.0034744512184472286
1825.0,0.0035141919850847636
1824.0,0.0036005313753398175
1823.0,0.0036913105329068377
1822.0,0.0037559717861598025
1821.0,0.0037889626051596193
1820.0,0.003785564300227921
1819.0,0.0037446618450263894
1818.0,0.0036881632746113783
1817.0,0.0036590095645571232
1816.0,0.003664718611518436
1815.0,0.003665857471494861
1814.0,0.003634087414763481
1813.0,0.003584574661674538
1812.0,0.00355304226254627
1811.0,0.003550630258118431
1810.0,0.0035709079787529688
1809.0,0.003612497463776233
1808.0,0.0036634048058359907
1807.0,0.003696842348588577
1806.0,0.0036900422229179486
1805.0,0.0036418793363523164
1804.0,0.0035617323538821633
1803.0,0.0034705928083636306
1802.0,0.0034101249987227127
1801.0,0.003418194642754898
1800.0,0.003498035122828776
1799.0,0.0035966065111800003
1798.0,0.003648596793080392
1797.0,0.0036361784403822566
1796.0,0.003583892315054057
1795.0,0.0035303303441796673
1794.0,0.0035057680870496785
1793.0,0.00352350384181993
1792.0,0.0035739869644472962
1791.0,0.003624911356253445
1790.0,0.00366229840163761
1789.0,0.0036936853436978917
1788.0,0.0037129083416587534
1787.0,0.0037082903206387303
1786.0,0.0036907069318292225
1785.0,0.003687153797694147
1784.0,0.0036818231236684434
1783.0,0.0036416087040487474
1782.0,0.003587731201647777
1781.0,0.0035665581215264183
1780.0,0.00359463730284344
1779.0,0.0036286248453955205
1778.0,0.003619358627894219
1777.0,0.003561130699042946
1776.0,0.003483278784671093
1775.0,0.003436717913702582
1774.0,0.003456126947912951
1773.0,0.0035261176320331147
1772.0,0.003582201839985067
1771.0,0.003569378155948503
1770.0,0.0035294559043362993
1769.0,0.003568005057169454
1768.0,0.003697272192435498
1767.0,0.003810278843628655
1766.0,0.003824243072121007
1765.0,0.003771784133019278
1764.0,0.003732555386563154
1763.0,0.0037426554047283967
1762.0,0.0037896454495716016
1761.0,0.0038406657893048906
1760.0,0.003861388816193383
1759.0,0.003850751491818079
1758.0,0.003868682898035513
1757.0,0.003956395913550653
1756.0,0.004066221548236208
1755.0,0.004120491146771263
1754.0,0.004123357181392272
1753.0,0.0041397576115702805
1752.0,0.004191393667354187
1751.0,0.004230369433912147
1750.0,0.00423413112612267
1749.0,0.004286259328936328
1748.0,0.004431973354863343
1747.0,0.00460568283392283
1746.0,0.0047465594454737
1745.0,0.004866523038805343
1744.0,0.005001589029301516
1743.0,0.005150714758037151
1742.0,0.005326957753276407
1741.0,0.00558765411998894
1740.0,0.005910965554223894
1739.0,0.006129588996264398
1738.0,0.006168318635671014
1737.0,0.006187283895713676
1736.0,0.006374481438470547
1735.0,0.0067258512965715994
1734.0,0.007047539565629573
1733.0,0.007181667725397094
1732.0,0.007160281829634936
1731.0,0.007124825653616438
1730.0,0.0071956054482800545
1729.0,0.007394557960216014
1728.0,0.007638763232826558
1727.0,0.007836046103531308
1726.0,0.007966558704875495
1725.0,0.008084693163352008
1724.0,0.008238578699748152
1723.0,0.00837147523890256
1722.0,0.008411350722051077
1721.0,0.008405870039212962
1720.0,0.008469751169326644
1719.0,0.008656734679393733
1718.0,0.008914240631566138
1717.0,0.009167725769910304
1716.0,0.009388614504221364
1715.0,0.009566903629261485
1714.0,0.009734208426075487
1713.0,0.00994189261816648
1712.0,0.010177458380611714
1711.0,0.010381291072343205
1710.0,0.010520413768475635
1709.0,0.010609941117746814
1708.0,0.01069672503645022
1707.0,0.010817797511879173
1706.0,0.010957390746624792
1705.0,0.011097252667953897
1704.0,0.01125294792986733
1703.0,0.011500381785462015
1702.0,0.01193186744386604
1701.0,0.012570054734302847
1700.0,0.013236863862282566
1699.0,0.013635518817684012
1698.0,0.01387656752373874
1697.0,0.01440271945509702
1696.0,0.01529472287169465
1695.0,0.016119536570547013
1694.0,0.016567706932497504
1693.0,0.016838450674960058
1692.0,0.01721265904580251
1691.0,0.01771392822510614
1690.0,0.018234414259286746
1689.0,0.018722909011714268
1688.0,0.019213151812927553
1687.0,0.019754771189352486
1686.0,0.02034185752105396
1685.0,0.021000231876452884
1684.0,0.02170992775384783
1683.0,0.022287913392790303
1682.0,0.02273354519468108
1681.0,0.02325450938535981
1680.0,0.023893811410012587
1679.0,0.024527346335626653
1678.0,0.025103602529049432
1677.0,0.025722868826721552
1676.0,0.02644548628568467
1675.0,0.027138523263800153
1674.0,0.027654115555408143
1673.0,0.02807445434584085
1672.0,0.028591664715181705
1671.0,0.029247949709735665
1670.0,0.029950811389957477
1669.0,0.030681350683368067
1668.0,0.03144604451288062
1667.0,0.03216188395712306
1666.0,0.03282363847225714
1665.0,0.03353530702215159
1664.0,0.03435586004813953
1663.0,0.03519379130639066
1662.0,0.03593992975299729
1661.0,0.036653580207840895
1660.0,0.03741482315436422
1659.0,0.03818472085096314
1658.0,0.038844594858413475
1657.0,0.039448605912618034
1656.0,0.040146094638214655
1655.0,0.04107669366993944
1654.0,0.04182227154682967
1653.0,0.04210457947269147
1652.0,0.04245774454753634
1651.0,0.04272962851724219
1650.0,0.04286041619332049
1649.0,0.04317266731571806
1648.0,0.04359141534674241
1647.0,0.043790483528610966
1646.0,0.04382972861647268
1645.0,0.04409135954336934
1644.0,0.044491258935261645
1643.0,0.04486159601642794
1642.0,0.045176938636993444
1641.0,0.045426574248567914
1640.0,0.04565838131855199
1639.0,0.04591000947126084
1638.0,0.046173100517143524
1637.0,0.046263409535865115
1636.0,0.04596735015139136
1635.0,0.04560885661472007
1634.0,0.045536380842856695
1633.0,0.04563887235438942
1632.0,0.04581713964312236
1631.0,0.04598217252879973
1630.0,0.045984490725984026
1629.0,0.0457542965305098
1628.0,0.04537384297331495
1627.0,0.04502622928964078
1626.0,0.04478484616658255
1625.0,0.04455053799625522
1624.0,0.044104545888050774
1623.0,0.043367678816067554
1622.0,0.042640737471869465
1621.0,0.042207723364350254
1620.0,0.042044349222094136
1619.0,0.04197308795526969
1618.0,0.041633457017490653
1617.0,0.04068472899546847
1616.0,0.039452921198184915
1615.0,0.03851102445458638
1614.0,0.03789469506950685
1613.0,0.037420725865664486
1612.0,0.03693141794137614
1611.0,0.03631089643289777
1610.0,0.03556833354772145
1609.0,0.03478523517236924
1608.0,0.03403202114726798
1607.0,0.033345968701608726
1606.0,0.03274869840486461
1605.0,0.03220505432733321
1604.0,0.03165116395053492
1603.0,0.031066844731939117
1602.0,0.030491672691464432
1601.0,0.029971446478562237
1600.0,0.02950890241660642
1599.0,0.02908516447812811
1598.0,0.028681465060165733
1597.0,0.028272398612551514
1596.0,0.02783866831192696
1595.0,0.027398058648870068
1594.0,0.026995761106270475
1593.0,0.02664664027280223
1592.0,0.026323774313101643
1591.0,0.02600823449281185
1590.0,0.02571221640144358
1589.0,0.025449084952716177
1588.0,0.02521728156984874
1587.0,0.025012705249104584
1586.0,0.02483940489833288
1585.0,0.02468655939426518
1584.0,0.02453416644453405
1583.0,0.024400638677149946
1582.0,0.024307468453640315
1581.0,0.024228626501172627
1580.0,0.024161997310878043
1579.0,0.024180707844433224
1578.0,0.024332058114137477
1577.0,0.02446725173251664
1576.0,0.024397516934645546
1575.0,0.024224913268908774
1574.0,0.024115211591545505
1573.0,0.02411042194430824
1572.0,0.024209969723749385
1571.0,0.02433461533727736
1570.0,0.024402641634500857
1569.0,0.024447603098016288
1568.0,0.024548868290271437
1567.0,0.02473121868423018
1566.0,0.02498027523142841
1565.0,0.025244653790879434
1564.0,0.02545025708068683
1563.0,0.025655004137589563
1562.0,0.02595136215902334
1561.0,0.02634389196063455
1560.0,0.026663223843310078
1559.0,0.026782706721187825
1558.0,0.027046439462051527
1557.0,0.027515236312690008
1556.0,0.027928117001133304
1555.0,0.02835525211077725
1554.0,0.028815751845760004
1553.0,0.02918587080820023
1552.0,0.029448531382072943
1551.0,0.029681749751718257
1550.0,0.029953356253330225
1549.0,0.03026351089143118
1548.0,0.03058031093195731
1547.0,0.030858323931026055
1546.0,0.03107138884168656
1545.0,0.03117210958295407
1544.0,0.031194812238258866
1543.0,0.03124007744279455
1542.0,0.03136593947457055
1541.0,0.03125611450620113
1540.0,0.03076966998685636
1539.0,0.030561682502856728
1538.0,0.03067421223323069
1537.0,0.030734134482241132
1536.0,0.030766563266831762
1535.0,0.030747642983999603
1534.0,0.030488790502265516
1533.0,0.030031301008744994
1532.0,0.02974920018465326
1531.0,0.029711900965975646
1530.0,0.029708192169537448
1529.0,0.029603842113277684
1528.0,0.029372193486612116
1527.0,0.029068519003555622
1526.0,0.028766285003992448
1525.0,0.028532197482018004
1524.0,0.02839498192250243
1523.0,0.028296082511776496
1522.0,0.028017781753110996
1521.0,0.02756347974416563
1520.0,0.02725259908937497
1519.0,0.02711981017247098
1518.0,0.026982185779769203
1517.0,0.02670322923047776
1516.0,0.026363083595434714
1515.0,0.02615845100763779
1514.0,0.026029976530255673
1513.0,0.025819930462298295
1512.0,0.02542863290285713
1511.0,0.024933377138783987
1510.0,0.02445792447637276
1509.0,0.024105412626355526
1508.0,0.0236297229680341
1507.0,0.02267967214219589
1506.0,0.02206194057772517
1505.0,0.02207462109889048
1504.0,0.02203196740190139
1503.0,0.021853128095666384
1502.0,0.021639713098176767
1501.0,0.021382474372181826
1500.0,0.02109164310404004
1499.0,0.02081012165209562
1498.0,0.02054822266465792
1497.0,0.02023903056195168
1496.0,0.01991847536687822
1495.0,0.01965162873923943
1494.0,0.01941034628471008
1493.0,0.019161951620661227
1492.0,0.018882630529321532
1491.0,0.018499836692823155
1490.0,0.017975222114770966
1489.0,0.017475934797156797
1488.0,0.01721630508674029
1487.0,0.017146437623890804
1486.0,0.01711872889705696
1485.0,0.017083851467150253
1484.0,0.017039258468642095
1483.0,0.0169853099464355
1482.0,0.01691506997319539
1481.0,0.01685557642060889
1480.0,0.0168435459145187
1479.0,0.016867556346653278
1478.0,0.016886579050321537
1477.0,0.016901281936654522
1476.0,0.016963155087973195
1475.0,0.017111930368555565
1474.0,0.01733242830222347
1473.0,0.01756097797810157
1472.0,0.017792376513012235
1471.0,0.018051434900440682
1470.0,0.01828249307452126
1469.0,0.01845076318007192
1468.0,0.018569425990934984
1467.0,0.018641357582590803
1466.0,0.018656568661243097
1465.0,0.018612979813479296
1464.0,0.018576439393903833
1463.0,0.018593713628656704
1462.0,0.018614110044594623
1461.0,0.018607814896593435
1460.0,0.018603867792040173
1459.0,0.018671976613600125
1458.0,0.018824847251804125
1457.0,0.018982535178955918
1456.0,0.019119151938112297
1455.0,0.019200080324818448
1454.0,0.019215035219145547
1453.0,0.019219799445097184
1452.0,0.019213237782564063
1451.0,0.019166857320155002
1450.0,0.019076960153072118
1449.0,0.01895266521609833
1448.0,0.018814887195152064
1447.0,0.01871422300413243
1446.0,0.01868327257932181
1445.0,0.018674926895948858
1444.0,0.01864646121401243
1443.0,0.01859321919054835
1442.0,0.018513146593177588
1441.0,0.01840468760491335
1440.0,0.018289491918295774
1439.0,0.018194216060681487
1438.0,0.018089061499233224
1437.0,0.017911126534397654
1436.0,0.01770633920098959
1435.0,0.017582366055537136
1434.0,0.017533677950135586
1433.0,0.017516198022106445
1432.0,0.017507172038584647
1431.0,0.017501684762250794
1430.0,0.017525577127965732
1429.0,0.01760816253959787
1428.0,0.01773733466871439
1427.0,0.017870426194453348
1426.0,0.017994988963719306
1425.0,0.01811668817832978
1424.0,0.018240927966562508
1423.0,0.01838247846203988
1422.0,0.01855797829376193
1421.0,0.01875315284109373
1420.0,0.018919314955639584
1419.0,0.019035719599298156
1418.0,0.019162594815367247
1417.0,0.01936606416409216
1416.0,0.019636036188039628
1415.0,0.019925879134571774
1414.0,0.02019746095616192
1413.0,0.020439137759850644
1412.0,0.02065679959958672
1411.0,0.02085197801592409
1410.0,0.02102708412330743
1409.0,0.021184702574956814
1408.0,0.021306032041928585
1407.0,0.02136636087181505
1406.0,0.021380845763227865
1405.0,0.021385666069356362
1404.0,0.02140137250462719
1403.0,0.02142750683105413
1402.0,0.021446423567871742
1401.0,0.021422754279922535
1400.0,0.021297264987364464
1399.0,0.02105733695846335
1398.0,0.02079817122710159
1397.0,0.02059398466493283
1396.0,0.020389147867758358
1395.0,0.020124599191733306
1394.0,0.01987495949066504
1393.0,0.01970846186136745
1392.0,0.019568029783251423
1391.0,0.019391437676085005
1390.0,0.01916982509646162
1389.0,0.01889989789961471
1388.0,0.01856008526146812
1387.0,0.018174209342754044
1386.0,0.017842365621225386
1385.0,0.017604507419798437
1384.0,0.01740027469215893
1383.0,0.017171825276113967
1382.0,0.01691271558747102
1381.0,0.016644303920616978
1380.0,0.01637531324986526
1379.0,0.016106237622005623
1378.0,0.015845337123424393
1377.0,0.015588438468649244
1376.0,0.01530577395644267
1375.0,0.014981486101314882
1374.0,0.014672489533771114
1373.0,0.014467406974890549
1372.0,0.014361917793415994
1371.0,0.014270813078013863
1370.0,0.014134893400688797
1369.0,0.013946810256574613
1368.0,0.013731967275290045
1367.0,0.013516165292812833
1366.0,0.013292431148260887
1365.0,0.013031447628508191
1364.0,0.012724041396494103
1363.0,0.012412465426285792
1362.0,0.012180752749522798
1361.0,0.012074329795257507
1360.0,0.012046904859065798
1359.0,0.012028293484176635
1358.0,0.011987189187247692
1357.0,0.011923530561475468
1356.0,0.011849769198236902
1355.0,0.011784025693095487
1354.0,0.011739543144639004
1353.0,0.011715166057079722
1352.0,0.011703401917279987
1351.0,0.011701298866492283
1350.0,0.011710731170489552
1349.0,0.011729805326737827
1348.0,0.011755920263445824
1347.0,0.01179019603481982
1346.0,0.01183224303670545
1345.0,0.011873643455757702
1344.0,0.011900003169855095
1343.0,0.011898510330351712
1342.0,0.011863651644493281
1341.0,0.011800719986966076
1340.0,0.011723042773967317
1339.0,0.01165467421809285
1338.0,0.011623613212384993
1337.0,0.011627237961222826
1336.0,0.011633544545176708
1335.0,0.011617604519325544
1334.0,0.01157164083511894
1333.0,0.01149677471899229
1332.0,0.011402301088768937
1331.0,0.01130489606619665
1330.0,0.011216931767620019
1329.0,0.011138651001388698
1328.0,0.011066738038742197
1327.0,0.011002333313414697
1326.0,0.010947461580940631
1325.0,0.01090045042441623
1324.0,0.010858669932720035
1323.0,0.010821363872481386
1322.0,0.010786202764008726
1321.0,0.010748782469568504
1320.0,0.010709449907901646
1319.0,0.010675839607059059
1318.0,0.010653999897117579
1317.0,0.010640136252953118
1316.0,0.010624968186057394
1315.0,0.010603061873863732
1314.0,0.010574284107819756
1313.0,0.010541232231558305
1312.0,0.01050987055269026
1311.0,0.010485342964696762
1310.0,0.010463781236038007
1309.0,0.010436252513204056
1308.0,0.010402043744446865
1307.0,0.010370254310023136
1306.0,0.010347392830511884
1305.0,0.010330716425758647
1304.0,0.010316692358363485
1303.0,0.010308351381942154
1302.0,0.010309257390031162
1301.0,0.010317479128887625
1300.0,0.010330794795538206
1299.0,0.010351689518012276
1298.0,0.010381672853866031
1297.0,0.010416261696863941
1296.0,0.010450644559898442
1295.0,0.010485219363608623
1294.0,0.010521547242694562
1293.0,0.010557723968218819
1292.0,0.01059175093496292
1291.0,0.01062450744671277
1290.0,0.010655214209137953
1289.0,0.010678843204848614
1288.0,0.010692701763598229
1287.0,0.010701395546217886
1286.0,0.010710352596250777
1285.0,0.010718042025873876
1284.0,0.01071963160618623
1283.0,0.010714575307738474
1282.0,0.010705753163187087
1281.0,0.010695129348730653
1280.0,0.010684846920238657
1279.0,0.010679859052163603
1278.0,0.010685007444821908
1277.0,0.010701362773698587
1276.0,0.010728053701770934
1275.0,0.010764473448799015
1274.0,0.010809035730965335
1273.0,0.010859704850402042
1272.0,0.01091817205116409
1271.0,0.010990217792359369
1270.0,0.01107957264554309
1269.0,0.011183920355744077
1268.0,0.011298332454313765
1267.0,0.011419935868531027
1266.0,0.011547912598661919
1265.0,0.011681312071601183
1264.0,0.011818755065722868
1263.0,0.011959264598917652
1262.0,0.012102632894664747
1261.0,0.012250206473004236
1260.0,0.012405151907845538
1259.0,0.012570603138271134
1258.0,0.012746963989593407
1257.0,0.012931288551878709
1256.0,0.013119793856811723
1255.0,0.01331120265387482
1254.0,0.01350832221605043
1253.0,0.01371610311399912
1252.0,0.013937172999964574
1251.0,0.014169534102263029
1250.0,0.014409318924975684
1249.0,0.01465418236534919
1248.0,0.014902553929096504
1247.0,0.015152721971852478
1246.0,0.015405215567026159
1245.0,0.015662743453809365
1244.0,0.015925164003900268
1243.0,0.01618815585803744
1242.0,0.016448967382263376
1241.0,0.016708067334942914
1240.0,0.016962267393632824
1239.0,0.017202684482856216
1238.0,0.01742388452320553
1237.0,0.017629124467610016
1236.0,0.017822366517750494
1235.0,0.018001834203537095
1234.0,0.018165660984550424
1233.0,0.01831667318432155
1232.0,0.01845743348196687
1231.0,0.018588034808683585
1230.0,0.01871223565938738
1229.0,0.018837358835583476
1228.0,0.018964275246046793
1227.0,0.019085369602842697
1226.0,0.019195685878023123
1225.0,0.01929793805332736
1224.0,0.019393277896324133
1223.0,0.019476376352354913
1222.0,0.019543690512390775
1221.0,0.01959758784026801
1220.0,0.019638567643749442
1219.0,0.019662545057398312
1218.0,0.019669330148084935
1217.0,0.019664301114852453
1216.0,0.01964851790612853
1215.0,0.019616699125239206
1214.0,0.01956751934637798
1213.0,0.019506559456643657
1212.0,0.019437789122834184
1211.0,0.019362479130750565
1210.0,0.01928726791351979
1209.0,0.019221724072872343
1208.0,0.019166176758946434
1207.0,0.01911225761470134
1206.0,0.01905688889829953
1205.0,0.019005645331809633
1204.0,0.01896103290973339
1203.0,0.018918723458471835
1202.0,0.01887833499846413
1201.0,0.018847678938963375
1200.0,0.01883251760269225
1199.0,0.01883026515427782
1198.0,0.018835984484456194
1197.0,0.01884577826292494
1196.0,0.01885213833399232
1195.0,0.018845795440183048
1194.0,0.018826075461660544
1193.0,0.01880099087435229
1192.0,0.018773741887717705
1191.0,0.01873735483740532
1190.0,0.01868521666489369
1189.0,0.018618343044746542
1188.0,0.018539910310344025
1187.0,0.01845157049163596
1186.0,0.018357514035675346
1185.0,0.01826341214727887
1184.0,0.01816898770185933
1183.0,0.018069261225701367
1182.0,0.017964421946595224
1181.0,0.0178610176194053
1180.0,0.017762359434329654
1179.0,0.017665688632479914
1178.0,0.017570147744426504
1177.0,0.01747922739385106
1176.0,0.017393224992801635
1175.0,0.017306544918410535
1174.0,0.01721478199374933
1173.0,0.017118089705797757
1172.0,0.017015426692892768
1171.0,0.01690241868883795
1170.0,0.01677807190855863
1169.0,0.016648290362420905
1168.0,0.016520193071449397
1167.0,0.0163970802340437
1166.0,0.016280397600971178
1165.0,0.01617232271604503
1164.0,0.016074487884212556
1163.0,0.015986346925035096
1162.0,0.01590511448240677
1161.0,0.015825861878051815
1160.0,0.01574340732381372
1159.0,0.015657304461138753
1158.0,0.01557397679881561
1157.0,0.015500927737993258
1156.0,0.015440353651904083
1155.0,0.015391172465973189
1154.0,0.015354359568112413
1153.0,0.015331593901052893
1152.0,0.015320135892275367
1151.0,0.01531397590634305
1150.0,0.015310048439541618
1149.0,0.015309864099492206
1148.0,0.015316035791778187
1147.0,0.015331305686180047
1146.0,0.015359911782874838
1145.0,0.015405142802486508
1144.0,0.015465511180822167
1143.0,0.015537162737453137
1142.0,0.015619344054179904
1141.0,0.015712677147157406
1140.0,0.01581289011295338
1139.0,0.015913349360558444
1138.0,0.01601526840091138
1137.0,0.016128286031950247
1136.0,0.016258043564992625
1135.0,0.016399302371053394
1134.0,0.016544154587971222
1133.0,0.01669044083856191
1132.0,0.016838607222665284
1131.0,0.016987588857988
1130.0,0.017138825347160404
1129.0,0.01729796180027422
1128.0,0.017467125916758038
1127.0,0.017640963995408043
1126.0,0.01781533126015772
1125.0,0.01799460825242878
1124.0,0.018185970843192387
1123.0,0.018392230981475275
1122.0,0.01861419817486133
1121.0,0.018852823430661386
1120.0,0.019103942424433855
1119.0,0.01935772980425597
1118.0,0.0196081104706275
1117.0,0.019855654101980903
1116.0,0.020097802006648
1115.0,0.02032623500311846
1114.0,0.02053897012600372
1113.0,0.02074481398026062
1112.0,0.02095078252577562
1111.0,0.021155874183027147
1110.0,0.02136131529746152
1109.0,0.021573721501868606
1108.0,0.021793900460621303
1107.0,0.022017403240518173
1106.0,0.02225021028480575
1105.0,0.022507451963630562
1104.0,0.022791275118317293
1103.0,0.023085423920057812
1102.0,0.02337842786758544
1101.0,0.023673429276731148
1100.0,0.023969820358877326
1099.0,0.02425738958951218
1098.0,0.02453237819145613
1097.0,0.024804142989093503
1096.0,0.02507457098729149
1095.0,0.025333938760669902
1094.0,0.02558432137762426
1093.0,0.02584292843909816
1092.0,0.026112194151125652
1091.0,0.026371316981991536
1090.0,0.026608039103107856
1089.0,0.026833687389281616
1088.0,0.02705561653417623
1087.0,0.02726198366127143
1086.0,0.02744717901028433
1085.0,0.02762450009663768
1084.0,0.027798038228784364
1083.0,0.027948043512321358
1082.0,0.02805894283668236
1081.0,0.028137143119851667
1080.0,0.028189487595634707
1079.0,0.028211484941083616
1078.0,0.02820804409035594
1077.0,0.028197648339251813
1076.0,0.028184755184140882
1075.0,0.02815497349880612
1074.0,0.028106561143548224
1073.0,0.02805809573510626
1072.0,0.028016268600172457
1071.0,0.027965898874176186
1070.0,0.0279010549222605
1069.0,0.02783652090683055
1068.0,0.027779374426232427
1067.0,0.027718876640971876
1066.0,0.027653378267573643
1065.0,0.027597813649971492
1064.0,0.02755513913835323
1063.0,0.02750901282372019
1062.0,0.02745512678999839
1061.0,0.027413077938928443
1060.0,0.02739694489878359
1059.0,0.027400402441384225
1058.0,0.02742050529421787
1057.0,0.027468984905672393
1056.0,0.0275488337700448
1055.0,0.027646263047398485
1054.0,0.027759725580205306
1053.0,0.027913489320519617
1052.0,0.0281263519221341
1051.0,0.02838746932347716
1050.0,0.028677071531134773
1049.0,0.02898318587286311
1048.0,0.029280816931362995
1047.0,0.0295279680059699
1046.0,0.02970092904523078
1045.0,0.02980497705635965
1044.0,0.029841908362419664
1043.0,0.029799158014634917
1042.0,0.029678897286691965
1041.0,0.029506913010165017
1040.0,0.02930292308734153
1039.0,0.029069624572443248
1038.0,0.0288175627956579
1037.0,0.02857179355192862
1036.0,0.0283451363119926
1035.0,0.028129764485130056
1034.0,0.02792190512849236
1033.0,0.027730070096998356
1032.0,0.027551734487788436
1031.0,0.02736678895360805
1030.0,0.02716300901839141
1029.0,0.026945750036069346
1028.0,0.026715715472538128
1027.0,0.026460555813379215
1026.0,0.026176610936094358
1025.0,0.025878346292165344
1024.0,0.02558033561879698
1023.0,0.025289768122203536
1022.0,0.025021167523034314
1021.0,0.024797711962883474
1020.0,0.024630321579115023
1019.0,0.024510641678929683
1018.0,0.024427009955579684
1017.0,0.024368927989412398
1016.0,0.02431234851051689
1015.0,0.024223349646020388
1014.0,0.024088181135031257
1013.0,0.02392459561509047
1012.0,0.02375645931947691
1011.0,0.02359320551541995
1010.0,0.02343886113948091
1009.0,0.02330156086354679
1008.0,0.023182870311161105
1007.0,0.023070377681317054
1006.0,0.022950344936531426
1005.0,0.022818223378376752
1004.0,0.022671547385437082
1003.0,0.022504988196458395
1002.0,0.022318917653706274
1001.0,0.022121627471295525
1000.0,0.021917703702918276
999.0,0.021704330768866305
998.0,0.02148243938894529
997.0,0.021260521684614214
996.0,0.021043420922831516
995.0,0.020826831474729177
994.0,0.02060619678841999
993.0,0.020382923830946906
992.0,0.02016037386042344
991.0,0.019942681903140122
990.0,0.019738550976208528
989.0,0.019556720313917003
988.0,0.01939603565354222
987.0,0.019247629723045882
986.0,0.019106770842192908
985.0,0.01897450942051583
984.0,0.01884900423968127
983.0,0.01872551813690706
982.0,0.018605074003876298
981.0,0.018492532671221928
980.0,0.018384920391075938
979.0,0.018272133983596034
978.0,0.018151205036025124
977.0,0.018029740055623182
976.0,0.017913000959614723
975.0,0.017797453944503907
974.0,0.01767939804544382
973.0,0.017560189387343602
972.0,0.01743960750039927
971.0,0.017312628126890366
970.0,0.017176234177146577
969.0,0.01703231030235179
968.0,0.016881534504888305
967.0,0.016721790966331036
966.0,0.016554739110495504
965.0,0.016386402927247273
964.0,0.016218490518697747
963.0,0.016045325297886954
962.0,0.01586109650341674
961.0,0.015664300179070813
960.0,0.015454455740733022
959.0,0.015231556212463627
958.0,0.015000620817345097
957.0,0.014770822540679372
956.0,0.014548066563579307
955.0,0.014332159092888607
954.0,0.014121143492204023
953.0,0.013914109326461071
952.0,0.013710137566045236
951.0,0.013509172593204315
950.0,0.013314326270219903
949.0,0.013130114174507483
948.0,0.01295935176224209
947.0,0.01280489256956964
946.0,0.012672228567050834
945.0,0.012565833909991275
944.0,0.012484105270821135
943.0,0.012422259610320566
942.0,0.012379600330799132
941.0,0.012359413696511536
940.0,0.012361270304241785
939.0,0.012377460655699855
938.0,0.01239785986957562
937.0,0.012414151434949946
936.0,0.012417561886315522
935.0,0.012397035149993088
934.0,0.012343345789279845
933.0,0.01225335596598593
932.0,0.012129587687252755
931.0,0.011979406807362359
930.0,0.011815560196087926
929.0,0.011652911427632112
928.0,0.011501733123668305
927.0,0.011365039758868465
926.0,0.01124211740204983
925.0,0.011132383658438404
924.0,0.011035653704927963
923.0,0.010951087015643741
922.0,0.010877367792416052
921.0,0.010813416780255856
920.0,0.010758698087087088
919.0,0.01071343138138657
918.0,0.010678321154655238
917.0,0.01065334384682648
916.0,0.01063707852159896
915.0,0.010627632654212398
914.0,0.010622993378949733
913.0,0.010619102545495963
912.0,0.010608857978355576
911.0,0.010585624955692537
910.0,0.010547801381264262
909.0,0.01049801713679022
908.0,0.010438968058093773
907.0,0.010373360874778362
906.0,0.010306912489453982
905.0,0.010246534231627701
904.0,0.010194078613622343
903.0,0.010144290738969074
902.0,0.010089105656990005
901.0,0.010020880083961486
900.0,0.009931415182984422
899.0,0.009813097150651665
898.0,0.00966465766838183
897.0,0.009494208984922835
896.0,0.009313905393814267
895.0,0.009132352987540133
894.0,0.008952272892533867
893.0,0.008773461893338455
892.0,0.008596187680053744
891.0,0.008421974158842715
890.0,0.00825305452176087
889.0,0.008093364465018245
888.0,0.007950451209012114
887.0,0.007833599408657282
886.0,0.00774743386448604
885.0,0.007688731919535046
884.0,0.00765174771034326
883.0,0.007635386034047023
882.0,0.0076431120977921985
881.0,0.007676951156629818
880.0,0.007733855696202361
879.0,0.007807372592832498
878.0,0.007891051752954771
877.0,0.007980948921165593
876.0,0.008077286788953617
875.0,0.008183868095604278
874.0,0.008300795888328615
873.0,0.00841092804004297
872.0,0.008473864494151054
871.0,0.008443965646901936
870.0,0.008304922962796033
869.0,0.008086624637294756
868.0,0.007844462727568457
867.0,0.0076237582720971725
866.0,0.007441931060020449
865.0,0.007295512853323326
864.0,0.007175047883331346
863.0,0.0070714797336049046
862.0,0.0069760726008031675
861.0,0.006882844719491271
860.0,0.006791730135954566
859.0,0.006705693720022426
858.0,0.006624886529743388
857.0,0.0065463349764182145
856.0,0.006467780123843473
855.0,0.006387482626789082
854.0,0.00630171145079832
853.0,0.006208984663114363
852.0,0.006118132162452328
851.0,0.006045868441479509
850.0,0.006002014714078782
849.0,0.005980187702829955
848.0,0.005965845023068565
847.0,0.005950356707536655
846.0,0.005935176256539942
845.0,0.005926171957939787
844.0,0.005927777249417662
843.0,0.005940870374529415
842.0,0.005962874005433206
841.0,0.005989821814622601
840.0,0.006019182366749393
839.0,0.006050314658833003
838.0,0.006082662961380891
837.0,0.006115037650917924
836.0,0.006146568392369708
835.0,0.006176729044899722
834.0,0.006204585792038562
833.0,0.006229844414659569
832.0,0.006254506873419101
831.0,0.00628134766896302
830.0,0.0063099328376219795
829.0,0.006335319307998119
828.0,0.0063513200504529445
827.0,0.006354710638977575
826.0,0.0063470308747585295
825.0,0.006333634586872659
824.0,0.0063212257391515765
823.0,0.006315691150598046
822.0,0.006321394030181057
821.0,0.006340838953375547
820.0,0.006372818813818806
819.0,0.0064112646656897705
818.0,0.00644928456751185
817.0,0.006485645048502405
816.0,0.00652466426316722
815.0,0.006568608318171659
814.0,0.006613562164422354
813.0,0.006655394321165978
812.0,0.0066969440190816805
811.0,0.006745604166406297
810.0,0.006805314467565181
809.0,0.006874272923556048
808.0,0.006949186975035278
807.0,0.007027891311132319
806.0,0.007107777260472785
805.0,0.007185211781485033
804.0,0.0072579236532635885
803.0,0.0073267167253747816
802.0,0.007394368891555696
801.0,0.007463248580769348
800.0,0.007534089693837637
799.0,0.007606673780834971
798.0,0.007681353734767922
797.0,0.00775901705229317
796.0,0.007838586357539468
795.0,0.007915007113198931
794.0,0.007980926993218302
793.0,0.008030828786475225
792.0,0.008063824607800453
791.0,0.008083588048476881
790.0,0.008095570980445319
789.0,0.00810252735009585
788.0,0.008102772869664342
787.0,0.008094737845688964
786.0,0.00808223804084544
785.0,0.008072113964659261
784.0,0.008067217376055185
783.0,0.00806554340712792
782.0,0.008065922452930828
781.0,0.008069260546477164
780.0,0.008072692220649536
779.0,0.00806765552356983
778.0,0.008047142204810512
777.0,0.008011958918958312
776.0,0.007968136507048137
775.0,0.007921851672483767
774.0,0.007878395964670055
773.0,0.00784177208081881
772.0,0.007812394993886633
771.0,0.007787691448223621
770.0,0.007766609097777221
769.0,0.00775061165289969
768.0,0.00773904019445763
767.0,0.007727523037656333
766.0,0.007713294137112636
765.0,0.007698874221106069
764.0,0.007688745430297971
763.0,0.007685772852130755
762.0,0.007691711938689418
761.0,0.007706658851197812
760.0,0.0077262458996213285
759.0,0.0077440142388174
758.0,0.007758868425662684
757.0,0.007775428238679813
756.0,0.007795235027314933
755.0,0.007814061256012774
754.0,0.007831250376387704
753.0,0.007854701238214273
752.0,0.007891275952792893
751.0,0.007938816230620458
750.0,0.00799332842491876
749.0,0.00805806136376782
748.0,0.008138393587186949
747.0,0.008231791539646146
746.0,0.008329777322543787
745.0,0.008426752044560101
744.0,0.008520815236713514
743.0,0.008609628652319724
742.0,0.0086925129725587
741.0,0.008774454543959049
740.0,0.008862526241950951
739.0,0.00896034818650953
738.0,0.009069235866893725
737.0,0.009189964090105956
736.0,0.00931880630341611
735.0,0.009447446734128579
734.0,0.009573279924868925
733.0,0.009705872715769105
732.0,0.00985838486741607
731.0,0.010037978286526503
730.0,0.010249221641296293
729.0,0.010499527929242906
728.0,0.010792763514587404
727.0,0.01112075804944675
726.0,0.0114646932919471
725.0,0.011797765709005315
724.0,0.012083635998664261
723.0,0.012283867979243471
722.0,0.012376479946769374
721.0,0.012364405970678075
720.0,0.012266602995590549
719.0,0.012110649881726217
718.0,0.0119334872071628
717.0,0.011774560181897594
716.0,0.011659394438364598
715.0,0.011590743048576869
714.0,0.011554922894936565
713.0,0.01153176321042295
712.0,0.011500065451546408
711.0,0.011447344353746603
710.0,0.011382501502404867
709.0,0.011330870696588367
708.0,0.011310705179458137
707.0,0.01132114783334311
706.0,0.011354637354942885
705.0,0.011408072777067495
704.0,0.011476522121341006
703.0,0.01154851531853449
702.0,0.011615118834836943
701.0,0.01167312345446779
700.0,0.01171477336485826
699.0,0.01172900096158187
698.0,0.011720873101181892
697.0,0.01171359058891236
696.0,0.01171997192111824
695.0,0.011725823555070763
694.0,0.011711482208551841
693.0,0.011676240568522178
692.0,0.011629693186450359
691.0,0.011573080032631577
690.0,0.011504529303166183
689.0,0.01143259599923585
688.0,0.011370258575807708
687.0,0.011322662880209725
686.0,0.011292767769351876
685.0,0.011287807617505873
684.0,0.011305841371697822
683.0,0.011326641416537525
682.0,0.01132909944057001
681.0,0.011309645763747628
680.0,0.011275798877761496
679.0,0.011232125646493014
678.0,0.01118365673880923
677.0,0.011141347276508326
676.0,0.011111169068275431
675.0,0.011086807159981012
674.0,0.011060566654414131
673.0,0.011035191541692711
672.0,0.011018256969049872
671.0,0.011007438820542035
670.0,0.010979155990681697
669.0,0.010899191177468192
668.0,0.01077959769813876
667.0,0.01068654602163445
666.0,0.01063380997755145
665.0,0.010605714282939292
664.0,0.01058447821369964
663.0,0.010549909340017032
662.0,0.010499084119567858
661.0,0.010450757629451728
660.0,0.010410717928274024
659.0,0.010362701903447707
658.0,0.01029901024857011
657.0,0.010233247204031064
656.0,0.010175042133569356
655.0,0.010122535291800433
654.0,0.010082633584902669
653.0,0.01007080481610878
652.0,0.01008120196038639
651.0,0.01007978322474834
650.0,0.010040622629716174
649.0,0.009970029071332279
648.0,0.009883676412321758
647.0,0.009788061614500219
646.0,0.00969551105415773
645.0,0.00962577143417474
644.0,0.009578743195270006
643.0,0.009527349861377512
642.0,0.009451558615440458
641.0,0.009359370525796464
640.0,0.00925982957070158
639.0,0.009144718753498541
638.0,0.009013401707477213
637.0,0.008887631843892619
636.0,0.008786513256521713
635.0,0.008711832920563121
634.0,0.008666655951181209
633.0,0.00865995079894281
632.0,0.00867745612868363
631.0,0.00867490091603557
630.0,0.00862117496759517
629.0,0.008526423313105887
628.0,0.008407923299844595
627.0,0.008261200215174676
626.0,0.008087970816654248
625.0,0.007920342168816048
624.0,0.007787401123286006
623.0,0.007679803888992611
622.0,0.007571006988728406
621.0,0.007452513275694156
620.0,0.007324089257844415
619.0,0.007176211175575962
618.0,0.0070145218624166235
617.0,0.006877034230365401
616.0,0.00679964058863862
615.0,0.0067799009752095435
614.0,0.006791942945438861
613.0,0.006826928621214392
612.0,0.006895329840178294
611.0,0.006999019821022249
610.0,0.00712496470824394
609.0,0.007258271413475709
608.0,0.007376778609308868
607.0,0.0074480184491885135
606.0,0.0074646650444815145
605.0,0.007461100215853254
604.0,0.007470756896931878
603.0,0.007495354602847306
602.0,0.007525191039295786
601.0,0.007557721365431556
600.0,0.007580548300474797
599.0,0.007570091810511784
598.0,0.007527523107972164
597.0,0.007471618807520876
596.0,0.0073863311671342885
595.0,0.007230024461071273
594.0,0.007017211127736851
593.0,0.006836828615630331
592.0,0.006761295551318179
591.0,0.006771462033797273
590.0,0.006792521165616523
589.0,0.006775849446360713
588.0,0.006697648226854001
587.0,0.006532430828598279
586.0,0.0062866549294949454
585.0,0.006011269288492931
584.0,0.005746596086801798
583.0,0.0054937769186937276
582.0,0.005248669775692147
581.0,0.005020681372094635
580.0,0.004810651316585569
579.0,0.00460208448609474
578.0,0.0043830986014866645
577.0,0.0041486965341320445
576.0,0.0038951444966170076
575.0,0.0036520799956954106
574.0,0.0034812148650791713
573.0,0.003409714588671009
572.0,0.0034128223870748854
571.0,0.0034454161246020264
570.0,0.0034781404690587096
569.0,0.003520420707356635
568.0,0.0035838972907007542
567.0,0.0036367526060630227
566.0,0.003635470457640077
565.0,0.0035889746371825758
564.0,0.003554126895056714
563.0,0.0035793183231486933
562.0,0.003663320093080097
561.0,0.003772229850331304
560.0,0.003875807642005475
559.0,0.00395042228994516
558.0,0.003987058755050045
557.0,0.003998824399588798
556.0,0.003999300339027047
555.0,0.003988771701396939
554.0,0.003962597610019249
553.0,0.003908729396958379
552.0,0.0037948863085056073
551.0,0.0035978080634416557
550.0,0.003353620352351632
