cm-1,A
4000.0,0.0030402483440824524
3999.0,0.003052538077637384
3998.0,0.0030663221508723795
3997.0,0.00307709358076885
3996.0,0.003084648212100081
3995.0,0.0030920051706763204
3994.0,0.003100893245144707
3993.0,0.003109363244706404
3992.0,0.0031141039661497383
3991.0,0.0031144627415882675
3990.0,0.003113013821757162
3989.0,0.003112919419385374
3988.0,0.0031152206815277363
3987.0,0.0031185283193705168
3986.0,0.003120862429630158
3985.0,0.0031208740953799
3984.0,0.0031180141857355117
3983.0,0.003112788355747656
3982.0,0.003107346781101376
3981.0,0.003104974363255803
3980.0,0.0031077533874594755
3979.0,0.0031141963548599882
3978.0,0.0031195673920372483
3977.0,0.0031194651785838995
3976.0,0.0031132370859027272
3975.0,0.0031040655789025913
3974.0,0.003095619797831765
3973.0,0.0030892889124703475
3972.0,0.0030850103560923665
3971.0,0.0030836279711363313
3970.0,0.0030870850631012784
3969.0,0.0030962336099464426
3968.0,0.003109392332664336
3967.0,0.0031230532480302853
3966.0,0.0031333447698600452
3965.0,0.0031368473840977847
3964.0,0.003131979788876172
3963.0,0.0031212417235724566
3962.0,0.0031102076880133774
3961.0,0.003103084903196684
3960.0,0.0030995233780939093
3959.0,0.0030964651392341325
3958.0,0.0030922285126804335
3957.0,0.003088141173380316
3956.0,0.0030872406955216158
3955.0,0.0030920275369958573
3954.0,0.003103123399565721
3953.0,0.003118588283541688
3952.0,0.003134166265896747
3951.0,0.0031462347209422308
3950.0,0.003155678706518503
3949.0,0.003167191515117753
3948.0,0.0031836371494053948
3947.0,0.0032006273209704223
3946.0,0.003208546946970989
3945.0,0.003201942512927515
3944.0,0.0031866020834542775
3943.0,0.003174241108871311
3942.0,0.003168218377481718
3941.0,0.0031618906863904233
3940.0,0.0031506088103703343
3939.0,0.0031398391618896607
3938.0,0.00314119647592342
3937.0,0.0031594672359057385
3936.0,0.003186327993382661
3935.0,0.003207317159365967
3934.0,0.003213881207235574
3933.0,0.0032080815582052205
3932.0,0.003197242317101892
3931.0,0.0031898736815937105
3930.0,0.0031932112731855693
3929.0,0.0032074349962763725
3928.0,0.003222385839947773
3927.0,0.003226756633106967
3926.0,0.0032222356058381006
3925.0,0.003220999484656327
3924.0,0.0032295608505015626
3923.0,0.0032429906757833974
3922.0,0.00325368361990857
3921.0,0.0032582125860288347
3920.0,0.003254855781623177
3919.0,0.0032426083744438875
3918.0,0.0032241153192211457
3917.0,0.00320530189424891
3916.0,0.003189081499050672
3915.0,0.0031733135880047895
3914.0,0.003155478310107598
3913.0,0.0031391875907565807
3912.0,0.0031332362583392764
3911.0,0.0031457002054723357
3910.0,0.0031787687259781545
3909.0,0.0032269463727888324
3908.0,0.003278361961885012
3907.0,0.003319073040416352
3906.0,0.003344183334997616
3905.0,0.0033624502818012892
3904.0,0.0033806076267610553
3903.0,0.0033892765831857064
3902.0,0.0033741357282191017
3901.0,0.003335412960114658
3900.0,0.0032890908178408755
3899.0,0.0032520627150385414
3898.0,0.0032314433291082967
3897.0,0.003228452310190204
3896.0,0.0032393889608557077
3895.0,0.0032515230963739454
3894.0,0.0032463107757773804
3893.0,0.0032211814255381924
3892.0,0.0031998545510699833
3891.0,0.0032057970153635314
3890.0,0.003236064777810227
3889.0,0.003262203769452395
3888.0,0.003256242747089024
3887.0,0.003230405316572642
3886.0,0.0032298785675080486
3885.0,0.0032709909598238156
3884.0,0.0033171952288569544
3883.0,0.0033215937666223015
3882.0,0.0032757910344869178
3881.0,0.0032187323192544364
3880.0,0.0031931704272518697
3879.0,0.003204995189121672
3878.0,0.003230753672665121
3877.0,0.0032453842913336677
3876.0,0.003248067558750768
3875.0,0.003262771240199018
3874.0,0.0033000900122957108
3873.0,0.0033317970960307355
3872.0,0.0033237105248701323
3871.0,0.0032886252004573546
3870.0,0.0032702587266369536
3869.0,0.003281218273082558
3868.0,0.0032947290880970268
3867.0,0.003286110153506225
3866.0,0.0032605175425898716
3865.0,0.0032426941655711956
3864.0,0.0032407181313431057
3863.0,0.003240999037263121
3862.0,0.003235093885053335
3861.0,0.0032294288893667264
3860.0,0.00323456509987934
3859.0,0.003259423960837022
3858.0,0.0033067973067581946
3857.0,0.0033575394217968107
3856.0,0.0033678597380430277
3855.0,0.003336914485848469
3854.0,0.003326799126704569
3853.0,0.0033482935187671868
3852.0,0.003350337021220935
3851.0,0.003315589113731891
3850.0,0.0032651704512783822
3849.0,0.0032243022697361935
3848.0,0.003205883312007561
3847.0,0.003209795233449513
3846.0,0.0032289930329320064
3845.0,0.0032576623685014513
3844.0,0.003293434843859011
3843.0,0.0033309389075689153
3842.0,0.0033592104264435346
3841.0,0.0033687816879638876
3840.0,0.0033606957669420788
3839.0,0.0033466190044796973
3838.0,0.003337697081648555
3837.0,0.003335351009875161
3836.0,0.0033326396895124646
3835.0,0.0033207784096444086
3834.0,0.003296777902778417
3833.0,0.0032698684156016776
3832.0,0.0032552946479933254
3831.0,0.003259573837258955
3830.0,0.0032732694472700097
3829.0,0.003281092787112528
3828.0,0.003280975257850578
3827.0,0.003289648405780529
3826.0,0.003322237557826232
3825.0,0.0033691617204648873
3824.0,0.0033950360507128095
3823.0,0.0033808108313857074
3822.0,0.0033633912882089067
3821.0,0.0033806604107917155
3820.0,0.003414037800124635
3819.0,0.0034213359801618503
3818.0,0.0033853293085632005
3817.0,0.003336567118464513
3816.0,0.0033170568126329398
3815.0,0.0033237916591392115
3814.0,0.003327764844792228
3813.0,0.0033203329909955153
3812.0,0.0033161176894555182
3811.0,0.00332600267152769
3810.0,0.0033374756174705013
3809.0,0.003333488749686822
3808.0,0.003327858274358531
3807.0,0.0033511260539833033
3806.0,0.003405674891352313
3805.0,0.0034610980356149738
3804.0,0.00348058132252824
3803.0,0.003466010501115997
3802.0,0.003462519701958932
3801.0,0.0034864100875285605
3800.0,0.0035073058710411607
3799.0,0.003499254908286463
3798.0,0.003468293195907457
3797.0,0.003442005837566769
3796.0,0.003436000653728173
3795.0,0.003439912074024493
3794.0,0.003438989097342352
3793.0,0.003432076788060197
3792.0,0.0034272167659796906
3791.0,0.003430565999049353
3790.0,0.0034423386144629524
3789.0,0.003458382667137571
3788.0,0.0034724489448324227
3787.0,0.0034813596969706234
3786.0,0.003489894830370173
3785.0,0.003505917340176686
3784.0,0.0035283117683445504
3783.0,0.0035452423140866513
3782.0,0.003545545277244596
3781.0,0.0035330783050986775
3780.0,0.003525146383602057
3779.0,0.0035309646896450253
3778.0,0.0035420083707229585
3777.0,0.003548760596294196
3776.0,0.0035552140926855694
3775.0,0.003573363196798236
3774.0,0.003605782561517299
3773.0,0.0036383974835311325
3772.0,0.0036584637007192177
3771.0,0.003674943698208904
3770.0,0.003704403510657514
3769.0,0.0037415060480593156
3768.0,0.0037624824469305795
3767.0,0.003756803907834846
3766.0,0.003742722372989624
3765.0,0.0037456482534556816
3764.0,0.003768844805464089
3763.0,0.0037968520314957104
3762.0,0.0038187232614259378
3761.0,0.0038388215694157386
3760.0,0.0038637612107910065
3759.0,0.003889037475603218
3758.0,0.003910026992590678
3757.0,0.0039322152107793195
3756.0,0.003961019144619442
3755.0,0.003992362312150201
3754.0,0.004019759415744604
3753.0,0.004043993115043946
3752.0,0.004070838558208445
3751.0,0.004097866548527699
3750.0,0.004120474744373007
3749.0,0.004146465297207794
3748.0,0.004173572454710819
3747.0,0.004166063302110148
3746.0,0.004119017842404131
3745.0,0.00410371956141796
3744.0,0.004152448043277395
3743.0,0.004214877405812095
3742.0,0.004259131933861337
3741.0,0.004300958061784519
3740.0,0.004360351625116958
3739.0,0.004428119516914788
3738.0,0.00447753670566545
3737.0,0.00450401944551684
3736.0,0.004520624412295864
3735.0,0.004520867462868477
3734.0,0.004495721735821969
3733.0,0.004466513225684065
3732.0,0.004462724638307517
3731.0,0.004490017866516797
3730.0,0.004531195035130498
3729.0,0.004566879581686186
3728.0,0.004596144112356376
3727.0,0.004635635753086804
3726.0,0.0046924441236662956
3725.0,0.004750972809139704
3724.0,0.004791336944365262
3723.0,0.004811046627248597
3722.0,0.004824964113522627
3721.0,0.004849211414585768
3720.0,0.004889397161142513
3719.0,0.0049448426955421895
3718.0,0.005017473922534867
3717.0,0.005108623871249746
3716.0,0.005212227669295114
3715.0,0.005318769964298645
3714.0,0.005429198829878319
3713.0,0.005562117971699562
3712.0,0.005729490119546588
3711.0,0.005908868194153662
3710.0,0.0060708874342495995
3709.0,0.0062162298339399
3708.0,0.00636517728559345
3707.0,0.00653708878393043
3706.0,0.006743364718128384
3705.0,0.006988470978740996
3704.0,0.007276348439677678
3703.0,0.007612505691473681
3702.0,0.007985178036750881
3701.0,0.008349628194527201
3700.0,0.008658679064579644
3699.0,0.008898437608291992
3698.0,0.009081459111699748
3697.0,0.00922054276554621
3696.0,0.009314652693533328
3695.0,0.009359785424622858
3694.0,0.009363363221968974
3693.0,0.009337581109904828
3692.0,0.00928258118669973
3691.0,0.009190331878230472
3690.0,0.009072388852938137
3689.0,0.008963631168803195
3688.0,0.00888735553289428
3687.0,0.00883945345043548
3686.0,0.00880959146048194
3685.0,0.00879765817948743
3684.0,0.00881033505204255
3683.0,0.008850167970266488
3682.0,0.008917407047547904
3681.0,0.009020577288104969
3680.0,0.009165307158535115
3679.0,0.009332162020267019
3678.0,0.009484282762053516
3677.0,0.00963190499539927
3676.0,0.009826417327353612
3675.0,0.010046731525647465
3674.0,0.010230385461136388
3673.0,0.01037044928252006
3672.0,0.010498237948913027
3671.0,0.010667820712842885
3670.0,0.010899137548169449
3669.0,0.011132156402888626
3668.0,0.011318629610616906
3667.0,0.011476463453268046
3666.0,0.011643701093556563
3665.0,0.011840478159962836
3664.0,0.012063881054606117
3663.0,0.012302002906502064
3662.0,0.012550265669029554
3661.0,0.012809845327542863
3660.0,0.013077730023063915
3659.0,0.013349700110451442
3658.0,0.013640132328833295
3657.0,0.01397317248860361
3656.0,0.0143307822074296
3655.0,0.014662479721595782
3654.0,0.014951309732349077
3653.0,0.015221370496596033
3652.0,0.015510289882354346
3651.0,0.015856207646467124
3650.0,0.016258906770445163
3649.0,0.016655255688984325
3648.0,0.016986852064131072
3647.0,0.01725570116101789
3646.0,0.017493432341292806
3645.0,0.01772791819776924
3644.0,0.017978996032111793
3643.0,0.01825922577868751
3642.0,0.01857076701153466
3641.0,0.018905199743009686
3640.0,0.019253936688763504
3639.0,0.019614306939422278
3638.0,0.019981686704581274
3637.0,0.020346407387190825
3636.0,0.020707097969252054
3635.0,0.02107828177605178
3634.0,0.021472356374422626
3633.0,0.02187758627224733
3632.0,0.02226962797761381
3631.0,0.02265635317969563
3630.0,0.023117827146720733
3629.0,0.02367929144185023
3628.0,0.02420793108967712
3627.0,0.024622086796350903
3626.0,0.024988556680039457
3625.0,0.025387392721570687
3624.0,0.025843277321400432
3623.0,0.02633422148098627
3622.0,0.026832527543585283
3621.0,0.027328834059144807
3620.0,0.02781125438141005
3619.0,0.02823565797416685
3618.0,0.02856611428262702
3617.0,0.028824384994959967
3616.0,0.029060284844115658
3615.0,0.02931613625721875
3614.0,0.029613399180441227
3613.0,0.029940237364671857
3612.0,0.030264797696328335
3611.0,0.03057729933446378
3610.0,0.03090701157273041
3609.0,0.031283967015021084
3608.0,0.03168656049278191
3607.0,0.03206008057923851
3606.0,0.032389128452572635
3605.0,0.03270526653900563
3604.0,0.033041130218286724
3603.0,0.03340800462532754
3602.0,0.0338018408985421
3601.0,0.034208409023418665
3600.0,0.03460693404303404
3599.0,0.03498605381026704
3598.0,0.03535623983147481
3597.0,0.035737115354906195
3596.0,0.03613591915837164
3595.0,0.036542931618947096
3594.0,0.03694303554785254
3593.0,0.037328716200500926
3592.0,0.03770032957326582
3591.0,0.03806400390465166
3590.0,0.03843702421071432
3589.0,0.03885005812148922
3588.0,0.039305957241609284
3587.0,0.03974748435522486
3586.0,0.040127815605812495
3585.0,0.04046547750545601
3584.0,0.04079987246568914
3583.0,0.041151829374110105
3582.0,0.04152605699559836
3581.0,0.041918030994860835
3580.0,0.04231724399927738
3579.0,0.042716198973661856
3578.0,0.043118432146163684
3577.0,0.043529830775958046
3576.0,0.04394545221265641
3575.0,0.04435603356387102
3574.0,0.044764315359942346
3573.0,0.04518289772304239
3572.0,0.045615931261335604
3571.0,0.04605413975776996
3570.0,0.04649023939246326
3569.0,0.0469354729603773
3568.0,0.04740450326354434
3567.0,0.047871172990518886
3566.0,0.04828778969592782
3565.0,0.048651457238887905
3564.0,0.04899771192477612
3563.0,0.049357167311540585
3562.0,0.04974170298041501
3561.0,0.05014675813459887
3560.0,0.050558549439477955
3559.0,0.05096852391370394
3558.0,0.05138145434359683
3557.0,0.05180328614189866
3556.0,0.052230237877383595
3555.0,0.05265772811339886
3554.0,0.053092550694881405
3553.0,0.053542029974322315
3552.0,0.05399443300431728
3551.0,0.0544309951037687
3550.0,0.05485296172900031
3549.0,0.05527973091871917
3548.0,0.05572558764703893
3547.0,0.0561859289424635
3546.0,0.0566433182009675
3545.0,0.05708228260391411
3544.0,0.05749916967353116
3543.0,0.05790367149739133
3542.0,0.05831292115933421
3541.0,0.05873839439900078
3540.0,0.0591780758650224
3539.0,0.05962499071414194
3538.0,0.06007910083372486
3537.0,0.060540764258648266
3536.0,0.060997835549345084
3535.0,0.06143598204832118
3534.0,0.06185894914090055
3533.0,0.06228482511849731
3532.0,0.06272583100938235
3531.0,0.06318271165039849
3530.0,0.06365450237934421
3529.0,0.06413836151663661
3528.0,0.0646193883690864
3527.0,0.06507916777159269
3526.0,0.06551786687687772
3525.0,0.06595357154466011
3524.0,0.06639653856829628
3523.0,0.06683721434897652
3522.0,0.06726517989561862
3521.0,0.06768541307105595
3520.0,0.06811015052532288
3519.0,0.06854558287562551
3518.0,0.06898991191135388
3517.0,0.06943775628813746
3516.0,0.06988472433124006
3515.0,0.0703320559881002
3514.0,0.07078605639346441
3513.0,0.07124999175390469
3512.0,0.0717196832168994
3511.0,0.07219045296359167
3510.0,0.07266200274492934
3509.0,0.07313102880894692
3508.0,0.07358900497037958
3507.0,0.07403675651833344
3506.0,0.07449255544012494
3505.0,0.07497493912283987
3504.0,0.07547803560247164
3503.0,0.07597316258555287
3502.0,0.07643927381451825
3501.0,0.07688105493642194
3500.0,0.07731589807263153
3499.0,0.07775962476616505
3498.0,0.07822331682737957
3497.0,0.0787069040785023
3496.0,0.07919522324008116
3495.0,0.07967132885659368
3494.0,0.08013358421669048
3493.0,0.0805922217721842
3492.0,0.08105413723721074
3491.0,0.081521273161738
3490.0,0.0819984149553719
3489.0,0.0824881647279125
3488.0,0.08297997847367394
3487.0,0.08345831737909946
3486.0,0.0839224369107478
3485.0,0.08438729170405196
3484.0,0.08486566220023008
3483.0,0.085357444412067
3482.0,0.08585332501294435
3481.0,0.08634109038669352
3480.0,0.08681139733226964
3479.0,0.08726632568081844
3478.0,0.08771980827307582
3477.0,0.08818305162590527
3476.0,0.08865305973601824
3475.0,0.08912165382249751
3474.0,0.0895902394725959
3473.0,0.09006554793551741
3472.0,0.09054580976738144
3471.0,0.09102301214166057
3470.0,0.09149558074224544
3469.0,0.09196759756733902
3468.0,0.09243768700609338
3467.0,0.09289910348088136
3466.0,0.09335003154332984
3465.0,0.0937949898515862
3464.0,0.0942383942475955
3463.0,0.0946841393837657
3462.0,0.09513635620115506
3461.0,0.0955923371392236
3460.0,0.09604023257960453
3459.0,0.09647325418760766
3458.0,0.09690108796304137
3457.0,0.0973373777138402
3456.0,0.0977816024164277
3455.0,0.09822358519748717
3454.0,0.09865990896769841
3453.0,0.09909457642923004
3452.0,0.09952853169612934
3451.0,0.099961372869043
3450.0,0.10040002799446442
3449.0,0.10085212365985359
3448.0,0.10130973842758965
3447.0,0.10175260069840779
3446.0,0.10217218744321187
3445.0,0.10258056650645941
3444.0,0.10299227201878491
3443.0,0.1034095714839965
3442.0,0.10382654760865614
3441.0,0.1042388592690138
3440.0,0.1046483093189056
3439.0,0.1050613981459817
3438.0,0.1054828112702734
3437.0,0.1059072226293348
3436.0,0.10632056595129422
3435.0,0.10671432134947859
3434.0,0.10709457982801121
3433.0,0.10747226202708833
3432.0,0.10784956831279559
3431.0,0.1082221993045785
3430.0,0.10858917108634733
3429.0,0.10895252851147555
3428.0,0.10931161304652207
3427.0,0.1096653419913296
3426.0,0.11001692478248433
3425.0,0.11036982334870184
3424.0,0.11072285424803645
3423.0,0.1110745769192988
3422.0,0.11142698694384916
3421.0,0.11177860103772083
3420.0,0.11212080312128804
3419.0,0.11244950022963826
3418.0,0.1127739453833848
3417.0,0.11310585844263779
3416.0,0.11344515878680601
3415.0,0.11378302786376684
3414.0,0.11411349136833658
3413.0,0.11443473216460505
3412.0,0.11474461608341745
3411.0,0.1150433214697316
3410.0,0.11533615027129597
3409.0,0.11562674170383198
3408.0,0.11591233983651163
3407.0,0.11619206222553374
3406.0,0.11647349288547929
3405.0,0.11676332181215682
3404.0,0.11705681268126174
3403.0,0.11734368918998156
3402.0,0.11761913466943656
3401.0,0.11788226546698624
3400.0,0.1181304410601128
3399.0,0.11836408853420177
3398.0,0.11859192458421478
3397.0,0.11882302301362549
3396.0,0.11905798371331323
3395.0,0.11929382705602025
3394.0,0.11953058342772648
3393.0,0.11976527726308928
3392.0,0.11998702386773787
3391.0,0.12018818771629602
3390.0,0.12037488900258474
3389.0,0.12055830700204774
3388.0,0.12074146781085963
3387.0,0.12092170936454627
3386.0,0.12109979300384145
3385.0,0.12127761980362509
3384.0,0.12145153753649027
3383.0,0.12161709485144108
3382.0,0.12177652679381602
3381.0,0.12193400516271155
3380.0,0.12208769824738519
3379.0,0.12223313066749524
3378.0,0.1223699432395003
3377.0,0.12249915094788785
3376.0,0.12261925168297558
3375.0,0.12273203124258902
3374.0,0.1228464147883215
3373.0,0.12296863604698145
3372.0,0.12309278828174704
3371.0,0.12320733779044053
3370.0,0.12330685533797113
3369.0,0.12339234559087763
3368.0,0.12346571929090938
3367.0,0.12353035779816292
3366.0,0.12359151143500481
3365.0,0.12364940000517585
3364.0,0.12369723326906694
3363.0,0.12373195927059003
3362.0,0.12376111449677311
3361.0,0.12379299489957012
3360.0,0.12382601042617211
3359.0,0.12385391249102663
3358.0,0.12387497646951313
3357.0,0.12388894902994213
3356.0,0.12389206918207628
3355.0,0.1238842116770236
3354.0,0.12387524280884954
3353.0,0.12387500945852217
3352.0,0.12388034644449766
3351.0,0.12387870966547053
3350.0,0.1238611066823476
3349.0,0.12382555591346993
3348.0,0.1237732015111268
3347.0,0.1237092590733341
3346.0,0.12364395607553322
3345.0,0.12358363263352201
3344.0,0.12352217272271504
3343.0,0.12344768099714216
3342.0,0.12335586061757056
3341.0,0.12325212718676277
3340.0,0.12314357114829107
3339.0,0.12303395637013934
3338.0,0.12292373301211199
3337.0,0.1228092651367761
3336.0,0.12268399566753695
3335.0,0.12254518253139204
3334.0,0.12239784559568108
3333.0,0.12224906805206834
3332.0,0.122101590858232
3331.0,0.12195557465908613
3330.0,0.12181179123987354
3329.0,0.12166896988698603
3328.0,0.12152200830966328
3327.0,0.12136720242549709
3326.0,0.1212062879435386
3325.0,0.12104189936305525
3324.0,0.12087294273523176
3323.0,0.12069862479231121
3322.0,0.1205233458369593
3321.0,0.12035283151884144
3320.0,0.12018742925877049
3319.0,0.12002249102029196
3318.0,0.11985333049175621
3317.0,0.11967792243639813
3316.0,0.1194979013392243
3315.0,0.11931898158665293
3314.0,0.11914729965680243
3313.0,0.11898363534916266
3312.0,0.11882394081878034
3311.0,0.11866548821295021
3310.0,0.11850768841219556
3309.0,0.11834681883743
3308.0,0.11817717271445873
3307.0,0.11799999875003517
3306.0,0.1178247515146984
3305.0,0.1176578171488335
3304.0,0.11749492055502324
3303.0,0.11732759502147787
3302.0,0.1171526580894642
3301.0,0.11697299343155358
3300.0,0.11679398880698424
3299.0,0.11662178911310889
3298.0,0.11645983607868729
3297.0,0.11630407970092684
3296.0,0.11614580440250533
3295.0,0.11598090925306899
3294.0,0.11581165771390368
3293.0,0.1156385769909406
3292.0,0.11545752791775785
3291.0,0.11526736655100331
3290.0,0.11507375245266585
3289.0,0.11488173069381828
3288.0,0.1146904259022731
3287.0,0.11449874681127593
3286.0,0.11431032758148944
3285.0,0.11412774115000884
3284.0,0.11394625748009043
3283.0,0.11375844595113171
3282.0,0.11356240088782053
3281.0,0.11336218070986484
3280.0,0.11316321337178646
3279.0,0.11296963828444934
3278.0,0.11278182048234145
3277.0,0.11259325545836055
3276.0,0.11239405374329128
3275.0,0.11218128846804444
3274.0,0.1119627736545074
3273.0,0.11174771372861292
3272.0,0.11153704956206544
3271.0,0.11132549750170707
3270.0,0.11110900719585823
3269.0,0.11088706909182591
3268.0,0.11066096112071272
3267.0,0.1104328475227933
3266.0,0.1102043475157454
3265.0,0.10997400079915652
3264.0,0.10973865171235227
3263.0,0.10949841930487052
3262.0,0.10925680794848214
3261.0,0.10901476140379761
3260.0,0.10876904923432168
3259.0,0.10851874619795675
3258.0,0.10826914095442132
3257.0,0.10802564316738632
3256.0,0.10778594436978714
3255.0,0.10754116532200841
3254.0,0.10728426261829088
3253.0,0.10701660332005791
3252.0,0.10674733159509218
3251.0,0.1064860618162272
3250.0,0.10623424621240539
3249.0,0.10598394133210509
3248.0,0.10572668324017252
3247.0,0.10546174530290943
3246.0,0.10519269600111439
3245.0,0.10491895502248039
3244.0,0.10463719209932167
3243.0,0.10434995449830207
3242.0,0.10406535267452353
3241.0,0.10378696570211755
3240.0,0.10351005427099172
3239.0,0.10322916119643889
3238.0,0.10294407019897615
3237.0,0.10265659461010815
3236.0,0.10236686900148427
3235.0,0.10207527290102095
3234.0,0.1017832522337939
3233.0,0.10148952124672936
3232.0,0.10118955515472049
3231.0,0.10088145647749251
3230.0,0.10056863751138885
3229.0,0.10025431981573728
3228.0,0.09993691781855832
3227.0,0.0996134742842286
3226.0,0.09928481930656018
3225.0,0.09895490554187235
3224.0,0.0986270271974873
3223.0,0.09830183597916564
3222.0,0.09797636365762709
3221.0,0.09764403396501058
3220.0,0.09729919924241325
3219.0,0.09694354245370848
3218.0,0.09658502016118281
3217.0,0.09622890660953047
3216.0,0.0958728234650971
3215.0,0.09551191176309387
3214.0,0.09514557883571415
3213.0,0.09477652183488752
3212.0,0.09440543288878751
3211.0,0.09403002457175358
3210.0,0.09364875468071383
3209.0,0.0932633460863667
3208.0,0.09287776141118642
3207.0,0.09249616105119778
3206.0,0.09212169186801095
3205.0,0.09175501402346994
3204.0,0.09139171261322755
3203.0,0.09102103652461475
3202.0,0.09063035125406009
3201.0,0.09021492341880792
3200.0,0.08978390373349948
3199.0,0.08935340067531027
3198.0,0.08893185236540986
3197.0,0.08851451172890795
3196.0,0.08809306646468194
3195.0,0.08766608179215689
3194.0,0.08723757684731814
3193.0,0.08681050148417375
3192.0,0.08638601415409468
3191.0,0.08596534927820368
3190.0,0.08554695608462744
3189.0,0.08512398145298247
3188.0,0.08469030530817984
3187.0,0.08424824061703791
3186.0,0.08380529102647728
3185.0,0.0833641693934515
3184.0,0.08292145219829446
3183.0,0.08247571758937476
3182.0,0.08203083801827403
3181.0,0.08158954599441064
3180.0,0.0811485904618557
3179.0,0.08070283647139932
3178.0,0.08025154671400261
3177.0,0.07979880344389591
3176.0,0.07934945650174624
3175.0,0.0789059313667608
3174.0,0.07846767877817958
3173.0,0.07803258607886118
3172.0,0.07759908015346402
3171.0,0.0771663051933954
3170.0,0.07673191183267303
3169.0,0.07629217850911717
3168.0,0.07584675457014654
3167.0,0.07540108236581033
3166.0,0.07496092025574712
3165.0,0.07452619826822111
3164.0,0.07409330931475837
3163.0,0.07366144648750222
3162.0,0.07323287757411989
3161.0,0.07280825381074117
3160.0,0.0723860218626467
3159.0,0.07196598566329956
3158.0,0.07154912020610031
3157.0,0.07113409899113016
3156.0,0.0707184430504861
3155.0,0.07030322680047402
3154.0,0.06989221088080735
3153.0,0.06948575755993495
3152.0,0.06907957270901574
3151.0,0.06867039789701931
3150.0,0.06825958786147998
3149.0,0.06784992596584613
3148.0,0.06744226359970022
3147.0,0.06703663627752719
3146.0,0.06663352478784995
3145.0,0.06623280130141945
3144.0,0.06583420361933412
3143.0,0.06543956034202764
3142.0,0.06505150558104768
3141.0,0.0646690883429633
3140.0,0.06428770169597216
3139.0,0.06390482882613094
3138.0,0.0635230017356885
3137.0,0.06314549938498301
3136.0,0.06277199953113541
3135.0,0.06239991446910771
3134.0,0.06202741491201069
3133.0,0.06165412247422092
3132.0,0.0612814928210224
3131.0,0.06091372515772668
3130.0,0.06055526112417416
3129.0,0.06020530819486236
3128.0,0.05985712914029423
3127.0,0.059504675251144196
3126.0,0.05914785713747285
3125.0,0.058790111061184945
3124.0,0.05843381075048374
3123.0,0.05808053529675388
3122.0,0.05773361694025848
3121.0,0.057396675479088
3120.0,0.057069781014975354
3119.0,0.05674891968557333
3118.0,0.056428691641125746
3117.0,0.056105009848650605
3116.0,0.055777085293811215
3115.0,0.05544850912963274
3114.0,0.05512529496068642
3113.0,0.054811113539444484
3112.0,0.054504876547438054
3111.0,0.054203167422175645
3110.0,0.053903197967322694
3109.0,0.053602982657556884
3108.0,0.05330101581703235
3107.0,0.052997731106347805
3106.0,0.05269603727166204
3105.0,0.052398782251085414
3104.0,0.05210665283594451
3103.0,0.051819345878933484
3102.0,0.05153704968229964
3101.0,0.051259162126952175
3100.0,0.05098297499581193
3099.0,0.05070575508945951
3098.0,0.050427047298496425
3097.0,0.050147576785200064
3096.0,0.049867596015171704
3095.0,0.04958797240152358
3094.0,0.049311823030447476
3093.0,0.049042815490135255
3092.0,0.048782097739468094
3091.0,0.04852807794645004
3090.0,0.048278007936959584
3089.0,0.04802845972852662
3088.0,0.047775617569954625
3087.0,0.04751747119692138
3086.0,0.047255538733921174
3085.0,0.0469925251787073
3084.0,0.046728861304896833
3083.0,0.04646331485950237
3082.0,0.04619677970898866
3081.0,0.045933273917993955
3080.0,0.045676096707463074
3079.0,0.04542412592558206
3078.0,0.045172605705975886
3077.0,0.04491730549078675
3076.0,0.04465781208309776
3075.0,0.04439709955245554
3074.0,0.04413823597713874
3073.0,0.043882089930620184
3072.0,0.0436285461209456
3071.0,0.04337895964480415
3070.0,0.043135611638494054
3069.0,0.04289811622279874
3068.0,0.0426620873714884
3067.0,0.04242227372429384
3066.0,0.04217625312260868
3065.0,0.04192503359271295
3064.0,0.04167149399833778
3063.0,0.04141891003019156
3062.0,0.041169031478785784
3061.0,0.04092043573670022
3060.0,0.04066978861367514
3059.0,0.04041540049833452
3058.0,0.04015808437106873
3057.0,0.039898201639950136
3056.0,0.0396345994773749
3055.0,0.03936762765734702
3054.0,0.039101112913046285
3053.0,0.03883919737859914
3052.0,0.038583132822236355
3051.0,0.03833247002914772
3050.0,0.03808691097142342
3049.0,0.03784476817419084
3048.0,0.037601760412702974
3047.0,0.037354721351165375
3046.0,0.037105213132073024
3045.0,0.03685741164708023
3044.0,0.03661369155701417
3043.0,0.03637483413357739
3042.0,0.03614256389823689
3041.0,0.03591802827684221
3040.0,0.03569825067952264
3039.0,0.03547762766613085
3038.0,0.03525386316109029
3037.0,0.0350302141744733
3036.0,0.03481192889772748
3035.0,0.034602086106881265
3034.0,0.034400430150465365
3033.0,0.03420384108362094
3032.0,0.034007971525392845
3031.0,0.03381042223314578
3030.0,0.033612585852560994
3029.0,0.033416724246135385
3028.0,0.03322216438167308
3027.0,0.03302597360399648
3026.0,0.032826246119215356
3025.0,0.03262255233481568
3024.0,0.0324143367970041
3023.0,0.03220206894069085
3022.0,0.03198980206445151
3021.0,0.031783618480417136
3020.0,0.03158668143019428
3019.0,0.031397904036033555
3018.0,0.031215102447788967
3017.0,0.031037280855957472
3016.0,0.030863943283766862
3015.0,0.030695087244695184
3014.0,0.030532325789981895
3013.0,0.030377660595293596
3012.0,0.030230411422075307
3011.0,0.0300872995587141
3010.0,0.0299455666608652
3009.0,0.029804544407756085
3008.0,0.029664473312371303
3007.0,0.029526332569267687
3006.0,0.029392949117515426
3005.0,0.029268073063808155
3004.0,0.02915330861522221
3003.0,0.029047292955569744
3002.0,0.028947694721986328
3001.0,0.028853095376583197
3000.0,0.028763658483274293
2999.0,0.028682016808903553
2998.0,0.02861287812441523
2997.0,0.02855956754826467
2996.0,0.028521442209446794
2995.0,0.02849677531686573
2994.0,0.02848729359127029
2993.0,0.028497410728525786
2992.0,0.028529140340579778
2991.0,0.028581118759032815
2990.0,0.028652599501806195
2989.0,0.028745686538948
2988.0,0.028863045953444487
2987.0,0.02900679227112358
2986.0,0.029180805781092764
2985.0,0.029391681149457366
2984.0,0.02964593951959298
2983.0,0.029948315686232983
2982.0,0.030303977826947433
2981.0,0.030721067558215295
2980.0,0.031209993819339393
2979.0,0.031781644877899175
2978.0,0.032447352851777904
2977.0,0.0332206609788853
2976.0,0.034118728396520054
2975.0,0.035161731819726046
2974.0,0.036370449174389266
2973.0,0.0377634742453698
2972.0,0.03935466797419627
2971.0,0.041152441560459795
2970.0,0.043159968739136315
2969.0,0.045375186956730554
2968.0,0.047790259538771515
2967.0,0.050387630868551345
2966.0,0.05312953886159117
2965.0,0.05594064437725223
2964.0,0.058697407909926676
2963.0,0.06123721905071687
2962.0,0.06338899362336436
2961.0,0.06502954777868117
2960.0,0.0661357006656197
2959.0,0.0668033230042539
2958.0,0.06722103883875097
2957.0,0.0676167891466004
2956.0,0.06819778026514402
2955.0,0.06908962900823093
2954.0,0.07028754005700713
2953.0,0.07163633743335708
2952.0,0.07285158541610946
2951.0,0.07359055698485302
2950.0,0.07354805373223315
2949.0,0.07254327663658541
2948.0,0.07057925776664065
2947.0,0.06783383776918198
2946.0,0.064604865170284
2945.0,0.061228589036022074
2944.0,0.05801410810771934
2943.0,0.05520096058597785
2942.0,0.05294022598381291
2941.0,0.05130129902087063
2940.0,0.05028562947409149
2939.0,0.04985298931747151
2938.0,0.04994645629624432
2937.0,0.05050765266881429
2936.0,0.05148798576757216
2935.0,0.05285197052266446
2934.0,0.05457128926647106
2933.0,0.056616374432818826
2932.0,0.058950823343782335
2931.0,0.0615287866244232
2930.0,0.06429147824598708
2929.0,0.06716509805021563
2928.0,0.07007084829740041
2927.0,0.07294489572233688
2926.0,0.07575455478034085
2925.0,0.07850175619848046
2924.0,0.08121288512963203
2923.0,0.083906428742703
2922.0,0.08655054100617977
2921.0,0.08902503949849175
2920.0,0.09111718234808197
2919.0,0.09254948104764239
2918.0,0.09305508066352859
2917.0,0.09247912357845989
2916.0,0.09086249729652955
2915.0,0.08844292418026205
2914.0,0.08556309486742462
2913.0,0.08256789724562004
2912.0,0.07972518995671887
2911.0,0.07719023189073111
2910.0,0.07500349758311359
2909.0,0.07311658753008601
2908.0,0.07143246488789352
2907.0,0.0698464129257588
2906.0,0.06827419788635894
2905.0,0.06666292245667069
2904.0,0.06499319895473829
2903.0,0.06327039415206243
2902.0,0.06151433086006013
2901.0,0.05975002909177605
2900.0,0.05800364320765561
2899.0,0.05630248714401264
2898.0,0.05467471861953567
2897.0,0.05314802064759603
2896.0,0.05174586817532285
2895.0,0.050485237957989385
2894.0,0.04937711276967652
2893.0,0.04842755865041498
2892.0,0.047635785350205705
2891.0,0.046991406546712154
2890.0,0.04647725148244951
2889.0,0.046075359880341615
2888.0,0.04577237387702126
2887.0,0.045560308504059524
2886.0,0.045435846569064915
2885.0,0.04540015381230633
2884.0,0.04545781646930566
2883.0,0.045610099422140817
2882.0,0.04584452985914697
2881.0,0.04612433978422935
2880.0,0.04638860247504737
2879.0,0.046562797496104966
2878.0,0.04658508056781617
2877.0,0.046436171563702625
2876.0,0.04615940695233695
2875.0,0.04584878243956486
2874.0,0.04561067491879289
2873.0,0.04552442228143255
2872.0,0.04562320287007565
2871.0,0.04589489009455352
2870.0,0.04628600227798876
2869.0,0.0466947345337945
2868.0,0.04696853214912805
2867.0,0.04692637476913924
2866.0,0.0464086041548685
2865.0,0.04534387843405783
2864.0,0.04379329018007107
2863.0,0.04194386474743081
2862.0,0.04004665671773837
2861.0,0.03833807906883605
2860.0,0.03698151921114146
2859.0,0.03605431799732913
2858.0,0.03557041097459076
2857.0,0.03550873901077288
2856.0,0.03583164801727867
2855.0,0.03649165172483004
2854.0,0.03742117305968716
2853.0,0.03851210168843513
2852.0,0.03959224621811544
2851.0,0.04044853179905093
2850.0,0.04090031759199391
2849.0,0.040908885544667664
2848.0,0.040619513473600086
2847.0,0.040305402022480334
2846.0,0.0402301329718755
2845.0,0.04054572082589537
2844.0,0.04126569226040284
2843.0,0.04229516618141227
2842.0,0.043475714407282755
2841.0,0.04461408521355265
2840.0,0.0455069052409817
2839.0,0.04596412242157833
2838.0,0.045834503915870656
2837.0,0.04502919620646184
2836.0,0.043548859606912904
2835.0,0.041496494149027514
2834.0,0.039062936653067246
2833.0,0.03647951730565629
2832.0,0.03395740733375131
2831.0,0.031645623651573584
2830.0,0.029619306405789275
2829.0,0.02789058727221637
2828.0,0.026432368043052757
2827.0,0.02519976984779434
2826.0,0.024149743608542135
2825.0,0.02324617380444565
2824.0,0.022458741414886428
2823.0,0.021762292716382733
2822.0,0.02113979179215654
2821.0,0.02058083573417619
2820.0,0.020077332210271647
2819.0,0.0196210891905992
2818.0,0.01920579817103976
2817.0,0.018826461693293713
2816.0,0.018476970085126325
2815.0,0.018150411922526616
2814.0,0.017842728032726726
2813.0,0.017552971620766352
2812.0,0.01728006399723797
2811.0,0.01702064315484864
2810.0,0.016770016463419805
2809.0,0.016522423382406334
2808.0,0.016271080405731907
2807.0,0.01601114447948235
2806.0,0.01574334781775894
2805.0,0.015472731317458806
2804.0,0.015204783890195956
2803.0,0.014944621541025266
2802.0,0.014698997727103291
2801.0,0.014474616293722521
2800.0,0.01427382077454977
2799.0,0.014093739352237051
2798.0,0.013929273361122688
2797.0,0.01377503821760398
2796.0,0.013624976142972357
2795.0,0.013473654110572256
2794.0,0.013317862492311367
2793.0,0.013155470360245803
2792.0,0.012984060581823912
2791.0,0.01280376677113253
2790.0,0.012620329277217214
2789.0,0.012441411898366825
2788.0,0.01227013399190584
2787.0,0.01210456746430586
2786.0,0.011942756060291946
2785.0,0.01178521930465915
2784.0,0.011632954704393662
2783.0,0.011486536125379672
2782.0,0.011347178948664143
2781.0,0.011215668402278106
2780.0,0.011090334841408832
2779.0,0.0109687276359096
2778.0,0.010850994389555547
2777.0,0.010739162358442406
2776.0,0.010633975103188878
2775.0,0.010535010654597887
2774.0,0.010442835848550646
2773.0,0.010357782037425477
2772.0,0.01027722098281258
2771.0,0.010197284513012595
2770.0,0.010117161616468482
2769.0,0.010038885063752065
2768.0,0.009963622000192757
2767.0,0.009890906319427956
2766.0,0.009820788431206446
2765.0,0.009753629568868407
2764.0,0.009688219083827602
2763.0,0.009622644069434865
2762.0,0.009556589120258557
2761.0,0.009490597312418253
2760.0,0.00942440358742781
2759.0,0.009358580949451108
2758.0,0.009296193183323864
2757.0,0.00923953538459853
2756.0,0.009186614838442315
2755.0,0.009133941030051728
2754.0,0.009081530432080062
2753.0,0.009031815369481805
2752.0,0.008984969589365257
2751.0,0.008938865982117829
2750.0,0.008892966787115986
2749.0,0.00884898175131465
2748.0,0.00880825577381002
2747.0,0.008771416906624772
2746.0,0.008739539478306463
2745.0,0.008712841001488673
2744.0,0.008689413046556583
2743.0,0.008667989771210681
2742.0,0.00865050684027741
2741.0,0.008639010208626055
2740.0,0.008631830781481827
2739.0,0.00862608083954119
2738.0,0.008621960479900883
2737.0,0.008621032817105915
2736.0,0.008622103942060734
2735.0,0.008622910652388358
2734.0,0.00862474127193366
2733.0,0.008631363586946968
2732.0,0.008644020249708149
2731.0,0.008661045133276061
2730.0,0.008681569328551197
2729.0,0.00870649434304705
2728.0,0.008736706939265272
2727.0,0.008772582297524412
2726.0,0.008812951667942388
2725.0,0.00885110097464803
2724.0,0.0088738313386171
2723.0,0.008868597281310724
2722.0,0.008831173217989763
2721.0,0.008764366501969418
2720.0,0.00867250214665823
2719.0,0.00856154873862087
2718.0,0.008441625369908865
2717.0,0.008323216736036837
2716.0,0.0082113930536953
2715.0,0.008106902208413744
2714.0,0.008010844351430362
2713.0,0.007923983617782553
2712.0,0.007843173178677347
2711.0,0.007763899156556273
2710.0,0.007685791066016107
2709.0,0.007611320114508255
2708.0,0.00754055427242757
2707.0,0.007472129485143281
2706.0,0.007407966275921883
2705.0,0.007351502936813223
2704.0,0.00730125811208738
2703.0,0.007251348329009556
2702.0,0.007198651273605209
2701.0,0.007145457648793379
2700.0,0.00709504768784493
2699.0,0.007048812981684305
2698.0,0.00700762585404189
2697.0,0.006972029678957476
2696.0,0.006940681140030793
2695.0,0.006911678695371724
2694.0,0.006885159651531565
2693.0,0.006861893651969837
2692.0,0.006840631023948594
2691.0,0.00681986673387494
2690.0,0.00680027939672252
2689.0,0.006781822204447547
2688.0,0.006760553114763314
2687.0,0.006732935690870871
2686.0,0.006701717128829132
2685.0,0.0066730427533289415
2684.0,0.0066490895654869155
2683.0,0.006627817884863825
2682.0,0.006608256842530979
2681.0,0.006590968348619368
2680.0,0.00657438152340146
2679.0,0.006555929584230657
2678.0,0.006535906265584282
2677.0,0.006515564131322232
2676.0,0.006492536868263416
2675.0,0.006463537038679605
2674.0,0.006431068669687646
2673.0,0.0064019581941279005
2672.0,0.006379118724295195
2671.0,0.006359523655835484
2670.0,0.006340212381923914
2669.0,0.00632147773765543
2668.0,0.006303923956257993
2667.0,0.006287655269123715
2666.0,0.006275153875568072
2665.0,0.006270551192734799
2664.0,0.0062744656413455235
2663.0,0.0062827926741034065
2662.0,0.006290809421487975
2661.0,0.006295625356713523
2660.0,0.006294908587607257
2659.0,0.006287092311957172
2658.0,0.006273429978927899
2657.0,0.00625682637229504
2656.0,0.006238553756364964
2655.0,0.0062185986012145665
2654.0,0.006198132184427351
2653.0,0.006178399003863017
2652.0,0.006158094883205776
2651.0,0.006135590000262295
2650.0,0.006112785109365049
2649.0,0.00609310423597012
2648.0,0.006076438631908877
2647.0,0.006059776321305259
2646.0,0.006041599939186217
2645.0,0.006021957616330951
2644.0,0.0059997935525627644
2643.0,0.005974625070355114
2642.0,0.005949657728818832
2641.0,0.005928539469795659
2640.0,0.005910050023641985
2639.0,0.005890466421829948
2638.0,0.005869996090823257
2637.0,0.005852138630892058
2636.0,0.005837834777011061
2635.0,0.005825152637414904
2634.0,0.005813802198551033
2633.0,0.005804974177246714
2632.0,0.005797457925845669
2631.0,0.005788820258873185
2630.0,0.0057798390063155515
2629.0,0.005773456797248829
2628.0,0.005770088425705569
2627.0,0.0057679593962444995
2626.0,0.005766439314258325
2625.0,0.005764865754678231
2624.0,0.005760224027557857
2623.0,0.005750755210891881
2622.0,0.005739663575523503
2621.0,0.005730683223921519
2620.0,0.005722392698237948
2619.0,0.0057118237496422185
2618.0,0.005700320364565105
2617.0,0.005690034152363877
2616.0,0.005678186880321514
2615.0,0.005661435557492618
2614.0,0.005642789100484696
2613.0,0.00562657719930441
2612.0,0.005609236292234065
2611.0,0.005583011676158065
2610.0,0.0055471137310551056
2609.0,0.0055078876562393905
2608.0,0.005469553876820963
2607.0,0.0054322537516139835
2606.0,0.005397672178097767
2605.0,0.0053686784933395845
2604.0,0.0053441832021044085
2603.0,0.005321266501651328
2602.0,0.005300966707733308
2601.0,0.005285107208247432
2600.0,0.005269602693731492
2599.0,0.005248867901555586
2598.0,0.005225320147100478
2597.0,0.005206867400856069
2596.0,0.005196312287856326
2595.0,0.005190539053623297
2594.0,0.005188385235034481
2593.0,0.005191036501856471
2592.0,0.0051960420561957136
2591.0,0.00519924508034368
2590.0,0.0052019930140664505
2589.0,0.005209217335812518
2588.0,0.005221426331244069
2587.0,0.005235587166940546
2586.0,0.005251759322997684
2585.0,0.005271138435247289
2584.0,0.005289180931576886
2583.0,0.00529835162854211
2582.0,0.005296358371600508
2581.0,0.005284948640945437
2580.0,0.005263243813200468
2579.0,0.005230186782908097
2578.0,0.005191155760087957
2577.0,0.0051538949891053185
2576.0,0.005119572550669427
2575.0,0.005085119916591788
2574.0,0.005051568447482705
2573.0,0.005021829388487058
2572.0,0.004993069685575535
2571.0,0.004960176367006
2570.0,0.004924635067281164
2569.0,0.0048917724417693025
2568.0,0.004862036479601774
2567.0,0.004833452254694623
2566.0,0.004809505504373353
2565.0,0.0047949610414689025
2564.0,0.004786255066888426
2563.0,0.004775552651901454
2562.0,0.004762177412305196
2561.0,0.004750963602097665
2560.0,0.00474188466604914
2559.0,0.004730740087816584
2558.0,0.00471791540939834
2557.0,0.004706926345501742
2556.0,0.004696294028833282
2555.0,0.004681921001366644
2554.0,0.00466524806713547
2553.0,0.00464986320931768
2552.0,0.004632750074503063
2551.0,0.004608672295779683
2550.0,0.004580776659144956
2549.0,0.004557276670868292
2548.0,0.0045398638545827924
2547.0,0.00452469055713991
2546.0,0.004512057793096245
2545.0,0.0045050160790081305
2544.0,0.0045006078794752906
2543.0,0.004492364037724907
2542.0,0.004479749218031472
2541.0,0.004466668783650554
2540.0,0.00445382399314882
2539.0,0.004441640013660281
2538.0,0.004436278778607019
2537.0,0.004441947335603216
2536.0,0.004450843588294569
2535.0,0.004451622921655733
2534.0,0.004444593793038781
2533.0,0.004437790182367971
2532.0,0.004431972442107312
2531.0,0.0044219306021441385
2530.0,0.004409548992183696
2529.0,0.004402354907236779
2528.0,0.004400238957975526
2527.0,0.004395579665941057
2526.0,0.00438610332071221
2525.0,0.0043766809982141285
2524.0,0.004369204373932223
2523.0,0.004361372122141044
2522.0,0.004354516713553305
2521.0,0.004352273375994769
2520.0,0.00435240129222189
2519.0,0.0043493010580194875
2518.0,0.004342909101730381
2517.0,0.004336149243612282
2516.0,0.004326720177156671
2515.0,0.0043116053941845926
2514.0,0.004296339841558475
2513.0,0.004288623565553181
2512.0,0.004285573664438947
2511.0,0.00427839103148514
2510.0,0.00426684426467508
2509.0,0.004257943087542407
2508.0,0.004252906933118794
2507.0,0.004247014160022013
2506.0,0.004240195082557024
2505.0,0.004236292865041771
2504.0,0.004233723005544912
2503.0,0.004227957523704561
2502.0,0.004221042949739176
2501.0,0.004217783899093723
2500.0,0.004215439828782072
2499.0,0.004208511268436386
2498.0,0.004200458732601209
2497.0,0.004198529682988262
2496.0,0.004199837074469885
2495.0,0.004195274252169457
2494.0,0.0041850454189822734
2493.0,0.0041776593911718694
2492.0,0.004175422382106735
2491.0,0.004173683469032763
2490.0,0.004172574712205939
2489.0,0.004176148487744676
2488.0,0.00418097179624964
2487.0,0.004178733931813659
2486.0,0.0041696938125378846
2485.0,0.004161200282889342
2484.0,0.00415386286080479
2483.0,0.004141925020480525
2482.0,0.004126715607337773
2481.0,0.004116693240448571
2480.0,0.0041135610251225785
2479.0,0.004110443469721397
2478.0,0.004104623005027099
2477.0,0.00410062256289088
2476.0,0.00409983227326525
2475.0,0.004098070891476052
2474.0,0.004094379574602643
2473.0,0.004092161101921352
2472.0,0.004091293298017919
2471.0,0.004088638201956089
2470.0,0.004085735462828819
2469.0,0.004086437696421382
2468.0,0.004088325035582166
2467.0,0.0040864722992624645
2466.0,0.004083926917921642
2465.0,0.0040878223004073705
2464.0,0.004096725841674718
2463.0,0.0041027498461352445
2462.0,0.00410489608688079
2461.0,0.004109558794611398
2460.0,0.0041192081709336475
2459.0,0.0041312737088821
2458.0,0.004146390904281106
2457.0,0.0041663064744838505
2456.0,0.00418489188002882
2455.0,0.004192734458938635
2454.0,0.0041902627188034084
2453.0,0.004186131590606297
2452.0,0.004183976112361941
2451.0,0.004181275936788459
2450.0,0.004179470867904947
2449.0,0.0041836072766238625
2448.0,0.0041926628365251675
2447.0,0.004200784575114104
2446.0,0.004206803798831084
2445.0,0.004212433325883713
2444.0,0.004213835177322842
2443.0,0.0042064578748416855
2442.0,0.004196055602816026
2441.0,0.004193356361514443
2440.0,0.004199573233451244
2439.0,0.004208013134569414
2438.0,0.004216915817603597
2437.0,0.00422858736854389
2436.0,0.004238962944060969
2435.0,0.004241515829695295
2434.0,0.0042398232353189165
2433.0,0.0042431649917426114
2432.0,0.004250873827229633
2431.0,0.004254012387374647
2430.0,0.00425150408736585
2429.0,0.004251280355141491
2428.0,0.004255640450184194
2427.0,0.004258362316147147
2426.0,0.0042568304020950045
2425.0,0.0042551132576460916
2424.0,0.004254438688154955
2423.0,0.004251621607465361
2422.0,0.004247091982145245
2421.0,0.004244002503570547
2420.0,0.004240074096005856
2419.0,0.004230918860367189
2418.0,0.004220320770106669
2417.0,0.004216700627451697
2416.0,0.0042207393051453945
2415.0,0.004226608998286326
2414.0,0.0042333105593251865
2413.0,0.004243887641618894
2412.0,0.004255296184877014
2411.0,0.004260106652046633
2410.0,0.00425686654755099
2409.0,0.004248813468056829
2408.0,0.00423533192036234
2407.0,0.004216104773594557
2406.0,0.0042003233596509095
2405.0,0.004198480698278331
2404.0,0.004206921066103807
2403.0,0.004212874939196245
2402.0,0.0042125773783488855
2401.0,0.0042122446614523135
2400.0,0.004213624795388513
2399.0,0.004212141840389226
2398.0,0.004208740610196855
2397.0,0.004210362537807296
2396.0,0.004217718987134895
2395.0,0.004224077427170831
2394.0,0.004226513013450447
2393.0,0.004227472658503189
2392.0,0.004225934145980408
2391.0,0.004218247004177696
2390.0,0.0042074649418461325
2389.0,0.004201219556902666
2388.0,0.0042002630378705315
2387.0,0.004199015856398755
2386.0,0.004196658737681989
2385.0,0.004196971582996865
2384.0,0.004197550255065052
2383.0,0.004190236427971281
2382.0,0.004173141849525892
2381.0,0.004151876493996466
2380.0,0.00412748485027104
2379.0,0.004095059520858964
2378.0,0.004057888095014372
2377.0,0.0040293427372924
2376.0,0.004015347184503428
2375.0,0.0040089094117078325
2374.0,0.004007235790635869
2373.0,0.004017383891807653
2372.0,0.004038266442896054
2371.0,0.004056865538788499
2370.0,0.004070540659982028
2369.0,0.0040887401841021315
2368.0,0.00410631490181872
2367.0,0.004106579957968553
2366.0,0.004096897373947999
2365.0,0.004102449986606196
2364.0,0.004119393300491584
2363.0,0.004122248177850433
2362.0,0.004119021637546612
2361.0,0.004141881459046983
2360.0,0.004184169258777183
2359.0,0.004208765469701071
2358.0,0.0042122259414915895
2357.0,0.0042182606709387435
2356.0,0.0042235551560112
2355.0,0.004207399486396851
2354.0,0.0041757492250430895
2353.0,0.004151714398016817
2352.0,0.00414372518250806
2351.0,0.004150163017690376
2350.0,0.004170975198241511
2349.0,0.0042015639044254175
2348.0,0.0042277295360540834
2347.0,0.004235690609749481
2346.0,0.004231456882669753
2345.0,0.004238053558242935
2344.0,0.004263729904997145
2343.0,0.004289323090516539
2342.0,0.0043031330416051
2341.0,0.004315001178413165
2340.0,0.00432759630802477
2339.0,0.00433229643167759
2338.0,0.004332908527976831
2337.0,0.004343318643530898
2336.0,0.004358406891130729
2335.0,0.004358776191865703
2334.0,0.0043425768318127835
2333.0,0.004328710370123076
2332.0,0.0043277451603666
2331.0,0.004334793823765186
2330.0,0.004350115650010477
2329.0,0.004386794485534052
2328.0,0.004453180286127521
2327.0,0.004547742141385193
2326.0,0.004663511908318334
2325.0,0.004776095337658244
2324.0,0.004841358846901363
2323.0,0.004829542041977357
2322.0,0.004765254890313447
2321.0,0.004702593580696084
2320.0,0.004665588535894754
2319.0,0.004642459443232892
2318.0,0.004623896361582954
2317.0,0.004614425149385785
2316.0,0.00461093712888823
2315.0,0.004603746685725659
2314.0,0.004594659389058968
2313.0,0.004593800265323889
2312.0,0.004597801301074405
2311.0,0.004595004422917882
2310.0,0.004588869850097988
2309.0,0.00459390004490424
2308.0,0.004609444109495684
2307.0,0.0046206687063472685
2306.0,0.004623732942682913
2305.0,0.004629478211946857
2304.0,0.004642776781038356
2303.0,0.004658045955075574
2302.0,0.004674532470792511
2301.0,0.004697346733243908
2300.0,0.004721842872676338
2299.0,0.004735567909793643
2298.0,0.004738026174866619
2297.0,0.004741711535040053
2296.0,0.0047524299243972236
2295.0,0.004765163820761666
2294.0,0.004780315296607094
2293.0,0.004805899087227879
2292.0,0.004841285172820584
2291.0,0.0048749084270805695
2290.0,0.004901347210295871
2289.0,0.004925697309261052
2288.0,0.004949650171477517
2287.0,0.0049676443819775635
2286.0,0.0049781895148022426
2285.0,0.004983936969298509
2284.0,0.0049805231942872535
2283.0,0.004961520025481973
2282.0,0.004934692704311702
2281.0,0.004916671460527853
2280.0,0.004910588501613879
2279.0,0.004906336987874994
2278.0,0.0049013280944235765
2277.0,0.004901109079280229
2276.0,0.004900353627048466
2275.0,0.004886292565428008
2274.0,0.004862276560436725
2273.0,0.004845617272798507
2272.0,0.0048415528816199965
2271.0,0.004840856133029454
2270.0,0.0048421103196187075
2269.0,0.0048505262693694364
2268.0,0.004855693202601663
2267.0,0.004838836790462463
2266.0,0.0048044400688431145
2265.0,0.0047783572602534494
2264.0,0.0047716766208004135
2263.0,0.004773106813150458
2262.0,0.004777938869018297
2261.0,0.0047951190193808845
2260.0,0.004822183146884456
2259.0,0.004841533599860438
2258.0,0.004846731915463667
2257.0,0.00484610318829344
2256.0,0.004837799629250606
2255.0,0.00481029684715004
2254.0,0.004771449676273302
2253.0,0.004747380143719129
2252.0,0.004746343774886154
2251.0,0.004751049380037764
2250.0,0.004751354230698668
2249.0,0.00475518089440649
2248.0,0.004763045894050321
2247.0,0.004761387227598625
2246.0,0.004748174818038414
2245.0,0.004739206220751033
2244.0,0.004742163374724845
2243.0,0.004749262270824638
2242.0,0.004758803129564421
2241.0,0.004776830936995696
2240.0,0.004794892376690871
2239.0,0.004794178352692457
2238.0,0.0047755561721928635
2237.0,0.004759299256299115
2236.0,0.004753361618912221
2235.0,0.004749318610246304
2234.0,0.00474901439694309
2233.0,0.00476371360886457
2232.0,0.004785717797886413
2231.0,0.004793570297293404
2230.0,0.004787134946883151
2229.0,0.004784946970736677
2228.0,0.004786837473610478
2227.0,0.004774093577538368
2226.0,0.004748512012805343
2225.0,0.00473488058134436
2224.0,0.004740356656375116
2223.0,0.00474641802063206
2222.0,0.004744449863815486
2221.0,0.004744284344619434
2220.0,0.004744955673332215
2219.0,0.004733611030183735
2218.0,0.0047170760431872955
2217.0,0.004717192495774359
2216.0,0.004731283476274849
2215.0,0.004734216442049097
2214.0,0.00472213267613565
2213.0,0.004716920409053311
2212.0,0.004725016142147533
2211.0,0.004730984988528042
2210.0,0.004733865352075451
2209.0,0.004748768677743452
2208.0,0.004769750035580701
2207.0,0.004772471223626682
2206.0,0.004758535037787179
2205.0,0.0047564193558855775
2204.0,0.004773503737391005
2203.0,0.004788394925055658
2202.0,0.0047940517533825895
2201.0,0.004805976053184427
2200.0,0.004824184832594486
2199.0,0.004829731539658899
2198.0,0.004824099581247607
2197.0,0.00483011673800862
2196.0,0.004848685054447814
2195.0,0.0048564296832257214
2194.0,0.004850213356151992
2193.0,0.00485169573238162
2192.0,0.004864812880128855
2191.0,0.004871847022475332
2190.0,0.0048734428892234114
2189.0,0.004887615514117482
2188.0,0.004908255325286449
2187.0,0.00491136164361722
2186.0,0.004901877471386099
2185.0,0.004903431720027157
2184.0,0.004901608268261123
2183.0,0.004855649809155276
2182.0,0.004773758763757279
2181.0,0.004717885098559901
2180.0,0.004721090422069435
2179.0,0.004753814647745672
2178.0,0.004778886479629835
2177.0,0.004785505443318565
2176.0,0.004766523569120585
2175.0,0.004719608315993716
2174.0,0.004679028066874032
2173.0,0.0046930221754138916
2172.0,0.004761111706278301
2171.0,0.004841395072357311
2170.0,0.004916736440244664
2169.0,0.005001477522026149
2168.0,0.005087026661981648
2167.0,0.005138974215164235
2166.0,0.005156026730164236
2165.0,0.005177915220555205
2164.0,0.005223713361935433
2163.0,0.005268547166238351
2162.0,0.005275730353689806
2161.0,0.00519652809973399
2160.0,0.0049604504468874185
2159.0,0.004560768702495846
2158.0,0.004143731377625371
2157.0,0.0038955471524608053
2156.0,0.0038453265414626608
2155.0,0.0038839938262245337
2154.0,0.003933983566447261
2153.0,0.003996699683066433
2152.0,0.004072359336824023
2151.0,0.004132166755595686
2150.0,0.004169835684619058
2149.0,0.004206175051727883
2148.0,0.004235510125982973
2147.0,0.004229758532387056
2146.0,0.004197275495299275
2145.0,0.00417810573945922
2144.0,0.004179738968704351
2143.0,0.004174919300236788
2142.0,0.004161442446240313
2141.0,0.0041660580031091955
2140.0,0.004189800833493451
2139.0,0.004204075292651646
2138.0,0.004199709222932962
2137.0,0.004188473068605998
2136.0,0.004160428670085636
2135.0,0.00409588220314929
2134.0,0.004018715523441825
2133.0,0.0039815642593523685
2132.0,0.003995555948268386
2131.0,0.004024830867758349
2130.0,0.004049062200385939
2129.0,0.004081518052566672
2128.0,0.004125887470918254
2127.0,0.004161970272768679
2126.0,0.00418095380748888
2125.0,0.004197216721798153
2124.0,0.004219077418217118
2123.0,0.004241195040159155
2122.0,0.004267816051147798
2121.0,0.004309217443267408
2120.0,0.004353596211900484
2119.0,0.004377760441605051
2118.0,0.004387238337396112
2117.0,0.004411051791148045
2116.0,0.00445434037791707
2115.0,0.004491104569391475
2114.0,0.004506769765503896
2113.0,0.004512424587157603
2112.0,0.004513702762415368
2111.0,0.004502288028213696
2110.0,0.004484564635348707
2109.0,0.0044821341624973875
2108.0,0.0044954808310868925
2107.0,0.004500928599410924
2106.0,0.004490056675277541
2105.0,0.004479054907030596
2104.0,0.00447460984852328
2103.0,0.004465484649415214
2102.0,0.004452908550189918
2101.0,0.004453575463145839
2100.0,0.004466405711556126
2099.0,0.004469636932817083
2098.0,0.004454527950623988
2097.0,0.0044301399683057624
2096.0,0.004395148552201651
2095.0,0.00434194301319903
2094.0,0.004289227463563254
2093.0,0.004270016812755435
2092.0,0.004285572321452975
2091.0,0.004308595011122298
2090.0,0.004329915866881394
2089.0,0.004363147530609457
2088.0,0.004404318513163725
2087.0,0.004429397536450733
2086.0,0.0044351039339249115
2085.0,0.004442518074287889
2084.0,0.004457280681096232
2083.0,0.004465137188055722
2082.0,0.004469415718737331
2081.0,0.004490368351953641
2080.0,0.00452133777228009
2079.0,0.004528836476199773
2078.0,0.004503909052965317
2077.0,0.004472947920985978
2076.0,0.004451611013304782
2075.0,0.004429604878222769
2074.0,0.004407433856092855
2073.0,0.0044019320788939945
2072.0,0.004408376005162108
2071.0,0.004401994531651683
2070.0,0.004382447752831275
2069.0,0.004372432892072333
2068.0,0.004369133565159694
2067.0,0.004347321712753213
2066.0,0.004314901697322315
2065.0,0.004311839555401424
2064.0,0.0043436617637887445
2063.0,0.004370362964938396
2062.0,0.004370364203763068
2061.0,0.004360937561591492
2060.0,0.0043525096864205325
2059.0,0.004337287011464
2058.0,0.004326405999216981
2057.0,0.004341510151190232
2056.0,0.004365179257855507
2055.0,0.0043623611957726
2054.0,0.004357478355096463
2053.0,0.004417301837038711
2052.0,0.004541046191481013
2051.0,0.004636702971910672
2050.0,0.004629642648962454
2049.0,0.004542872075425784
2048.0,0.004445995346058556
2047.0,0.004377376891942435
2046.0,0.004349351162431171
2045.0,0.00436747534467327
2044.0,0.00440491457387599
2043.0,0.004415022467482608
2042.0,0.004396359066265197
2041.0,0.00439244572275081
2040.0,0.004412366552913758
2039.0,0.004417419864597016
2038.0,0.0043986208397332055
2037.0,0.004388654121753504
2036.0,0.004383904215604146
2035.0,0.004336752490245104
2034.0,0.004247464157953322
2033.0,0.004180160697071829
2032.0,0.004159596381274127
2031.0,0.004140597148700981
2030.0,0.004102299481127588
2029.0,0.00408070667492737
2028.0,0.004086775185615131
2027.0,0.00408176798267493
2026.0,0.004057921754047203
2025.0,0.0040542879942751815
2024.0,0.004072054605871066
2023.0,0.004062780014223765
2022.0,0.004018075893520893
2021.0,0.003986133044084428
2020.0,0.003982832941275203
2019.0,0.003970709720606493
2018.0,0.003941025964314851
2017.0,0.003929899883834
2016.0,0.003936185492732129
2015.0,0.003916955986018335
2014.0,0.003878941604345763
2013.0,0.0038801172055629865
2012.0,0.003927630673131683
2011.0,0.003960509295226773
2010.0,0.003945913465498385
2009.0,0.003907554514049235
2008.0,0.0038506195013097502
2007.0,0.0037524555982813373
2006.0,0.0036427128200994118
2005.0,0.003593354629888593
2004.0,0.0036113732636481894
2003.0,0.003634569624129011
2002.0,0.0036394630003416884
2001.0,0.003664586070142661
2000.0,0.003718067592520108
1999.0,0.0037533744984341927
1998.0,0.0037546105102675606
1997.0,0.0037590919524431257
1996.0,0.003777889982425369
1995.0,0.003775715033164907
1994.0,0.0037483777382011914
1993.0,0.0037443025478520954
1992.0,0.0037811158163953396
1991.0,0.0038159152329831554
1990.0,0.0038297297970157408
1989.0,0.0038543031776349795
1988.0,0.0038944389232191444
1987.0,0.003910781531477884
1986.0,0.003898323595826165
1985.0,0.0039037154027881963
1984.0,0.003945541861700864
1983.0,0.0039943795671137546
1982.0,0.004043881314009169
1981.0,0.004114598152547557
1980.0,0.004166660567239281
1979.0,0.0041064766292687365
1978.0,0.0039247902709649354
1977.0,0.0037365306473808074
1976.0,0.0036295014934463457
1975.0,0.003574658794712131
1974.0,0.0035297455293835053
1973.0,0.003509798909797914
1972.0,0.003516087884502819
1971.0,0.0035054043767754517
1970.0,0.0034677153356428474
1969.0,0.003446608129046151
1968.0,0.00345339659250944
1967.0,0.0034424561887345653
1966.0,0.003402100549946263
1965.0,0.003379455854761059
1964.0,0.003388640025087111
1963.0,0.003386127430901406
1962.0,0.003352152609196705
1961.0,0.0033172566354929536
1960.0,0.0032942916478256603
1959.0,0.003261152451552626
1958.0,0.0032255030359751957
1957.0,0.0032276711125113736
1956.0,0.0032668646694444334
1955.0,0.0032967866882981788
1954.0,0.003302435308247312
1953.0,0.0033110567028947283
1952.0,0.0033243722485431495
1951.0,0.003311283895196225
1950.0,0.0032734944973394297
1949.0,0.003250218080064875
1948.0,0.003247299650837169
1947.0,0.0032295891368779744
1946.0,0.0031931806345003363
1945.0,0.003176766218481071
1944.0,0.0031909404319420097
1943.0,0.0031998527863589614
1942.0,0.003188845819721627
1941.0,0.0031839713279963114
1940.0,0.003188745231751891
1939.0,0.003176090430038951
1938.0,0.003148641930770591
1937.0,0.0031414618004866612
1936.0,0.003158162882154832
1935.0,0.0031629159965804866
1934.0,0.0031463815736785927
1933.0,0.003137582767697134
1932.0,0.003142936703751182
1931.0,0.003133109570206472
1930.0,0.0031028888433604846
1929.0,0.003087197973937875
1928.0,0.0030978051191173496
1927.0,0.0031033912422213663
1926.0,0.003085284807046042
1925.0,0.0030651278757977615
1924.0,0.0030655155463268054
1923.0,0.0030792478055733513
1922.0,0.0030972788585355974
1921.0,0.00312577856221176
1920.0,0.00315760363629769
1919.0,0.0031700980212427485
1918.0,0.003164654569237989
1917.0,0.0031651377423116576
1916.0,0.003169003810689103
1915.0,0.0031521834237186602
1914.0,0.0031199376132645578
1913.0,0.003101993905813693
1912.0,0.0031026680134108747
1911.0,0.003096951630527019
1910.0,0.0030824608695391264
1909.0,0.0030861064445526693
1908.0,0.0031074101823142194
1907.0,0.003115268404414041
1906.0,0.0031042795148121904
1905.0,0.0031012078501526153
1904.0,0.003112720646451644
1903.0,0.0031138780814343476
1902.0,0.0031007641340952113
1901.0,0.0031014291834907054
1900.0,0.0031202890289954654
1899.0,0.0031256819312854463
1898.0,0.003104731660746111
1897.0,0.0030841430833990617
1896.0,0.003085089217837278
1895.0,0.0030945549668864357
1894.0,0.00310059618853685
1893.0,0.003111710157375152
1892.0,0.003125107500932791
1891.0,0.0031221632931178536
1890.0,0.0031082506650360587
1889.0,0.003110221061173916
1888.0,0.003123464215968442
1887.0,0.0031173082391279167
1886.0,0.003091960629777658
1885.0,0.0030789996789322947
1884.0,0.003087667021330844
1883.0,0.0030924575596138356
1882.0,0.0030830229033678622
1881.0,0.0030803795692068273
1880.0,0.003090236634631879
1879.0,0.0030911154487750113
1878.0,0.0030796681083499326
1877.0,0.003079429612936515
1876.0,0.0030945250606319585
1875.0,0.00309916608071778
1874.0,0.0030849554177719636
1873.0,0.0030742949168146654
1872.0,0.0030744373466502894
1871.0,0.0030608071451363947
1870.0,0.0030273394301790074
1869.0,0.0030149185039141206
1868.0,0.003040938160134175
1867.0,0.00306476037154814
1866.0,0.0030653349901368435
1865.0,0.0030644662845016914
1864.0,0.003071817341335885
1863.0,0.0030710728023289374
1862.0,0.0030587247838484723
1861.0,0.0030553413503716107
1860.0,0.003066393055183105
1859.0,0.003071971739912854
1858.0,0.003067550637758715
1857.0,0.0030726795466665124
1856.0,0.0030895480342738664
1855.0,0.003095216915249553
1854.0,0.0030849719547698653
1853.0,0.0030820087795869295
1852.0,0.0030890754928666626
1851.0,0.003079476472304261
1850.0,0.0030491487466798887
1849.0,0.003028412951704397
1848.0,0.0030309063535929152
1847.0,0.0030342385706761624
1846.0,0.003028364442096869
1845.0,0.003038848214015479
1844.0,0.0030731944154051612
1843.0,0.003092923374687427
1842.0,0.0030831124135402314
1841.0,0.003070561351130395
1840.0,0.0030661513774665277
1839.0,0.003055231896113073
1838.0,0.0030361879431632433
1837.0,0.003032779004914278
1836.0,0.0030520762923042658
1835.0,0.0030703616889782475
1834.0,0.003078405369418141
1833.0,0.003092884772072818
1832.0,0.0031133807559724723
1831.0,0.0031185994999833318
1830.0,0.0031131854879203487
1829.0,0.0031202632829531677
1828.0,0.00313280877368215
1827.0,0.003126544589198446
1826.0,0.0031078301300930004
1825.0,0.003108581279007884
1824.0,0.0031275616463896667
1823.0,0.003129595273620713
1822.0,0.003110055486411872
1821.0,0.0030957627270710307
1820.0,0.003091065948444319
1819.0,0.0030729021484595356
1818.0,0.0030392227934461697
1817.0,0.003021336726606432
1816.0,0.0030310984873111856
1815.0,0.0030408747239887065
1814.0,0.0030359122391364836
1813.0,0.003036110455883177
1812.0,0.003056693433419509
1811.0,0.003081881774725846
1810.0,0.003094861562329177
1809.0,0.003107400821756
1808.0,0.0031297351680922387
1807.0,0.0031486872806176206
1806.0,0.003156055686582588
1805.0,0.0031640635363937783
1804.0,0.00317997891865712
1803.0,0.003194080995592672
1802.0,0.003210663346389956
1801.0,0.0032492221264009574
1800.0,0.0032969857984387896
1799.0,0.003313879604898919
1798.0,0.0032972850955846514
1797.0,0.0032892210028082902
1796.0,0.0033104601633349297
1795.0,0.0033378327066461836
1794.0,0.0033512383935523395
1793.0,0.003368978969655822
1792.0,0.0034071999163496464
1791.0,0.0034345477071119064
1790.0,0.003430710151655963
1789.0,0.0034215394883489662
1788.0,0.003422664283679496
1787.0,0.0034210799670641575
1786.0,0.0034116173806124266
1785.0,0.0034146647364478038
1784.0,0.0034343477488959838
1783.0,0.0034409700778237984
1782.0,0.0034298824745903522
1781.0,0.003436223945365754
1780.0,0.0034692721342405174
1779.0,0.0034928054654168594
1778.0,0.00348924023310712
1777.0,0.0034841956524644968
1776.0,0.003489849189675954
1775.0,0.003490043662642077
1774.0,0.0034897037392362627
1773.0,0.0035385405923558776
1772.0,0.003647019940889628
1771.0,0.0037318927189908197
1770.0,0.0037480263534985965
1769.0,0.0037500335918714206
1768.0,0.0037861701176675165
1767.0,0.003836876400062643
1766.0,0.003873095489217277
1765.0,0.003907439939881174
1764.0,0.0039585341550378485
1763.0,0.004018903992361686
1762.0,0.00408107823449408
1761.0,0.004154687330348954
1760.0,0.004236696766878692
1759.0,0.004309619095543471
1758.0,0.004384457935162097
1757.0,0.00450070003600875
1756.0,0.004644242370424692
1755.0,0.004749521142152115
1754.0,0.004806000403256579
1753.0,0.004879698168968138
1752.0,0.005026085184600463
1751.0,0.005219424643974138
1750.0,0.0054075664636483445
1749.0,0.00559881881637603
1748.0,0.0057996113914808006
1747.0,0.005964828413248044
1746.0,0.006087529460865119
1745.0,0.006223360678570651
1744.0,0.006404023985623963
1743.0,0.006591661363759775
1742.0,0.006747497877968441
1741.0,0.006891651176679046
1740.0,0.007045827736975077
1739.0,0.007169428030129584
1738.0,0.007222909628039464
1737.0,0.007236340348006007
1736.0,0.007259056345276526
1735.0,0.007301561845184556
1734.0,0.007364538468325719
1733.0,0.007467073975662637
1732.0,0.007594319134134504
1731.0,0.0077019574844247145
1730.0,0.007789646931244676
1729.0,0.00789939264242761
1728.0,0.008027065325963386
1727.0,0.008128328893558958
1726.0,0.008202956593016087
1725.0,0.00830244217401824
1724.0,0.008454099898080037
1723.0,0.008621131868122425
1722.0,0.008762595458459027
1721.0,0.00888216624802595
1720.0,0.00898921818553783
1719.0,0.009086945119129235
1718.0,0.009229108354693195
1717.0,0.009486667189478928
1716.0,0.009815113399975347
1715.0,0.010096873538719369
1714.0,0.01029818097451194
1713.0,0.010479027508324001
1712.0,0.010684353468530207
1711.0,0.010899205517051827
1710.0,0.011113686462821858
1709.0,0.011358810672336973
1708.0,0.011649919151855719
1707.0,0.011965795341967804
1706.0,0.012308207601904526
1705.0,0.012685972026038609
1704.0,0.013043793626664234
1703.0,0.013350889149376589
1702.0,0.013695610642451336
1701.0,0.014220678373126548
1700.0,0.014857102311221459
1699.0,0.01528746005919402
1698.0,0.015522358631122408
1697.0,0.01591259379566578
1696.0,0.016636883591768993
1695.0,0.0174188970820479
1694.0,0.017992066793199993
1693.0,0.01842944278129119
1692.0,0.018869904951968393
1691.0,0.019379871289280932
1690.0,0.019951538831301508
1689.0,0.02053001752730102
1688.0,0.021030408358591334
1687.0,0.02143939276371722
1686.0,0.02188929722826763
1685.0,0.02266711441357767
1684.0,0.023796445703528762
1683.0,0.0247041235230247
1682.0,0.025224473902825024
1681.0,0.025688953097803988
1680.0,0.026258386885521512
1679.0,0.02686198033433469
1678.0,0.027415994331405045
1677.0,0.027998426662995325
1676.0,0.028719958366390325
1675.0,0.029486168314906133
1674.0,0.030092772646529195
1673.0,0.03055750486979192
1672.0,0.031035323112696626
1671.0,0.031614082691144886
1670.0,0.03229419841821166
1669.0,0.03299904944042405
1668.0,0.03361006089636769
1667.0,0.034076557247394904
1666.0,0.03446113222463905
1665.0,0.034881749070631345
1664.0,0.035422222223476456
1663.0,0.03603848585879515
1662.0,0.03659125447020804
1661.0,0.037037615523071346
1660.0,0.0374352412760508
1659.0,0.03780424934176798
1658.0,0.03812346813577683
1657.0,0.03838002004555923
1656.0,0.0385953065375854
1655.0,0.03880755385811168
1654.0,0.03910404202501481
1653.0,0.039489653571787
1652.0,0.03975531010329842
1651.0,0.03988395888849894
1650.0,0.03994890951642881
1649.0,0.039972416951112616
1648.0,0.04003969777292697
1647.0,0.0401457845365171
1646.0,0.04017611536944196
1645.0,0.04013714435990384
1644.0,0.04011429151262066
1643.0,0.04008888499439517
1642.0,0.04002489510368234
1641.0,0.03994506549614587
1640.0,0.03987659321767821
1639.0,0.03979830151335647
1638.0,0.03967316413955687
1637.0,0.03950124285164461
1636.0,0.039291622835472925
1635.0,0.039011542726622724
1634.0,0.03867482731661751
1633.0,0.03835087533072573
1632.0,0.03806141790056084
1631.0,0.03777298785585393
1630.0,0.037431531905400856
1629.0,0.037010361495647834
1628.0,0.03654154870448456
1627.0,0.03607210387983102
1626.0,0.035611643981419194
1625.0,0.03512404908077406
1624.0,0.03455220693904431
1623.0,0.033890002278853075
1622.0,0.03322978516111242
1621.0,0.03265873162428409
1620.0,0.0321578879631108
1619.0,0.0316464801121861
1618.0,0.03103742490070311
1617.0,0.03031159815677032
1616.0,0.02960354023347188
1615.0,0.029039835557691594
1614.0,0.02857371917487173
1613.0,0.02811143386836939
1612.0,0.027617835757689807
1611.0,0.027099541106747723
1610.0,0.026575420710458597
1609.0,0.026064096831346664
1608.0,0.025580765027091803
1607.0,0.025133291408786736
1606.0,0.024717644357848113
1605.0,0.024319343569788585
1604.0,0.023925233481270056
1603.0,0.023538478535697637
1602.0,0.023167365246047435
1601.0,0.02280852273118495
1600.0,0.022453443999380745
1599.0,0.022102409001407183
1598.0,0.021759557052662012
1597.0,0.021422076374775386
1596.0,0.021089055563681954
1595.0,0.020770707746185613
1594.0,0.020474554335197997
1593.0,0.020192613480386222
1592.0,0.019916436575986782
1591.0,0.019652963602812535
1590.0,0.019412212215620245
1589.0,0.019190218127051396
1588.0,0.018978848819730117
1587.0,0.01878251141456257
1586.0,0.018607512190169095
1585.0,0.018449517986024552
1584.0,0.0182984477467401
1583.0,0.018155729445287327
1582.0,0.018032597176666502
1581.0,0.01792262878310251
1580.0,0.017797972245103905
1579.0,0.017643034176041572
1578.0,0.017480507526769214
1577.0,0.01735084800646757
1576.0,0.01727367777804268
1575.0,0.01724271157356574
1574.0,0.01723538486278744
1573.0,0.017220038149724184
1572.0,0.01718579216092659
1571.0,0.017143029749942123
1570.0,0.017102545413050136
1569.0,0.017061506388333068
1568.0,0.01700863730050875
1567.0,0.01696366760790231
1566.0,0.016951248295898922
1565.0,0.016962399836003623
1564.0,0.016966093737113632
1563.0,0.016946891106364964
1562.0,0.016943418177150883
1561.0,0.016997440838335733
1560.0,0.017066891546324535
1559.0,0.017220046442493964
1558.0,0.017365950967605365
1557.0,0.01736740407314638
1556.0,0.01733407945058642
1555.0,0.017330130456037856
1554.0,0.01736987034461429
1553.0,0.017411232713763436
1552.0,0.017424201411824734
1551.0,0.017425754160272734
1550.0,0.01744625240990392
1549.0,0.017473415973216246
1548.0,0.017472387653559924
1547.0,0.01743732294854012
1546.0,0.017385020010133694
1545.0,0.01733626513787283
1544.0,0.017294136324799095
1543.0,0.017235145741785297
1542.0,0.017125464555913014
1541.0,0.01696473372910345
1540.0,0.016792131559077262
1539.0,0.016622155398055213
1538.0,0.016485093108920067
1537.0,0.016390843261150385
1536.0,0.016289847914535683
1535.0,0.016143348298271354
1534.0,0.015948162355944533
1533.0,0.015741416067519623
1532.0,0.015549759126477589
1531.0,0.015376335249642027
1530.0,0.015221733532406197
1529.0,0.015072678820186234
1528.0,0.014913678784313947
1527.0,0.01474902435295769
1526.0,0.014602373825543372
1525.0,0.014479604940457573
1524.0,0.014351030450993674
1523.0,0.014195778706854824
1522.0,0.014055561976633418
1521.0,0.013986071293491914
1520.0,0.013957821649891358
1519.0,0.013903528922475622
1518.0,0.01380344241204931
1517.0,0.013686529758130412
1516.0,0.013569861380599738
1515.0,0.013437013136233205
1514.0,0.013288524702546408
1513.0,0.013134094349289522
1512.0,0.012972814066692403
1511.0,0.012797882074864054
1510.0,0.012609898425699628
1509.0,0.01242263175666609
1508.0,0.01227161735239983
1507.0,0.01221716895606091
1506.0,0.012197855933364877
1505.0,0.012145659587703342
1504.0,0.012091893476129096
1503.0,0.01203715100170873
1502.0,0.01199297791798597
1501.0,0.011984867688755596
1500.0,0.011998912119784974
1499.0,0.011993534915874413
1498.0,0.011979699164687304
1497.0,0.012020251698131952
1496.0,0.01211513177667321
1495.0,0.012197319093153207
1494.0,0.01224524859260098
1493.0,0.012271035193653143
1492.0,0.012260507833203907
1491.0,0.012196652938186232
1490.0,0.012137997551891431
1489.0,0.01215801871365461
1488.0,0.012219256395095959
1487.0,0.01226167673809536
1486.0,0.012298188769990547
1485.0,0.012367711975012331
1484.0,0.012469002396902918
1483.0,0.012590518613152179
1482.0,0.01276074553139314
1481.0,0.013003925622066476
1480.0,0.013283848119627732
1479.0,0.013570999080595374
1478.0,0.013922226055401523
1477.0,0.014420181299568392
1476.0,0.015059248445645747
1475.0,0.015789351749145496
1474.0,0.01669490667155225
1473.0,0.0179025936609278
1472.0,0.019208021179262597
1471.0,0.020304427634660248
1470.0,0.021263369036821286
1469.0,0.022270498790491585
1468.0,0.023381281913658295
1467.0,0.024614119726082153
1466.0,0.026061299040978356
1465.0,0.02771422730636458
1464.0,0.029212195302382657
1463.0,0.030236778500515718
1462.0,0.030875980717058632
1461.0,0.03131977547922863
1460.0,0.03164041670634164
1459.0,0.03189470808728159
1458.0,0.03227292247032489
1457.0,0.03285219889530128
1456.0,0.0332879699334249
1455.0,0.03344099821901444
1454.0,0.03347259277731895
1453.0,0.03342880795119498
1452.0,0.033245706755135336
1451.0,0.0328671993519276
1450.0,0.032255003111752195
1449.0,0.03131306656291009
1448.0,0.02999732364023018
1447.0,0.02850109377040505
1446.0,0.027085983887356627
1445.0,0.025823153997373668
1444.0,0.024680252896157728
1443.0,0.023683592938736148
1442.0,0.02289491333621313
1441.0,0.022322076291284902
1440.0,0.021929334702720238
1439.0,0.021705818329750062
1438.0,0.02164941075538054
1437.0,0.02166612682394101
1436.0,0.021545645424758588
1435.0,0.021181955445570347
1434.0,0.02063772167078415
1433.0,0.019978572203686547
1432.0,0.019267751372997056
1431.0,0.018606875749032664
1430.0,0.018075508271793404
1429.0,0.0176712800027433
1428.0,0.017366733300692987
1427.0,0.017147272657585543
1426.0,0.016982146303397658
1425.0,0.016832537836820406
1424.0,0.016693504306380703
1423.0,0.016587540618102137
1422.0,0.016506995481765926
1421.0,0.01641523052281345
1420.0,0.01628897380533939
1419.0,0.016159938120398953
1418.0,0.016056229305703593
1417.0,0.015944076237114684
1416.0,0.015809794230172123
1415.0,0.01567386009970985
1414.0,0.015535828035883402
1413.0,0.015370703951723907
1412.0,0.01517651552329484
1411.0,0.01498395193504113
1410.0,0.014802961513310255
1409.0,0.0146072340637275
1408.0,0.014387913098200707
1407.0,0.014165348761340034
1406.0,0.013942950931890786
1405.0,0.013700596412543908
1404.0,0.013451428299980507
1403.0,0.013243722408786969
1402.0,0.013077775786931003
1401.0,0.01290011704979228
1400.0,0.012684453644750137
1399.0,0.012471852511316136
1398.0,0.012294567312204695
1397.0,0.012129065169145234
1396.0,0.011971683960105657
1395.0,0.011857467914619727
1394.0,0.011782328975991905
1393.0,0.011703447103740036
1392.0,0.011626786570714347
1391.0,0.011593314882437393
1390.0,0.011612224673504343
1389.0,0.01167681626113035
1388.0,0.011840715961771012
1387.0,0.01220006806525723
1386.0,0.012776121319621352
1385.0,0.013565760825642498
1384.0,0.014678862847624631
1383.0,0.016281838056178492
1382.0,0.018464463467882792
1381.0,0.0212717354317064
1380.0,0.024775437799716967
1379.0,0.028848124394892274
1378.0,0.032869986520816505
1377.0,0.03590412719319498
1376.0,0.03709557406512435
1375.0,0.03593298338132049
1374.0,0.03273425025260536
1373.0,0.028749028423965144
1372.0,0.025072374775813425
1371.0,0.021989306075795294
1370.0,0.019419523935452522
1369.0,0.017343580664621192
1368.0,0.015805484764744304
1367.0,0.014770149909413725
1366.0,0.01411734718825805
1365.0,0.013736272230383133
1364.0,0.013576725443255288
1363.0,0.013631866919787794
1362.0,0.01386490736466233
1361.0,0.014164101523616211
1360.0,0.014394527322633563
1359.0,0.01445388177331848
1358.0,0.014287793084617178
1357.0,0.013896580656443076
1356.0,0.013333455782492523
1355.0,0.01268843948316976
1354.0,0.01205733420349094
1353.0,0.011500597175919188
1352.0,0.01102844095857157
1351.0,0.010625684867680164
1350.0,0.01028088049833067
1349.0,0.009988626846351597
1348.0,0.009738438169064738
1347.0,0.009518306079940723
1346.0,0.009322405124306788
1345.0,0.009147999260678325
1344.0,0.008988916582657125
1343.0,0.008837580240858726
1342.0,0.008690675118327076
1341.0,0.008553642027918638
1340.0,0.00844093545192154
1339.0,0.008364669825273117
1338.0,0.008321169482205211
1337.0,0.008295731507927138
1336.0,0.008279314268769012
1335.0,0.008274499378889645
1334.0,0.008287053782723012
1333.0,0.008316601891325912
1332.0,0.00835550015775555
1331.0,0.00839083359984671
1330.0,0.0084066537141054
1329.0,0.00839023088848658
1328.0,0.00834017655889138
1327.0,0.008265137831797466
1326.0,0.008174262236766983
1325.0,0.008072506693808035
1324.0,0.007965392692629376
1323.0,0.007862743027506553
1322.0,0.0077719157858073505
1321.0,0.007692645981619185
1320.0,0.0076230918242777765
1319.0,0.007565170477933375
1318.0,0.00751802106405737
1317.0,0.00747358973275704
1316.0,0.0074258418246868595
1315.0,0.007378538759501584
1314.0,0.007339853818006663
1313.0,0.007314482060738892
1312.0,0.007305301795196305
1311.0,0.007318564469653607
1310.0,0.007364625038502985
1309.0,0.007457360232173324
1308.0,0.007610274462021126
1307.0,0.007818089406098726
1306.0,0.00803726538516584
1305.0,0.008197550648263274
1304.0,0.008245290820334117
1303.0,0.00817976524110272
1302.0,0.008048435711963318
1301.0,0.007910350459253564
1300.0,0.007805230976815236
1299.0,0.007745994560034207
1298.0,0.007723055294032801
1297.0,0.007713884974783567
1296.0,0.007697308977417572
1295.0,0.007663501404576603
1294.0,0.007612644082477513
1293.0,0.007548981807115258
1292.0,0.007479993742708564
1291.0,0.007415980772827707
1290.0,0.007364060812718905
1289.0,0.007324336784876522
1288.0,0.007294784570104802
1287.0,0.007275594100655756
1286.0,0.007265823718141216
1285.0,0.007261183788123078
1284.0,0.007259254642042492
1283.0,0.007262697464651422
1282.0,0.007273853649302756
1281.0,0.007290799815196005
1280.0,0.007311616603032934
1279.0,0.007337702755793901
1278.0,0.007369491977576727
1277.0,0.007403560644793984
1276.0,0.007437505847212646
1275.0,0.007473352836353411
1274.0,0.007513410705772543
1273.0,0.00755697142589354
1272.0,0.007604022153472114
1271.0,0.0076578192728981465
1270.0,0.00772042351316787
1269.0,0.007789739082867545
1268.0,0.007863945537779535
1267.0,0.00794507169650858
1266.0,0.008035264121755195
1265.0,0.008133048317811581
1264.0,0.008236957228674558
1263.0,0.008350686146914659
1262.0,0.008482484375293285
1261.0,0.008642059356411411
1260.0,0.008837911164538595
1259.0,0.0090710881381484
1258.0,0.009325499443733159
1257.0,0.009564775132904227
1256.0,0.009743562597288952
1255.0,0.009829673344051191
1254.0,0.009823326698072421
1253.0,0.009757433109592277
1252.0,0.0096783807330277
1251.0,0.009623045650237813
1250.0,0.009606081196170305
1249.0,0.00962254897203519
1248.0,0.009660429111700694
1247.0,0.009710637324552731
1246.0,0.009768258524025474
1245.0,0.009829675334562691
1244.0,0.009891942887070052
1243.0,0.009953810677251707
1242.0,0.010015200665736926
1241.0,0.010075798356256294
1240.0,0.010135011744108316
1239.0,0.010192395570938864
1238.0,0.01024679346780691
1237.0,0.010295672772704429
1236.0,0.010336830358604243
1235.0,0.01037087202148296
1234.0,0.010401082338331364
1233.0,0.010430821304737804
1232.0,0.010461849749397107
1231.0,0.010494757662838753
1230.0,0.010529453160469984
1229.0,0.010565301945729366
1228.0,0.010602596196942428
1227.0,0.010644326720482848
1226.0,0.01069492472903335
1225.0,0.010756153189530455
1224.0,0.010824681821808811
1223.0,0.01089394518791032
1222.0,0.01095752890588778
1221.0,0.01101047040678544
1220.0,0.011048920980326858
1219.0,0.011070955163352526
1218.0,0.011077972496825258
1217.0,0.01107363117324876
1216.0,0.011061227058030197
1215.0,0.01104324007786331
1214.0,0.01102316627010289
1213.0,0.011006239821645166
1212.0,0.010997918208359648
1211.0,0.011001899662003285
1210.0,0.01101912229406673
1209.0,0.011048276853446871
1208.0,0.011087458988470212
1207.0,0.011135770214201568
1206.0,0.011193671668586624
1205.0,0.011262040020427659
1204.0,0.011340897268867257
1203.0,0.011428793001772505
1202.0,0.011523049685146284
1201.0,0.011620216857497919
1200.0,0.011716301432017538
1199.0,0.011807682473697779
1198.0,0.011892879692238845
1197.0,0.011972988258592953
1196.0,0.012050130094068117
1195.0,0.01212628736358344
1194.0,0.012203706705524616
1193.0,0.012285101121280492
1192.0,0.01237275251276138
1191.0,0.012468225029512933
1190.0,0.012572968369743674
1189.0,0.0126877797367691
1188.0,0.012811308509091946
1187.0,0.012940625632681928
1186.0,0.013073743338022283
1185.0,0.013209928672703167
1184.0,0.013347337039588725
1183.0,0.013483134827677545
1182.0,0.013617479516013747
1181.0,0.013755607726242468
1180.0,0.01390540903154806
1179.0,0.014075931730808698
1178.0,0.014279626708302323
1177.0,0.014532950983167096
1176.0,0.014852605956374127
1175.0,0.0152526743499725
1174.0,0.01574565123810319
1173.0,0.016340707004785373
1172.0,0.01703209428001294
1171.0,0.017784026847449327
1170.0,0.0185261342646029
1169.0,0.01916581991298865
1168.0,0.019613601040475447
1167.0,0.019819839894336427
1166.0,0.019802275245299303
1165.0,0.01963287023982041
1164.0,0.01939197150617284
1163.0,0.019138289474137152
1162.0,0.018909881561865165
1161.0,0.01872887783883185
1160.0,0.0185994814312681
1159.0,0.018514002447113303
1158.0,0.01846681496263568
1157.0,0.018456832781729327
1156.0,0.018477516028206728
1155.0,0.018515064785229643
1154.0,0.01855816230523349
1153.0,0.01860033094570064
1152.0,0.01863242474027646
1151.0,0.01864441649539103
1150.0,0.01863756835711826
1149.0,0.018624851182309277
1148.0,0.018617881880293577
1147.0,0.018622798621048615
1146.0,0.01864767636949392
1145.0,0.018701427030395065
1144.0,0.018783583053723373
1143.0,0.01888602348517813
1142.0,0.019006253143269577
1141.0,0.01914811361123793
1140.0,0.019308235396280585
1139.0,0.019474558401686937
1138.0,0.01964133742294627
1137.0,0.019813194168456522
1136.0,0.01999127799855379
1135.0,0.020168584195128497
1134.0,0.020342740149471628
1133.0,0.02052005521352954
1132.0,0.020703032258354556
1131.0,0.020887358040280943
1130.0,0.021074988110154902
1129.0,0.02127576274631192
1128.0,0.021491001160402274
1127.0,0.021709181403097966
1126.0,0.021922162398332664
1125.0,0.022130788145046994
1124.0,0.022330363896511354
1123.0,0.022508114002760232
1122.0,0.02266177512240812
1121.0,0.022804295538616574
1120.0,0.02294402793626293
1119.0,0.023076391941631115
1118.0,0.02319938885746348
1117.0,0.0233193760936762
1116.0,0.023436049058035386
1115.0,0.023539472955408387
1114.0,0.02362788747765655
1113.0,0.023711210264672742
1112.0,0.023792390263720268
1111.0,0.023863934210136547
1110.0,0.023927487083710283
1109.0,0.023997077573884733
1108.0,0.02407849245653243
1107.0,0.024164965350858787
1106.0,0.024255429303120555
1105.0,0.024354448002356748
1104.0,0.0244493214067971
1103.0,0.024510039184787953
1102.0,0.02452016733819234
1101.0,0.02448851637439375
1100.0,0.02442798588156332
1099.0,0.024344421173501093
1098.0,0.024250066670623995
1097.0,0.024162963135223144
1096.0,0.02408568845326136
1095.0,0.024005353306741146
1094.0,0.023918912785379578
1093.0,0.023838183845850663
1092.0,0.02376705426187961
1091.0,0.02369539745567676
1090.0,0.023619024674836613
1089.0,0.0235449117011805
1088.0,0.023473723189198197
1087.0,0.023398256316673756
1086.0,0.02332178211408737
1085.0,0.023255516520132576
1084.0,0.023194423361551326
1083.0,0.0231177572203606
1082.0,0.023017420437786894
1081.0,0.02290420674137762
1080.0,0.022783488349385927
1079.0,0.022648097418012863
1078.0,0.02249883981045042
1077.0,0.022348875418587814
1076.0,0.02220265812720996
1075.0,0.02205115695002773
1074.0,0.021891773043713862
1073.0,0.021732687658851946
1072.0,0.021574400128099334
1071.0,0.02140774946383169
1070.0,0.02123381274685267
1069.0,0.0210658643834619
1068.0,0.020908224730986816
1067.0,0.020751899658226148
1066.0,0.020593467662842684
1065.0,0.020439881075317988
1064.0,0.020292477416172978
1063.0,0.020144631302664286
1062.0,0.019997927112694203
1061.0,0.01986285507200406
1060.0,0.019740073559262137
1059.0,0.019618232834705738
1058.0,0.019494371899621953
1057.0,0.019380151626824223
1056.0,0.019283803460411152
1055.0,0.01920152579203554
1054.0,0.019131107010876787
1053.0,0.019079136182874396
1052.0,0.019048452531191282
1051.0,0.01903222441973698
1050.0,0.019027366153478845
1049.0,0.019038718998903262
1048.0,0.019062566374906293
1047.0,0.019081133929536864
1046.0,0.01907821591709287
1045.0,0.019046479434300472
1044.0,0.018979319050466487
1043.0,0.018872757751231633
1042.0,0.018738584544875595
1041.0,0.018601203337313403
1040.0,0.01847736666327227
1039.0,0.018369239452944216
1038.0,0.018276954051554533
1037.0,0.018204515867147362
1036.0,0.01815077524911226
1035.0,0.018106575845103917
1034.0,0.01806470049212095
1033.0,0.01802297770820505
1032.0,0.01797536603227939
1031.0,0.017910382632028793
1030.0,0.017820958320850223
1029.0,0.017705990101330216
1028.0,0.017561187360295136
1027.0,0.0173798149794365
1026.0,0.017164524880577892
1025.0,0.016928215067308655
1024.0,0.016682051446559123
1023.0,0.01643190013979627
1022.0,0.01618585848292916
1021.0,0.01595447707505767
1020.0,0.015742007872270647
1019.0,0.015546018365733869
1018.0,0.015366403706963492
1017.0,0.015207020295386817
1016.0,0.01506855562600232
1015.0,0.014948323557481269
1014.0,0.014848112336921692
1013.0,0.014774686439999931
1012.0,0.014731186057425481
1011.0,0.014714241321774887
1010.0,0.014719789988881942
1009.0,0.014744695314805836
1008.0,0.014781903966508365
1007.0,0.014822566900607449
1006.0,0.014867616854593532
1005.0,0.01493409462937079
1004.0,0.015051462043884224
1003.0,0.01525853154857772
1002.0,0.015596864110007772
1001.0,0.016079793036551847
1000.0,0.016642146181170325
999.0,0.017120260762254022
998.0,0.017308699770950408
997.0,0.017069279755701803
996.0,0.01640955697480119
995.0,0.015474854655961691
994.0,0.014464502693887129
993.0,0.013533483311916821
992.0,0.012748051852732024
991.0,0.012108316277592818
990.0,0.011590793495325366
989.0,0.01117130128244151
988.0,0.010829858384626571
987.0,0.01055237848968599
986.0,0.010331224120768437
985.0,0.010162690660968476
984.0,0.010046259414145005
983.0,0.009987692543954325
982.0,0.010000146668462977
981.0,0.010100775556302097
980.0,0.010307610704590776
979.0,0.010638119322830559
978.0,0.011104386816336048
977.0,0.011701768000542838
976.0,0.012391831034924878
975.0,0.013083899854888757
974.0,0.013629894408163916
973.0,0.013854886978829539
972.0,0.013631028959253728
971.0,0.01296094924407288
970.0,0.011996838180991194
969.0,0.010958136759655492
968.0,0.010017185042779986
967.0,0.009247769463649821
966.0,0.008646448188454076
965.0,0.00817660752357933
964.0,0.007799036051371902
963.0,0.007484549744992904
962.0,0.007215343441187702
961.0,0.006980335572546105
960.0,0.006770896389086494
959.0,0.006581100555602577
958.0,0.0064089963513182
957.0,0.006254478753799154
956.0,0.006116362547613909
955.0,0.0059927380858551815
954.0,0.005882718934717134
953.0,0.005786106977421416
952.0,0.005702135808135576
951.0,0.005629754058682717
950.0,0.005568500177720714
949.0,0.005518433022851271
948.0,0.005480049435299611
947.0,0.0054547664396748016
946.0,0.0054445086626444
945.0,0.0054500224305795725
944.0,0.005469515840319451
943.0,0.005497943977596962
942.0,0.005525991758793916
941.0,0.005540146526750408
940.0,0.005526957687952229
939.0,0.005480743234212656
938.0,0.0054079267447426655
937.0,0.005322618336074097
936.0,0.005237640891229824
935.0,0.005159538414934519
934.0,0.005089587937453101
933.0,0.005026729724693906
932.0,0.0049695713020434015
931.0,0.004917705390272059
930.0,0.004872503384291706
929.0,0.004836273061603809
928.0,0.004809798790326985
927.0,0.004790847167357604
926.0,0.0047762455108678
925.0,0.004765918621193995
924.0,0.004763534490184195
923.0,0.004771902636542964
922.0,0.004788894821142741
921.0,0.0048099782226113386
920.0,0.0048341519510652665
919.0,0.004864747025845793
918.0,0.0049039739146622425
917.0,0.0049489759241949545
916.0,0.004994181078077673
915.0,0.005035599056240816
914.0,0.005071438723867679
913.0,0.005099795323973871
912.0,0.005117350489185268
911.0,0.00512018850740225
910.0,0.005105566495721929
909.0,0.005074476921102163
908.0,0.005034761804944452
907.0,0.005001945391196302
906.0,0.004995260349851559
905.0,0.005031601747374563
904.0,0.005121457928210659
903.0,0.0052647016377774854
902.0,0.005443187563154513
901.0,0.005615931625766424
900.0,0.005726999239264013
899.0,0.005728006433276273
898.0,0.005602832843432708
897.0,0.005375437891264542
896.0,0.005095592916558223
895.0,0.004815659052238028
894.0,0.004572052600321706
893.0,0.00437829658053332
892.0,0.004230899083353997
891.0,0.004120845147419189
890.0,0.0040408491845758
889.0,0.003986163556743017
888.0,0.0039533685615756615
887.0,0.003940054844127964
886.0,0.003944750668174785
885.0,0.0039666063710999625
884.0,0.004005404946504866
883.0,0.004061865673656632
882.0,0.004137574432558503
881.0,0.00423365713023433
880.0,0.004347570639963546
879.0,0.004470001250067926
878.0,0.004586877826850078
877.0,0.004687482377456399
876.0,0.0047708830789615665
875.0,0.004842552525514805
874.0,0.004902863066657525
873.0,0.004938281734904128
872.0,0.004926081804840552
871.0,0.004852714414612819
870.0,0.004731003680625869
869.0,0.004597715610275072
868.0,0.0044911694875293985
867.0,0.004429390212239462
866.0,0.004406897152281592
865.0,0.0044083615027625134
864.0,0.004421977357687942
863.0,0.004441021595865378
862.0,0.004460036058710532
861.0,0.004475365848521689
860.0,0.004487617446936576
859.0,0.004499458349417701
858.0,0.004511547909315296
857.0,0.004523054978887135
856.0,0.004534483068144694
855.0,0.004546934807682906
854.0,0.004560540388683547
853.0,0.004577592998509895
852.0,0.004606038052709019
851.0,0.004655969672605655
850.0,0.004733720178219353
849.0,0.004843519342092916
848.0,0.004995783920322907
847.0,0.005215775045280023
846.0,0.005552624587768215
845.0,0.006076565376858101
844.0,0.006831655798149861
843.0,0.00774380736072392
842.0,0.008571439736651646
841.0,0.009005037808525223
840.0,0.00887899105822451
839.0,0.0083042933024229
838.0,0.007579634673345086
837.0,0.0069693825734675734
836.0,0.006569088067260545
835.0,0.006341991476050078
834.0,0.0062205916626072045
833.0,0.006158082163843599
832.0,0.00612521593033913
831.0,0.0061043325874520285
830.0,0.006092809843701611
829.0,0.006094948565871127
828.0,0.006107552481583711
827.0,0.006123161708541172
826.0,0.006143319132447596
825.0,0.006174754380754727
824.0,0.006215523166528696
823.0,0.006259114853006717
822.0,0.006307909805940268
821.0,0.006368212196503733
820.0,0.006437653251663211
819.0,0.006510870029550515
818.0,0.0065928525888194894
817.0,0.006696494328595492
816.0,0.0068315876326390836
815.0,0.007005054139585078
814.0,0.007225592227992473
813.0,0.007493968472060179
812.0,0.007788244658654261
811.0,0.008068883412267712
810.0,0.008299871290421437
809.0,0.008458088940316315
808.0,0.008528330282786807
807.0,0.008508653170121101
806.0,0.00842420873695977
805.0,0.008319405369844187
804.0,0.008229527816190192
803.0,0.008166954792285267
802.0,0.008131717582677082
801.0,0.008121133535289338
800.0,0.008127450433437777
799.0,0.00813953260044757
798.0,0.008152513395240537
797.0,0.008167907025220921
796.0,0.00818310059065153
795.0,0.008191183673901654
794.0,0.008193069850517556
793.0,0.008199172830394414
792.0,0.008216499502943486
791.0,0.00824318032913789
790.0,0.008276266684365026
789.0,0.00831420220634275
788.0,0.008350404037701768
787.0,0.008376011660772545
786.0,0.008392132225072468
785.0,0.008409575124470945
784.0,0.008434364585809925
783.0,0.008463303500859696
782.0,0.00849487619863208
781.0,0.008532850761412022
780.0,0.008576459265145518
779.0,0.00861843284717416
778.0,0.008656190503461003
777.0,0.008694725196600805
776.0,0.00873598990765663
775.0,0.008776246451162054
774.0,0.00881660886033991
773.0,0.008865146423191354
772.0,0.008925113218229155
771.0,0.008991322893483134
770.0,0.009060817915896573
769.0,0.009136274667763424
768.0,0.009216155650324537
767.0,0.009293319559566748
766.0,0.009367300514597245
765.0,0.009446557841245339
764.0,0.009534597142082366
763.0,0.009624648158304164
762.0,0.00971133081528644
761.0,0.009796633684236642
760.0,0.009881101029490937
759.0,0.009960579220244552
758.0,0.010035195588647187
757.0,0.010110038933311537
756.0,0.010183821248674903
755.0,0.01024861757778427
754.0,0.010303735497377415
753.0,0.010357442420474393
752.0,0.010412431634713441
751.0,0.010462990708292937
750.0,0.010508830112307507
749.0,0.010557270038442663
748.0,0.01060832395339411
747.0,0.010651609077345681
746.0,0.010681713635358202
745.0,0.010703001755711178
744.0,0.010716727511086824
743.0,0.010718885776725837
742.0,0.010714196012398116
741.0,0.010715953084249566
740.0,0.010727681077481285
739.0,0.010740889903111867
738.0,0.010754626682212456
737.0,0.010780953049304497
736.0,0.010829525426384521
735.0,0.01090634371127134
734.0,0.011029238633739714
733.0,0.011216851298212073
732.0,0.011447636398690089
731.0,0.011650581821631291
730.0,0.011757659720001794
729.0,0.01175916897754533
728.0,0.011698939021856574
727.0,0.0116312233256954
726.0,0.011595184181990886
725.0,0.011612492143543915
724.0,0.011687900664978296
723.0,0.011814149156453166
722.0,0.01197943042467323
721.0,0.012158308172348281
720.0,0.01229677436602283
719.0,0.012338485054636188
718.0,0.012279278975504338
717.0,0.01217164383838015
716.0,0.012073565256443406
715.0,0.012009774888775776
714.0,0.011975079899430398
713.0,0.01195397169250973
712.0,0.011931394900959246
711.0,0.011902584358860178
710.0,0.011884345711322568
709.0,0.011905336942174806
708.0,0.011978626776427415
707.0,0.012095335119503291
706.0,0.01224822926636987
705.0,0.012443438503671998
704.0,0.012680854945855795
703.0,0.012941855879763018
702.0,0.013206480503335942
701.0,0.01346339452493809
700.0,0.013690611178207062
699.0,0.01384471168732674
698.0,0.013885519910545527
697.0,0.013801221695356289
696.0,0.013604376108026898
695.0,0.013324835207886326
694.0,0.013014993642143355
693.0,0.012736719924248262
692.0,0.012523910238886698
691.0,0.01236839319362883
690.0,0.012250280598179605
689.0,0.012164559963662131
688.0,0.01210846808766831
687.0,0.012067161151417781
686.0,0.012030022830485761
685.0,0.012000734598800758
684.0,0.01197802952421603
683.0,0.011948563260374027
682.0,0.011909163923622096
681.0,0.011874452036450992
680.0,0.011852981717308992
679.0,0.011835807853957388
678.0,0.01181784730857248
677.0,0.011807773987098261
676.0,0.011806487895410524
675.0,0.011801662171863153
674.0,0.011791593054749552
673.0,0.011787831761018643
672.0,0.011788105236334896
671.0,0.011773802010704545
670.0,0.011735773815704485
669.0,0.011688666510074507
668.0,0.011655715663336407
667.0,0.01163958852313859
666.0,0.011622857135715134
665.0,0.011601155052995013
664.0,0.011580073983420886
663.0,0.011548139145060053
662.0,0.011497632471696745
661.0,0.011447045902179924
660.0,0.011413845726499294
659.0,0.011388151836246425
658.0,0.011355427081768978
657.0,0.011319396566346562
656.0,0.011281523239269734
655.0,0.011228652400306797
654.0,0.011161093139853303
653.0,0.011101732192530151
652.0,0.011060514360475688
651.0,0.011020908198703681
650.0,0.010975593197424707
649.0,0.010940293805554266
648.0,0.010913870593024708
647.0,0.010864863535070077
646.0,0.010780669614419553
645.0,0.010687617087079652
644.0,0.01060259801696541
643.0,0.01050604608383214
642.0,0.010383533203983678
641.0,0.010256416718562887
640.0,0.010146353133336089
639.0,0.010044605448582728
638.0,0.009940882271139786
637.0,0.009848285090735879
636.0,0.009774422964007528
635.0,0.00970063808267687
634.0,0.009614869648951394
633.0,0.009531681362803458
632.0,0.009457818675917846
631.0,0.009373816953026113
630.0,0.009268827024602671
629.0,0.009157368941975507
628.0,0.009043450353904213
627.0,0.008905822070365374
626.0,0.008739546772735945
625.0,0.008573410053434184
624.0,0.00842212637411082
623.0,0.00826263356232735
622.0,0.008083784349261304
621.0,0.007914828086091046
620.0,0.007782039760232045
619.0,0.007680128702389814
618.0,0.007602146416486055
617.0,0.007555083341176667
616.0,0.0075266513013883506
615.0,0.007486484065999659
614.0,0.007439219186601828
613.0,0.007421623557756989
612.0,0.007437606267736475
611.0,0.007449335396036722
610.0,0.0074482130327833025
609.0,0.007478148960366526
608.0,0.007561459307485221
607.0,0.007659097672031628
606.0,0.007734017206295692
605.0,0.007796378435718808
604.0,0.007849182511589822
603.0,0.007855195187675471
602.0,0.007799998858177042
601.0,0.007725080168602287
600.0,0.007665027915521726
599.0,0.007606893695611412
598.0,0.00753470811090122
597.0,0.007458204223813825
596.0,0.007371620295700182
595.0,0.007242013918495636
594.0,0.007070043128433784
593.0,0.006904967045104767
592.0,0.006770140097625662
591.0,0.006629633217140246
590.0,0.006455842453312667
589.0,0.006270156707854047
588.0,0.006091412468028891
587.0,0.005907056182913612
586.0,0.0057139348018771605
585.0,0.005532113297576795
584.0,0.005360784577627403
583.0,0.005174073313677849
582.0,0.004974656119532395
581.0,0.004792157335715547
580.0,0.004616690785196794
579.0,0.004404487985010877
578.0,0.004168877583184861
577.0,0.003986363254920359
576.0,0.0038917316024384627
575.0,0.003830549287695743
574.0,0.003744731491510585
573.0,0.0036467074729207554
572.0,0.0035693446270221463
571.0,0.0035148582294312423
570.0,0.0034853506646655708
569.0,0.0035024809221135666
568.0,0.003556057098600766
567.0,0.0035818843846362053
566.0,0.0035484403399872223
565.0,0.003509085749215206
564.0,0.003512594836851176
563.0,0.003524596909001719
562.0,0.0034993445418768105
561.0,0.0034731998238757694
560.0,0.0035096898670819686
559.0,0.003592997362854098
558.0,0.0036451181060676192
557.0,0.0036314080895654462
556.0,0.0035766111686323133
555.0,0.0034978668561131097
554.0,0.003396415769630571
553.0,0.003284651161002636
552.0,0.0031724082969275483
551.0,0.0030527364496291797
550.0,0.0029316960141734204
