cm-1,A
4000.0,0.0034506325795157222
3999.0,0.003451203929974736
3998.0,0.0034376784632315603
3997.0,0.0034043278835697646
3996.0,0.00336914030800059
3995.0,0.00335716465397636
3994.0,0.003380798327353468
3993.0,0.0034297686697680966
3992.0,0.0034791531660626034
3991.0,0.0035112923028627566
3990.0,0.0035304859650867083
3989.0,0.003560060490959579
3988.0,0.003619198503790366
3987.0,0.003703778106819631
3986.0,0.003790355189772013
3985.0,0.003854088929296515
3984.0,0.003883258450766409
3983.0,0.0038745890459608006
3982.0,0.0038254251073927097
3981.0,0.003739258855804971
3980.0,0.0036385047723683176
3979.0,0.0035622378027366872
3978.0,0.0035419791634782715
3977.0,0.003575320819201264
3976.0,0.0036258741349315324
3975.0,0.0036510291218267137
3974.0,0.0036308537461160473
3973.0,0.0035816213189982012
3972.0,0.003543065031947625
3971.0,0.003551417906503469
3970.0,0.0036094594044530585
3969.0,0.0036782179456079887
3968.0,0.0037036421320974615
3967.0,0.003657855242245883
3966.0,0.003566088970890984
3965.0,0.003484803413441045
3964.0,0.0034585392336379684
3963.0,0.0034865781961573375
3962.0,0.003524568163318323
3961.0,0.0035278376433394466
3960.0,0.003491842547175626
3959.0,0.003461002005456062
3958.0,0.003489370656442453
3957.0,0.0035855426160229294
3956.0,0.0037016917833576045
3955.0,0.003770778376279548
3954.0,0.0037700744900245973
3953.0,0.0037398846008421804
3952.0,0.003730276785962173
3951.0,0.003749260756780032
3950.0,0.0037645999678172642
3949.0,0.0037568027273000865
3948.0,0.0037486292351200465
3947.0,0.003770523132324481
3946.0,0.0038204218995115426
3945.0,0.0038630870063942526
3944.0,0.0038715284604785172
3943.0,0.0038620626508592253
3942.0,0.003871004311296099
3941.0,0.0039026491832669184
3940.0,0.003917713766431729
3939.0,0.0038764966551908184
3938.0,0.003776894199640732
3937.0,0.003654999075597661
3936.0,0.0035569859266476756
3935.0,0.0034982224523664902
3934.0,0.0034731012836637896
3933.0,0.0034832975925376698
3932.0,0.0035359991059260854
3931.0,0.0036131909570052533
3930.0,0.003670801116046528
3929.0,0.003688144840695814
3928.0,0.00368064687978914
3927.0,0.0036821875556057194
3926.0,0.003712841637128794
3925.0,0.0037575474325060466
3924.0,0.0037803787855382343
3923.0,0.0037539523947609198
3922.0,0.003685517186960018
3921.0,0.0036024651446285045
3920.0,0.00353724062510603
3919.0,0.0035245695617045734
3918.0,0.0035670713557957538
3917.0,0.003632485606949551
3916.0,0.0036946613024202175
3915.0,0.003748050882202855
3914.0,0.003787433246266122
3913.0,0.0037947356031578765
3912.0,0.003771326263952173
3911.0,0.0037530411722751546
3910.0,0.0037695167235443864
3909.0,0.003807562674431499
3908.0,0.0038375087371362044
3907.0,0.0038394815450681057
3906.0,0.003816760959855144
3905.0,0.0037869337717936213
3904.0,0.0037730703558114913
3903.0,0.003789865348437324
3902.0,0.00382359871946265
3901.0,0.003836967723974653
3900.0,0.003800788879849132
3899.0,0.003735879317882924
3898.0,0.0037062743093762614
3897.0,0.003746186184425234
3896.0,0.003816241380169276
3895.0,0.0038562069076726133
3894.0,0.0038531069585354735
3893.0,0.0038513960288280528
3892.0,0.0039057019995372665
3891.0,0.003975941205285532
3890.0,0.003992385514657172
3889.0,0.00397790153189531
3888.0,0.003954084534555787
3887.0,0.003860504701137236
3886.0,0.00368972934552776
3885.0,0.003550991428710938
3884.0,0.003534717670640836
3883.0,0.00362996299266396
3882.0,0.0037380771083267636
3881.0,0.0037890971058376095
3880.0,0.003813811605893223
3879.0,0.0038390297736382306
3878.0,0.0038572199973415638
3877.0,0.0038484666643282626
3876.0,0.0037807531428984686
3875.0,0.0036904092624093013
3874.0,0.003700150572086714
3873.0,0.0038565248815633866
3872.0,0.004040923011490465
3871.0,0.0040858820738974115
3870.0,0.003960751790588014
3869.0,0.0038135823864874317
3868.0,0.003774622928662777
3867.0,0.0038067488355590495
3866.0,0.003744295388863221
3865.0,0.0035310045167324267
3864.0,0.003371536280921893
3863.0,0.0034445262604844377
3862.0,0.003645122487806683
3861.0,0.0037855410682410932
3860.0,0.0038241368920967894
3859.0,0.003834441591027268
3858.0,0.003902773286053717
3857.0,0.0040366297094769615
3856.0,0.004157443842097845
3855.0,0.004146548312118125
3854.0,0.00402554835732611
3853.0,0.003930999114058201
3852.0,0.003836298091062361
3851.0,0.003776889042572158
3850.0,0.0038064888606916623
3849.0,0.003858481953150193
3848.0,0.003869450801018068
3847.0,0.0038494507117200084
3846.0,0.0038291455612806564
3845.0,0.0038405501316533946
3844.0,0.003920792255561521
3843.0,0.004056370175187358
3842.0,0.004178296931959317
3841.0,0.004221985756414087
3840.0,0.004179545768217342
3839.0,0.004103416567005256
3838.0,0.004077126428030544
3837.0,0.004122081581775308
3836.0,0.004200446788810545
3835.0,0.0042709912376771575
3834.0,0.004286509253096742
3833.0,0.004212603837596064
3832.0,0.0040592549551610665
3831.0,0.0038855468188150177
3830.0,0.00376340574058401
3829.0,0.0037229960079232065
3828.0,0.003745646241894912
3827.0,0.003802267318920022
3826.0,0.00388750603076996
3825.0,0.004019204499609208
3824.0,0.004187795862585131
3823.0,0.004289952180371287
3822.0,0.0042285270773348375
3821.0,0.0040827013141083585
3820.0,0.003980766061494594
3819.0,0.00397500014223613
3818.0,0.0040370837113555425
3817.0,0.004047395848583529
3816.0,0.003945062647247947
3815.0,0.0038133198487543696
3814.0,0.003752967542321366
3813.0,0.0037807529409849706
3812.0,0.0038246994976031297
3811.0,0.0038300704768175313
3810.0,0.003819249260934108
3809.0,0.0038073499171799464
3808.0,0.0037688514979773453
3807.0,0.0037168130666215826
3806.0,0.0037252867160574576
3805.0,0.0038613774481488384
3804.0,0.004079937585730241
3803.0,0.004227324107932678
3802.0,0.004236972306154069
3801.0,0.004180245074144728
3800.0,0.004108321496518436
3799.0,0.004034044853392333
3798.0,0.003950947353816379
3797.0,0.0038499305325834805
3796.0,0.0037783352037478127
3795.0,0.00377756891014926
3794.0,0.0038104121277657225
3793.0,0.0038177411270700207
3792.0,0.0037744930842790233
3791.0,0.003718275128542321
3790.0,0.0037002483066259917
3789.0,0.0037151252946094147
3788.0,0.0037131906391727997
3787.0,0.003673331491060852
3786.0,0.0036336159905660474
3785.0,0.0036597483667790646
3784.0,0.0037730434690640257
3783.0,0.003926308556444434
3782.0,0.004041395512194611
3781.0,0.004048283155078993
3780.0,0.003954300375551717
3779.0,0.00385639876992472
3778.0,0.003825424522484676
3777.0,0.003843091225219546
3776.0,0.0038632866978072083
3775.0,0.003867741464312832
3774.0,0.003893743687051027
3773.0,0.003979761254803423
3772.0,0.004093127849839182
3771.0,0.004141329223778306
3770.0,0.004095197957667022
3769.0,0.004040783233314657
3768.0,0.004059868336755819
3767.0,0.004123688415763832
3766.0,0.0041406435617839625
3765.0,0.004072990583020748
3764.0,0.003980816632547721
3763.0,0.003948749257314669
3762.0,0.003986420270023898
3761.0,0.004041838558962341
3760.0,0.004105229162018756
3759.0,0.0041995342802455225
3758.0,0.004287635899971847
3757.0,0.00430462695769678
3756.0,0.004283804280108839
3755.0,0.004302930471238623
3754.0,0.004375318702826444
3753.0,0.004442741792995199
3752.0,0.004473750583468043
3751.0,0.004500054733920471
3750.0,0.004497831179570505
3749.0,0.004468109781442905
3748.0,0.004538622354044217
3747.0,0.004778027549957728
3746.0,0.005036739092204241
3745.0,0.00507012664457766
3744.0,0.004818311976576985
3743.0,0.004502499759350834
3742.0,0.004375228335482848
3741.0,0.004430978033865629
3740.0,0.004498542763684303
3739.0,0.004492197756043309
3738.0,0.0044570683779502195
3737.0,0.004443440026269237
3736.0,0.004506554719887819
3735.0,0.004682497565146356
3734.0,0.004883577943264727
3733.0,0.004951951106569107
3732.0,0.004825439111464956
3731.0,0.004619242192232196
3730.0,0.00451347869416761
3729.0,0.0045581194870604295
3728.0,0.004634887723565075
3727.0,0.004607481492166381
3726.0,0.00450166703629451
3725.0,0.004477458084914662
3724.0,0.004618402051731769
3723.0,0.004850037217193567
3722.0,0.005055434122223671
3721.0,0.0051890811421537834
3720.0,0.005260563729665994
3719.0,0.005288154568315337
3718.0,0.00529266563052193
3717.0,0.005303629970850373
3716.0,0.005360329579105138
3715.0,0.005456317283871869
3714.0,0.0055227452248071875
3713.0,0.005530054343940131
3712.0,0.0055943259343010435
3711.0,0.005820845871218283
3710.0,0.006093749953270193
3709.0,0.006264879245814944
3708.0,0.006334362148052785
3707.0,0.006372963144347425
3706.0,0.006431332253579799
3705.0,0.006512612614178057
3704.0,0.006577928431174487
3703.0,0.006604408172512191
3702.0,0.006641066766327768
3701.0,0.006767769288455905
3700.0,0.006998197556771007
3699.0,0.007279210302819847
3698.0,0.007538318152228938
3697.0,0.007727112116719809
3696.0,0.007874655986982816
3695.0,0.008065087735139772
3694.0,0.008329438382425019
3693.0,0.008599352606742931
3692.0,0.008784229239224176
3691.0,0.008880291976735807
3690.0,0.008991763217235228
3689.0,0.009181648375376448
3688.0,0.009370011994912896
3687.0,0.009493637775492442
3686.0,0.009605482570766079
3685.0,0.009744008058048599
3684.0,0.009889448628965031
3683.0,0.010041570039825237
3682.0,0.010247628706029657
3681.0,0.010546967328621192
3680.0,0.010924895377870305
3679.0,0.011334794606001591
3678.0,0.011722435961922292
3677.0,0.01203436027282261
3676.0,0.012297899626099385
3675.0,0.01259455680878286
3674.0,0.012910599322054888
3673.0,0.01325831702098541
3672.0,0.013613226599602256
3671.0,0.013901664522319952
3670.0,0.014190505032429766
3669.0,0.01455552017050233
3668.0,0.014918684314495091
3667.0,0.01525118766560371
3666.0,0.015590199191944282
3665.0,0.015966651482777972
3664.0,0.016378897558737966
3663.0,0.01679884866829012
3662.0,0.0172069549917225
3661.0,0.017615648700951114
3660.0,0.01805585921485959
3659.0,0.018532928945391144
3658.0,0.019019921839826724
3657.0,0.019493746715693427
3656.0,0.019951673396291433
3655.0,0.02041910190568217
3654.0,0.020951334599454752
3653.0,0.021578366403589892
3652.0,0.02224523778006365
3651.0,0.02291461854222941
3650.0,0.023638875812069905
3649.0,0.024365297389612444
3648.0,0.02491249003544751
3647.0,0.02529962607255495
3646.0,0.025683691296728064
3645.0,0.026136146980943544
3644.0,0.026623386039896214
3643.0,0.02708697455840727
3642.0,0.02752532493099505
3641.0,0.028000519140862094
3640.0,0.028575256737147614
3639.0,0.029243861992400116
3638.0,0.02995133672845305
3637.0,0.03066005354632436
3636.0,0.03137644229090285
3635.0,0.03211085013626958
3634.0,0.03283632085895778
3633.0,0.03351311602883725
3632.0,0.03412298718607074
3631.0,0.034684229218629674
3630.0,0.03529969811313125
3629.0,0.03612787155787879
3628.0,0.037021693399067954
3627.0,0.03770760278785789
3626.0,0.03824909737616111
3625.0,0.03877985188819078
3624.0,0.03933353175903504
3623.0,0.03990577940872629
3622.0,0.04049839261048753
3621.0,0.04113343121773386
3620.0,0.041863980073085026
3619.0,0.0426984797825049
3618.0,0.04351811605239824
3617.0,0.04421795626722894
3616.0,0.04482881479247771
3615.0,0.045444357431360154
3614.0,0.04613119534974884
3613.0,0.04687254305732192
3612.0,0.04756767077795089
3611.0,0.048140048634828056
3610.0,0.048635593147407744
3609.0,0.04919273087785391
3608.0,0.04991207562348427
3607.0,0.0507332399742735
3606.0,0.05151639688631521
3605.0,0.05220827086227968
3604.0,0.052851494128148026
3603.0,0.053515599716662525
3602.0,0.05424565287312968
3601.0,0.05501773441549791
3600.0,0.05574961500510954
3599.0,0.056392800702429524
3598.0,0.056991220535603244
3597.0,0.0576359291819139
3596.0,0.05837861800839109
3595.0,0.05918253698999258
3594.0,0.05995348488883223
3593.0,0.060635115988268096
3592.0,0.06122830336299297
3591.0,0.061738150437202086
3590.0,0.06215609185876747
3589.0,0.06254093137353932
3588.0,0.06308318105894258
3587.0,0.06391952696894175
3586.0,0.06491133519018616
3585.0,0.06583254325830107
3584.0,0.06659477830062624
3583.0,0.06723788721209417
3582.0,0.06786246716000842
3581.0,0.0685484996834859
3580.0,0.06929014238060081
3579.0,0.07002891256428595
3578.0,0.07074349303544214
3577.0,0.07146683128559214
3576.0,0.0722094153526065
3575.0,0.07292482177375469
3574.0,0.07357459774359751
3573.0,0.07419153557585355
3572.0,0.07483743952408986
3571.0,0.07552116485143541
3570.0,0.07620462793283247
3569.0,0.07688628900939036
3568.0,0.0776584056610705
3567.0,0.07857521649271623
3566.0,0.07949267259490883
3565.0,0.08024823210694948
3564.0,0.08086481583747618
3563.0,0.08144746919017111
3562.0,0.08205317214687771
3561.0,0.08268335742623664
3560.0,0.08332520952579242
3559.0,0.08398606782823137
3558.0,0.08469042577221539
3557.0,0.08544860628976707
3556.0,0.08624926125349716
3555.0,0.08707507235369472
3554.0,0.08790753497536279
3553.0,0.08871521981947893
3552.0,0.08946042535883758
3551.0,0.09013438209008076
3550.0,0.09077371523451465
3549.0,0.09142727758190637
3548.0,0.0921270513731761
3547.0,0.09289176027830015
3546.0,0.09371577163734468
3545.0,0.09454420523102157
3544.0,0.09531235937729213
3543.0,0.09601970847542111
3542.0,0.09673232228711083
3541.0,0.09750854431731353
3540.0,0.09833616493934434
3539.0,0.09915002782743046
3538.0,0.09990583255422403
3537.0,0.10062105183552833
3536.0,0.10134244793490135
3535.0,0.10208875183684721
3534.0,0.10284694431181551
3533.0,0.10360321649725289
3532.0,0.10435063089397625
3531.0,0.10508358754500417
3530.0,0.1058010712894609
3529.0,0.10651624812757905
3528.0,0.10725051057200347
3527.0,0.1080213239560557
3526.0,0.10884063927423357
3525.0,0.10971358026200799
3524.0,0.1106207541585868
3523.0,0.11150994834949697
3522.0,0.11233009197697404
3521.0,0.11307863214902708
3520.0,0.11380064920248169
3519.0,0.11454204071943955
3518.0,0.11531641712066716
3517.0,0.11611061793687623
3516.0,0.11690735160117045
3515.0,0.11769453503713402
3514.0,0.11846027533575894
3513.0,0.11919513435676338
3512.0,0.11990920394130877
3511.0,0.12064657154761906
3510.0,0.12146517842420285
3509.0,0.12238255740464182
3508.0,0.12334358557593245
3507.0,0.12426455473139786
3506.0,0.1251028458109611
3505.0,0.12587815443008601
3504.0,0.1266433335341985
3503.0,0.12743416731452437
3502.0,0.1282428000634029
3501.0,0.1290430003300256
3500.0,0.12982218468906745
3499.0,0.13058683082602043
3498.0,0.13136085490533078
3497.0,0.13217561032052655
3496.0,0.13303766773502257
3495.0,0.13390202764054907
3494.0,0.13470193396620056
3493.0,0.1354210562453179
3492.0,0.13612123940871673
3491.0,0.13688952418329053
3490.0,0.1377643095357525
3489.0,0.13871407257001075
3488.0,0.13967270661756345
3487.0,0.14058273244607405
3486.0,0.14141254283767965
3485.0,0.14216530394599036
3484.0,0.14289132532140134
3483.0,0.143671563078369
3482.0,0.14455745023719205
3481.0,0.14551718327497865
3480.0,0.14645736290412145
3479.0,0.1473082013863472
3478.0,0.14807752793568082
3477.0,0.14883157267500816
3476.0,0.14964032568036206
3475.0,0.15052759433717
3474.0,0.15145654211064258
3473.0,0.15237118389965945
3472.0,0.15325123555577386
3471.0,0.15411201415162554
3470.0,0.1549573689804848
3469.0,0.15575959238891612
3468.0,0.15650217195741176
3467.0,0.15722149418916542
3466.0,0.15797449833899793
3465.0,0.15877682514469718
3464.0,0.15960671513338637
3463.0,0.16045811472729446
3462.0,0.16134515237710922
3461.0,0.16224661534481824
3460.0,0.16309469492724252
3459.0,0.16385068653055804
3458.0,0.16456129586220755
3457.0,0.16530962853096715
3456.0,0.16613120070275783
3455.0,0.16699868922405645
3454.0,0.16786405299289778
3453.0,0.16868464199003147
3452.0,0.16943139099497245
3451.0,0.17011780770425763
3450.0,0.17081772296374098
3449.0,0.17161414402822253
3448.0,0.17250881523787454
3447.0,0.17340412961226395
3446.0,0.17420580950449074
3445.0,0.174925134203415
3444.0,0.17564965781524242
3443.0,0.17644203681550263
3442.0,0.17728823783506764
3441.0,0.1781265442111564
3440.0,0.1789156786131138
3439.0,0.17966830258897212
3438.0,0.18041957279984727
3437.0,0.18117154292442797
3436.0,0.18188125820602538
3435.0,0.18251942942782035
3434.0,0.18312985995677528
3433.0,0.18379860284811914
3432.0,0.18456263061666617
3431.0,0.18537756125115512
3430.0,0.1861830203030404
3429.0,0.186971270124459
3428.0,0.18776088276360273
3427.0,0.1885245405772193
3426.0,0.1891928990816873
3425.0,0.18974107621380823
3424.0,0.19024235520614394
3423.0,0.1908131489393107
3422.0,0.19150537785502939
3421.0,0.19226173012565595
3420.0,0.19297780762118824
3419.0,0.19359920011075923
3418.0,0.19415553133557117
3417.0,0.19471756990470407
3416.0,0.19533442190363867
3415.0,0.19600432744928697
3414.0,0.19668941589535022
3413.0,0.19735199955652863
3412.0,0.1979823671324359
3411.0,0.19859652679496476
3410.0,0.19920782005508428
3409.0,0.1998014352519746
3408.0,0.2003408477946856
3407.0,0.2008048672360012
3406.0,0.2012218152522967
3405.0,0.20166525187310957
3404.0,0.20220566212933533
3403.0,0.2028516408854442
3402.0,0.2035348686364102
3401.0,0.20415861016966233
3400.0,0.20466510752667555
3399.0,0.20506395040732434
3398.0,0.20541143269456882
3397.0,0.20577105937486903
3396.0,0.2061818310758822
3395.0,0.2066441391445564
3394.0,0.20712504558947492
3393.0,0.20757819003715852
3392.0,0.2079685943126004
3391.0,0.20828837245333695
3390.0,0.20855333023022957
3389.0,0.20878806552667611
3388.0,0.20901476404009459
3387.0,0.20925109915107326
3386.0,0.20951253275799386
3385.0,0.20981210641050474
3384.0,0.21015480464159333
3383.0,0.2105296722101359
3382.0,0.21090761846343842
3381.0,0.21125032953220474
3380.0,0.21152922833522717
3379.0,0.21174825688158186
3378.0,0.21195136381643093
3377.0,0.21219445301558737
3376.0,0.2124934609033861
3375.0,0.21279980088170494
3374.0,0.21303867335336796
3373.0,0.21317610393648248
3372.0,0.21324323727678426
3371.0,0.21329596940585255
3370.0,0.21336166407770032
3369.0,0.21342685262086797
3368.0,0.21346582877458892
3367.0,0.21347306002349614
3366.0,0.21347012608029273
3365.0,0.21348055670815505
3364.0,0.21349559712255747
3363.0,0.2134761717200885
3362.0,0.21340579845412153
3361.0,0.21333448070324848
3360.0,0.2133401692897768
3359.0,0.21343809066289127
3358.0,0.21355292771089748
3357.0,0.2135930849179161
3356.0,0.21353279079913462
3355.0,0.21341064463942003
3354.0,0.21327285216442646
3353.0,0.21314303260110568
3352.0,0.2130304175187374
3351.0,0.21293513126993183
3350.0,0.21284482857996193
3349.0,0.2127475870044138
3348.0,0.21264964267238157
3347.0,0.21256216901986186
3346.0,0.21247050067708903
3345.0,0.21233460446671515
3344.0,0.21212703634662944
3343.0,0.2118624600063023
3342.0,0.21158544052177727
3341.0,0.21133161561649186
3340.0,0.2110978142713588
3339.0,0.21084642856067826
3338.0,0.21054207147468917
3337.0,0.21018502081229287
3336.0,0.20980424710897758
3335.0,0.20942579583940663
3334.0,0.20906769412145698
3333.0,0.2087592252852985
3332.0,0.20852724411989487
3331.0,0.2083464713426977
3330.0,0.20813334383599405
3329.0,0.20781992129121815
3328.0,0.20742252802802177
3327.0,0.20701642439532683
3326.0,0.20665559046612147
3325.0,0.20633847449741932
3324.0,0.20603299402046435
3323.0,0.20569889465814936
3322.0,0.20529643203515466
3321.0,0.2048169340871935
3320.0,0.20431379442234537
3319.0,0.2038741164987332
3318.0,0.20354430694980305
3317.0,0.2032906527954884
3316.0,0.20303063212968325
3315.0,0.20269211535065748
3314.0,0.20225355874546486
3313.0,0.20175131648991854
3312.0,0.2012455050067483
3311.0,0.20076160580980554
3310.0,0.2002742693222617
3309.0,0.19976856853649524
3308.0,0.19929809615697044
3307.0,0.1989373198049851
3306.0,0.19867586630656958
3305.0,0.1984049509913037
3304.0,0.19802580768432854
3303.0,0.1975447003522058
3302.0,0.19704576426476345
3301.0,0.19659365491595088
3300.0,0.19618421722124754
3299.0,0.19577573133414164
3298.0,0.1953455577662155
3297.0,0.19491541598849352
3296.0,0.1945262163628893
3295.0,0.19418590032072747
3294.0,0.19384867106121
3293.0,0.1934609905729027
3292.0,0.19302424797341233
3291.0,0.19258869601071057
3290.0,0.1921848824943479
3289.0,0.19179206312020058
3288.0,0.19138367630407024
3287.0,0.19097050007892585
3286.0,0.19057514423474606
3285.0,0.1901868958472495
3284.0,0.1897717790283872
3283.0,0.18931873034435928
3282.0,0.18885321581615735
3281.0,0.1884118292690004
3280.0,0.18802103930389108
3279.0,0.18768790440442043
3278.0,0.18738467962593058
3277.0,0.18704886351387615
3276.0,0.1866337918148193
3275.0,0.186170620770694
3274.0,0.18575231296219766
3273.0,0.18543634240028312
3272.0,0.18518082725651175
3271.0,0.18489559654120952
3270.0,0.1845401891811249
3269.0,0.18414702198064126
3268.0,0.18375816813271306
3267.0,0.1833733321150659
3266.0,0.18297102847479843
3265.0,0.18255502964383952
3264.0,0.18215363040642776
3263.0,0.1817810652165932
3262.0,0.1814238425766422
3261.0,0.18106615438525472
3260.0,0.18070655595277768
3259.0,0.18034169673964315
3258.0,0.17995184311987977
3257.0,0.1795163010238199
3256.0,0.17903660270955038
3255.0,0.17853573917468943
3254.0,0.17803970195738994
3253.0,0.17756670013064935
3252.0,0.1771289538911519
3251.0,0.17673389497253114
3250.0,0.17637982223924625
3249.0,0.17605167686543002
3248.0,0.1757217224205839
3247.0,0.17535809599826316
3246.0,0.17493748652212104
3245.0,0.1744507946424401
3244.0,0.17390036711832071
3243.0,0.17330441164409358
3242.0,0.17270906696292226
3241.0,0.17217519029258063
3240.0,0.17172755039445559
3239.0,0.17132476498137336
3238.0,0.1709058265976156
3237.0,0.17046064907844002
3236.0,0.17002354013589527
3235.0,0.16959923368378613
3234.0,0.16913770314817142
3233.0,0.16859744400958024
3232.0,0.16799780898373412
3231.0,0.16738376298449353
3230.0,0.16676818978625324
3229.0,0.16614070126577649
3228.0,0.16551090437830504
3227.0,0.16490634757949085
3226.0,0.16433534251123785
3225.0,0.16378141022927262
3224.0,0.16323200442018762
3223.0,0.1626872778791186
3222.0,0.16214052677258264
3221.0,0.16157183558618476
3220.0,0.16096400453433757
3219.0,0.16031186049009652
3218.0,0.15961975882526103
3217.0,0.15890591822823752
3216.0,0.15820687968789252
3215.0,0.15756005465174097
3214.0,0.15697576233991484
3213.0,0.15643148304836227
3212.0,0.155889820597206
3211.0,0.15531245894955653
3210.0,0.15466653438473202
3209.0,0.15394141478051812
3208.0,0.15316387944041007
3207.0,0.15238140084799365
3206.0,0.1516238162963026
3205.0,0.15088858809850728
3204.0,0.15016405290478307
3203.0,0.14945542474200343
3202.0,0.14877801960797649
3201.0,0.1481262548572616
3200.0,0.1474585947818476
3199.0,0.1467241554784915
3198.0,0.14591156626429672
3197.0,0.14506797339876012
3196.0,0.14426153379198378
3195.0,0.1435269835653281
3194.0,0.1428517082394022
3193.0,0.14220119176511306
3192.0,0.14154229324592354
3191.0,0.14085066025176696
3190.0,0.1401183027808289
3189.0,0.13935668643587962
3188.0,0.1385767002140871
3187.0,0.13776827675456377
3186.0,0.1369215351109064
3185.0,0.13606742146652726
3184.0,0.13526529202324472
3183.0,0.1345356614296969
3182.0,0.13383091429719346
3181.0,0.13309131556882614
3180.0,0.1323112215335013
3179.0,0.13153098295039223
3178.0,0.13077893725279396
3177.0,0.130044398528278
3176.0,0.12930023973856083
3175.0,0.12852933752513865
3174.0,0.1277298696646922
3173.0,0.1269148383303631
3172.0,0.12611063721551372
3171.0,0.1253417695397501
3170.0,0.12460902593031001
3169.0,0.12388647306828265
3168.0,0.12314433440875566
3167.0,0.12237758980252264
3166.0,0.12161354059867868
3165.0,0.12088641507104511
3164.0,0.12019768152193841
3163.0,0.11950733559676086
3162.0,0.11877724027705064
3161.0,0.11801749604166263
3160.0,0.11727067688845633
3159.0,0.11655207670264241
3158.0,0.11583118725230546
3157.0,0.11508023402262457
3156.0,0.1143158804784059
3155.0,0.11357368479591852
3154.0,0.11285960039601804
3153.0,0.11214868505239199
3152.0,0.11141947941148936
3151.0,0.1106700710776898
3150.0,0.10990975778388785
3149.0,0.10915452329926327
3148.0,0.10842411655686682
3147.0,0.10772206486708523
3146.0,0.10701975401280978
3145.0,0.10628062091648123
3144.0,0.10550452776710836
3143.0,0.10473357766416301
3142.0,0.1040109916407004
3141.0,0.10334490411727455
3140.0,0.1027112775830404
3139.0,0.10207810491956441
3138.0,0.10142372878147295
3137.0,0.10074426656949238
3136.0,0.10005072642808352
3135.0,0.09935440767592076
3134.0,0.09865508443814743
3133.0,0.09795128261065045
3132.0,0.09725988474397655
3131.0,0.09661020303292078
3130.0,0.09601140859071376
3129.0,0.0954341579961964
3128.0,0.09483259156999348
3127.0,0.09418268349771393
3126.0,0.09349451619170221
3125.0,0.0927933995711018
3124.0,0.09210125047471612
3123.0,0.09143638217508776
3122.0,0.0908168851599091
3121.0,0.09025166817508892
3120.0,0.0897297285280648
3119.0,0.08922542840212139
3118.0,0.0887172083431142
3117.0,0.08820010275617954
3116.0,0.0876809023706292
3115.0,0.08716644107395066
3114.0,0.08666090472526825
3113.0,0.08617343460331801
3112.0,0.08572280065063104
3111.0,0.08532747241838168
3110.0,0.08498576503066915
3109.0,0.0846653163607847
3108.0,0.08431951489544234
3107.0,0.08392179605727215
3106.0,0.08348234625488138
3105.0,0.08302760753005627
3104.0,0.08256673033196371
3103.0,0.08208461698963092
3102.0,0.08156428751593753
3101.0,0.0810075183616162
3100.0,0.08043301516210943
3099.0,0.07986050851200023
3098.0,0.07929975300430359
3097.0,0.07874907590958294
3096.0,0.0782021206882108
3095.0,0.07766378766453531
3094.0,0.07716464988876218
3093.0,0.07675414903380812
3092.0,0.07647383687480702
3091.0,0.07633815368869275
3090.0,0.0763405668587952
3089.0,0.07646874723295805
3088.0,0.0767052421737032
3087.0,0.07701426872413966
3086.0,0.07733155937314354
3085.0,0.07756927494583062
3084.0,0.07763608445720907
3083.0,0.07746658404943194
3082.0,0.07704575857749932
3081.0,0.07640802371892731
3080.0,0.07561099010551593
3079.0,0.07471299006820525
3078.0,0.07377425555180106
3077.0,0.07286133170668206
3076.0,0.07203262390146085
3075.0,0.07132086066841992
3074.0,0.07073662528042295
3073.0,0.0702821547574049
3072.0,0.06995108820790966
3071.0,0.06972335801965991
3070.0,0.0695762254869656
3069.0,0.06950404745764492
3068.0,0.06952109067575868
3067.0,0.06964758604278999
3066.0,0.0698976246855805
3065.0,0.07026670769150017
3064.0,0.07070994970724735
3063.0,0.0711295647930825
3062.0,0.07140507154062707
3061.0,0.07144889311471098
3060.0,0.07122915899230407
3059.0,0.07074445039037985
3058.0,0.06999735844071993
3057.0,0.06900980361602804
3056.0,0.06785123924526436
3055.0,0.06662792827657553
3054.0,0.06543910323659625
3053.0,0.06434512057703622
3052.0,0.06336300216095597
3051.0,0.062473384561103684
3050.0,0.06163791272874382
3049.0,0.06083187536799148
3048.0,0.0600719171420196
3047.0,0.05940541028046459
3046.0,0.058867355875773915
3045.0,0.05845111374773181
3044.0,0.058118818927731346
3043.0,0.05783623631759695
3042.0,0.057597617986398605
3041.0,0.057425073188088954
3040.0,0.05735189633208556
3039.0,0.057405491816317766
3038.0,0.05760301640507045
3037.0,0.057960956161088435
3036.0,0.05850504294287098
3035.0,0.05926616222965466
3034.0,0.06026410340003667
3033.0,0.06149587979148777
3032.0,0.0629369735568727
3031.0,0.064543726234981
3030.0,0.06624539462568765
3029.0,0.06792894171707917
3028.0,0.06942965635661509
3027.0,0.07054141543121142
3026.0,0.07105651843270122
3025.0,0.07082625201839196
3024.0,0.0698081104072276
3023.0,0.06807165792850425
3022.0,0.06577768375700319
3021.0,0.06315688459425692
3020.0,0.060473761087742356
3019.0,0.05795958198281945
3018.0,0.05574753157352382
3017.0,0.05385476076533856
3016.0,0.05222982381072579
3015.0,0.050825524225902495
3014.0,0.04963056596824786
3013.0,0.04864642291414683
3012.0,0.04785404389166132
3011.0,0.047219464177164765
3010.0,0.046718978850792556
3009.0,0.04633924945747819
3008.0,0.046059859807167536
3007.0,0.04585720676512442
3006.0,0.04572299599027603
3005.0,0.0456568901434709
3004.0,0.04563491927875496
3003.0,0.04560038909768989
3002.0,0.04549007029277607
3001.0,0.045257181901123586
3000.0,0.04487158577304484
2999.0,0.04432459213664957
2998.0,0.04364952225151002
2997.0,0.04292228300998449
2996.0,0.042220350130821704
2995.0,0.04158051728067223
2994.0,0.04100330486052501
2993.0,0.04048409402421909
2992.0,0.04002544101827871
2991.0,0.03962632897502459
2990.0,0.039281537116076466
2989.0,0.038994541290872604
2988.0,0.03877467985996605
2987.0,0.03861493516820639
2986.0,0.0384808821475818
2985.0,0.038329988043548015
2984.0,0.038142134364976724
2983.0,0.037930802870912966
2982.0,0.03773123715396928
2981.0,0.03757762457023049
2980.0,0.037483648190124064
2979.0,0.03743484833795672
2978.0,0.03739714248373685
2977.0,0.03734056520039636
2976.0,0.037259331339854394
2975.0,0.037171979581570376
2974.0,0.03710144478283129
2973.0,0.03705703051134463
2972.0,0.037036832624068504
2971.0,0.03704068277867831
2970.0,0.037070395955800466
2969.0,0.03711677420369574
2968.0,0.03715927308450006
2967.0,0.03718731067502045
2966.0,0.03721460123055559
2965.0,0.03726457318891753
2964.0,0.037345749053527305
2963.0,0.037448164899913323
2962.0,0.03755587574421118
2961.0,0.03765318236638624
2960.0,0.03772767577150416
2959.0,0.037783557728412596
2958.0,0.037849103768165
2957.0,0.037952269342019965
2956.0,0.03808536327070774
2955.0,0.038208377881284464
2954.0,0.038294048345727486
2953.0,0.038361077160440356
2952.0,0.03845865406667074
2951.0,0.03862615862096142
2950.0,0.03886802890221362
2949.0,0.039156315990631144
2948.0,0.0394538850198308
2947.0,0.03974739986099297
2946.0,0.04006325026714102
2945.0,0.04044703725705748
2944.0,0.04092673859724654
2943.0,0.041506641500123356
2942.0,0.042192087216034284
2941.0,0.042997510298360846
2940.0,0.04391760186295405
2939.0,0.04490968620151341
2938.0,0.04592389863307698
2937.0,0.04694625335810899
2936.0,0.04800206792405419
2935.0,0.04912259945538184
2934.0,0.05031788879940634
2933.0,0.05156882649859634
2932.0,0.0528288228645388
2931.0,0.05403850318202836
2930.0,0.05515961043748938
2929.0,0.05619623083384646
2928.0,0.05716647232264361
2927.0,0.05805419850964956
2926.0,0.05880179773331173
2925.0,0.059357355996612716
2924.0,0.05970829188281775
2923.0,0.05986469096085185
2922.0,0.059831869026079926
2921.0,0.05961112229047106
2920.0,0.05921180534111202
2919.0,0.058646009277667575
2918.0,0.0579229697130691
2917.0,0.05706189275266624
2916.0,0.05610336785391905
2915.0,0.05509403511261048
2914.0,0.054058173305855356
2913.0,0.052994718284945265
2912.0,0.05189917315442652
2911.0,0.050784055446193355
2910.0,0.049675889934946066
2909.0,0.04859381643596889
2908.0,0.04753626646877417
2907.0,0.046490178867273135
2906.0,0.045452082271716654
2905.0,0.04442892416223297
2904.0,0.04341829811226249
2903.0,0.042402490410748284
2902.0,0.04137211380281787
2901.0,0.04034607357426809
2900.0,0.03935618986394697
2899.0,0.03842256738676714
2898.0,0.037552937671501356
2897.0,0.036755221106399914
2896.0,0.036031297438715346
2895.0,0.03536323416771485
2894.0,0.03472719107357807
2893.0,0.034122323931437555
2892.0,0.03356957501961427
2891.0,0.03307864957652228
2890.0,0.03262954474293234
2889.0,0.03219464383275172
2888.0,0.03176499307394515
2887.0,0.03134743301292656
2886.0,0.03094593626063752
2885.0,0.030555722336699967
2884.0,0.03017296941198941
2883.0,0.02979923848510798
2882.0,0.0294363876827584
2881.0,0.02908392041812363
2880.0,0.028743277429973572
2879.0,0.028422088346571873
2878.0,0.028130929760160135
2877.0,0.02787552276715394
2876.0,0.027653903037063308
2875.0,0.02746194114464895
2874.0,0.02729922152909268
2873.0,0.027164876065523095
2872.0,0.027048791303791547
2871.0,0.026935906054658735
2870.0,0.026824378606452457
2869.0,0.02673377358674125
2868.0,0.026688878470664035
2867.0,0.026696497349215777
2866.0,0.026746661256950646
2865.0,0.02683389657613255
2864.0,0.026968653413967907
2863.0,0.027169064251293996
2862.0,0.027448349179482155
2861.0,0.02781168610178988
2860.0,0.028253800590605373
2859.0,0.028752768779512727
2858.0,0.029273613537448208
2857.0,0.029786961353299467
2856.0,0.030280723763861164
2855.0,0.030747640118522608
2854.0,0.031164620978495525
2853.0,0.03149105482836239
2852.0,0.03168735211661092
2851.0,0.031730559520456524
2850.0,0.031614245838244445
2849.0,0.03134445065632043
2848.0,0.030933406282083867
2847.0,0.030391060217836587
2846.0,0.029718875828978294
2845.0,0.02891735201665196
2844.0,0.028001631215776313
2843.0,0.02700526933306063
2842.0,0.025970563512051806
2841.0,0.024937734923083515
2840.0,0.023943227039833703
2839.0,0.023018030279249816
2838.0,0.02217981892657222
2837.0,0.02142927932743609
2836.0,0.020759247159688975
2835.0,0.020168434893112812
2834.0,0.01966232483003756
2833.0,0.019241192433343893
2832.0,0.018891636951667224
2831.0,0.018591689874654815
2830.0,0.018321918292437785
2829.0,0.018070254353407804
2828.0,0.01783300940045303
2827.0,0.01761393626306447
2826.0,0.017418792116503705
2825.0,0.017247786062744255
2824.0,0.017094510756204894
2823.0,0.016953386438788243
2822.0,0.0168246830778219
2821.0,0.016708594974569
2820.0,0.016596341675378344
2819.0,0.01647158995942955
2818.0,0.016323093063032715
2817.0,0.016159156813977817
2816.0,0.016007859058259515
2815.0,0.01589430367178461
2814.0,0.0158146728631804
2813.0,0.015738174148252015
2812.0,0.01564277477117245
2811.0,0.015544321766880718
2810.0,0.015474938953646978
2809.0,0.015435314176419239
2808.0,0.015388183252107127
2807.0,0.01530422972296678
2806.0,0.015197644661453121
2805.0,0.015103845840804257
2804.0,0.015032155264538313
2803.0,0.014957068371220194
2802.0,0.01485332073070154
2801.0,0.014725010578163989
2800.0,0.014598032227099333
2799.0,0.014494072354844352
2798.0,0.01441560178112836
2797.0,0.014350218094063671
2796.0,0.014285720598007819
2795.0,0.014218734547941064
2794.0,0.014149797862530691
2793.0,0.014075945361021951
2792.0,0.013994008640445761
2791.0,0.013909578922878665
2790.0,0.013833489430604595
2789.0,0.013768536068418262
2788.0,0.013709345863426042
2787.0,0.013656166387618759
2786.0,0.013615464215748791
2785.0,0.013581270510649841
2784.0,0.013530221417234374
2783.0,0.013447463377225032
2782.0,0.013348883193941386
2781.0,0.013265412816562494
2780.0,0.01321027732880251
2779.0,0.013170811485425638
2778.0,0.013127693551585091
2777.0,0.013072085829369737
2776.0,0.013005872461108741
2775.0,0.012937252539551969
2774.0,0.012876877696678621
2773.0,0.012829142770935673
2772.0,0.012786718752292672
2771.0,0.012737846167286208
2770.0,0.012677067596395291
2769.0,0.012606272732452494
2768.0,0.012530260194540779
2767.0,0.01245674808484269
2766.0,0.012396401546607155
2765.0,0.01235504365524194
2764.0,0.012326228373544369
2763.0,0.012296071748479482
2762.0,0.012253803398743959
2761.0,0.012194653001467394
2760.0,0.012119379606073937
2759.0,0.01203757770433367
2758.0,0.011965925743224968
2757.0,0.011915782249775214
2756.0,0.011883781627323885
2755.0,0.011858396376855828
2754.0,0.011832984915361005
2753.0,0.011807165854626626
2752.0,0.01177875513899901
2751.0,0.011741034899508465
2750.0,0.011688859100770554
2749.0,0.01162595607197516
2748.0,0.011566182723954268
2747.0,0.011524756194197286
2746.0,0.011502728107297472
2745.0,0.011482674365524718
2744.0,0.01144744182856744
2743.0,0.011400967955613317
2742.0,0.011361681196711184
2741.0,0.011338030400241615
2740.0,0.011322520663374502
2739.0,0.011308372617166036
2738.0,0.011294999231653554
2737.0,0.011274816058967463
2736.0,0.01123494065629291
2735.0,0.01118052286199092
2734.0,0.011137937501940785
2733.0,0.011122120910663653
2732.0,0.011114097282188581
2731.0,0.01108339039828902
2730.0,0.011022546300200445
2729.0,0.010949016168218523
2728.0,0.010884385744512795
2727.0,0.010841465948960306
2726.0,0.010818812493083713
2725.0,0.01079753597632927
2724.0,0.010756933902022595
2723.0,0.010705034267852792
2722.0,0.01067746599695152
2721.0,0.010691947892199337
2720.0,0.01071825103521536
2719.0,0.01071045178333974
2718.0,0.010657779733729514
2717.0,0.010585599063421554
2716.0,0.010519086814617757
2715.0,0.010466649278154477
2714.0,0.01042918506669685
2713.0,0.010403165709703436
2712.0,0.01037715720454377
2711.0,0.010343928184211482
2710.0,0.010313050669923933
2709.0,0.010296621132423876
2708.0,0.010289012448941854
2707.0,0.010276892982152534
2706.0,0.01026075769171034
2705.0,0.010247802752391455
2704.0,0.010230319068388309
2703.0,0.010192162535723265
2702.0,0.010134549533605652
2701.0,0.01007639881078969
2700.0,0.010031215205983646
2699.0,0.010001983862528995
2698.0,0.00999417132905896
2697.0,0.010010964834451809
2696.0,0.010034444528032021
2695.0,0.010032983044325703
2694.0,0.009995064398415377
2693.0,0.009940459918291497
2692.0,0.009894911279369875
2691.0,0.009866384414242915
2690.0,0.009847449840177835
2689.0,0.009827156176178516
2688.0,0.00979733303803162
2687.0,0.009759718400290857
2686.0,0.009728314703034585
2685.0,0.009714223133653423
2684.0,0.00970938712824661
2683.0,0.009697291182968746
2682.0,0.009677126315973499
2681.0,0.009662435413001704
2680.0,0.009656125942159439
2679.0,0.009643460576502842
2678.0,0.00961275472590854
2677.0,0.009570171218234091
2676.0,0.009530945859040652
2675.0,0.00950604744365557
2674.0,0.009498422656086955
2673.0,0.009500634803750865
2672.0,0.00949620627373283
2671.0,0.009475446969361643
2670.0,0.009451384154721623
2669.0,0.009449239160797361
2668.0,0.009478428825475206
2667.0,0.009525363772447363
2666.0,0.009572173927763874
2665.0,0.009610709764951623
2664.0,0.009638615896089603
2663.0,0.009654591372807771
2662.0,0.009661098315615771
2661.0,0.009661887924825967
2660.0,0.009655652815828026
2659.0,0.009639534255662743
2658.0,0.009616610823141218
2657.0,0.009591186475767757
2656.0,0.009561305982651378
2655.0,0.009527938527903733
2654.0,0.009504667430555681
2653.0,0.009500329860140485
2652.0,0.009495907857648707
2651.0,0.009460185696702083
2650.0,0.00939003768035641
2649.0,0.009314432504281373
2648.0,0.00925380396223056
2647.0,0.009197554576753262
2646.0,0.009131573888561974
2645.0,0.009067789089043519
2644.0,0.009029762013712327
2643.0,0.009019651698576193
2642.0,0.009014950285548788
2641.0,0.008992265827597604
2640.0,0.008943789415076987
2639.0,0.008875305472136016
2638.0,0.008798946665950881
2637.0,0.008729466168019893
2636.0,0.008681884024212395
2635.0,0.008666691371588356
2634.0,0.008681132332276782
2633.0,0.008701484298807904
2632.0,0.00869220702036113
2631.0,0.008634229974752728
2630.0,0.008542514728636713
2629.0,0.008448766793954817
2628.0,0.008369972800480534
2627.0,0.008302382074061983
2626.0,0.008239880027090534
2625.0,0.008183995825301042
2624.0,0.00813656274029429
2623.0,0.008093962815101994
2622.0,0.008050490196632247
2621.0,0.008001813291504211
2620.0,0.007947998928795356
2619.0,0.007897625121096841
2618.0,0.007861619035250747
2617.0,0.007837250719571432
2616.0,0.007809006095654016
2615.0,0.007772697540211079
2614.0,0.0077446572430151135
2613.0,0.007736305007281402
2612.0,0.0077370495097880635
2611.0,0.007736040990014811
2610.0,0.007740005566302851
2609.0,0.0077480918104839164
2608.0,0.007729821356105917
2607.0,0.007659048858752347
2606.0,0.007558483868654677
2605.0,0.007481582695155416
2604.0,0.007457400335414461
2603.0,0.007478881496303821
2602.0,0.007530794607212963
2601.0,0.00759299489818652
2600.0,0.0076249404843035
2599.0,0.0075883299331546555
2598.0,0.0074910750427364635
2597.0,0.0073798204111577975
2596.0,0.007285226442215903
2595.0,0.007202593801414307
2594.0,0.0071273203199622
2593.0,0.007074135027511842
2592.0,0.007052570450557079
2591.0,0.007051268455872053
2590.0,0.007056502693822559
2589.0,0.0070641993658674615
2588.0,0.007067994203023089
2587.0,0.007058462479441235
2586.0,0.007039529934771867
2585.0,0.007025228085546974
2584.0,0.00701669393318107
2583.0,0.007001824126440456
2582.0,0.006978076831720114
2581.0,0.006953929819666188
2580.0,0.0069278830261611385
2579.0,0.006889695330759284
2578.0,0.006842457464433528
2577.0,0.006798975172438002
2576.0,0.006756018580603984
2575.0,0.006698003361259013
2574.0,0.006628642427661028
2573.0,0.006573295334374459
2572.0,0.006545516409290254
2571.0,0.006535468285901931
2570.0,0.006534554411088628
2569.0,0.0065457966483491534
2568.0,0.006564589975338049
2567.0,0.006573108788006558
2566.0,0.006561400797271561
2565.0,0.006535439384843658
2564.0,0.0065008214351141395
2563.0,0.006457944684566897
2562.0,0.0064153357219266325
2561.0,0.006387219293585164
2560.0,0.006375056313502443
2559.0,0.006369688936328442
2558.0,0.0063715532667776775
2557.0,0.006389315661767638
2556.0,0.006419595559877328
2555.0,0.006448669953969088
2554.0,0.006472971131531021
2553.0,0.006495982471265232
2552.0,0.006506436550309286
2551.0,0.006483934602828074
2550.0,0.006429093988194326
2549.0,0.006368105451510548
2548.0,0.006324483201415674
2547.0,0.006303186173432515
2546.0,0.006301482746416598
2545.0,0.006315546452165565
2544.0,0.006334509393959907
2543.0,0.006343697310146508
2542.0,0.0063352283242313874
2541.0,0.006307767975819621
2540.0,0.006265429057737843
2539.0,0.006227338613555196
2538.0,0.006221401322689901
2537.0,0.00625035012257187
2536.0,0.006280490194168492
2535.0,0.006285534704588928
2534.0,0.00628293900819472
2533.0,0.006301363991678704
2532.0,0.0063323736754408765
2531.0,0.006346732973527144
2530.0,0.006343290260129143
2529.0,0.006348377189655204
2528.0,0.006378592022526333
2527.0,0.006434627700146968
2526.0,0.006516150814453238
2525.0,0.006606510436566232
2524.0,0.006658471939769711
2523.0,0.006637433493907919
2522.0,0.006570715413870948
2521.0,0.00651569168509294
2520.0,0.006487545907351579
2519.0,0.006459230073725162
2518.0,0.006423611228698929
2517.0,0.0064068149732501595
2516.0,0.006419138811801005
2515.0,0.006438435716782745
2514.0,0.006448364092454481
2513.0,0.006455452522095438
2512.0,0.006464710101932149
2511.0,0.006472682321862983
2510.0,0.006484693440349718
2509.0,0.006503467751163765
2508.0,0.006504072451040009
2507.0,0.006461305873415051
2506.0,0.006399917971557699
2505.0,0.006371573226056655
2504.0,0.0063790257188677734
2503.0,0.00637205271875249
2502.0,0.006328503344517797
2501.0,0.0062905886622001035
2500.0,0.0063009041621578665
2499.0,0.006343336427735469
2498.0,0.006372275193376712
2497.0,0.006370170672318385
2496.0,0.00635389427555778
2495.0,0.0063467175234922305
2494.0,0.006360624996189009
2493.0,0.00638777035024479
2492.0,0.006400627585927651
2491.0,0.006380431181240532
2490.0,0.006348080646089673
2489.0,0.0063420826031739
2488.0,0.006365106373725602
2487.0,0.006382935454455288
2486.0,0.006378569708637431
2485.0,0.006370860188913792
2484.0,0.006369885156602721
2483.0,0.0063512150488539065
2482.0,0.006294708137079082
2481.0,0.006221339562947504
2480.0,0.006169620882028006
2479.0,0.006152716075254383
2478.0,0.006154429760648615
2477.0,0.006152534383940443
2476.0,0.006133806439420086
2475.0,0.006098397223390535
2474.0,0.006058307155915785
2473.0,0.00602488727772077
2472.0,0.00600015680420035
2471.0,0.00599062685909704
2470.0,0.006017660754543586
2469.0,0.006090721611374356
2468.0,0.006177895244850215
2467.0,0.0062305930377741904
2466.0,0.006235080330271898
2465.0,0.0062151827576543955
2464.0,0.0061903960676198645
2463.0,0.006162044741478471
2462.0,0.006139137049258454
2461.0,0.0061447906442418645
2460.0,0.006190349365014142
2459.0,0.006266168527641804
2458.0,0.0063572274010227124
2457.0,0.006443328835408552
2456.0,0.006489819735582434
2455.0,0.0064714107231082845
2454.0,0.006407654758472007
2453.0,0.006346677083696874
2452.0,0.0063131780393922655
2451.0,0.006299739194298335
2450.0,0.006302924633561987
2449.0,0.006328546620831794
2448.0,0.006360027081761488
2447.0,0.006364181869494381
2446.0,0.006340065439220072
2445.0,0.006327118050911864
2444.0,0.006351892644270326
2443.0,0.006396559182386955
2442.0,0.006431072256741728
2441.0,0.006446438408386468
2440.0,0.006443450542292138
2439.0,0.006417667609053949
2438.0,0.006373905168478474
2437.0,0.006335889977643613
2436.0,0.00632579795858003
2435.0,0.006344934555645496
2434.0,0.006377955147499649
2433.0,0.006401979507745672
2432.0,0.006394932525867144
2431.0,0.006355668553603047
2430.0,0.006313844003560328
2429.0,0.006299881804503875
2428.0,0.006311258753210902
2427.0,0.006330590757013844
2426.0,0.006362492926727551
2425.0,0.0064160443513219395
2424.0,0.006460268845390126
2423.0,0.006444620607863131
2422.0,0.006370949904071676
2421.0,0.006304199294643762
2420.0,0.006297435083346391
2419.0,0.006338347112033722
2418.0,0.006381862522879112
2417.0,0.006404581334658751
2416.0,0.006412624872420368
2415.0,0.006420888132271401
2414.0,0.006439726658465364
2413.0,0.006465391723195711
2412.0,0.006475415591431674
2411.0,0.006449213717627922
2410.0,0.006394884417587758
2409.0,0.006337665361348605
2408.0,0.006286457935498925
2407.0,0.006238097946200136
2406.0,0.006209821943889467
2405.0,0.006231058839898058
2404.0,0.006297707121733288
2403.0,0.006367004137424413
2402.0,0.006406878842576485
2401.0,0.006423929352306416
2400.0,0.006435106735776641
2399.0,0.006440498305062086
2398.0,0.006436789409106382
2397.0,0.006431909258485851
2396.0,0.006430963469120558
2395.0,0.006427370107391881
2394.0,0.006420643859687695
2393.0,0.006425922657409858
2392.0,0.006455358881918919
2391.0,0.006503293974525996
2390.0,0.006555536552815117
2389.0,0.006599325255154846
2388.0,0.006621241084737261
2387.0,0.0066136617199983065
2386.0,0.006590579374815888
2385.0,0.0065828167495990296
2384.0,0.0066096449938998925
2383.0,0.00666244617249705
2382.0,0.00671638059129701
2381.0,0.006747868065642809
2380.0,0.006745648076429157
2379.0,0.0067247721217111875
2378.0,0.006727255010008963
2377.0,0.0067794651330918155
2376.0,0.0068441986161152666
2375.0,0.006848712008527741
2374.0,0.0067721742010625665
2373.0,0.006674719197965766
2372.0,0.006628333014378223
2371.0,0.006663259824128254
2370.0,0.006784675462048298
2369.0,0.006961624459591258
2368.0,0.0070889413876296424
2367.0,0.007076295077782408
2366.0,0.007005018119200332
2365.0,0.007051911751808047
2364.0,0.0072184916403120695
2363.0,0.0073268326968100525
2362.0,0.0073180123253442815
2361.0,0.007338970983233023
2360.0,0.007488279567629919
2359.0,0.007682910494436748
2358.0,0.007861143880789295
2357.0,0.008064648293965948
2356.0,0.008239363316838187
2355.0,0.008239544004543171
2354.0,0.008048529710514254
2353.0,0.007822734808804651
2352.0,0.007698281714282364
2351.0,0.007684951893103963
2350.0,0.00774569845383101
2349.0,0.007823912778306637
2348.0,0.007861618179945419
2347.0,0.007844285578841186
2346.0,0.0078233262779946
2345.0,0.007880899361242135
2344.0,0.008008890442183255
2343.0,0.008128549937077265
2342.0,0.008184203548562148
2341.0,0.0081985321151796
2340.0,0.00823068958746452
2339.0,0.00828690505799843
2338.0,0.008350239860574619
2337.0,0.00840867056855763
2336.0,0.00845479878160466
2335.0,0.00846732498866693
2334.0,0.008442831806912368
2333.0,0.00840336985724145
2332.0,0.008379132825525807
2331.0,0.008385511239589858
2330.0,0.008462810033385958
2329.0,0.00866162745041886
2328.0,0.00900679621194403
2327.0,0.00945392452845585
2326.0,0.009885187531628451
2325.0,0.010167793085469052
2324.0,0.010200596382795793
2323.0,0.01000670795116558
2322.0,0.009705562640976507
2321.0,0.009415966051290182
2320.0,0.009185931004016197
2319.0,0.009016990371113956
2318.0,0.00892062757669891
2317.0,0.008880343710755485
2316.0,0.008845366459530324
2315.0,0.008771367188986492
2314.0,0.008684683321273038
2313.0,0.008640151634161751
2312.0,0.008651926867311035
2311.0,0.008683197989764808
2310.0,0.008697497454999875
2309.0,0.008679526808225474
2308.0,0.008624047924947744
2307.0,0.008549470582320072
2306.0,0.008496851868492458
2305.0,0.008489815257003923
2304.0,0.00850123463804822
2303.0,0.008495271679529869
2302.0,0.008477320452342086
2301.0,0.00847456724742548
2300.0,0.008489767554763767
2299.0,0.008511572969673132
2298.0,0.008547648076503486
2297.0,0.00860161248652097
2296.0,0.008638585068161286
2295.0,0.008629944242306497
2294.0,0.008613619086074054
2293.0,0.0086607965059973
2292.0,0.008780217320883296
2291.0,0.008914424702238678
2290.0,0.009016764825670978
2289.0,0.009082502706748442
2288.0,0.009101337337380938
2287.0,0.009047920697889003
2286.0,0.008929134837314334
2285.0,0.008793086055224443
2284.0,0.008671926335579725
2283.0,0.008561967321925726
2282.0,0.008464371433752543
2281.0,0.008395416792163633
2280.0,0.00834683519169237
2279.0,0.008287383076173719
2278.0,0.008220359514145638
2277.0,0.00818677691987382
2276.0,0.008199644175949367
2275.0,0.008222627588022183
2274.0,0.008223627893714308
2273.0,0.008191751934907995
2272.0,0.008104377743011823
2271.0,0.007948246559360403
2270.0,0.007785102823596577
2269.0,0.00771943557997273
2268.0,0.007769570344960463
2267.0,0.007839134139990104
2266.0,0.00784035764397939
2265.0,0.007783318279615481
2264.0,0.007719486550842173
2263.0,0.007669522986893735
2262.0,0.007644293104560308
2261.0,0.00766972225605869
2260.0,0.00774100752242572
2259.0,0.007797863746618115
2258.0,0.007782945185446682
2257.0,0.007695003333554674
2256.0,0.0075687173843496346
2255.0,0.007442064383932937
2254.0,0.00735609895574286
2253.0,0.007335448655906661
2252.0,0.0073523327088160974
2251.0,0.007353882578741584
2250.0,0.0073352514411050285
2249.0,0.007338280357065221
2248.0,0.00737905963529756
2247.0,0.007435815513878233
2246.0,0.007507267379394783
2245.0,0.007611758827184893
2244.0,0.007719015809023134
2243.0,0.007757402437253282
2242.0,0.007710426441803968
2241.0,0.007643674079506382
2240.0,0.007612861678383112
2239.0,0.007603799948625516
2238.0,0.007582279412451338
2237.0,0.007544339446531282
2236.0,0.0074960523815373594
2235.0,0.007436890697145923
2234.0,0.007378626371606498
2233.0,0.00732786068389365
2232.0,0.007247392367060217
2231.0,0.007098812698888032
2230.0,0.006929913637697477
2229.0,0.006849188326549595
2228.0,0.006900424064468835
2227.0,0.007028733591821748
2226.0,0.007172724773430727
2225.0,0.007311629486913161
2224.0,0.00741873415915183
2223.0,0.0074590620277830335
2222.0,0.0074544029970372815
2221.0,0.00747595630831267
2220.0,0.007542094906661867
2219.0,0.007584588608291726
2218.0,0.007535093987789902
2217.0,0.007391974803705867
2216.0,0.007205095531860636
2215.0,0.007051971586906964
2214.0,0.007019109701464909
2213.0,0.007121666009221427
2212.0,0.007236882843914114
2211.0,0.007210185646480603
2210.0,0.007039217926771774
2209.0,0.006884916882515474
2208.0,0.006892628617465644
2207.0,0.0070664459972165534
2206.0,0.007313467996641828
2205.0,0.0075177089775456925
2204.0,0.007578614615584596
2203.0,0.007463101229292272
2202.0,0.007231911558280971
2201.0,0.006967858724629754
2200.0,0.0066979025525448046
2199.0,0.0064466025746273276
2198.0,0.006311804367598717
2197.0,0.006376074215515375
2196.0,0.0065692656219111115
2195.0,0.006745722227417656
2194.0,0.0068728170215538896
2193.0,0.007019503379646144
2192.0,0.0071941771965675525
2191.0,0.007327906122105833
2190.0,0.0074026931481523065
2189.0,0.00745915833889267
2188.0,0.007487298642813268
2187.0,0.007443038524947002
2186.0,0.007359337084245398
2185.0,0.007294799546231912
2184.0,0.007182300675303773
2183.0,0.006900201911673108
2182.0,0.006509878371114193
2181.0,0.006244188205120353
2180.0,0.006224483618132728
2179.0,0.006348092716009504
2178.0,0.006461738745090057
2177.0,0.006490026941071385
2176.0,0.006395967695335262
2175.0,0.00618299161815668
2174.0,0.005980612328475661
2173.0,0.005989761409369709
2172.0,0.006294465678665788
2171.0,0.006814446633382301
2170.0,0.007405928108740147
2169.0,0.007890214057991625
2168.0,0.00806467926168696
2167.0,0.007882683981851983
2166.0,0.007626730881664543
2165.0,0.007713441420929618
2164.0,0.008246933145074676
2163.0,0.008877249234910576
2162.0,0.009077386205206879
2161.0,0.00842706758521512
2160.0,0.0068195170818811535
2159.0,0.004692199252958076
2158.0,0.002916547000305669
2157.0,0.0021365566774080467
2156.0,0.0022496409038429217
2155.0,0.0027199509931597446
2154.0,0.003202381693985841
2153.0,0.003655914810667223
2152.0,0.0040532964955236
2151.0,0.004269978812192751
2150.0,0.004276828356791229
2149.0,0.004206555133041613
2148.0,0.004169205429774073
2147.0,0.004160742055852221
2146.0,0.004177852955742664
2145.0,0.004266471827604717
2144.0,0.004425810888514602
2143.0,0.0046008371810814745
2142.0,0.00477384884708083
2141.0,0.004942028614526533
2140.0,0.00502183693108404
2139.0,0.004910326074406617
2138.0,0.004636344390032847
2137.0,0.004332966532996437
2136.0,0.004071680949836669
2135.0,0.003849039689736982
2134.0,0.00371350228999714
2133.0,0.0037479634587733713
2132.0,0.003931209008408162
2131.0,0.004155010061970365
2130.0,0.004375609438743032
2129.0,0.004628453582479267
2128.0,0.004904250290823492
2127.0,0.005132955554004773
2126.0,0.005297963950110516
2125.0,0.005455179575395215
2124.0,0.005614927454074372
2123.0,0.005706596909908543
2122.0,0.0056915337895355606
2121.0,0.005636276083038848
2120.0,0.0056458169017899575
2119.0,0.005784007523835306
2118.0,0.006060984218155025
2117.0,0.006413821995733015
2116.0,0.0066922398365173085
2115.0,0.006755902748575227
2114.0,0.006622039990595319
2113.0,0.00645435544302969
2112.0,0.006387304099969457
2111.0,0.006420735093879803
2110.0,0.006488414424122109
2109.0,0.006539034419721465
2108.0,0.006535887244357385
2107.0,0.006465408373287841
2106.0,0.006372917366274367
2105.0,0.0063234794706633944
2104.0,0.006315030150891539
2103.0,0.0063024818687823754
2102.0,0.006301038523919053
2101.0,0.006366970975312285
2100.0,0.006463676976746968
2099.0,0.006454837896170667
2098.0,0.006266218207871052
2097.0,0.005975924208242406
2096.0,0.005719064691693926
2095.0,0.005579216552358608
2094.0,0.0055948052786585125
2093.0,0.00576765534838629
2092.0,0.00602595405969425
2091.0,0.006253124864562131
2090.0,0.006387389580561155
2089.0,0.0064526186637609406
2088.0,0.006488332008232013
2087.0,0.0065153357785328195
2086.0,0.006563434773054135
2085.0,0.006647783576540932
2084.0,0.006710406766501236
2083.0,0.0066715508774490475
2082.0,0.006554451400101385
2081.0,0.006473723109944959
2080.0,0.006482110679123199
2079.0,0.006514868335432322
2078.0,0.006510858612367638
2077.0,0.00649558182758025
2076.0,0.006510396669251352
2075.0,0.006544807511483565
2074.0,0.006573862016635562
2073.0,0.0065899198206592095
2072.0,0.006570637635653848
2071.0,0.006489082384856339
2070.0,0.006377388907103002
2069.0,0.006310748343521743
2068.0,0.006308365886815061
2067.0,0.006313552680126325
2066.0,0.006279938673252834
2065.0,0.006212865212957935
2064.0,0.006134496274645101
2063.0,0.006080076659177282
2062.0,0.00610703612836867
2061.0,0.006220088573113553
2060.0,0.006310664351668481
2059.0,0.006267025322541906
2058.0,0.006117533489289704
2057.0,0.005970551511676915
2056.0,0.005873766955457955
2055.0,0.005856854601772447
2054.0,0.006038372835226743
2053.0,0.0064917826572648335
2052.0,0.007021590368118065
2051.0,0.007266127696795956
2050.0,0.0070650704583691635
2049.0,0.006615939352876955
2048.0,0.006201654364959676
2047.0,0.0059153062206808845
2046.0,0.005745579363566725
2045.0,0.005698117539312687
2044.0,0.005725423126520148
2043.0,0.005724624801789124
2042.0,0.005682126216309135
2041.0,0.005676329842380791
2040.0,0.005703125309707617
2039.0,0.005664613918665683
2038.0,0.0055411707123329355
2037.0,0.005389927746654932
2036.0,0.005186958425042456
2035.0,0.004888701526423023
2034.0,0.004632435727540406
2033.0,0.004600519292193852
2032.0,0.004691155733914501
2031.0,0.0046500965993202985
2030.0,0.004510997232160495
2029.0,0.004542090486417782
2028.0,0.004743685270796384
2027.0,0.004773612529438885
2026.0,0.004459606969974617
2025.0,0.004051991197180298
2024.0,0.003838918202386076
2023.0,0.0038148655707281477
2022.0,0.0038682980719469823
2021.0,0.003982155695373059
2020.0,0.004106552930568183
2019.0,0.004104524278494649
2018.0,0.003969706918984518
2017.0,0.003892949756208283
2016.0,0.003968978795899973
2015.0,0.0040601525045655595
2014.0,0.004066475182694631
2013.0,0.004089491461886767
2012.0,0.004223626592968018
2011.0,0.004365717018936867
2010.0,0.004332764497300794
2009.0,0.00405151173323855
2008.0,0.0035845901345303247
2007.0,0.0030945169176300725
2006.0,0.002806574671578863
2005.0,0.002854371194322765
2004.0,0.0031423082920022357
2003.0,0.0034891971639799207
2002.0,0.0038481310059693633
2001.0,0.004232965346407761
2000.0,0.004526132296530927
1999.0,0.004580879752547067
1998.0,0.004473047079445502
1997.0,0.004430373514090302
1996.0,0.004509078223256173
1995.0,0.0045580351594234235
1994.0,0.0045117997669782365
1993.0,0.00449806729732166
1992.0,0.004596750473530372
1991.0,0.004696154505208378
1990.0,0.004696599665802017
1989.0,0.004655309842634879
1988.0,0.0046557217825913275
1987.0,0.004713284627660111
1986.0,0.004844379741375535
1985.0,0.0050766926337914966
1984.0,0.005365767960171628
1983.0,0.005633057386449754
1982.0,0.005865818407690432
1981.0,0.0060133137220394475
1980.0,0.005844752437790918
1979.0,0.005178465606958517
1978.0,0.004269087534442465
1977.0,0.003639767017290679
1976.0,0.003461053325523231
1975.0,0.003458935140522759
1974.0,0.0034218300424116556
1973.0,0.003396916414556626
1972.0,0.0034109169094048005
1971.0,0.003374917200620568
1970.0,0.0033142546076714626
1969.0,0.0033832179783470544
1968.0,0.0035775934394627444
1967.0,0.003700027697411029
1966.0,0.0036911081904147016
1965.0,0.00370954409818834
1964.0,0.0038229100844261498
1963.0,0.003906567179034465
1962.0,0.0038751182401961445
1961.0,0.0037795361989755817
1960.0,0.003650239940577037
1959.0,0.0034648851716952457
1958.0,0.0033119208778688972
1957.0,0.003358791960758018
1956.0,0.0036098252712968206
1955.0,0.00388760824949453
1954.0,0.004077450732461441
1953.0,0.0042149123026430715
1952.0,0.004328413825525102
1951.0,0.004387857731184046
1950.0,0.004429377353576724
1949.0,0.004537769195115461
1948.0,0.004675613814435691
1947.0,0.004710620799864612
1946.0,0.00464261246624299
1945.0,0.004630052242649083
1944.0,0.004753339773151917
1943.0,0.004909818369669005
1942.0,0.00499760584557117
1941.0,0.0050423716616117015
1940.0,0.005074887823386428
1939.0,0.005058980181686778
1938.0,0.004988421763408342
1937.0,0.004904010811921138
1936.0,0.004783998124208917
1935.0,0.004552997552032508
1934.0,0.004239556792148579
1933.0,0.003988623829964722
1932.0,0.0038693683862100012
1931.0,0.003804390732419151
1930.0,0.0037302422124188862
1929.0,0.0036750715293959943
1928.0,0.003645186009505208
1927.0,0.0035849071234674915
1926.0,0.0034908529133983526
1925.0,0.0034471174161375033
1924.0,0.0034964894213359585
1923.0,0.0035760192212691937
1922.0,0.0036221974410822477
1921.0,0.0036392697134392023
1920.0,0.0036302817953489516
1919.0,0.0035738673489863542
1918.0,0.003512446791073341
1917.0,0.0035232770428501254
1916.0,0.003571724642095025
1915.0,0.0035543230276548652
1914.0,0.003461681476639383
1913.0,0.0033791995247478323
1912.0,0.003348893288672057
1911.0,0.003328580972642138
1910.0,0.0033130039366387563
1909.0,0.0033647269833842657
1908.0,0.003487922696214096
1907.0,0.003603063743491509
1906.0,0.0036704808854325175
1905.0,0.0037212807429650293
1904.0,0.003755520700447405
1903.0,0.0037332360442198726
1902.0,0.003680409205990634
1901.0,0.003680724103526263
1900.0,0.0037414796541064225
1899.0,0.003783357312401177
1898.0,0.0037771483902218376
1897.0,0.003781521668397983
1896.0,0.0038240640017979215
1895.0,0.003855519417560597
1894.0,0.0038620929576742733
1893.0,0.0038999087818660577
1892.0,0.003985063728667556
1891.0,0.004061135035664676
1890.0,0.004105018967501901
1889.0,0.004161095621283505
1888.0,0.0042303173796387665
1887.0,0.004255073043427087
1886.0,0.004237763795812793
1885.0,0.004256496422762598
1884.0,0.0043459377763365925
1883.0,0.004448054853272016
1882.0,0.0045129811674937395
1881.0,0.004557051970009191
1880.0,0.004593724211912012
1879.0,0.004602270663155735
1878.0,0.004594198838242765
1877.0,0.00462801576536636
1876.0,0.004715882507574029
1875.0,0.004792263404428475
1874.0,0.004816019573457213
1873.0,0.0048215953099733895
1872.0,0.004835041007622533
1871.0,0.004820317497728751
1870.0,0.004753874107645787
1869.0,0.004699101938972689
1868.0,0.004706972188457611
1867.0,0.004722909432866047
1866.0,0.004693026794503194
1865.0,0.00462472566954403
1864.0,0.004524739144065953
1863.0,0.004388949518677821
1862.0,0.004248923914568428
1861.0,0.004157217118719242
1860.0,0.004103960910408319
1859.0,0.004023288852898827
1858.0,0.003903377015366599
1857.0,0.003805129907224999
1856.0,0.0037573634907297144
1855.0,0.0037168760695277013
1854.0,0.0036564706366666432
1853.0,0.003603301012403558
1852.0,0.003567956116110076
1851.0,0.0035187136820118156
1850.0,0.003441580453788085
1849.0,0.0033743917359370084
1848.0,0.0033502946129416846
1847.0,0.0033612184197072213
1846.0,0.003397777425387746
1845.0,0.003463729263848604
1844.0,0.0035149295046553314
1843.0,0.0034864617787089373
1842.0,0.0034208864762143645
1841.0,0.0034051583328258417
1840.0,0.00343201797845636
1839.0,0.0034342064983586412
1838.0,0.0034014355227482765
1837.0,0.0033953173471932578
1836.0,0.0034289453368029684
1835.0,0.003440069432996632
1834.0,0.00340680457526574
1833.0,0.003379964313608777
1832.0,0.0033983626260021037
1831.0,0.0034496834928441676
1830.0,0.003523049328191632
1829.0,0.00361477955915278
1828.0,0.003688027217524181
1827.0,0.00371465134642778
1826.0,0.003730722561968441
1825.0,0.00380297300990458
1824.0,0.003911619455880225
1823.0,0.003964624088513691
1822.0,0.003953068886509508
1821.0,0.003942658162939983
1820.0,0.0039498979113623415
1819.0,0.003929349794436932
1818.0,0.0038866419245048092
1817.0,0.003909814256807304
1816.0,0.00402809935016981
1815.0,0.0041654253919938345
1814.0,0.004270456700572357
1813.0,0.004377024077040544
1812.0,0.004514653463150509
1811.0,0.0046367805905144395
1810.0,0.00470940663349907
1809.0,0.004786053205531185
1808.0,0.004909663906253126
1807.0,0.005045063630501386
1806.0,0.005152387952270404
1805.0,0.005243050452535667
1804.0,0.0053305449435051624
1803.0,0.005395988508487442
1802.0,0.005436104926771936
1801.0,0.00548491158888209
1800.0,0.0055401885923286095
1799.0,0.0055365500528038025
1798.0,0.005450703126645626
1797.0,0.00534001085734272
1796.0,0.005251510042753954
1795.0,0.005170757540424279
1794.0,0.005063700619290783
1793.0,0.004936014255795473
1792.0,0.004807455369077753
1791.0,0.004659499482210083
1790.0,0.00450316367531082
1789.0,0.0043963990230642186
1788.0,0.0043504042234676745
1787.0,0.004319739227858402
1786.0,0.004276756533733266
1785.0,0.004248446491136637
1784.0,0.004246712387471533
1783.0,0.004237267836549597
1782.0,0.00420627503528111
1781.0,0.004185151457839368
1780.0,0.0041942355170248415
1779.0,0.004200192485597643
1778.0,0.004188807215218818
1777.0,0.004201492646152254
1776.0,0.004258723290627356
1775.0,0.00432685117959917
1774.0,0.004361927500711106
1773.0,0.004379409094511977
1772.0,0.00440962789233948
1771.0,0.004415109371438396
1770.0,0.004396263229044991
1769.0,0.004426623897005714
1768.0,0.004514989224007884
1767.0,0.004583445524609999
1766.0,0.004595371037900672
1765.0,0.004607389554378956
1764.0,0.004662511692718736
1763.0,0.004731335759884999
1762.0,0.004785194373586977
1761.0,0.00485114893999649
1760.0,0.004950341103817127
1759.0,0.005053431432019495
1758.0,0.005143478421107239
1757.0,0.005250022335404387
1756.0,0.005383861798893254
1755.0,0.005505598149532704
1754.0,0.005608099383973473
1753.0,0.005734135229096408
1752.0,0.005905239707834879
1751.0,0.006073153754193202
1750.0,0.006184108631728538
1749.0,0.00628455792927287
1748.0,0.006417681157065994
1747.0,0.0065373868568157165
1746.0,0.0066185195549211435
1745.0,0.006709259462232773
1744.0,0.006834217330438496
1743.0,0.00693455930656013
1742.0,0.0069763675912032225
1741.0,0.00703052853172147
1740.0,0.007147981050078181
1739.0,0.007249215765708224
1738.0,0.007273704294480498
1737.0,0.007301621565348868
1736.0,0.007401278756613982
1735.0,0.007539618568995677
1734.0,0.007657927640349128
1733.0,0.007727536095041523
1732.0,0.007781540793412959
1731.0,0.007859180053776496
1730.0,0.00797311285446884
1729.0,0.008140332097543022
1728.0,0.008337290641792032
1727.0,0.008505637189642907
1726.0,0.008632875618085699
1725.0,0.008779160675671487
1724.0,0.008989597832428746
1723.0,0.009207591376260775
1722.0,0.009380106449960988
1721.0,0.009555578908058087
1720.0,0.00979664582696634
1719.0,0.010080402562490421
1718.0,0.01036218235830893
1717.0,0.010668112172122306
1716.0,0.010998031812320492
1715.0,0.011297978801367774
1714.0,0.011574285850610386
1713.0,0.011883991178285739
1712.0,0.012235488138186774
1711.0,0.012578604602347446
1710.0,0.012893748456970153
1709.0,0.013224032588263337
1708.0,0.013607935779711044
1707.0,0.01403158550602028
1706.0,0.01448189255929859
1705.0,0.014974050319510795
1704.0,0.015454727651141597
1703.0,0.015883674378650965
1702.0,0.01629686052881588
1701.0,0.016882630239745233
1700.0,0.017677002338396315
1699.0,0.018296628622164815
1698.0,0.018693419128345486
1697.0,0.019248265375821066
1696.0,0.020109100310342243
1695.0,0.02093963966643066
1694.0,0.021475751900490603
1693.0,0.021919774646843374
1692.0,0.022469614466501468
1691.0,0.023132140167660003
1690.0,0.023842146441345507
1689.0,0.02456318264223008
1688.0,0.02525585544908938
1687.0,0.02589459226923659
1686.0,0.026494724307118113
1685.0,0.027301813298673518
1684.0,0.028433108911608253
1683.0,0.0293546533540383
1682.0,0.029907512329924668
1681.0,0.030477664586860312
1680.0,0.03119489338047511
1679.0,0.031930990655649735
1678.0,0.03256742153878334
1677.0,0.03318124675492807
1676.0,0.03392543039457856
1675.0,0.034751947471946217
1674.0,0.03544177469919399
1673.0,0.035988846063374054
1672.0,0.03655864736155259
1671.0,0.03720379801643465
1670.0,0.03788521387488389
1669.0,0.03855286395654887
1668.0,0.039152048984832
1667.0,0.03964077411717367
1666.0,0.0400469125258385
1665.0,0.04046949972242624
1664.0,0.04099614183969742
1663.0,0.04158723262930303
1662.0,0.04209958826918707
1661.0,0.04250145370435908
1660.0,0.0428847110905675
1659.0,0.04325941610148204
1658.0,0.04358132897084913
1657.0,0.04386811263051328
1656.0,0.04420577782966247
1655.0,0.044591547329788477
1654.0,0.044947427919872496
1653.0,0.04522647200164152
1652.0,0.04534092232651369
1651.0,0.04535643930935034
1650.0,0.045401628571692686
1649.0,0.045492223811152165
1648.0,0.04562689589411962
1647.0,0.045746445045076814
1646.0,0.04574977633212455
1645.0,0.04568280820454113
1644.0,0.045656739384074156
1643.0,0.045646165711713316
1642.0,0.045578239967323964
1641.0,0.04544859622406887
1640.0,0.04532290104290425
1639.0,0.04523855706974599
1638.0,0.04514920338281538
1637.0,0.044968167948553336
1636.0,0.044637187407611155
1635.0,0.04418475136323214
1634.0,0.0437276770732861
1633.0,0.04337912177155696
1632.0,0.043132106627436086
1631.0,0.042887147889800074
1630.0,0.04254395314868468
1629.0,0.042077898243130955
1628.0,0.041559630656645925
1627.0,0.04106799250678234
1626.0,0.040607178476979956
1625.0,0.040118059405517825
1624.0,0.03952813091276388
1623.0,0.03882913720509366
1622.0,0.03813705279948649
1621.0,0.03758259213977221
1620.0,0.03717320715297033
1619.0,0.03679199413904798
1618.0,0.036247473323247174
1617.0,0.035448583847926
1616.0,0.03460388981016098
1615.0,0.03396234350838294
1614.0,0.03351490079334171
1613.0,0.033150661127986446
1612.0,0.03281747463199266
1611.0,0.03253887099538224
1610.0,0.03238772015497931
1609.0,0.032444246535743224
1608.0,0.0327746486344634
1607.0,0.03339654815983112
1606.0,0.03426818092980066
1605.0,0.03532621038329145
1604.0,0.03648380056126682
1603.0,0.037527816210579656
1602.0,0.038119329128770266
1601.0,0.038010538963776264
1600.0,0.037179938473964794
1599.0,0.03576042586656467
1598.0,0.033972474885753876
1597.0,0.03208462690365236
1596.0,0.030320610595658624
1595.0,0.028797254253287927
1594.0,0.027539719166940847
1593.0,0.02651437447950112
1592.0,0.025661766795282384
1591.0,0.024936642492528832
1590.0,0.024334011315408147
1589.0,0.023882354970387244
1588.0,0.02361974156434919
1587.0,0.023567181802584734
1586.0,0.02369512581214502
1585.0,0.023895552515163947
1584.0,0.024005252137029972
1583.0,0.023868385381324544
1582.0,0.023404431130193484
1581.0,0.0226845540806989
1580.0,0.021899828849207326
1579.0,0.021205886982998166
1578.0,0.020621169923574687
1577.0,0.0200719731678073
1576.0,0.019539185218772095
1575.0,0.019100819064055533
1574.0,0.018805729931859475
1573.0,0.018617939388576477
1572.0,0.018466629851787934
1571.0,0.018287671030270073
1570.0,0.01807759669107915
1569.0,0.017881150970648022
1568.0,0.017725038604348715
1567.0,0.017612739141987487
1566.0,0.01753242513767432
1565.0,0.01746073142367046
1564.0,0.01740076026526012
1563.0,0.01737791780633823
1562.0,0.017404613832137046
1561.0,0.017424909304972747
1560.0,0.01736235305640596
1559.0,0.01733652205873866
1558.0,0.017358521710799355
1557.0,0.017324974592150724
1556.0,0.01733805408605385
1555.0,0.01742186012188309
1554.0,0.017512066287464052
1553.0,0.01756951147391681
1552.0,0.017607570903736103
1551.0,0.017669710152583666
1550.0,0.017758722472149595
1549.0,0.017847849670166074
1548.0,0.017911260833514155
1547.0,0.01796217639135126
1546.0,0.018015266537031737
1545.0,0.01807417330355466
1544.0,0.0181346564157116
1543.0,0.018177566093062203
1542.0,0.018178484695789865
1541.0,0.018146805437060303
1540.0,0.018110330631068493
1539.0,0.01803457300927913
1538.0,0.017920611914659625
1537.0,0.01783976716475624
1536.0,0.017802329770085834
1535.0,0.017760866046306462
1534.0,0.01768229074294189
1533.0,0.017588531979825336
1532.0,0.01751408228685481
1531.0,0.017465685179701165
1530.0,0.01743649900110576
1529.0,0.017412956097979083
1528.0,0.01737818872303226
1527.0,0.017318680536931128
1526.0,0.017243830858708706
1525.0,0.017183931656584696
1524.0,0.017161420336058372
1523.0,0.017160500004778787
1522.0,0.017163684514977576
1521.0,0.01717835999352001
1520.0,0.01719068881669496
1519.0,0.017200943411052317
1518.0,0.017228069859620457
1517.0,0.017278067514772056
1516.0,0.017336140367708756
1515.0,0.017376323588793516
1514.0,0.01740367953333104
1513.0,0.01742671345547883
1512.0,0.017440930526152885
1511.0,0.017446342718701366
1510.0,0.017470246164411535
1509.0,0.017540279194637392
1508.0,0.017681064394189032
1507.0,0.017888259127699518
1506.0,0.018027674552684007
1505.0,0.0180825507128126
1504.0,0.018215675685321103
1503.0,0.018486740028713942
1502.0,0.018902206601120155
1501.0,0.019515847839919588
1500.0,0.02044007171999132
1499.0,0.021922219432823544
1498.0,0.024509943566016337
1497.0,0.02899370179394542
1496.0,0.03525020637041779
1495.0,0.04163436984736357
1494.0,0.04657515985036618
1493.0,0.04936785166089612
1492.0,0.04946797280769146
1491.0,0.046415613091914124
1490.0,0.040978811380526996
1489.0,0.03547610667186702
1488.0,0.03147280664302113
1487.0,0.028790982839845013
1486.0,0.026892599061925836
1485.0,0.025509342024543656
1484.0,0.024467563555471437
1483.0,0.023628057817282815
1482.0,0.022941380592726685
1481.0,0.022447520453078653
1480.0,0.022138385742105002
1479.0,0.02193917220739578
1478.0,0.0218092577098634
1477.0,0.02176147510783721
1476.0,0.021777084488409586
1475.0,0.021790897827814584
1474.0,0.021797883252167975
1473.0,0.021884753600945925
1472.0,0.022065000510535133
1471.0,0.022248683529486918
1470.0,0.022444353572645022
1469.0,0.02270773679634225
1468.0,0.023005591419522735
1467.0,0.023262729683058554
1466.0,0.023472031514101682
1465.0,0.02370765978321073
1464.0,0.02399231473614146
1463.0,0.02426399601667896
1462.0,0.024562120523814984
1461.0,0.024968272334443035
1460.0,0.0255775499660195
1459.0,0.0266116130650016
1458.0,0.028989952760846024
1457.0,0.03381969599104
1456.0,0.03988677806688601
1455.0,0.04515549506377129
1454.0,0.04945950827089696
1453.0,0.052838197490703
1452.0,0.054604167261341936
1451.0,0.05430912257280803
1450.0,0.052430276517841164
1449.0,0.0498379235877099
1448.0,0.04715004102493412
1447.0,0.04480483264153603
1446.0,0.042965025337777886
1445.0,0.041444255192795654
1444.0,0.03998393015004891
1443.0,0.03852176818084537
1442.0,0.037170587468358315
1441.0,0.03602398606759092
1440.0,0.03506255250526668
1439.0,0.034195709006889285
1438.0,0.033272781251618304
1437.0,0.032143241235900705
1436.0,0.030929154567749098
1435.0,0.029965335761113793
1434.0,0.02933529176361304
1433.0,0.028873326758842896
1432.0,0.02843296733040851
1431.0,0.02799260601163949
1430.0,0.027613907147133313
1429.0,0.02732616310129412
1428.0,0.02711327457215227
1427.0,0.026968304600809734
1426.0,0.026882201105241726
1425.0,0.026808086588765698
1424.0,0.02671749888659524
1423.0,0.026654290805465004
1422.0,0.026663542076252204
1421.0,0.026702970241409413
1420.0,0.02666455086288117
1419.0,0.026511275741801683
1418.0,0.026339921003499585
1417.0,0.026223087148081886
1416.0,0.026131382597375456
1415.0,0.02602693425810331
1414.0,0.025899038963250125
1413.0,0.0257332842508569
1412.0,0.025507849154631564
1411.0,0.025233082141455407
1410.0,0.024952816596247554
1409.0,0.024687351258081587
1408.0,0.024411882392844718
1407.0,0.024096403215431043
1406.0,0.023730177589793622
1405.0,0.023312995244627495
1404.0,0.022884231013609924
1403.0,0.022520869750353906
1402.0,0.022250688798786784
1401.0,0.02201081340065273
1400.0,0.021716441324645085
1399.0,0.021373401896462644
1398.0,0.02106256620900771
1397.0,0.02079984420365274
1396.0,0.02052109312391193
1395.0,0.020205048403442727
1394.0,0.019912842792820417
1393.0,0.019694755891545786
1392.0,0.0195506698483356
1391.0,0.01946579615805754
1390.0,0.019416227312560444
1389.0,0.019361312032062754
1388.0,0.019273006924063737
1387.0,0.019177270911313302
1386.0,0.01911757754186004
1385.0,0.019089113385821154
1384.0,0.019061557134381034
1383.0,0.019025501476720937
1382.0,0.018992545589401333
1381.0,0.018973302128355376
1380.0,0.01896745085155701
1379.0,0.018972853477701564
1378.0,0.018980385286954674
1377.0,0.018964255155372436
1376.0,0.0188946693611879
1375.0,0.018761438023140266
1374.0,0.01857890312308053
1373.0,0.018366497110073304
1372.0,0.018139124026076557
1371.0,0.01790908840217389
1370.0,0.017676706149391676
1369.0,0.01742931409558464
1368.0,0.017170767502619817
1367.0,0.01693102059976968
1366.0,0.01672516784027003
1365.0,0.01652200821511984
1364.0,0.01626957486591386
1363.0,0.015956086214867528
1362.0,0.015627521150018874
1361.0,0.015324896443011337
1360.0,0.015048682242023291
1359.0,0.014790698415755713
1358.0,0.014547659137475414
1357.0,0.01431065016885957
1356.0,0.014072944952661093
1355.0,0.01384508494184198
1354.0,0.013642163113093374
1353.0,0.013463036486299686
1352.0,0.013298316281217897
1351.0,0.013148354464609269
1350.0,0.013013387938792847
1349.0,0.012873556781931337
1348.0,0.012708274660885383
1347.0,0.01252083752889992
1346.0,0.012323880533358339
1345.0,0.012117681977805501
1344.0,0.011903047794610589
1343.0,0.011697295381014133
1342.0,0.01151342022547518
1341.0,0.011338428249763312
1340.0,0.011157257905342787
1339.0,0.010988990353010403
1338.0,0.010865520918177034
1337.0,0.010791117694146982
1336.0,0.010755079895828728
1335.0,0.010756114791126821
1334.0,0.01079159967158913
1333.0,0.01084379896035955
1332.0,0.010893942929559808
1331.0,0.010936885066550363
1330.0,0.010965522504608187
1329.0,0.010956600152232283
1328.0,0.01089258502264305
1327.0,0.010785669505048216
1326.0,0.010661100982806315
1325.0,0.010526781837499024
1324.0,0.010379979172263121
1323.0,0.010229756144476902
1322.0,0.010091493868503283
1321.0,0.009969610070777391
1320.0,0.009864044824774501
1319.0,0.009783563189460987
1318.0,0.00973314750932457
1317.0,0.00970022076032467
1316.0,0.009671195970341474
1315.0,0.009647346367539104
1314.0,0.009629951211457415
1313.0,0.009605356316003406
1312.0,0.00955880860724953
1311.0,0.009489093048260042
1310.0,0.009396455913434191
1309.0,0.009274452538069314
1308.0,0.009128244234633483
1307.0,0.008982403601677708
1306.0,0.008853013202264098
1305.0,0.00872799950552874
1304.0,0.008592940894869668
1303.0,0.008455383610355246
1302.0,0.008325920945371393
1301.0,0.008196061246915989
1300.0,0.008056814256476842
1299.0,0.007922249805357967
1298.0,0.007812095037384181
1297.0,0.007725294364853873
1296.0,0.007650703198048146
1295.0,0.0075891192092388225
1294.0,0.007543008216296842
1293.0,0.007499057654494774
1292.0,0.007442523541775523
1291.0,0.007377115041021714
1290.0,0.007312524112771088
1289.0,0.00724502300512837
1288.0,0.007169958916562073
1287.0,0.007100840338318863
1286.0,0.007054631119274835
1285.0,0.007028624787946469
1284.0,0.007010439627879839
1283.0,0.006998638331392228
1282.0,0.006995791257206969
1281.0,0.00699188482076836
1280.0,0.006972370526301126
1279.0,0.006935445040196827
1278.0,0.0068873197958749036
1277.0,0.006830098603815966
1276.0,0.006767032624292922
1275.0,0.00670882069021185
1274.0,0.006661586099661453
1273.0,0.006620202086439823
1272.0,0.006585371153186893
1271.0,0.006572118132212274
1270.0,0.0065870473320947705
1269.0,0.006614505959425747
1268.0,0.006642017287992262
1267.0,0.006680729978361423
1266.0,0.006742181245243506
1265.0,0.006812198896879368
1264.0,0.006868499821679728
1263.0,0.006909857491733024
1262.0,0.006947495620743833
1261.0,0.006980563048793454
1260.0,0.007002612281361075
1259.0,0.007023049535888878
1258.0,0.007058637313836016
1257.0,0.007110062035398015
1256.0,0.007166787606088649
1255.0,0.00722861904878808
1254.0,0.007304700597362053
1253.0,0.007396060498370813
1252.0,0.007494859241324009
1251.0,0.007596741088878128
1250.0,0.007700516174927369
1249.0,0.007801484199666427
1248.0,0.007898058257240718
1247.0,0.007998374653523089
1246.0,0.00810696037318795
1245.0,0.008211748170832759
1244.0,0.008298252093987515
1243.0,0.008370787837830605
1242.0,0.0084458873496122
1241.0,0.008529620536125635
1240.0,0.00861445163530963
1239.0,0.008693322059940872
1238.0,0.008764452643410043
1237.0,0.008827372503613682
1236.0,0.008886685887543249
1235.0,0.008955197702376832
1234.0,0.009040539890891559
1233.0,0.009132425630326183
1232.0,0.009214873328043927
1231.0,0.009286573321515147
1230.0,0.00935778319488791
1229.0,0.009432401343950486
1228.0,0.00950590147034884
1227.0,0.009576537639491671
1226.0,0.009644911248309178
1225.0,0.009704997853367911
1224.0,0.009748997868000094
1223.0,0.009780537697012811
1222.0,0.009811644638093215
1221.0,0.009847397302195717
1220.0,0.009884186652045015
1219.0,0.00992172673282066
1218.0,0.009965215042373205
1217.0,0.010015662309157385
1216.0,0.010068663391369422
1215.0,0.010123228669297987
1214.0,0.010182900572086914
1213.0,0.010248402608987149
1212.0,0.010317542886473918
1211.0,0.01039167995586784
1210.0,0.010474107661289287
1209.0,0.0105623921587575
1208.0,0.010649993919047699
1207.0,0.010735974776742596
1206.0,0.010827655977621253
1205.0,0.010933726691753794
1204.0,0.01105784010787364
1203.0,0.011195413558101448
1202.0,0.011332678196462213
1201.0,0.011454452214392983
1200.0,0.011558694468198093
1199.0,0.011658653404298572
1198.0,0.011764465816234613
1197.0,0.011868685609529351
1196.0,0.011958188064391743
1195.0,0.012034252375405698
1194.0,0.012110060002382728
1193.0,0.012192070295148665
1192.0,0.01227718168435693
1191.0,0.012368188987515641
1190.0,0.01248002017784344
1189.0,0.012628395657820372
1188.0,0.01282184737460675
1187.0,0.013066320690054496
1186.0,0.013367321433097802
1185.0,0.013721436421319719
1184.0,0.01410710429166262
1183.0,0.014482584656744447
1182.0,0.014792261022704735
1181.0,0.014983021573679992
1180.0,0.015029888523764447
1179.0,0.014955744965344117
1178.0,0.014820548821712822
1177.0,0.014683455093743789
1176.0,0.014576775495884702
1175.0,0.014513215447477513
1174.0,0.014501168251344523
1173.0,0.014544832849472854
1172.0,0.014638441876327627
1171.0,0.014768966174970425
1170.0,0.014923186559335222
1169.0,0.015091346801622291
1168.0,0.015268883647557054
1167.0,0.015456605499105176
1166.0,0.01565643368079105
1165.0,0.015867329767138633
1164.0,0.016090290903992256
1163.0,0.01633672462737885
1162.0,0.016625512528322978
1161.0,0.016971429942068315
1160.0,0.017381750104360567
1159.0,0.01786040247315664
1158.0,0.018401063483224383
1157.0,0.018969844274189206
1156.0,0.019502441598407208
1155.0,0.019927074181578568
1154.0,0.020193534519560324
1153.0,0.02028462938505813
1152.0,0.02021839062697396
1151.0,0.02005379148889227
1150.0,0.019878367748737615
1149.0,0.01976403345577074
1148.0,0.01973350949354606
1147.0,0.019773428012615814
1146.0,0.01986481783716073
1145.0,0.019989666612416315
1144.0,0.020124355925631568
1143.0,0.020248766204941718
1142.0,0.02036049890046549
1141.0,0.02046907000827425
1140.0,0.020581105661614592
1139.0,0.020700443387830718
1138.0,0.020832139843678238
1137.0,0.020973567969387825
1136.0,0.0211119825191212
1135.0,0.021244712893187544
1134.0,0.0213902620493523
1133.0,0.02156335076261616
1132.0,0.021750829261595668
1131.0,0.02192906299601497
1130.0,0.022093588361387556
1129.0,0.022253983399768584
1128.0,0.022412435641491125
1127.0,0.022568799913647165
1126.0,0.022734137761289623
1125.0,0.022914578873667373
1124.0,0.023092832881874345
1123.0,0.023252224950922037
1122.0,0.023409530539036945
1121.0,0.02359594473843378
1120.0,0.023814263400473892
1119.0,0.024043264873530132
1118.0,0.02427457678308055
1117.0,0.024513590634673718
1116.0,0.024751323237553836
1115.0,0.024969266328097706
1114.0,0.02516870310890274
1113.0,0.025363067208303815
1112.0,0.025545971528596757
1111.0,0.02570195991782394
1110.0,0.025843356193304995
1109.0,0.02599639712980468
1108.0,0.02615392601426187
1107.0,0.026283571204425156
1106.0,0.026383035632861727
1105.0,0.02648515015692634
1104.0,0.026607101139231808
1103.0,0.026737198081837846
1102.0,0.02687209841687009
1101.0,0.027022301623757114
1100.0,0.027175489433463054
1099.0,0.02729904159645115
1098.0,0.027390665421310023
1097.0,0.027483886055091916
1096.0,0.027591835283204136
1095.0,0.02768715958081048
1094.0,0.02775070465505923
1093.0,0.027800265691904524
1092.0,0.0278569538290922
1091.0,0.027920327487891944
1090.0,0.02798980352855291
1089.0,0.028075265270128262
1088.0,0.02817314272527259
1087.0,0.02826357637626664
1086.0,0.028342644353708223
1085.0,0.02842782710230877
1084.0,0.028524279458795244
1083.0,0.028617484474237516
1082.0,0.028704391717103955
1081.0,0.028797044636547475
1080.0,0.02889015894772024
1079.0,0.028962424672370722
1078.0,0.029018101174181604
1077.0,0.02909177239417915
1076.0,0.029204340659820506
1075.0,0.029346379353560888
1074.0,0.029505882147265183
1073.0,0.029675463471195956
1072.0,0.029827885081058714
1071.0,0.029921846219800936
1070.0,0.029938778905092736
1069.0,0.029880068623765743
1068.0,0.029730357236375134
1067.0,0.02946827346512078
1066.0,0.02911523105907937
1065.0,0.028727670628750097
1064.0,0.028336432550282474
1063.0,0.027932954843909612
1062.0,0.02751367661840841
1061.0,0.02709868391580486
1060.0,0.026705441042964892
1059.0,0.02633870918730214
1058.0,0.026006692186821487
1057.0,0.025716180383212668
1056.0,0.025453346672295867
1055.0,0.025197301571140876
1054.0,0.024948592892721062
1053.0,0.024717027714673434
1052.0,0.024490409114434668
1051.0,0.024252295416709188
1050.0,0.024022522798200975
1049.0,0.023833878670988212
1048.0,0.023676871243633366
1047.0,0.02351549092011808
1046.0,0.023345460679252375
1045.0,0.023191752148191948
1044.0,0.023060235180363903
1043.0,0.022934554293514958
1042.0,0.022815982851736014
1041.0,0.022729985838817135
1040.0,0.022695508358268744
1039.0,0.022722934853424262
1038.0,0.022844929571894247
1037.0,0.023118446725019275
1036.0,0.023590664495895183
1035.0,0.024280868592159284
1034.0,0.025183680442648987
1033.0,0.02625477757005875
1032.0,0.027388407814860245
1031.0,0.028441280160384136
1030.0,0.029291130724944138
1029.0,0.029847483835579454
1028.0,0.03001675896848565
1027.0,0.029731150220007344
1026.0,0.029038389963940876
1025.0,0.028106221989986885
1024.0,0.027114152576314228
1023.0,0.02617324745997396
1022.0,0.025337154970427357
1021.0,0.024626825931153964
1020.0,0.024026209345928334
1019.0,0.023493153286983308
1018.0,0.02299904403807597
1017.0,0.022543725747458353
1016.0,0.022128927611378718
1015.0,0.021743124168257216
1014.0,0.02137985430496655
1013.0,0.02104754365249374
1012.0,0.02075216793719905
1011.0,0.020487107846801668
1010.0,0.02024471602644217
1009.0,0.020024094099603568
1008.0,0.019828600246522318
1007.0,0.019670080404054102
1006.0,0.019567725798026937
1005.0,0.019517408162039847
1004.0,0.019461235846602087
1003.0,0.019312710300448732
1002.0,0.01902326743222789
1001.0,0.01861267764742562
1000.0,0.01813916223357323
999.0,0.017663327515704236
998.0,0.017235077354050964
997.0,0.01688233504394908
996.0,0.01660082189692559
995.0,0.016368318214656112
994.0,0.016172440587146154
993.0,0.016014439703722426
992.0,0.0158890564982295
991.0,0.015777270271456242
990.0,0.0156605207335482
989.0,0.015529285744550266
988.0,0.015380485585619275
987.0,0.015222951478223532
986.0,0.015081574540104305
985.0,0.014974845355955963
984.0,0.01488764857922555
983.0,0.014784275475376942
982.0,0.014647533170509503
981.0,0.014485216020685924
980.0,0.014298702179884371
979.0,0.01407109178824718
978.0,0.013795018550495815
977.0,0.013491182141582705
976.0,0.01318833063728098
975.0,0.012900442673698286
974.0,0.01263172026429073
973.0,0.012389247779224066
972.0,0.012180414016771165
971.0,0.012007005832396316
970.0,0.011869983965957984
969.0,0.011773278603378099
968.0,0.011715014561382676
967.0,0.011677554276779287
966.0,0.011630805493919826
965.0,0.011544837243652874
964.0,0.011399880721543548
963.0,0.01118998033934556
962.0,0.010920946690535976
961.0,0.01060456936221087
960.0,0.010257054625633033
959.0,0.009902497641863808
958.0,0.009566793314856426
957.0,0.009261024315219496
956.0,0.00897938279235011
955.0,0.00871956123390269
954.0,0.008494900686946173
953.0,0.008318259785370149
952.0,0.008184106349119275
951.0,0.008077455294744504
950.0,0.007991863748463439
949.0,0.007926300714941485
948.0,0.007871340063775253
947.0,0.007813042503274453
946.0,0.007747185572693185
945.0,0.0076762076291872795
944.0,0.007594629326313145
943.0,0.007491238508483735
942.0,0.007364905929571144
941.0,0.007224979700747515
940.0,0.007075432291060221
939.0,0.0069105660964708555
938.0,0.006727699888496121
937.0,0.006533420844252503
936.0,0.006335887189203613
935.0,0.006140771055128884
934.0,0.00595570943101845
933.0,0.005788649842731513
932.0,0.005638887012264896
931.0,0.005497281922750119
930.0,0.005358832549140491
929.0,0.005230619473466005
928.0,0.005125307848383189
927.0,0.005050012736188759
926.0,0.0050021388271943405
925.0,0.0049727436535036765
924.0,0.00495226128653543
923.0,0.004934413439793825
922.0,0.004917192173971827
921.0,0.004903701548408832
920.0,0.004905589649965264
919.0,0.00494434277121036
918.0,0.005042986833453854
917.0,0.005213787765978868
916.0,0.0054560649783495264
915.0,0.005762676742935954
914.0,0.006120881180976805
913.0,0.0065080935967794205
912.0,0.006899046272242991
911.0,0.007283824919208284
910.0,0.007668528129995855
909.0,0.008044123350876037
908.0,0.008359359410443017
907.0,0.008540853954648278
906.0,0.00854210221855874
905.0,0.008362670138522536
904.0,0.008027909570255929
903.0,0.007573693755489757
902.0,0.007048115681360722
901.0,0.006501399045129055
900.0,0.005966613778331482
899.0,0.0054612202731220486
898.0,0.0050042057452310724
897.0,0.004617834820783252
896.0,0.004313193690532815
895.0,0.004083347000733657
894.0,0.0039092787908757455
893.0,0.0037671447329353965
892.0,0.0036358886679685835
891.0,0.0035092230933747755
890.0,0.003401726180551321
889.0,0.003338072143607665
888.0,0.0033367067305469754
887.0,0.003404168321963892
886.0,0.003536139663706691
885.0,0.003717833603192916
884.0,0.003932471400641884
883.0,0.004181979949914073
882.0,0.004495883546277817
881.0,0.004904840985633919
880.0,0.005402011716091101
879.0,0.005939460952485331
878.0,0.006463405512436203
877.0,0.006941973411169908
876.0,0.0073569837221472735
875.0,0.007684509066676372
874.0,0.00788854826527614
873.0,0.007919358364884777
872.0,0.007722382581270875
871.0,0.007280656924453038
870.0,0.006658566108833006
869.0,0.005980459443910017
868.0,0.00535866612394293
867.0,0.0048498254323182215
866.0,0.00446273747398895
865.0,0.0041801764902668175
864.0,0.00397304887852843
863.0,0.003815176493046423
862.0,0.0036960869814228955
861.0,0.003614727122660411
860.0,0.003560030138038732
859.0,0.0035082717708759155
858.0,0.0034434969763356797
857.0,0.0033721942088831315
856.0,0.003314154933181636
855.0,0.0032853003145256014
854.0,0.0032910657890339416
853.0,0.0033294394328074323
852.0,0.0033975765900838006
851.0,0.003498340408319249
850.0,0.0036383473156446113
849.0,0.003813803706723448
848.0,0.004001220247506154
847.0,0.004171800807420297
846.0,0.004314874335019456
845.0,0.004437420510736739
844.0,0.004542312888797494
843.0,0.004620677665613519
842.0,0.00466568012393213
841.0,0.004678248851813321
840.0,0.004655755317438684
839.0,0.004589148227202529
838.0,0.0044760740757508605
837.0,0.00432638531718375
836.0,0.0041543014970444984
835.0,0.003977156928639581
834.0,0.0038191205832338974
833.0,0.003699080989620823
832.0,0.003612751177376722
831.0,0.0035401944448220646
830.0,0.0034731314479756817
829.0,0.003422080999741603
828.0,0.0033941648686462156
827.0,0.0033793600599534776
826.0,0.0033654848874911554
825.0,0.003355475149223828
824.0,0.003364204111890017
823.0,0.0034060662736755815
822.0,0.003483536049942563
821.0,0.0035773241487771605
820.0,0.003654197341107359
819.0,0.0036975263767241896
818.0,0.0037242433786132782
817.0,0.0037601254641230417
816.0,0.0038081982811518367
815.0,0.003857380502591122
814.0,0.003910865374463425
813.0,0.0039822836776977864
812.0,0.004068537550383024
811.0,0.004150719248118887
810.0,0.0042209227925566264
809.0,0.0042843047455712185
808.0,0.004336193721991129
807.0,0.004364895102560936
806.0,0.004379569420092065
805.0,0.004407595269545685
804.0,0.004459317613181864
803.0,0.004520127229092209
802.0,0.004580943994197957
801.0,0.00464986160581108
800.0,0.004727101179528154
799.0,0.004795182908397901
798.0,0.00484506725918785
797.0,0.004891071573554742
796.0,0.00495192691629533
795.0,0.005037033140742813
794.0,0.0051532365909396395
793.0,0.005300290228011664
792.0,0.005456007460229072
791.0,0.005592880945045422
790.0,0.005714827035011503
789.0,0.0058501263843780925
788.0,0.00600434714471422
787.0,0.00615175192787152
786.0,0.006280755642128266
785.0,0.006416209646907995
784.0,0.006587162468667022
783.0,0.006804237077782785
782.0,0.00707625524135997
781.0,0.007412131754101978
780.0,0.00779308633202886
779.0,0.008181346577919416
778.0,0.008577417619879572
777.0,0.009034141772909284
776.0,0.009591857375957469
775.0,0.010234808068440154
774.0,0.010935185360065651
773.0,0.011703392057841044
772.0,0.01256115865408234
771.0,0.0134951787285559
770.0,0.014474614834068346
769.0,0.015491580940027047
768.0,0.016550039368705957
767.0,0.017636738425577787
766.0,0.018735039925304765
765.0,0.01984428704570273
764.0,0.02095903075799769
763.0,0.0220610511497027
762.0,0.02315781770139587
761.0,0.024286758932691666
760.0,0.025445760914957587
759.0,0.02655667780341133
758.0,0.02753058747637642
757.0,0.028329656161185858
756.0,0.02893806876560353
755.0,0.02933400562802633
754.0,0.02953658079306217
753.0,0.029626925388816845
752.0,0.029681165603862532
751.0,0.029728885116187716
750.0,0.029794657153199663
749.0,0.02990584158666907
748.0,0.030013820305650973
747.0,0.0299588473065558
746.0,0.02955745565847146
745.0,0.028703671829411706
744.0,0.02739369468022669
743.0,0.025729453333526546
742.0,0.02391648457967857
741.0,0.022174388955777356
740.0,0.0206041168830867
739.0,0.019172694590829424
738.0,0.01782290907312871
737.0,0.01654337026896234
736.0,0.01533300473701505
735.0,0.014172135916016015
734.0,0.01306336558393327
733.0,0.012054942443691645
732.0,0.011190520278219852
731.0,0.010463583409698586
730.0,0.009840111436645607
729.0,0.009298228311150118
728.0,0.00882833815275958
727.0,0.008421094751232656
726.0,0.00807374081046712
725.0,0.007786515929389101
724.0,0.007542418204888185
723.0,0.0073137684608479935
722.0,0.007091714205138551
721.0,0.006881433597554363
720.0,0.006668850580824993
719.0,0.006434518482749212
718.0,0.006205608867676814
717.0,0.006043186016052433
716.0,0.005972641134099038
715.0,0.005967404291347896
714.0,0.006009840274642641
713.0,0.006134118634569551
712.0,0.006397547119045988
711.0,0.0068580676976252725
710.0,0.007607011890015891
709.0,0.00878163575798141
708.0,0.010509978062147013
707.0,0.01286437171852764
706.0,0.01588964702622178
705.0,0.019644224538763105
704.0,0.02417623306975543
703.0,0.0294958806299667
702.0,0.03562899940594495
701.0,0.04267050118086421
700.0,0.0507276921323387
699.0,0.05983824560391879
698.0,0.0699320163251751
697.0,0.08059346685981415
696.0,0.09046758276209503
695.0,0.09699986804026023
694.0,0.09770754466780819
693.0,0.09230879906174672
692.0,0.08288672948129339
691.0,0.0720776084198874
690.0,0.06179833919061256
689.0,0.05304356860839919
688.0,0.04604568175530874
687.0,0.040556665932882666
686.0,0.03620737226276893
685.0,0.03272229475306071
684.0,0.029897031254362917
683.0,0.027547574399948663
682.0,0.025552988147908406
681.0,0.02386530848052061
680.0,0.022430185890595297
679.0,0.021158895245215387
678.0,0.020007250028205956
677.0,0.019004658246605757
676.0,0.018164563640837253
675.0,0.017435886005674972
674.0,0.016780268386169556
673.0,0.016217656360457598
672.0,0.01575219683766347
671.0,0.01531825427298357
670.0,0.014829664260255435
669.0,0.014231334086885206
668.0,0.01361539937531768
667.0,0.013193575228757332
666.0,0.012923855265716225
665.0,0.012640077125101228
664.0,0.012281517722226694
663.0,0.01182973276925809
662.0,0.011334595937921167
661.0,0.010891326137314153
660.0,0.010534034887975469
659.0,0.010214900001268026
658.0,0.009903355773529215
657.0,0.009625836952665862
656.0,0.009389542980201872
655.0,0.00915179919327428
654.0,0.00890013008183864
653.0,0.008680763082769612
652.0,0.008504625100407594
651.0,0.008302595236325226
650.0,0.008024577947525494
649.0,0.007720927691016073
648.0,0.007469852183594937
647.0,0.007286771629148085
646.0,0.007154303687808984
645.0,0.0070698212707634225
644.0,0.0070085963041815955
643.0,0.006903810348947763
642.0,0.006724019564366343
641.0,0.006524335592044787
640.0,0.006374266516624941
639.0,0.006286098476320223
638.0,0.00624903828243286
637.0,0.006273629968117936
636.0,0.00635037622563997
635.0,0.0064167171720701036
634.0,0.00642785417679953
633.0,0.006416841357646787
632.0,0.006428181938437964
631.0,0.006448275440173359
630.0,0.006447306854303496
629.0,0.006429762367925883
628.0,0.0063998321570575
627.0,0.006340915277614233
626.0,0.006274048430206687
625.0,0.006266249164719753
624.0,0.006331060838392209
623.0,0.006394874839035662
622.0,0.006410452858061473
621.0,0.0064136449494109
620.0,0.006411984295586738
619.0,0.006324820809609319
618.0,0.00611406584274065
617.0,0.005873735588805655
616.0,0.0056850151374872385
615.0,0.0054944357520091
614.0,0.005236051547839293
613.0,0.004953678754433755
612.0,0.00471280079672496
611.0,0.004494223265213856
610.0,0.00426077313115264
609.0,0.004049076103300485
608.0,0.003904368723733599
607.0,0.0037941852924073746
606.0,0.0036732616447676253
605.0,0.0035729202208509836
604.0,0.0035358433212892768
603.0,0.003528942606038435
602.0,0.0035056513846875026
601.0,0.003478087290308733
600.0,0.0034483954967882424
