cm-1,A
4000.0,0.0031567803616554292
3999.0,0.003126028776652528
3998.0,0.003118192376834512
3997.0,0.0031486675341697943
3996.0,0.0032005610552204612
3995.0,0.0032399923725042953
3994.0,0.0032527713304661404
3993.0,0.0032608892995013225
3992.0,0.003292692879122974
3991.0,0.0033451919286524457
3990.0,0.0033877762503444295
3989.0,0.003394567906141158
3988.0,0.0033706645328352835
3987.0,0.0033382753798933597
3986.0,0.0033105517733206385
3985.0,0.003291189826524741
3984.0,0.0032844761739320837
3983.0,0.003302802585774138
3982.0,0.003354491591882381
3981.0,0.0034240614789268764
3980.0,0.00347519840228268
3979.0,0.0034810853536645214
3978.0,0.0034483532612622145
3977.0,0.003407953793444954
3976.0,0.003388631517696833
3975.0,0.0033906177717304975
3974.0,0.0033954242608010415
3973.0,0.003390649405961047
3972.0,0.0033751404476305685
3971.0,0.0033438911833462703
3970.0,0.003289642739326743
3969.0,0.003228162288650244
3968.0,0.0031940334539332146
3967.0,0.003207941401622892
3966.0,0.003251223385709061
3965.0,0.00329036055272206
3964.0,0.003316264717991001
3963.0,0.003343876916987693
3962.0,0.0033793922466021486
3961.0,0.003401175081985836
3960.0,0.0033869877729769196
3959.0,0.0033479771871975095
3958.0,0.0033178085310891555
3957.0,0.003329359692253956
3956.0,0.003388809892614836
3955.0,0.003461712418194828
3954.0,0.0034973650385549723
3953.0,0.003475143342059908
3952.0,0.003417086968158102
3951.0,0.00337261072443042
3950.0,0.0033847320839239577
3949.0,0.003448671918905584
3948.0,0.0035098116318956016
3947.0,0.0035247025695554924
3946.0,0.003510689772421841
3945.0,0.0034835175397307204
3944.0,0.003424676196158428
3943.0,0.0033187576845167144
3942.0,0.003167943171235303
3941.0,0.0030470170585943732
3940.0,0.0030734819989813034
3939.0,0.0032485600452118856
3938.0,0.003448070515950634
3937.0,0.0035651637097281735
3936.0,0.0035849831062001614
3935.0,0.003550971138633891
3934.0,0.003502805493737165
3933.0,0.0034754179580342125
3932.0,0.003478718482599074
3931.0,0.003453544897292696
3930.0,0.0033471611641019035
3929.0,0.003185527183855643
3928.0,0.0030284201699309447
3927.0,0.0029370149818117013
3926.0,0.002950869676462381
3925.0,0.003065524963453371
3924.0,0.0032050755893413014
3923.0,0.0032899954292860845
3922.0,0.0033362798318198657
3921.0,0.0033507350810895627
3920.0,0.0033455117032185136
3919.0,0.0034325860197760624
3918.0,0.0036442815652233413
3917.0,0.003827261766921823
3916.0,0.0038554844886009732
3915.0,0.0038193159179522925
3914.0,0.0038721760565176514
3913.0,0.003988375477319435
3912.0,0.004030350501933006
3911.0,0.003939693129910146
3910.0,0.003745156987777873
3909.0,0.0035071436310649875
3908.0,0.0032581482142337095
3907.0,0.003039867115757138
3906.0,0.002915179889553015
3905.0,0.0029472475210467267
3904.0,0.0030788183559751405
3903.0,0.003175639364023295
3902.0,0.0032826831495561294
3901.0,0.0035067377918638985
3900.0,0.00372921094518016
3899.0,0.003755248295293662
3898.0,0.003616675027229217
3897.0,0.003508226706851133
3896.0,0.0034751091443285947
3895.0,0.003394924713459332
3894.0,0.003268601133328346
3893.0,0.0032773039187796622
3892.0,0.0034802592538237687
3891.0,0.003578496578188206
3890.0,0.003419543062842631
3889.0,0.003400290454541344
3888.0,0.003669241356643602
3887.0,0.003909298946653478
3886.0,0.003947523970639164
3885.0,0.0038140032643197794
3884.0,0.003600988583771737
3883.0,0.0035560975128917545
3882.0,0.003658542964181121
3881.0,0.0036958474558821605
3880.0,0.0035851671547113776
3879.0,0.0033844023264220993
3878.0,0.0033821996602797968
3877.0,0.003630550822466031
3876.0,0.0037569574183290155
3875.0,0.0035684778950958555
3874.0,0.003231959241801108
3873.0,0.0030196540327706353
3872.0,0.0031316756125645802
3871.0,0.003498009922791442
3870.0,0.003754383685898071
3869.0,0.0036180835334544605
3868.0,0.003433096035993538
3867.0,0.003658533551423532
3866.0,0.003962158548687079
3865.0,0.003944425877929425
3864.0,0.0037734696925582362
3863.0,0.0036299918163791006
3862.0,0.0035461286429610533
3861.0,0.0035412782577453217
3860.0,0.003546343070654868
3859.0,0.0034948405346779017
3858.0,0.0033439759568650584
3857.0,0.003099369856705017
3856.0,0.0028064506119256415
3855.0,0.002671452211085967
3854.0,0.003147739335216694
3853.0,0.003679568955696204
3852.0,0.0031559872201182915
3851.0,0.002708468464712588
3850.0,0.003105089232800725
3849.0,0.0035754028116369574
3848.0,0.0037481242363148967
3847.0,0.0037829195593225007
3846.0,0.0038006882199585843
3845.0,0.0037749240267651307
3844.0,0.0036990265283807795
3843.0,0.003570917241932257
3842.0,0.0034141979466698127
3841.0,0.0033028031081895693
3840.0,0.0032746024272001534
3839.0,0.003312341717267908
3838.0,0.003274791394799457
3837.0,0.0030926675079155676
3836.0,0.0029855048508828294
3835.0,0.003190730690585292
3834.0,0.00361010788498016
3833.0,0.003955187211611562
3832.0,0.004027433016712149
3831.0,0.0038753902521790704
3830.0,0.0037444001596353103
3829.0,0.0038122692283546235
3828.0,0.003998627616809594
3827.0,0.004062619617752998
3826.0,0.003863795549126978
3825.0,0.0035681155833682775
3824.0,0.003450810263173434
3823.0,0.0035173917287466315
3822.0,0.0036693572393842397
3821.0,0.003757466227835309
3820.0,0.003388107501544938
3819.0,0.0030496286786773465
3818.0,0.0033535007464976134
3817.0,0.0038294303148104798
3816.0,0.003930663218159394
3815.0,0.0036176644795597717
3814.0,0.0034053322010280896
3813.0,0.003669492623446952
3812.0,0.004003701888493898
3811.0,0.003990040144568949
3810.0,0.003805416828870445
3809.0,0.003798343636676041
3808.0,0.004043703224976708
3807.0,0.004218794084862648
3806.0,0.0039606173140719295
3805.0,0.003545575804402754
3804.0,0.0034130834221858947
3803.0,0.003442299782899211
3802.0,0.003544924134850973
3801.0,0.0035164139940795924
3800.0,0.003142789210394446
3799.0,0.003053964786824964
3798.0,0.0034309981448631286
3797.0,0.0037548370677636944
3796.0,0.0038056241548135635
3795.0,0.003738393036486421
3794.0,0.0038097060069860987
3793.0,0.004031616164611651
3792.0,0.004210048234513158
3791.0,0.004264516259008786
3790.0,0.00426042292774669
3789.0,0.004226353821537505
3788.0,0.004144225854813884
3787.0,0.004027585089717083
3786.0,0.003918362159810481
3785.0,0.0038024343838342625
3784.0,0.003638995937431392
3783.0,0.003482308007918244
3782.0,0.003431359295480986
3781.0,0.0034625737073091436
3780.0,0.0035039459593333034
3779.0,0.003500681176380546
3778.0,0.0034422778438011267
3777.0,0.0034902331785530306
3776.0,0.0037121116659864055
3775.0,0.003917034783098149
3774.0,0.003974708665793889
3773.0,0.003968269694798136
3772.0,0.003996307975195059
3771.0,0.004038472235941545
3770.0,0.0040131732627794615
3769.0,0.003902845403869185
3768.0,0.0038633956993108795
3767.0,0.004021886479378534
3766.0,0.004216583380410036
3765.0,0.004238264780066935
3764.0,0.0041005129297369495
3763.0,0.003980070446803586
3762.0,0.0038930565575828607
3761.0,0.003688916994662294
3760.0,0.0034681893134733115
3759.0,0.003452233398715217
3758.0,0.003546237948504366
3757.0,0.0035552274829210757
3756.0,0.003483211681648634
3755.0,0.0033525837859809714
3754.0,0.003070574272004894
3753.0,0.002678118982612058
3752.0,0.002752614878915472
3751.0,0.0036898979099224283
3750.0,0.004444533420155036
3749.0,0.0043050398675138785
3748.0,0.00405416446963008
3747.0,0.004261656678124212
3746.0,0.004705609466384769
3745.0,0.005008736797343221
3744.0,0.004726842329817037
3743.0,0.00393668459585357
3742.0,0.003632016550758843
3741.0,0.0038856847271490427
3740.0,0.0039012086156258417
3739.0,0.003538163716653115
3738.0,0.0031128896604867753
3737.0,0.002845139993448263
3736.0,0.00281661477992229
3735.0,0.0029413752888345626
3734.0,0.00303291466111868
3733.0,0.003160670997096479
3732.0,0.003330118147090764
3731.0,0.003407403836842026
3730.0,0.0034610215336449753
3729.0,0.0035662335613036106
3728.0,0.003617077503653406
3727.0,0.0035452791079208816
3726.0,0.0034392222413611173
3725.0,0.003387453504356609
3724.0,0.0034026219380628372
3723.0,0.003412425366214656
3722.0,0.003366746104572111
3721.0,0.0033090515039786647
3720.0,0.003325199727115087
3719.0,0.0034332007057595437
3718.0,0.0035297307561898703
3717.0,0.0035275285703039927
3716.0,0.003449767373059776
3715.0,0.0033161917000645216
3714.0,0.003060712017067352
3713.0,0.0027718232739496803
3712.0,0.0028430334426658545
3711.0,0.0032411663206139705
3710.0,0.00340803315873918
3709.0,0.0033860849456317163
3708.0,0.003502474699742961
3707.0,0.0037174855193690065
3706.0,0.003868587055664165
3705.0,0.003908939947905566
3704.0,0.003877433835490109
3703.0,0.003852120127736695
3702.0,0.0038880613923708493
3701.0,0.0039106228601550625
3700.0,0.0038914071161587314
3699.0,0.003965651929874594
3698.0,0.00413680886003213
3697.0,0.004250499926437095
3696.0,0.004252739500525949
3695.0,0.00421957337928499
3694.0,0.004178638870655205
3693.0,0.004053120942134527
3692.0,0.003840606513418115
3691.0,0.0037359489562516007
3690.0,0.003866221756920807
3689.0,0.003921229541337072
3688.0,0.0036612641415188383
3687.0,0.0035109757899117753
3686.0,0.0038197960569912714
3685.0,0.004308035600174927
3684.0,0.004567910954532496
3683.0,0.00453542597067488
3682.0,0.004379324336002065
3681.0,0.00420400184423654
3680.0,0.003947203478354852
3679.0,0.0036137179339379814
3678.0,0.003406266585741052
3677.0,0.00352364265411718
3676.0,0.003929638702432223
3675.0,0.003886835397416676
3674.0,0.00323089836685747
3673.0,0.003113390676909177
3672.0,0.0036237366892003546
3671.0,0.00406095430884271
3670.0,0.004361855826644398
3669.0,0.004385313548230782
3668.0,0.004258872224641024
3667.0,0.004476710405778569
3666.0,0.004863662711225299
3665.0,0.0050529214744764305
3664.0,0.005057128338117436
3663.0,0.005034774304285122
3662.0,0.00503170069831479
3661.0,0.004989852453914848
3660.0,0.004897079099825103
3659.0,0.004832218547271783
3658.0,0.004881237195740452
3657.0,0.005053673098325261
3656.0,0.005192802133122478
3655.0,0.005128866627828854
3654.0,0.004986211886114174
3653.0,0.0047629098366718525
3652.0,0.00422081702075412
3651.0,0.003644967695899939
3650.0,0.004095720920384474
3649.0,0.005223017983675976
3648.0,0.005243342906816309
3647.0,0.004543002694966136
3646.0,0.004368882233412549
3645.0,0.004785471564897189
3644.0,0.00536936655676064
3643.0,0.005798812853693682
3642.0,0.006025867157215611
3641.0,0.006137134943211168
3640.0,0.006215092456517576
3639.0,0.006269295962258092
3638.0,0.006250563210589867
3637.0,0.006164712052983631
3636.0,0.006084834087846172
3635.0,0.006025194169449532
3634.0,0.005935868974284794
3633.0,0.005810928765033871
3632.0,0.005766222310605458
3631.0,0.005890871988223667
3630.0,0.00635640561919772
3629.0,0.007167908857059119
3628.0,0.007423510475768735
3627.0,0.007032132776058221
3626.0,0.0069570482579146605
3625.0,0.007111525498366675
3624.0,0.007033453524923582
3623.0,0.006768372412129084
3622.0,0.00656989219743217
3621.0,0.006609165802563511
3620.0,0.006894672368777629
3619.0,0.007168217011882194
3618.0,0.007091740780541599
3617.0,0.006814594731541862
3616.0,0.0066357716323224986
3615.0,0.006549325136639642
3614.0,0.006513806280627896
3613.0,0.00657685713364905
3612.0,0.006758559673672747
3611.0,0.007047971286653026
3610.0,0.007380262135724017
3609.0,0.007647210583075523
3608.0,0.007781240338978429
3607.0,0.007745662269343777
3606.0,0.007634880181284106
3605.0,0.0075884331867776544
3604.0,0.007589715983543252
3603.0,0.007595846182595199
3602.0,0.007644014314551905
3601.0,0.00773771738832117
3600.0,0.0077835156657113
3599.0,0.007735112507943995
3598.0,0.007659231745496651
3597.0,0.007625892958477489
3596.0,0.007659455435966139
3595.0,0.007735380565573258
3594.0,0.007804859032793652
3593.0,0.007865152575149964
3592.0,0.007971732006884372
3591.0,0.008104589717552391
3590.0,0.008179097014511878
3589.0,0.008217750780525435
3588.0,0.008371303099376077
3587.0,0.008493817043339432
3586.0,0.008377139219825969
3585.0,0.008312708458272377
3584.0,0.008504649278917998
3583.0,0.008775416352914036
3582.0,0.00897260237897093
3581.0,0.00909205307573987
3580.0,0.009166757661225147
3579.0,0.009199191008806527
3578.0,0.009196079271462222
3577.0,0.009192432367775928
3576.0,0.009235695897315543
3575.0,0.009324324538952515
3574.0,0.009398230891947999
3573.0,0.009385561630661387
3572.0,0.009257378657428103
3571.0,0.00901540744142758
3570.0,0.00868547957685261
3569.0,0.008370952119445567
3568.0,0.0083442541528048
3567.0,0.00869659115605038
3566.0,0.008991389618798255
3565.0,0.009040850622348613
3564.0,0.009124938071961339
3563.0,0.00932169640607222
3562.0,0.00953588962386961
3561.0,0.009733117658654112
3560.0,0.009904577219209692
3559.0,0.01002471908004788
3558.0,0.010089251060657214
3557.0,0.01012291640153701
3556.0,0.010149074733172003
3555.0,0.010195072079072083
3554.0,0.010289995389701165
3553.0,0.010424259771329106
3552.0,0.010516079058596093
3551.0,0.010514936944144012
3550.0,0.01048002378846489
3549.0,0.01047504121924294
3548.0,0.010510874563721231
3547.0,0.010619214406551636
3546.0,0.010823572118556932
3545.0,0.011048429142826851
3544.0,0.01119332687613873
3543.0,0.011238210518339712
3542.0,0.011217452358892516
3541.0,0.01118581470363158
3540.0,0.011205809802620613
3539.0,0.011317910577263566
3538.0,0.011506440611422296
3537.0,0.011696679214014407
3536.0,0.011797813484102412
3535.0,0.011783925393325961
3534.0,0.0117124942952515
3533.0,0.011655550538965645
3532.0,0.011647809837044821
3531.0,0.011689095882386343
3530.0,0.011753159435919496
3529.0,0.011782585468107055
3528.0,0.011731929786150069
3527.0,0.011627822299822515
3526.0,0.01156021184093735
3525.0,0.011596329358722545
3524.0,0.011722489045185469
3523.0,0.011861593289376578
3522.0,0.011956869080185062
3521.0,0.012037715602406674
3520.0,0.01217181755913066
3519.0,0.012378023387649845
3518.0,0.012607215394514152
3517.0,0.012789761414135164
3516.0,0.01289172324250288
3515.0,0.012923562580393035
3514.0,0.012911647005068218
3513.0,0.01287959278091766
3512.0,0.012851228219478948
3511.0,0.012849519492136072
3510.0,0.012883033700909739
3509.0,0.012928409451092162
3508.0,0.012959639262387246
3507.0,0.012983878363441306
3506.0,0.013018083421748865
3505.0,0.013073453317339122
3504.0,0.013176049988687516
3503.0,0.013325469221359024
3502.0,0.01346820878497838
3501.0,0.013570406693483028
3500.0,0.013642911972191994
3499.0,0.013704275696502583
3498.0,0.013779879609770007
3497.0,0.013884322553778135
3496.0,0.013983602069464772
3495.0,0.01401320465785465
3494.0,0.013950845925525607
3493.0,0.013846425492414247
3492.0,0.013766924021805113
3491.0,0.01373836340945948
3490.0,0.013749844817368566
3489.0,0.013789896832666092
3488.0,0.013859903124313122
3487.0,0.013953415498879525
3486.0,0.014039346716943703
3485.0,0.014078888521817538
3484.0,0.014061337294725824
3483.0,0.014026973261989296
3482.0,0.014040875347282777
3481.0,0.014128448111841323
3480.0,0.014258094194570026
3479.0,0.014388172702355713
3478.0,0.014501041133445077
3477.0,0.014594631582622055
3476.0,0.014667822432385923
3475.0,0.014715983329483553
3474.0,0.014740686185196247
3473.0,0.014757952417247318
3472.0,0.014782184049931743
3471.0,0.014810547758670394
3470.0,0.014838737212158826
3469.0,0.014877364556645945
3468.0,0.014936111327772963
3467.0,0.015007894797811824
3466.0,0.015086544605727784
3465.0,0.015185255729452854
3464.0,0.01531209257204965
3463.0,0.01543865595097849
3462.0,0.015518546315056388
3461.0,0.01553985101324971
3460.0,0.015539669165886422
3459.0,0.01556247299774896
3458.0,0.015623420345933992
3457.0,0.01571231783775418
3456.0,0.015808871185197054
3455.0,0.015893376313689225
3454.0,0.015955278914665957
3453.0,0.015994164083709534
3452.0,0.016013092064157474
3451.0,0.01601932506000322
3450.0,0.016036236025585442
3449.0,0.016091684884151743
3448.0,0.01617964528901287
3447.0,0.016233764886839638
3446.0,0.016195744287862246
3445.0,0.01610843644421997
3444.0,0.016063621111362357
3443.0,0.01609159441306506
3442.0,0.016154410774643028
3441.0,0.016209755529329788
3440.0,0.016256165137779832
3439.0,0.01631125930856362
3438.0,0.016370284276241688
3437.0,0.016415066277955578
3436.0,0.016440732179385645
3435.0,0.01645506786313583
3434.0,0.016462833201016745
3433.0,0.01646913279887271
3432.0,0.016497012226038024
3431.0,0.016575414816311515
3430.0,0.016700668705878365
3429.0,0.01682665234175268
3428.0,0.01691332781399396
3427.0,0.016966702562801545
3426.0,0.017019305717141824
3425.0,0.01708823987597451
3424.0,0.017168083677948188
3423.0,0.0172514054331697
3422.0,0.017331942561040307
3421.0,0.01738851349237031
3420.0,0.017390903718372402
3419.0,0.017336947388101456
3418.0,0.01726789720138089
3417.0,0.017241711159472116
3416.0,0.017296992244397753
3415.0,0.017426119081922042
3414.0,0.017571426893807307
3413.0,0.017663215950176777
3412.0,0.01767729035550093
3411.0,0.017648612661494326
3410.0,0.017625415499569582
3409.0,0.017622459040681958
3408.0,0.017624993402115728
3407.0,0.01762056181567627
3406.0,0.01761138738854826
3405.0,0.01761071302121618
3404.0,0.017638891595888807
3403.0,0.017709959015592375
3402.0,0.01780878958231097
3401.0,0.017895860861653085
3400.0,0.017945028563937107
3399.0,0.017963756944435718
3398.0,0.017972201997283062
3397.0,0.017977457979076374
3396.0,0.017980053352592982
3395.0,0.017989253298878016
3394.0,0.01801529581335374
3393.0,0.018055098745074747
3392.0,0.018100499271545122
3391.0,0.01815476081851607
3390.0,0.01822369318236264
3389.0,0.01829246509374487
3388.0,0.01833073175502995
3387.0,0.01832277745985886
3386.0,0.018280948085767322
3385.0,0.01823465673761499
3384.0,0.01821574743425526
3383.0,0.018248257101373174
3382.0,0.018334391626922297
3381.0,0.01844604089762118
3380.0,0.01854156485506483
3379.0,0.018598195061336115
3378.0,0.018627956966782273
3377.0,0.018657614975983963
3376.0,0.018694858506569895
3375.0,0.018716066564168046
3374.0,0.01869012805029008
3373.0,0.018615322905779032
3372.0,0.018531524271814804
3371.0,0.01849226153447081
3370.0,0.018521943601159056
3369.0,0.01859914753029181
3368.0,0.018679088776049495
3367.0,0.0187292526879905
3366.0,0.018742734269807985
3365.0,0.01872649875808171
3364.0,0.018689603172165357
3363.0,0.018647225700160624
3362.0,0.01862587669289273
3361.0,0.018651078025607983
3360.0,0.01872608456164837
3359.0,0.018829837761676134
3358.0,0.01893773141688141
3357.0,0.019036227395965246
3356.0,0.019114355119780907
3355.0,0.0191514359453613
3354.0,0.01912916693047531
3353.0,0.0190582205814324
3352.0,0.018982302979532472
3351.0,0.018947438612097797
3350.0,0.018966751506379265
3349.0,0.019016005408854706
3348.0,0.01905748460229152
3347.0,0.019066180788676324
3346.0,0.019042900985776132
3345.0,0.019015663054812604
3344.0,0.019022748898911267
3343.0,0.01907640524362189
3342.0,0.019138839681226337
3341.0,0.019147930023830317
3340.0,0.019077486042164686
3339.0,0.01896739261924088
3338.0,0.018888927619807025
3337.0,0.018880715278001368
3336.0,0.018920005375721916
3335.0,0.018953270364813174
3334.0,0.01894743573367797
3333.0,0.018910191399133053
3332.0,0.018871811576516746
3331.0,0.018855060990014678
3330.0,0.01885827879278184
3329.0,0.01886286726914003
3328.0,0.018858077911363545
3327.0,0.018859237747051463
3326.0,0.018896756367929965
3325.0,0.018982409987226324
3324.0,0.019085617782423563
3323.0,0.01914716014245882
3322.0,0.01912557454034982
3321.0,0.019037035234083035
3320.0,0.0189464118044386
3319.0,0.01891064380670026
3318.0,0.018928510037457318
3317.0,0.018948746101740077
3316.0,0.018926540866188016
3315.0,0.018865135460132933
3314.0,0.01880365666790866
3313.0,0.01877548668175702
3312.0,0.01878440727900231
3311.0,0.018813643882878307
3310.0,0.018845014199093485
3309.0,0.018865365372934432
3308.0,0.01886463823264686
3307.0,0.01883969146857103
3306.0,0.018803156908856682
3305.0,0.018782632543655624
3304.0,0.018801282224925178
3303.0,0.018850743942146267
3302.0,0.018885749385501485
3301.0,0.01885758337516746
3300.0,0.01875781780186017
3299.0,0.018630095612193504
3298.0,0.018542341003034597
3297.0,0.018545834928431384
3296.0,0.018645572147960632
3295.0,0.018790560887557074
3294.0,0.01889544891196767
3293.0,0.01889920832045086
3292.0,0.018824027004633252
3291.0,0.018763348225107945
3290.0,0.01879163829950203
3289.0,0.0188914295589368
3288.0,0.018980546798272997
3287.0,0.018998453456830666
3286.0,0.018948016366476268
3285.0,0.01886412023365438
3284.0,0.01877376564664845
3283.0,0.01869470356026885
3282.0,0.018647806375431227
3281.0,0.018646869044264613
3280.0,0.01867829750175082
3279.0,0.018706299749260778
3278.0,0.018702252376386345
3277.0,0.01866494129439741
3276.0,0.018614177809521393
3275.0,0.01857221193506768
3274.0,0.018549822395009304
3273.0,0.018541156229791394
3272.0,0.018529113857900216
3271.0,0.018502440885798756
3270.0,0.018470736754997934
3269.0,0.018456686735597347
3268.0,0.018470741777520935
3267.0,0.018499263089508583
3266.0,0.018520879783227157
3265.0,0.018525829229379103
3264.0,0.01851159724152956
3263.0,0.01846854540273307
3262.0,0.01839076259984699
3261.0,0.018300677975614733
3260.0,0.018238479492041194
3259.0,0.018218339763375516
3258.0,0.018214703617740812
3257.0,0.018203279043746627
3256.0,0.018195908244288652
3255.0,0.01821750751601918
3254.0,0.018258803969226484
3253.0,0.01827718776199947
3252.0,0.01824425309830927
3251.0,0.018172330433845897
3250.0,0.01809469423623288
3249.0,0.018036164782562404
3248.0,0.018003019588893627
3247.0,0.017985700881203142
3246.0,0.01796576727292743
3245.0,0.017928967024397238
3244.0,0.017877643381867994
3243.0,0.017825180930710408
3242.0,0.01777904806926399
3241.0,0.01773793615239376
3240.0,0.01770242261225653
3239.0,0.01767529833510188
3238.0,0.017652960732709014
3237.0,0.017628844637904678
3236.0,0.017605278257680757
3235.0,0.01759164635170558
3234.0,0.0175893025779047
3233.0,0.01759088069154969
3232.0,0.01759558156527635
3231.0,0.017609704227011202
3230.0,0.017628133039429738
3229.0,0.017632517774521368
3228.0,0.01761859427697246
3227.0,0.017609771031359883
3226.0,0.01762518081005228
3225.0,0.017641639606801686
3224.0,0.017609182053821112
3223.0,0.01750761814760872
3222.0,0.017375610888787828
3221.0,0.01727810212692065
3220.0,0.017249188930504356
3219.0,0.017269254664493132
3218.0,0.017293852928666965
3217.0,0.017293218193874037
3216.0,0.01726143115766776
3215.0,0.01720599085595894
3214.0,0.017143456834216027
3213.0,0.017100343339558954
3212.0,0.017100530217693612
3211.0,0.017139729110710707
3210.0,0.017176773017881786
3209.0,0.017163355013976877
3208.0,0.01708931260254984
3207.0,0.016992496054279244
3206.0,0.016920157684567106
3205.0,0.01688644386594963
3204.0,0.01686933062468148
3203.0,0.016841713793489328
3202.0,0.01680101458360747
3201.0,0.01676991308899591
3200.0,0.016770893741876045
3199.0,0.016798913203553062
3198.0,0.01681732237085337
3197.0,0.016785850166598552
3196.0,0.01669727298441545
3195.0,0.01658464102762063
3194.0,0.016491949784703985
3193.0,0.016444182969497918
3192.0,0.0164422333321551
3191.0,0.016471692713651127
3190.0,0.016506562803210084
3189.0,0.016512669817884105
3188.0,0.016466876778894964
3187.0,0.01638019006665739
3186.0,0.0162946067838457
3185.0,0.01624600596270337
3184.0,0.01622966269185654
3183.0,0.0162094286330952
3182.0,0.01615857233521085
3181.0,0.016082885321612055
3180.0,0.01600715349300703
3179.0,0.015950922822250465
3178.0,0.01591755906707716
3177.0,0.01589784689834496
3176.0,0.01587715706232601
3175.0,0.015841962253356236
3174.0,0.01578880599067402
3173.0,0.01573181455574706
3172.0,0.015694271893745095
3171.0,0.015684994128760094
3170.0,0.01568469959181305
3169.0,0.015661450457238792
3168.0,0.015601687339816015
3167.0,0.015522611799480921
3166.0,0.015453588366931174
3165.0,0.015409104161656872
3164.0,0.015382155826046892
3163.0,0.015359719124332066
3162.0,0.0153369456471307
3161.0,0.015314395044428625
3160.0,0.015288085479470064
3159.0,0.015248264726522385
3158.0,0.015185698393125759
3157.0,0.01509773965453411
3156.0,0.014992791189751487
3155.0,0.014891225299733055
3154.0,0.014816375728386125
3153.0,0.014779731788667611
3152.0,0.014776341297963722
3151.0,0.014794224553200692
3150.0,0.014821084925907169
3149.0,0.014839353662969748
3148.0,0.01482645044767784
3147.0,0.014772890976831907
3146.0,0.014697597962045991
3145.0,0.014633745212148375
3144.0,0.014595901176993126
3143.0,0.014566816819918473
3142.0,0.01451747470737125
3141.0,0.014436176449477593
3140.0,0.014338077685643762
3139.0,0.014252182100353276
3138.0,0.014201210993093426
3137.0,0.014187765089745959
3136.0,0.014193615204767362
3135.0,0.014195297442351089
3134.0,0.014185966548469254
3133.0,0.014178881389401106
3132.0,0.01418439345651525
3131.0,0.014189111914469858
3130.0,0.014164695375109688
3129.0,0.014094644941720195
3128.0,0.013990310923188903
3127.0,0.01388322870072076
3126.0,0.013803798680999662
3125.0,0.013762027837660392
3124.0,0.01374230448491319
3123.0,0.01371594508060378
3122.0,0.013661830535051381
3121.0,0.013579602121331729
3120.0,0.013485377470764032
3119.0,0.013396398568785446
3118.0,0.013323112330811475
3117.0,0.013273568243217513
3116.0,0.013254203914334309
3115.0,0.013260579793962139
3114.0,0.013273820262101102
3113.0,0.013276509352295856
3112.0,0.01327305412032309
3111.0,0.01328491696301127
3110.0,0.013319742095234833
3109.0,0.013352112248642623
3108.0,0.013346349361917963
3107.0,0.013297166701262046
3106.0,0.01323524804038242
3105.0,0.013190137175198523
3104.0,0.013162410452267341
3103.0,0.013134769335921077
3102.0,0.01309468533039138
3101.0,0.013041374174824953
3100.0,0.012984629054450565
3099.0,0.012943444010107105
3098.0,0.012934056019165897
3097.0,0.012950838940684897
3096.0,0.01296391531842721
3095.0,0.012943062265093189
3094.0,0.012884467839162144
3093.0,0.01281098759803272
3092.0,0.012750180383939406
3091.0,0.012716806572218593
3090.0,0.012707872262590294
3089.0,0.012706325639395858
3088.0,0.01269237876708997
3087.0,0.0126567024954563
3086.0,0.012603947188757318
3085.0,0.01254543721551643
3084.0,0.012494599714825678
3083.0,0.012465453936817247
3082.0,0.012463138865287394
3081.0,0.012473244794462334
3080.0,0.012471154292744358
3079.0,0.012447674565953106
3078.0,0.012415635990296575
3077.0,0.01238751697001477
3076.0,0.01235784249763163
3075.0,0.012315957582122027
3074.0,0.0122664948534533
3073.0,0.01222409963228555
3072.0,0.012194860870602621
3071.0,0.01217480264933224
3070.0,0.01216262691334193
3069.0,0.012162418007744239
3068.0,0.012171987320272151
3067.0,0.012175812456683534
3066.0,0.012153700862279118
3065.0,0.01209739392354231
3064.0,0.012021108906825551
3063.0,0.011954334430638227
3062.0,0.01191759182520805
3061.0,0.011904623897240958
3060.0,0.011892387398955746
3059.0,0.011867174115447464
3058.0,0.011834498438717497
3057.0,0.011802310044330862
3056.0,0.011765646441780969
3055.0,0.01171618389414681
3054.0,0.011657849304354333
3053.0,0.011602190453246666
3052.0,0.011554273619304714
3051.0,0.01151296156318291
3050.0,0.011480418799907481
3049.0,0.011462619015614966
3048.0,0.0114619232588109
3047.0,0.011473898677117296
3046.0,0.011488245465210937
3045.0,0.011488000190618491
3044.0,0.011455268468319645
3043.0,0.011388237225754216
3042.0,0.011310487326238296
3041.0,0.011251731238923498
3040.0,0.011219296477515878
3039.0,0.011198476503805385
3038.0,0.011180137053243484
3037.0,0.011171434214379296
3036.0,0.011174398115761899
3035.0,0.011169924901075396
3034.0,0.011137810329629577
3033.0,0.011088340573188695
3032.0,0.01105575322922298
3031.0,0.011060110842001258
3030.0,0.011086334689243638
3029.0,0.01110317528338555
3028.0,0.011091729083463786
3027.0,0.011054397131973606
3026.0,0.01100935778403178
3025.0,0.010974780613602575
3024.0,0.010950474365103232
3023.0,0.010914491873463316
3022.0,0.010843214117122153
3021.0,0.01073892553045006
3020.0,0.010633812764886988
3019.0,0.010562387845400038
3018.0,0.010533093701237443
3017.0,0.010527293122920235
3016.0,0.010522334429750061
3015.0,0.010511337881931489
3014.0,0.010503142034891189
3013.0,0.010510045219167232
3012.0,0.010532511303365225
3011.0,0.010552946842459927
3010.0,0.010548851405753552
3009.0,0.010517135086821368
3008.0,0.010481280078219645
3007.0,0.010464525698475093
3006.0,0.010460165357241624
3005.0,0.01043886762430779
3004.0,0.010388597749831722
3003.0,0.010334806931173163
3002.0,0.010311329928233722
3001.0,0.010322919919751292
3000.0,0.010345717810656484
2999.0,0.010354278575054537
2998.0,0.010335656678928877
2997.0,0.010286571371093005
2996.0,0.010215740440715135
2995.0,0.010148740604338777
2994.0,0.010114385999337394
2993.0,0.010117839199501232
2992.0,0.010137074578089085
2991.0,0.010151537891260092
2990.0,0.010163611277683768
2989.0,0.010186725577014933
2988.0,0.010220637867475629
2987.0,0.010249982592283517
2986.0,0.01026458551726098
2985.0,0.010271091483032924
2984.0,0.010281594938462918
2983.0,0.01029803214640285
2982.0,0.010311521373696541
2981.0,0.010312202736961545
2980.0,0.010295815843528957
2979.0,0.010263233108980826
2978.0,0.010221970657512283
2977.0,0.010189622979945929
2976.0,0.010188682358639983
2975.0,0.01022765503733654
2974.0,0.010286245366645259
2973.0,0.01032901263664899
2972.0,0.010339096161538063
2971.0,0.01033457496306983
2970.0,0.010345316464532215
2969.0,0.01037847760572014
2968.0,0.010410368109745056
2967.0,0.010410656304564924
2966.0,0.010372401950814257
2965.0,0.01032323275720962
2964.0,0.010310555904261985
2963.0,0.010366272783734306
2962.0,0.010475075988290047
2961.0,0.010576883658116076
2960.0,0.010613347756110978
2959.0,0.01057545767891694
2958.0,0.010503466231050494
2957.0,0.010441877335971683
2956.0,0.010402140277368816
2955.0,0.010367972115043941
2954.0,0.010325217631394233
2953.0,0.010280473791499838
2952.0,0.010253975338993731
2951.0,0.010257494031259303
2950.0,0.01027685718428396
2949.0,0.010278092563796361
2948.0,0.010237100683925048
2947.0,0.010164154933160169
2946.0,0.01009335640449213
2945.0,0.01005087464275693
2944.0,0.010039651625300365
2943.0,0.010051478994366923
2942.0,0.010078280214147918
2941.0,0.01010889888095384
2940.0,0.01012938454764008
2939.0,0.010136440330783812
2938.0,0.010145016108168722
2937.0,0.010173703225906975
2936.0,0.010226416305881203
2935.0,0.010288959064259499
2934.0,0.010336547441451354
2933.0,0.010343959194299876
2932.0,0.010300770838661719
2931.0,0.010224155968810468
2930.0,0.010149944614264288
2929.0,0.010105491361081987
2928.0,0.010095943538687716
2927.0,0.010114902280673651
2926.0,0.010154624013423375
2925.0,0.010200199843174508
2924.0,0.010230261454140238
2923.0,0.01023566094069707
2922.0,0.010226729520616833
2921.0,0.010213933084335896
2920.0,0.01019051898750836
2919.0,0.010145019255135815
2918.0,0.010080288499791354
2917.0,0.01000972262578226
2916.0,0.009943279975932607
2915.0,0.009886048993879014
2914.0,0.009842697122064767
2913.0,0.009811318667778764
2912.0,0.009779959220933778
2911.0,0.00974085257102354
2910.0,0.009700899671094243
2909.0,0.009669665348901551
2908.0,0.009641915557199896
2907.0,0.009603141297395878
2906.0,0.009549606702127282
2905.0,0.009492501833219239
2904.0,0.009445712891579193
2903.0,0.009418734651364485
2902.0,0.009415587172050413
2901.0,0.00943170537099689
2900.0,0.009447609657009
2899.0,0.009444966694524656
2898.0,0.009423296982151464
2897.0,0.009393937245529218
2896.0,0.009366789835064653
2895.0,0.009345880853498948
2894.0,0.009333464445602603
2893.0,0.009324300417776078
2892.0,0.00930187437599418
2891.0,0.009257092018058534
2890.0,0.009210123965380559
2889.0,0.009195118048016992
2888.0,0.009220071695222492
2887.0,0.009252885789434827
2886.0,0.009253289903134912
2885.0,0.009210339200203106
2884.0,0.009144290611700356
2883.0,0.009084511347291654
2882.0,0.00904808583851183
2881.0,0.009032496459396772
2880.0,0.009020905975576116
2879.0,0.008999907939859534
2878.0,0.008976146179621088
2877.0,0.008969945368780605
2876.0,0.00899099549071974
2875.0,0.009025657086086603
2874.0,0.0090500979616743
2873.0,0.00904598382275782
2872.0,0.009004578772084316
2871.0,0.00892909534026137
2870.0,0.008842733351254076
2869.0,0.008783980758556872
2868.0,0.008779935224970713
2867.0,0.008820998464407032
2866.0,0.008868431506629179
2865.0,0.008887047265818607
2864.0,0.008868680823069438
2863.0,0.008831776686593048
2862.0,0.008803058898059086
2861.0,0.0087997355765192
2860.0,0.008820237550160464
2859.0,0.008849711107826444
2858.0,0.008873844914700285
2857.0,0.008884814234077514
2856.0,0.008876524331246194
2855.0,0.008844489793655323
2854.0,0.008796879375567822
2853.0,0.008758859443215921
2852.0,0.008753930612660736
2851.0,0.00877823175673599
2850.0,0.00879984372705816
2849.0,0.008785002882096476
2848.0,0.008726319274196549
2847.0,0.008644448817671903
2846.0,0.008567870163679776
2845.0,0.008514403212374611
2844.0,0.008484865145989532
2843.0,0.008467470379582759
2842.0,0.00844550155383191
2841.0,0.008407798583403526
2840.0,0.00835659224282895
2839.0,0.008303906992612329
2838.0,0.008258540221255724
2837.0,0.00821849566513587
2836.0,0.008181098262837553
2835.0,0.00815641995360223
2834.0,0.00815965407726267
2833.0,0.0081880500360968
2832.0,0.008214052532572113
2831.0,0.008207661353002186
2830.0,0.008164496527333049
2829.0,0.008105473023936481
2828.0,0.008053931702180791
2827.0,0.008020496095209462
2826.0,0.008003482300715185
2825.0,0.007995953767970635
2824.0,0.007991432951324946
2823.0,0.007987797976565127
2822.0,0.007986815404804294
2821.0,0.007986203905607307
2820.0,0.007975822024311987
2819.0,0.007949200826173928
2818.0,0.007915980490109909
2817.0,0.007893276986795967
2816.0,0.00788454793382525
2815.0,0.00787547952992304
2814.0,0.007854648150758686
2813.0,0.007830268109708872
2812.0,0.007818463991816554
2811.0,0.007820357018740919
2810.0,0.007819912252303971
2809.0,0.0078033558160576395
2808.0,0.007774040769251386
2807.0,0.007747142496623493
2806.0,0.007734205601787969
2805.0,0.007735419736710967
2804.0,0.007742903904774334
2803.0,0.007745972423934643
2802.0,0.007735015671991315
2801.0,0.00770734130864688
2800.0,0.007672274598115172
2799.0,0.0076472378398014535
2798.0,0.007643360885618745
2797.0,0.007654163839152298
2796.0,0.007662265404581897
2795.0,0.007656235931948559
2794.0,0.007637630313794622
2793.0,0.007613108919546384
2792.0,0.00758597134694192
2791.0,0.007558999588013466
2790.0,0.007540051591998793
2789.0,0.007538259681918472
2788.0,0.00755495918889724
2787.0,0.007580281519355006
2786.0,0.007598450189421553
2785.0,0.007597056980953105
2784.0,0.007575170449077892
2783.0,0.007546097518608203
2782.0,0.007529485522037098
2781.0,0.007535489132328342
2780.0,0.007555434618907694
2779.0,0.007568025036628623
2778.0,0.007554217277909572
2777.0,0.007510842352802853
2776.0,0.007453766721178144
2775.0,0.007407096921889029
2774.0,0.007384931682498768
2773.0,0.007379467828220174
2772.0,0.007370711434730212
2771.0,0.007350000216475904
2770.0,0.007328642316696322
2769.0,0.00732263793514744
2768.0,0.00733522610398488
2767.0,0.0073558420107674855
2766.0,0.007369770845068254
2765.0,0.007365554855582929
2764.0,0.007341424988944887
2763.0,0.007311209150931088
2762.0,0.00729794219686411
2761.0,0.007313177952863764
2760.0,0.007341777420088383
2759.0,0.007353771479935793
2758.0,0.007334009731964223
2757.0,0.00729726725705937
2756.0,0.007273630023471535
2755.0,0.0072791754766714165
2754.0,0.007298879414333463
2753.0,0.007300225034089057
2752.0,0.007266726278233417
2751.0,0.0072170562105516554
2750.0,0.007184875188779218
2749.0,0.0071818612782295396
2748.0,0.007192640048169581
2747.0,0.007202753071362301
2746.0,0.007214039494109538
2745.0,0.0072266681350796075
2744.0,0.007224408322571239
2743.0,0.007193629693804122
2742.0,0.007146681917594513
2741.0,0.007110594168854881
2740.0,0.0070970779345700605
2739.0,0.007098344153397098
2738.0,0.0071075657017949136
2737.0,0.0071253005272653
2736.0,0.007145086524048869
2735.0,0.007150114824868414
2734.0,0.007132213655985847
2733.0,0.007104382601398012
2732.0,0.00708752498153979
2731.0,0.007089687389830375
2730.0,0.0071014378600955975
2729.0,0.0071074108662765294
2728.0,0.007099816669831498
2727.0,0.007082930142649366
2726.0,0.007066710983641044
2725.0,0.0070564158757000384
2724.0,0.007051205237706904
2723.0,0.007053183296281636
2722.0,0.007069177017961656
2721.0,0.007097400520591272
2720.0,0.007119597980157594
2719.0,0.007117180543178813
2718.0,0.007092362214555262
2717.0,0.007062897867268714
2716.0,0.007038763136494371
2715.0,0.007016218402053315
2714.0,0.0069933352033444245
2713.0,0.006977072029804174
2712.0,0.00697029471080424
2711.0,0.00696397157351876
2710.0,0.006949464814460026
2709.0,0.0069308445603817916
2708.0,0.0069196427397710415
2707.0,0.006922149686720693
2706.0,0.006935743740410116
2705.0,0.006951498420133116
2704.0,0.0069564134944405075
2703.0,0.006939934565088039
2702.0,0.006905558320825313
2701.0,0.006872791942799326
2700.0,0.006860343575642455
2699.0,0.006866367623047584
2698.0,0.006869588832094297
2697.0,0.006852984788727539
2696.0,0.006825605892524017
2695.0,0.006818625508572982
2694.0,0.006855064059953614
2693.0,0.006923342123894831
2692.0,0.006983796028404408
2691.0,0.007003901647549797
2690.0,0.006982984678262317
2689.0,0.006941249719307169
2688.0,0.00689438747446933
2687.0,0.006846044249870162
2686.0,0.006799751155058591
2685.0,0.0067645264950252915
2684.0,0.006747367921904479
2683.0,0.00674745003915765
2682.0,0.0067592327013211734
2681.0,0.006775370875320987
2680.0,0.006787299658248954
2679.0,0.006790331649103601
2678.0,0.006788550246103947
2677.0,0.0067886157284586
2676.0,0.006789242849367463
2675.0,0.006784229786505681
2674.0,0.006775201029468086
2673.0,0.006771803911697268
2672.0,0.006776940270725741
2671.0,0.006780901217434911
2670.0,0.006774498780842481
2669.0,0.006761660996747333
2668.0,0.0067545698445778506
2667.0,0.006762118846890541
2666.0,0.006786800599313801
2665.0,0.006826921279074699
2664.0,0.006876042455035583
2663.0,0.0069229868208068295
2662.0,0.006957420622669635
2661.0,0.006975409256606495
2660.0,0.006979321397907417
2659.0,0.006976055947431708
2658.0,0.006976054175801478
2657.0,0.006988432130905123
2656.0,0.007012100592711089
2655.0,0.007034622542812102
2654.0,0.007042934936041564
2653.0,0.007033620188253917
2652.0,0.007010861475886707
2651.0,0.006978406886147377
2650.0,0.006938980403476954
2649.0,0.006900510470726451
2648.0,0.00687750963977927
2647.0,0.0068819898176680095
2646.0,0.00691115251016966
2645.0,0.0069448436658765406
2644.0,0.006959193083270575
2643.0,0.006947419469325148
2642.0,0.0069262941657351335
2641.0,0.006918039235151042
2640.0,0.006925304926436398
2639.0,0.0069277896160834015
2638.0,0.0069052455825011
2637.0,0.006860956651856846
2636.0,0.006820974004565886
2635.0,0.00681096205817169
2634.0,0.006833206862009642
2633.0,0.0068646870241334985
2632.0,0.006876851240891107
2631.0,0.006859021073843405
2630.0,0.00682296637268907
2629.0,0.006788002094664873
2628.0,0.00676565545049981
2627.0,0.006757022434149208
2626.0,0.00675563740353359
2625.0,0.006748588022475244
2624.0,0.006724019323374471
2623.0,0.006685102190917015
2622.0,0.0066509615498232255
2621.0,0.0066359709063256046
2620.0,0.006633053317796577
2619.0,0.006625648176544348
2618.0,0.0066088071222780214
2617.0,0.006586972390641312
2616.0,0.006557050426979353
2615.0,0.006510261911011098
2614.0,0.006452578965085831
2613.0,0.006409187361506715
2612.0,0.006402512646967839
2611.0,0.006432488902178151
2610.0,0.006478537639646736
2609.0,0.0065123820990095884
2608.0,0.006511066736044293
2607.0,0.006470709779945302
2606.0,0.006414339541253165
2605.0,0.006378177317854104
2604.0,0.006382334249607768
2603.0,0.006416227378737389
2602.0,0.006451198905425384
2601.0,0.006463684537824889
2600.0,0.006450231751691182
2599.0,0.006428647042708701
2598.0,0.0064235811907626
2597.0,0.00644205809354557
2596.0,0.00646376280759973
2595.0,0.0064637659635731134
2594.0,0.006440599202255366
2593.0,0.006410561520896686
2592.0,0.006379787397852277
2591.0,0.006340499699317567
2590.0,0.006296659903596841
2589.0,0.006271876544018514
2588.0,0.006279973280033999
2587.0,0.0063023400906416
2586.0,0.00630878165640593
2585.0,0.006291540022384268
2584.0,0.006265679663858709
2583.0,0.006242829758510273
2582.0,0.0062205873587174
2581.0,0.006198848942947861
2580.0,0.006191596189822077
2579.0,0.00621168034260517
2578.0,0.006247188707860885
2577.0,0.00626334777427111
2576.0,0.006236103173880923
2575.0,0.006182707542970674
2574.0,0.0061517785996699735
2573.0,0.00617743297034142
2572.0,0.00624577180417281
2571.0,0.006310420841895013
2570.0,0.006335621149888721
2569.0,0.0063196582953588
2568.0,0.006284558460346458
2567.0,0.006253123388518392
2566.0,0.006233848051108587
2565.0,0.006219099823753191
2564.0,0.006195805301484306
2563.0,0.006161517333003166
2562.0,0.006128105991229369
2561.0,0.006106543231777502
2560.0,0.0060943037438160146
2559.0,0.006083687564327878
2558.0,0.0060751007902943915
2557.0,0.006073722598781971
2556.0,0.006080656027242476
2555.0,0.006097194569042853
2554.0,0.006128173339688189
2553.0,0.006166007938327366
2552.0,0.006180365508695649
2551.0,0.006145771780541663
2550.0,0.0060798895858583885
2549.0,0.006034719947691846
2548.0,0.006043542989023066
2547.0,0.006090916498599463
2546.0,0.006138740500784234
2545.0,0.006165215407679696
2544.0,0.006171367315478832
2543.0,0.0061647050862866475
2542.0,0.006150188471827382
2541.0,0.006132140127062203
2540.0,0.006114843607585243
2539.0,0.006101367907342459
2538.0,0.006094710209451055
2537.0,0.0060976356336625015
2536.0,0.006110237130516068
2535.0,0.006129926697448372
2534.0,0.006152145155310384
2533.0,0.006168638205920823
2532.0,0.006171829518484402
2531.0,0.006168558918399909
2530.0,0.006181956947103733
2529.0,0.006225366132522774
2528.0,0.0062764464373610334
2527.0,0.006292410585739592
2526.0,0.006253383076261685
2525.0,0.006179600978781096
2524.0,0.006106212648911448
2523.0,0.006055596173750064
2522.0,0.006036957085976118
2521.0,0.006055770429502767
2520.0,0.0061109978045195005
2519.0,0.0061882626194103224
2518.0,0.006262115916028359
2517.0,0.006303407706073703
2516.0,0.006288471031947356
2515.0,0.006213779288427327
2514.0,0.006106346964397719
2513.0,0.0060104483203472035
2512.0,0.005956126818196625
2511.0,0.005942403793538714
2510.0,0.005949920650554889
2509.0,0.005961074936008755
2508.0,0.005967892501534159
2507.0,0.005972816133399945
2506.0,0.005987069011235752
2505.0,0.006018530669272503
2504.0,0.006055197394727442
2503.0,0.006069356975816614
2502.0,0.006045394543300858
2501.0,0.005996706696236176
2500.0,0.005947346330430082
2499.0,0.005903091472625536
2498.0,0.0058524070233172435
2497.0,0.0057956228951394715
2496.0,0.005760985846286108
2495.0,0.005781942141832057
2494.0,0.005859133600105744
2493.0,0.005952105357176028
2492.0,0.006013917840610391
2491.0,0.006030825565282709
2490.0,0.006022259226123331
2489.0,0.006007348414354418
2488.0,0.005984520549691582
2487.0,0.005945013163133177
2486.0,0.005890966869990926
2485.0,0.005831349035953283
2484.0,0.005772135993744837
2483.0,0.005722726681580487
2482.0,0.005702065163563447
2481.0,0.005721090273033853
2480.0,0.0057612038229675816
2479.0,0.005784813118508415
2478.0,0.00576937348266243
2477.0,0.005724080884431059
2476.0,0.005676760137786703
2475.0,0.005653044195087695
2474.0,0.0056626146874879015
2473.0,0.005691744072461205
2472.0,0.005710007289046771
2471.0,0.005696324970555416
2470.0,0.005659501913031528
2469.0,0.005626218430587199
2468.0,0.005612957856421035
2467.0,0.005619942126919928
2466.0,0.005647123914805144
2465.0,0.00569938494252604
2464.0,0.005773519450497868
2463.0,0.005851254229851507
2462.0,0.0059075531639172585
2461.0,0.005921343279722234
2460.0,0.005885959443859044
2459.0,0.005821512742411738
2458.0,0.005770298173010476
2457.0,0.005761578262744784
2456.0,0.005780020347414025
2455.0,0.00578391211357791
2454.0,0.00575426165413261
2453.0,0.005710191237247483
2452.0,0.0056775557960941645
2451.0,0.005663432388991729
2450.0,0.005664962152431218
2449.0,0.005680099375564239
2448.0,0.005699150535253693
2447.0,0.005705175391176068
2446.0,0.005695943268158412
2445.0,0.00568961081641915
2444.0,0.005694770254757636
2443.0,0.00568991977401352
2442.0,0.005651034983754588
2441.0,0.005589805715158265
2440.0,0.005544068661573921
2439.0,0.005532642172841286
2438.0,0.005537362739045524
2437.0,0.005531350442572971
2436.0,0.005510594861171277
2435.0,0.005492497466959447
2434.0,0.005492650721150388
2433.0,0.0055087866497978005
2432.0,0.005522677001832301
2431.0,0.0055142886338821325
2430.0,0.005477269952680268
2429.0,0.005422875856539862
2428.0,0.0053667884056232745
2427.0,0.005313379154017189
2426.0,0.005259587644360088
2425.0,0.00521542300972593
2424.0,0.005209820451668537
2423.0,0.005263502960022013
2422.0,0.0053560714494224485
2421.0,0.005432378503163276
2420.0,0.005451074446318798
2419.0,0.0054224469309001044
2418.0,0.00539049055464312
2417.0,0.005382977105555664
2416.0,0.005390218083590728
2415.0,0.005390765553504734
2414.0,0.0053819317687245315
2413.0,0.005376897330080772
2412.0,0.005382448828440897
2411.0,0.0053910687070864586
2410.0,0.005391675132318156
2409.0,0.00538066296470501
2408.0,0.0053643226974086295
2407.0,0.00535403632199028
2406.0,0.005354975939575034
2405.0,0.005356872732932182
2404.0,0.0053424060268176254
2403.0,0.005308029083200887
2402.0,0.005269035195793611
2401.0,0.005240255860278976
2400.0,0.005221627524546359
2399.0,0.005209478372326381
2398.0,0.00520997338725612
2397.0,0.005228704098662089
2396.0,0.005255579877773355
2395.0,0.005274969521410218
2394.0,0.005285509739469362
2393.0,0.005295723414186477
2392.0,0.005304806933083454
2391.0,0.005302995550496807
2390.0,0.0052907622059965844
2389.0,0.005281515181394854
2388.0,0.005279940462873872
2387.0,0.005270933238557503
2386.0,0.005239017813139842
2385.0,0.005191525803358049
2384.0,0.005152925661250319
2383.0,0.005135073469630202
2382.0,0.0051172589410369475
2381.0,0.0050620168235481185
2380.0,0.004957280649742252
2379.0,0.004840887894989436
2378.0,0.004766881248265366
2377.0,0.004734391832255219
2376.0,0.0046659529237647246
2375.0,0.004483002322056701
2374.0,0.004198215640669556
2373.0,0.003918264348814873
2372.0,0.003747484765111853
2371.0,0.00373194523710908
2370.0,0.0038842241964471714
2369.0,0.00418544464315858
2368.0,0.004526065795989041
2367.0,0.004734446744390973
2366.0,0.004716656833883911
2365.0,0.0045274908191960395
2364.0,0.004285426462959548
2363.0,0.004096774382470789
2362.0,0.004030234457177305
2361.0,0.00411528816489926
2360.0,0.004323559819035321
2359.0,0.004519993977865523
2358.0,0.004604498253561034
2357.0,0.004603807244601349
2356.0,0.0045524724306860885
2355.0,0.004486595750664956
2354.0,0.0044165669782958135
2353.0,0.00439278354883515
2352.0,0.004467108837871729
2351.0,0.004681107615145917
2350.0,0.005030050306170687
2349.0,0.0052904543992111355
2348.0,0.0051979412819120165
2347.0,0.004675987013504631
2346.0,0.003944371836539567
2345.0,0.003400362896840042
2344.0,0.0032026652064474233
2343.0,0.0033177230917099893
2342.0,0.0035741694076758023
2341.0,0.003876121624948879
2340.0,0.004169458321519226
2339.0,0.004384819858699308
2338.0,0.00453797868020503
2337.0,0.0046618996172541035
2336.0,0.004812475982275533
2335.0,0.004968953226917649
2334.0,0.005129092243945342
2333.0,0.005239573686321417
2332.0,0.0053058879316399115
2331.0,0.0053107560846874504
2330.0,0.005375132608640334
2329.0,0.005525404785507094
2328.0,0.005823711450438932
2327.0,0.006197164427604097
2326.0,0.006543637145856196
2325.0,0.006750242983430865
2324.0,0.006749987855977558
2323.0,0.006624395138486849
2322.0,0.00647533324702286
2321.0,0.006380856106370561
2320.0,0.006359336875044875
2319.0,0.0063793019897745535
2318.0,0.006418357263174888
2317.0,0.006383144844063238
2316.0,0.006269932635118802
2315.0,0.006108215066563016
2314.0,0.006035037467990188
2313.0,0.006050223414742298
2312.0,0.006098787954586861
2311.0,0.006071349095242619
2310.0,0.006017937618299487
2309.0,0.006004186204710257
2308.0,0.00607735994353295
2307.0,0.00616694941345843
2306.0,0.006219875065044694
2305.0,0.0062045981670909274
2304.0,0.006152367390848079
2303.0,0.006077963825786502
2302.0,0.006008120920045334
2301.0,0.005941151367512968
2300.0,0.005908430482829271
2299.0,0.005923790898463068
2298.0,0.005999062263010707
2297.0,0.006083010668095094
2296.0,0.006130782624878095
2295.0,0.006128899714231692
2294.0,0.006120244433342753
2293.0,0.006127536619829935
2292.0,0.006139115669418493
2291.0,0.006147651282596248
2290.0,0.006179394058924527
2289.0,0.006250497612670999
2288.0,0.0063191720424966595
2287.0,0.006335137146402821
2286.0,0.006295463226382473
2285.0,0.006234770421186184
2284.0,0.006159507615072097
2283.0,0.006057793709206586
2282.0,0.005945912657549717
2281.0,0.0058705606189435626
2280.0,0.005844536007123485
2279.0,0.005827760120799502
2278.0,0.005777809612554681
2277.0,0.005690519857927763
2276.0,0.005587746246877435
2275.0,0.0054931325445583806
2274.0,0.005434476448137739
2273.0,0.0054254909172112105
2272.0,0.005445463130288267
2271.0,0.005456560217635311
2270.0,0.00544759184874704
2269.0,0.005430823846200935
2268.0,0.005405701789515903
2267.0,0.005363764296704694
2266.0,0.005326797358506471
2265.0,0.005329957720068854
2264.0,0.0053644409529243105
2263.0,0.0053782389604041135
2262.0,0.005350390159072382
2261.0,0.005323100316464993
2260.0,0.005337320101776101
2259.0,0.005374618176337465
2258.0,0.005376998967578597
2257.0,0.005313402776992282
2256.0,0.0052113557306185
2255.0,0.005139997272219989
2254.0,0.005160942208741395
2253.0,0.005269662127459178
2252.0,0.005387331855332871
2251.0,0.0054293016236340195
2250.0,0.005387434606961072
2249.0,0.005324769252816983
2248.0,0.005304004832843101
2247.0,0.005345341084730591
2246.0,0.00543798329597935
2245.0,0.005548902415783775
2244.0,0.005620894693273021
2243.0,0.005605954302911341
2242.0,0.005504559915251068
2241.0,0.005351669748883638
2240.0,0.005175949857952184
2239.0,0.005013867685756714
2238.0,0.004938857707119901
2237.0,0.005005083567547616
2236.0,0.00514969807936595
2235.0,0.005229951313240863
2234.0,0.005181253124360407
2233.0,0.005086704653830431
2232.0,0.005058647006326826
2231.0,0.005111630407248423
2230.0,0.005186535372479769
2229.0,0.005247660919952026
2228.0,0.005298626651897043
2227.0,0.0053316759325564385
2226.0,0.005322119069051876
2225.0,0.0052729633740303
2224.0,0.005227069006585412
2223.0,0.005223582769568937
2222.0,0.005262804525347767
2221.0,0.005315014248512655
2220.0,0.005355550767228197
2219.0,0.005384691742021347
2218.0,0.005409796021809595
2217.0,0.005411158118699501
2216.0,0.005348960016289854
2215.0,0.005218763880674504
2214.0,0.005077408487472531
2213.0,0.0049848268164551235
2212.0,0.004937513907386484
2211.0,0.004897381015762817
2210.0,0.00486875382829985
2209.0,0.004890521681312928
2208.0,0.004956920973912345
2207.0,0.005004697883240268
2206.0,0.004991462327927056
2205.0,0.004938461804441149
2204.0,0.004882661199061311
2203.0,0.004835097641195945
2202.0,0.004804986440123488
2201.0,0.004822170956545298
2200.0,0.004906423028333148
2199.0,0.005041342984437424
2198.0,0.00519058868255815
2197.0,0.005310905403012026
2196.0,0.005350007778420357
2195.0,0.005271782580091187
2194.0,0.005103023449709122
2193.0,0.004923731742049917
2192.0,0.004798791964055755
2191.0,0.004750363131113112
2190.0,0.004799055730819233
2189.0,0.004973991624201418
2188.0,0.005242632813396306
2187.0,0.0054739802322722785
2186.0,0.005518163185851203
2185.0,0.005320338291620815
2184.0,0.004966276420433919
2183.0,0.004630802360184394
2182.0,0.004478258156319973
2181.0,0.004563760435878294
2180.0,0.004776561431248976
2179.0,0.004916309150859886
2178.0,0.004846430371953729
2177.0,0.004591739863668532
2176.0,0.004313677999455631
2175.0,0.004189952932091781
2174.0,0.004304472545405464
2173.0,0.004605405361642944
2172.0,0.004942348566264337
2171.0,0.005185636247808911
2170.0,0.005323086074399457
2169.0,0.005428049660373546
2168.0,0.005540647649169682
2167.0,0.005615146517554448
2166.0,0.00561133116199126
2165.0,0.00560122206871683
2164.0,0.0057211768838273495
2163.0,0.005984597657872282
2162.0,0.006155869236618854
2161.0,0.005865240487359854
2160.0,0.004952535030744796
2159.0,0.0037154348371734943
2158.0,0.0026914516149745917
2157.0,0.002217410939186092
2156.0,0.002265217385742086
2155.0,0.0026223659601469123
2154.0,0.003072019411493682
2153.0,0.003417010285301107
2152.0,0.0035202636739254055
2151.0,0.0033922536118649984
2150.0,0.003190632724285583
2149.0,0.003066681480085185
2148.0,0.003037045311621534
2147.0,0.0030400769708333834
2146.0,0.0030729776610497125
2145.0,0.003196527716913057
2144.0,0.00342289743530691
2143.0,0.00366422989524221
2142.0,0.003802798446539464
2141.0,0.0037864334873433225
2140.0,0.003669943382740069
2139.0,0.003563036616483894
2138.0,0.0035224746451263575
2137.0,0.0034922295810341447
2136.0,0.00338299180221631
2135.0,0.0032132382760171156
2134.0,0.003109465310263797
2133.0,0.0031502083255410466
2132.0,0.003282247564450014
2131.0,0.0034278340256401305
2130.0,0.003600642842663726
2129.0,0.003849658404112487
2128.0,0.004139131018916092
2127.0,0.004364648908368383
2126.0,0.004473847293573389
2125.0,0.0045076400010364975
2124.0,0.004518165523588028
2123.0,0.004506428300393263
2122.0,0.004459358764440971
2121.0,0.00440287910652034
2120.0,0.004382175245284486
2119.0,0.00441054880421007
2118.0,0.0044627329661717525
2117.0,0.004505767176806161
2116.0,0.004522105614472482
2115.0,0.004513167043426686
2114.0,0.004498819987732513
2113.0,0.0045087567631534094
2112.0,0.004560390660541748
2111.0,0.004635947001950759
2110.0,0.004685889279430993
2109.0,0.004666827147957525
2108.0,0.004592237142022696
2107.0,0.004534629603924663
2106.0,0.004555592692816328
2105.0,0.004627031854581656
2104.0,0.004651807188851868
2103.0,0.004571579601914769
2102.0,0.004433183220926645
2101.0,0.004328147706370846
2100.0,0.004295724490434419
2099.0,0.004304927359593268
2098.0,0.004313464454620105
2097.0,0.004307511395416308
2096.0,0.004297577532793301
2095.0,0.0043069898387142185
2094.0,0.004355775518848733
2093.0,0.004428095882344325
2092.0,0.004466857468611769
2091.0,0.004430643210886354
2090.0,0.004353357600098181
2089.0,0.004321563557579877
2088.0,0.004382595632725897
2087.0,0.004500558206413887
2086.0,0.00460334813998412
2085.0,0.004655590556150369
2084.0,0.004678541220654003
2083.0,0.004711074315864496
2082.0,0.004758950696029388
2081.0,0.004787068684472643
2080.0,0.004761324170264775
2079.0,0.004688354097373135
2078.0,0.0046058055157563536
2077.0,0.004546870950035248
2076.0,0.004526844070325239
2075.0,0.0045461757739164435
2074.0,0.004578005774731574
2073.0,0.004571914499067016
2072.0,0.004517181816534351
2071.0,0.004485768369395601
2070.0,0.004555798466884237
2069.0,0.004695585023628956
2068.0,0.004786642761691426
2067.0,0.004772397738580224
2066.0,0.004717860003688603
2065.0,0.004702957240988911
2064.0,0.0047257136897004715
2063.0,0.004745417467382444
2062.0,0.004745637725899302
2061.0,0.004703409665786356
2060.0,0.004578898615712506
2059.0,0.004391769502968018
2058.0,0.004241076724332741
2057.0,0.004189941815998603
2056.0,0.004191944095099308
2055.0,0.004195461347251348
2054.0,0.004252290726380435
2053.0,0.004428550584085359
2052.0,0.004655634520042907
2051.0,0.0047726768587372705
2050.0,0.004702728358469321
2049.0,0.004521100123698128
2048.0,0.004341240823373265
2047.0,0.0042085051006351
2046.0,0.004137034334924294
2045.0,0.004150161843507211
2044.0,0.00424630690654119
2043.0,0.004381771455131832
2042.0,0.004499382094781812
2041.0,0.004545000308251954
2040.0,0.004491229545623542
2039.0,0.0043761738764167
2038.0,0.004269730767156219
2037.0,0.004175890141758385
2036.0,0.004028764457161103
2035.0,0.003830606432444864
2034.0,0.003699760260865071
2033.0,0.003690450937339848
2032.0,0.0036688463821719208
2031.0,0.0035162731001544935
2030.0,0.0033534667635387954
2029.0,0.0034027501761472313
2028.0,0.0036807268004840636
2027.0,0.003977898529506427
2026.0,0.004115330237775691
2025.0,0.00407486178819972
2024.0,0.003919080960682754
2023.0,0.0037143551346398565
2022.0,0.003540179122042201
2021.0,0.0034551708371206493
2020.0,0.0034390759022917363
2019.0,0.0034528557525035494
2018.0,0.003530953410031104
2017.0,0.0037083512882137935
2016.0,0.0038946934585411546
2015.0,0.003965196617181668
2014.0,0.0039205318017355535
2013.0,0.003855055909436145
2012.0,0.0038183827757428115
2011.0,0.0037707622320742235
2010.0,0.003650133244252911
2009.0,0.003422156546081151
2008.0,0.0031051099392440783
2007.0,0.0028111139126086545
2006.0,0.002707948347874807
2005.0,0.0028528936009754903
2004.0,0.003114209729861693
2003.0,0.0033236373527556805
2002.0,0.0034469495511580796
2001.0,0.0035494524914985227
2000.0,0.003674963663641423
1999.0,0.0038332337161584512
1998.0,0.004021144880608385
1997.0,0.00418493703821881
1996.0,0.00422500430808177
1995.0,0.004120860962495951
1994.0,0.003990201364014996
1993.0,0.003955740404459727
1992.0,0.003972216714730042
1991.0,0.00392071024770229
1990.0,0.0038386337693432078
1989.0,0.0038412307588393427
1988.0,0.0039037118853086196
1987.0,0.0038984214007970154
1986.0,0.003820869067746484
1985.0,0.003827452448285721
1984.0,0.004019890395739004
1983.0,0.00430769416147021
1982.0,0.00451551002751897
1981.0,0.004548464973153286
1980.0,0.0044377121028071394
1979.0,0.004293307162908995
1978.0,0.004207594673351627
1977.0,0.00415264865870779
1976.0,0.003988277046921335
1975.0,0.0036528726823033776
1974.0,0.0032891021021412338
1973.0,0.003093619513674222
1972.0,0.003085804303063096
1971.0,0.003139060522013779
1970.0,0.0031986739006995813
1969.0,0.003329234915096692
1968.0,0.0035512212451591276
1967.0,0.00375039742677857
1966.0,0.003816889215597096
1965.0,0.003767750784140766
1964.0,0.0036542728772042694
1963.0,0.0034869059422838406
1962.0,0.0032981639604915186
1961.0,0.0031646020120168405
1960.0,0.0031306349536974892
1959.0,0.003176624972816161
1958.0,0.0032715373979840595
1957.0,0.003387315539956399
1956.0,0.003464086455980214
1955.0,0.0034395865284789417
1954.0,0.0033308056299389626
1953.0,0.0032348255626266525
1952.0,0.003232758251907505
1951.0,0.0033256665353986067
1950.0,0.003460541300775853
1949.0,0.0035589237162386863
1948.0,0.003555657776959982
1947.0,0.003465066855351841
1946.0,0.0033878486301166244
1945.0,0.0034059381063523495
1944.0,0.0034886184117020502
1943.0,0.0035391006200342257
1942.0,0.003516603341365942
1941.0,0.0034686964068906733
1940.0,0.003429069040939845
1939.0,0.003369796773340086
1938.0,0.003286210795042939
1937.0,0.003226426546449662
1936.0,0.0032152158964189994
1935.0,0.003218649404167548
1934.0,0.0031992201857282414
1933.0,0.0031617702058465763
1932.0,0.003134483484224147
1931.0,0.003141112556427143
1930.0,0.0032029274122599097
1929.0,0.003307217445866577
1928.0,0.0034047076355460024
1927.0,0.003465087172256939
1926.0,0.0035044140819902965
1925.0,0.0035492306678149314
1924.0,0.003572541796036477
1923.0,0.0035335766964846396
1922.0,0.0034543085545822097
1921.0,0.003410601458066727
1920.0,0.003427625608258523
1919.0,0.0034824069103716235
1918.0,0.0035623305557681527
1917.0,0.003636902722526842
1916.0,0.003667252140541386
1915.0,0.003650198399499003
1914.0,0.0036043121932236486
1913.0,0.0035501470131798596
1912.0,0.0034822830832740826
1911.0,0.0034034281476348635
1910.0,0.003373242267779647
1909.0,0.00343764639125576
1908.0,0.0035433280796878233
1907.0,0.0036011732023164145
1906.0,0.003588564711040694
1905.0,0.003551866338022518
1904.0,0.003516426030602456
1903.0,0.003475644079735796
1902.0,0.0034263280976795734
1901.0,0.0033716046469375433
1900.0,0.0033113950893182927
1899.0,0.0032548664498616227
1898.0,0.0032253262071455435
1897.0,0.0032396849615209215
1896.0,0.0032731452560021464
1895.0,0.003296975942568082
1894.0,0.003323176889685207
1893.0,0.0033662620577630782
1892.0,0.003392828463381171
1891.0,0.003371598158185505
1890.0,0.003342858330918946
1889.0,0.003358749846265864
1888.0,0.0034046093666230915
1887.0,0.0034438238181497393
1886.0,0.003467933459972508
1885.0,0.0034936186786148063
1884.0,0.0035140773762736667
1883.0,0.0034986823557249702
1882.0,0.003450487096650733
1881.0,0.0034035997801529832
1880.0,0.0033806841608780185
1879.0,0.0033790072233143044
1878.0,0.003392223198684651
1877.0,0.00342465684731041
1876.0,0.003462412933372582
1875.0,0.0034721210664055077
1874.0,0.003446708201571322
1873.0,0.003407834704965529
1872.0,0.0033633486284616793
1871.0,0.0033061788477065424
1870.0,0.003265534020896332
1869.0,0.003281499757227887
1868.0,0.0032960302845907057
1867.0,0.0032651196995929777
1866.0,0.003240215476102097
1865.0,0.003236421696126489
1864.0,0.0032305465773217784
1863.0,0.0032222569423574314
1862.0,0.0032387462141682693
1861.0,0.003285893066712879
1860.0,0.003320918005511703
1859.0,0.0033089607201390566
1858.0,0.0032748067836747574
1857.0,0.0032594891103814925
1856.0,0.003257477873047925
1855.0,0.003236551842783072
1854.0,0.0031982587132977753
1853.0,0.003171596197876851
1852.0,0.0031656959886439415
1851.0,0.0031692773460422754
1850.0,0.0031659567977956973
1849.0,0.0031763063775408808
1848.0,0.0032262671550221285
1847.0,0.0033071617805566413
1846.0,0.003379806124291984
1845.0,0.0034152702218857955
1844.0,0.0034045017366772113
1843.0,0.003368789358179443
1842.0,0.0033694573970496425
1841.0,0.003387539189699656
1840.0,0.0033637274810674124
1839.0,0.003299413672392314
1838.0,0.003245271571316422
1837.0,0.003237400203079096
1836.0,0.003252965487378348
1835.0,0.003267724571034362
1834.0,0.0032873490791870226
1833.0,0.003308294817321698
1832.0,0.0032976095556392134
1831.0,0.0032392693273977733
1830.0,0.0031632989289134762
1829.0,0.003110913715240225
1828.0,0.003115760294206509
1827.0,0.0031551707452070095
1826.0,0.003177212548633332
1825.0,0.003195206825851795
1824.0,0.003214224457192759
1823.0,0.0032185427408616784
1822.0,0.0032140764926958626
1821.0,0.003211655021381318
1820.0,0.0032104850845556692
1819.0,0.003181986183940057
1818.0,0.0031213512478268698
1817.0,0.003078075257424695
1816.0,0.003082887432698419
1815.0,0.0031195906578896037
1814.0,0.003156504807790245
1813.0,0.0031769140699152384
1812.0,0.003177019747827307
1811.0,0.003147452735505769
1810.0,0.003124504999686998
1809.0,0.003159792579217644
1808.0,0.0032338968723950342
1807.0,0.0032899993495715536
1806.0,0.0033090627204296315
1805.0,0.003307386629685916
1804.0,0.0032959797985621948
1803.0,0.0032874151060274547
1802.0,0.003314641590737507
1801.0,0.0033885470559644627
1800.0,0.0034672306564677586
1799.0,0.0035153264727951243
1798.0,0.0035686982369445806
1797.0,0.003652091885710966
1796.0,0.003736915639395236
1795.0,0.0037745257054160987
1794.0,0.0037424640832169256
1793.0,0.003668992325546948
1792.0,0.00359099877562501
1791.0,0.003510860824382035
1790.0,0.00348349688463607
1789.0,0.0035177500354932932
1788.0,0.003554816839075924
1787.0,0.003566269983220546
1786.0,0.003569040112948023
1785.0,0.003572897790299065
1784.0,0.0035570583482116115
1783.0,0.0035172493192999945
1782.0,0.003462759629549955
1781.0,0.003398236026532748
1780.0,0.003340587986282979
1779.0,0.0032904827601268416
1778.0,0.0032592557400336524
1777.0,0.0032331837626316355
1776.0,0.003205599320605267
1775.0,0.0031838617630119484
1774.0,0.003160108320701502
1773.0,0.0031660916642102504
1772.0,0.00321062511089991
1771.0,0.0032167428317874773
1770.0,0.003219760063379426
1769.0,0.003242388106163033
1768.0,0.0032437707608324864
1767.0,0.003215224645564601
1766.0,0.0031821195039287474
1765.0,0.003154699769558446
1764.0,0.0031158060048793383
1763.0,0.0030741885324478964
1762.0,0.003067231427346565
1761.0,0.003098755782341151
1760.0,0.003165621589154505
1759.0,0.0032287818825908476
1758.0,0.00325553006047314
1757.0,0.0032547750065029237
1756.0,0.0032653718085896427
1755.0,0.003312127633013956
1754.0,0.0033724900329018563
1753.0,0.0034105363875962837
1752.0,0.003456266438372743
1751.0,0.0035435866423604257
1750.0,0.003617759191655835
1749.0,0.003649482409548839
1748.0,0.0036646714527225083
1747.0,0.0036957570339156125
1746.0,0.0037532105115576173
1745.0,0.003849640539962799
1744.0,0.004002040456738538
1743.0,0.00417805226785312
1742.0,0.004348582615361259
1741.0,0.004559231901436184
1740.0,0.00486703320732894
1739.0,0.005209968283906325
1738.0,0.005486260565760021
1737.0,0.005697647067542239
1736.0,0.0058847622458423525
1735.0,0.0062324344541060525
1734.0,0.0068548640659656926
1733.0,0.007307115344808832
1732.0,0.007515930681008774
1731.0,0.007671476317043726
1730.0,0.007816719503592792
1729.0,0.007985487345323049
1728.0,0.00819529787265446
1727.0,0.008426717120202602
1726.0,0.008638968053684467
1725.0,0.008841411520177582
1724.0,0.009065905810138337
1723.0,0.009275544106207873
1722.0,0.009430403690891317
1721.0,0.009522642275463846
1720.0,0.009562499026693575
1719.0,0.00962115720792579
1718.0,0.009910813269339024
1717.0,0.01041000281411604
1716.0,0.010743905574489815
1715.0,0.01085785607137254
1714.0,0.01086708276686777
1713.0,0.01083565700754133
1712.0,0.010781758165436892
1711.0,0.010693019953905175
1710.0,0.010566074781599766
1709.0,0.010405072271571204
1708.0,0.010216758471134887
1707.0,0.0100009259147605
1706.0,0.009759879588907373
1705.0,0.00950003781522024
1704.0,0.00926756289892443
1703.0,0.009111102248953637
1702.0,0.008947282610126013
1701.0,0.00873844186114101
1700.0,0.008518416603667573
1699.0,0.008313843909810036
1698.0,0.008233276341655337
1697.0,0.00819329397284222
1696.0,0.00806087758230069
1695.0,0.007818223296171432
1694.0,0.007667705574417573
1693.0,0.007615948489435568
1692.0,0.007528393141264564
1691.0,0.007406229847180252
1690.0,0.007327691273633875
1689.0,0.007331618541128989
1688.0,0.007377926078315255
1687.0,0.007400057727608374
1686.0,0.007314086472867944
1685.0,0.007237553985781754
1684.0,0.007284884099530556
1683.0,0.007277475086936845
1682.0,0.00739052634741583
1681.0,0.007539857753486404
1680.0,0.0076078684233186564
1679.0,0.007643985387825179
1678.0,0.0076941847783614705
1677.0,0.007760839278667057
1676.0,0.007848720963887921
1675.0,0.007934174706475054
1674.0,0.00795440116261743
1673.0,0.007940529641586123
1672.0,0.007924958543369939
1671.0,0.007946598253273532
1670.0,0.00806634895778816
1669.0,0.008167587020105236
1668.0,0.008197412652353589
1667.0,0.008236464671768877
1666.0,0.008267231159421264
1665.0,0.008272999199427847
1664.0,0.008301292476188544
1663.0,0.008399248216895647
1662.0,0.008507924083027845
1661.0,0.008568426091129538
1660.0,0.008625775910425983
1659.0,0.008671583499399116
1658.0,0.00869013589617699
1657.0,0.008676374482030355
1656.0,0.00866605187802384
1655.0,0.008641427288543429
1654.0,0.008827517997148539
1653.0,0.009171746766242467
1652.0,0.009120314222044354
1651.0,0.009153637091523857
1650.0,0.009128725117189023
1649.0,0.008959783519754587
1648.0,0.00890706830567136
1647.0,0.009079200682640233
1646.0,0.009159019984895336
1645.0,0.009151099473590146
1644.0,0.009184979966581217
1643.0,0.009171273087876469
1642.0,0.009114901335451578
1641.0,0.00905883325390942
1640.0,0.009013129000470377
1639.0,0.008967002397293857
1638.0,0.008920436428616596
1637.0,0.008948517954045972
1636.0,0.009031044943287301
1635.0,0.00894615861892927
1634.0,0.008842420716572584
1633.0,0.008874654827648345
1632.0,0.008894215206172678
1631.0,0.00885477938627355
1630.0,0.008782034601041638
1629.0,0.008702390778786403
1628.0,0.008624523369414234
1627.0,0.008547085791203873
1626.0,0.008475899086801809
1625.0,0.008402260366249956
1624.0,0.008332960532805966
1623.0,0.008266817597900513
1622.0,0.008192958037629691
1621.0,0.008148178105119244
1620.0,0.008134245054328384
1619.0,0.008105227328084257
1618.0,0.008067969556039117
1617.0,0.008034649225648798
1616.0,0.007937293462443035
1615.0,0.007819614535321954
1614.0,0.00775169902359186
1613.0,0.0076795806893526445
1612.0,0.0075737164570745495
1611.0,0.007459138294984407
1610.0,0.007351977360363566
1609.0,0.0072387215019049655
1608.0,0.00711139371047027
1607.0,0.0069904410393529515
1606.0,0.00689714317550379
1605.0,0.0068306141891321046
1604.0,0.006792181232525325
1603.0,0.006763561707461242
1602.0,0.006705812998678933
1601.0,0.006601370155759236
1600.0,0.006475065315823049
1599.0,0.00636261499415779
1598.0,0.006278503858313595
1597.0,0.006219916745037116
1596.0,0.0061777675184866866
1595.0,0.006144740850817053
1594.0,0.006115772881488349
1593.0,0.006083497210286011
1592.0,0.006043899133558467
1591.0,0.0060013806010016085
1590.0,0.005964446742731944
1589.0,0.00593322396118479
1588.0,0.005908148427132146
1587.0,0.005899251229603309
1586.0,0.005917380051510037
1585.0,0.005949521830744384
1584.0,0.005980133417762878
1583.0,0.006016128530160969
1582.0,0.006057479658429099
1581.0,0.006101138927900384
1580.0,0.006148273212589608
1579.0,0.006205297135015005
1578.0,0.00626900037414929
1577.0,0.006365722079357372
1576.0,0.006425624858153699
1575.0,0.006375115520001933
1574.0,0.0063399969229889965
1573.0,0.006326442102125816
1572.0,0.006266128172468766
1571.0,0.0061736350233007505
1570.0,0.006131638730132586
1569.0,0.006146671510814971
1568.0,0.006201942083990749
1567.0,0.006290616009302339
1566.0,0.00635293169876692
1565.0,0.006367452988250092
1564.0,0.006399726363636471
1563.0,0.006454231540218944
1562.0,0.006517660517485719
1561.0,0.006425557427090511
1560.0,0.006267999429315777
1559.0,0.006477327973824724
1558.0,0.0066094286705052265
1557.0,0.0067979922485428244
1556.0,0.007083712085550382
1555.0,0.0072105710814497435
1554.0,0.007227595702159636
1553.0,0.007234300622083221
1552.0,0.007259618758275521
1551.0,0.007301077555770204
1550.0,0.00738316574172527
1549.0,0.007513694763529354
1548.0,0.0076400136277914536
1547.0,0.007714862601950281
1546.0,0.00773428349819753
1545.0,0.007815631966898693
1544.0,0.008022116567621723
1543.0,0.008223382509500216
1542.0,0.008324949171362813
1541.0,0.008508468174620256
1540.0,0.008655493075501512
1539.0,0.008572225806012766
1538.0,0.008677161214259786
1537.0,0.008911705927700169
1536.0,0.009030124925657496
1535.0,0.009057272820818535
1534.0,0.009119021163349257
1533.0,0.009247023376514512
1532.0,0.00935283737517089
1531.0,0.00944360622603389
1530.0,0.00951345279183948
1529.0,0.009570484912444036
1528.0,0.009654728982803612
1527.0,0.009779428387556063
1526.0,0.009932129436936448
1525.0,0.010095214149518283
1524.0,0.010243781396694364
1523.0,0.010362046281185476
1522.0,0.010524969244270073
1521.0,0.010687271151720959
1520.0,0.01074846076156444
1519.0,0.010777059010336203
1518.0,0.010800376104059055
1517.0,0.010882542425352252
1516.0,0.01101824742295037
1515.0,0.011165763259931748
1514.0,0.011337383815480627
1513.0,0.011495256400543474
1512.0,0.011631345473976921
1511.0,0.011710844491256934
1510.0,0.011769807366677754
1509.0,0.011840234014640176
1508.0,0.012174188648373335
1507.0,0.01267058693369838
1506.0,0.012748264354266193
1505.0,0.01289201880104015
1504.0,0.013166356865359037
1503.0,0.013268392080329915
1502.0,0.013279928770780077
1501.0,0.01329452553470883
1500.0,0.013356053448097784
1499.0,0.013432167420483707
1498.0,0.013540761439170972
1497.0,0.01372890684113303
1496.0,0.013900993100781169
1495.0,0.01397578377829432
1494.0,0.014021102752624373
1493.0,0.01407717849534866
1492.0,0.01413245730955771
1491.0,0.014207186128835175
1490.0,0.014360772878428785
1489.0,0.01454386399382154
1488.0,0.014665726198873987
1487.0,0.014755703367562156
1486.0,0.01488691352193278
1485.0,0.015063164503689351
1484.0,0.01524176759831048
1483.0,0.015391453793234432
1482.0,0.015524148331493348
1481.0,0.015672641893904857
1480.0,0.015820486373311096
1479.0,0.015936922342659903
1478.0,0.016028618723810135
1477.0,0.01614747633438733
1476.0,0.01631855268479658
1475.0,0.016508524098712868
1474.0,0.016722980303261234
1473.0,0.016978370684294867
1472.0,0.01715207603001026
1471.0,0.017238179675701577
1470.0,0.017373987848907032
1469.0,0.017540052655549747
1468.0,0.017681225870897054
1467.0,0.017789347917159005
1466.0,0.017904833440939762
1465.0,0.01806088308671527
1464.0,0.01821815965191532
1463.0,0.01834546293903014
1462.0,0.018461642833709515
1461.0,0.01855725234592719
1460.0,0.018643689254580022
1459.0,0.01875071971264095
1458.0,0.01903157049073221
1457.0,0.019447459853186688
1456.0,0.01964490599010499
1455.0,0.019725377228225857
1454.0,0.0198068843893353
1453.0,0.01987487175202165
1452.0,0.019949273487607746
1451.0,0.0200129720038038
1450.0,0.02007737551425944
1449.0,0.020166119500157762
1448.0,0.020263861094828514
1447.0,0.020340954491644435
1446.0,0.0204217303331109
1445.0,0.020525153424367858
1444.0,0.02062925595270045
1443.0,0.02070171776180332
1442.0,0.02075594910529121
1441.0,0.02082084401810373
1440.0,0.020899368229924036
1439.0,0.020958731633968528
1438.0,0.02098063685302865
1437.0,0.02097808314723524
1436.0,0.020936112185841987
1435.0,0.020883824690418017
1434.0,0.020876251748597835
1433.0,0.020896837809679204
1432.0,0.020904964271738352
1431.0,0.02088018272547315
1430.0,0.020839172349292858
1429.0,0.02083045061260246
1428.0,0.02086042445213343
1427.0,0.02090413409836145
1426.0,0.020936863035698482
1425.0,0.02095547676377077
1424.0,0.020974559578283234
1423.0,0.020994612720704773
1422.0,0.021038608715613385
1421.0,0.021097574535876257
1420.0,0.021126165473553945
1419.0,0.0210913616787778
1418.0,0.021040538422659277
1417.0,0.021091932152447992
1416.0,0.02123431763766347
1415.0,0.021388429533893194
1414.0,0.021542571355500497
1413.0,0.021718098475008517
1412.0,0.02190242035911621
1411.0,0.022040070282818038
1410.0,0.022098522713929772
1409.0,0.02208548906750924
1408.0,0.02197647206297962
1407.0,0.02172686124922147
1406.0,0.02133497439394059
1405.0,0.020852344297184137
1404.0,0.020375932284701494
1403.0,0.019993304965404225
1402.0,0.019712860670303523
1401.0,0.019463075784462006
1400.0,0.01916647833802302
1399.0,0.0188124490405662
1398.0,0.018477335973203092
1397.0,0.018209107772190744
1396.0,0.017935587195183723
1395.0,0.017592290261434752
1394.0,0.017240162378457047
1393.0,0.016971101222977878
1392.0,0.01676765449856631
1391.0,0.01656440182568184
1390.0,0.016343336408381554
1389.0,0.016097894384240703
1388.0,0.015795103003711553
1387.0,0.015431899197996965
1386.0,0.01509752461235046
1385.0,0.014860242455474324
1384.0,0.01468278309034881
1383.0,0.01450976950518093
1382.0,0.014334279258242856
1381.0,0.014167187403755655
1380.0,0.014003131536060979
1379.0,0.013841866022422787
1378.0,0.013696696874094319
1377.0,0.013565343719849625
1376.0,0.013419987573969824
1375.0,0.013245467258602775
1374.0,0.013058926810910004
1373.0,0.012902087316182493
1372.0,0.012795073874262156
1371.0,0.012699527041989657
1370.0,0.012563262778458182
1369.0,0.01236754282637117
1368.0,0.012142796827225563
1367.0,0.01193568600692353
1366.0,0.01175479477675837
1365.0,0.011558248824314842
1364.0,0.01130477392667222
1363.0,0.011000435625551109
1362.0,0.010700764458483341
1361.0,0.01046434908477885
1360.0,0.010296343394865829
1359.0,0.010162479574333593
1358.0,0.010035609520064435
1357.0,0.009900596353136826
1356.0,0.009750938918327944
1355.0,0.009595546961309775
1354.0,0.00945057672902685
1353.0,0.009323489415969867
1352.0,0.009212395941051053
1351.0,0.009126155338043057
1350.0,0.009071977890639342
1349.0,0.00902925774426058
1348.0,0.008974645606977577
1347.0,0.008907493945666776
1346.0,0.008843146846504576
1345.0,0.008786219906606645
1344.0,0.008732385816584535
1343.0,0.008681056317825217
1342.0,0.008634540121069413
1341.0,0.00859048278291185
1340.0,0.00853487605594405
1339.0,0.00844278543614197
1338.0,0.008312203995449505
1337.0,0.008164452643524882
1336.0,0.008010425554292957
1335.0,0.007857376761722604
1334.0,0.007713878545078549
1333.0,0.007578315024766713
1332.0,0.007448490304181177
1331.0,0.007335907042389898
1330.0,0.007251232608207064
1329.0,0.0071851669032667355
1328.0,0.007122605920690354
1327.0,0.0070656394796608755
1326.0,0.0070232251182796215
1325.0,0.006991135623874862
1324.0,0.0069605484105660816
1323.0,0.006930321278861956
1322.0,0.006903294031603387
1321.0,0.00687593595051238
1320.0,0.006844250702972468
1319.0,0.006813526669032155
1318.0,0.006793778230734588
1317.0,0.006788144463775472
1316.0,0.006792253973163737
1315.0,0.0068014351349554684
1314.0,0.006812129501055154
1313.0,0.006820036711435955
1312.0,0.006824843435568367
1311.0,0.006833576207217829
1310.0,0.006849926663422703
1309.0,0.006868850082251217
1308.0,0.006884018512735754
1307.0,0.006894799314428367
1306.0,0.006902345814613357
1305.0,0.00690778686930792
1304.0,0.006920289436845278
1303.0,0.006954842645768131
1302.0,0.007019974200197079
1301.0,0.007110972590573387
1300.0,0.007219874800407573
1299.0,0.007343504681888914
1298.0,0.007480190394999815
1297.0,0.00762518000299486
1296.0,0.007774080823842769
1295.0,0.007925354659115152
1294.0,0.008075900109618383
1293.0,0.008220836006636648
1292.0,0.008359512121173864
1291.0,0.008496889932473316
1290.0,0.008635350481283274
1289.0,0.008768046922114133
1288.0,0.008883685415869568
1287.0,0.008976717901569528
1286.0,0.009050091637618057
1285.0,0.009109332105985088
1284.0,0.009158157592475876
1283.0,0.009200126704393668
1282.0,0.009240462581745738
1281.0,0.00928281533317417
1280.0,0.009325771456796384
1279.0,0.009363408050812587
1278.0,0.0093904924256344
1277.0,0.009409292185289032
1276.0,0.009430821566775159
1275.0,0.009469576546687432
1274.0,0.00953665126595491
1273.0,0.009638243331301538
1272.0,0.0097756043774947
1271.0,0.009941687237487873
1270.0,0.010122130110578144
1269.0,0.010305917380743735
1268.0,0.010492360543308779
1267.0,0.010683676868310694
1266.0,0.01087523832541714
1265.0,0.011057765155760268
1264.0,0.011226170418855081
1263.0,0.011382873094839931
1262.0,0.011532361279689034
1261.0,0.011672052816241972
1260.0,0.011789541220654978
1259.0,0.011872471042851385
1258.0,0.011922830834384243
1257.0,0.0119576503908524
1256.0,0.011994266250015926
1255.0,0.012040095011253651
1254.0,0.012096441933738811
1253.0,0.012167094724113307
1252.0,0.012258055774359289
1251.0,0.012370775778346565
1250.0,0.012500605664492279
1249.0,0.01264178061531154
1248.0,0.012790178804663283
1247.0,0.012942649799857174
1246.0,0.013099464624435168
1245.0,0.01326634960365394
1244.0,0.013447635477898384
1243.0,0.013639333467023531
1242.0,0.013832857778721362
1241.0,0.014020733699975873
1240.0,0.014192823896900738
1239.0,0.01433383966768493
1238.0,0.014433499188828264
1237.0,0.014494151376109973
1236.0,0.01452132580109759
1235.0,0.014514040613860024
1234.0,0.0144718942725164
1233.0,0.014403534735718235
1232.0,0.014318136136974947
1231.0,0.01421250116006528
1230.0,0.01407490846849829
1229.0,0.013900308110168739
1228.0,0.01369735145250654
1227.0,0.013482542970910172
1226.0,0.013268160807180667
1225.0,0.013052324166638346
1224.0,0.012821715201764356
1223.0,0.012567219596404656
1222.0,0.01229458370950999
1221.0,0.012016474491435038
1220.0,0.011738883411651626
1219.0,0.011461505232395745
1218.0,0.011189248913738448
1217.0,0.01093650082225227
1216.0,0.010717178065624276
1215.0,0.01053173352810309
1214.0,0.010364252474366039
1213.0,0.010194245577134265
1212.0,0.010013339583185064
1211.0,0.009829678532263793
1210.0,0.009655296257927973
1209.0,0.00949289890071969
1208.0,0.009338965215573355
1207.0,0.009194809994391016
1206.0,0.009067267375971766
1205.0,0.008959753984449937
1204.0,0.008868757903382887
1203.0,0.008787451376051492
1202.0,0.008707439626081927
1201.0,0.008620430773782634
1200.0,0.008525668065144203
1199.0,0.00843450328307146
1198.0,0.008359952869875405
1197.0,0.008301765373077327
1196.0,0.008248591907345218
1195.0,0.00819499095329128
1194.0,0.008147547241852848
1193.0,0.008111422610728268
1192.0,0.00807979106269419
1191.0,0.008043583345328816
1190.0,0.008007708749530952
1189.0,0.007989561996026498
1188.0,0.008001718885519137
1187.0,0.008041461443629667
1186.0,0.008097276187083313
1185.0,0.00815931228294069
1184.0,0.008219614444567102
1183.0,0.008269613813840618
1182.0,0.008307767278320886
1181.0,0.008348432669385758
1180.0,0.00841391537659834
1179.0,0.008514654325908248
1178.0,0.00864193435782617
1177.0,0.00877939947524549
1176.0,0.008912228703611899
1175.0,0.009023575071513789
1174.0,0.009095540983887498
1173.0,0.009123089234338707
1172.0,0.009120973740277934
1171.0,0.009110187774112943
1170.0,0.00910053345552397
1169.0,0.009089637019599675
1168.0,0.009075400914313879
1167.0,0.009064153569730414
1166.0,0.009065593589639436
1165.0,0.009082051847637532
1164.0,0.009104807034619399
1163.0,0.009122641490977402
1162.0,0.009135589524528096
1161.0,0.009158271421806995
1160.0,0.009205989128433593
1159.0,0.009277572312732366
1158.0,0.00935505694279781
1157.0,0.009420397633519704
1156.0,0.009468343847966168
1155.0,0.009504387057810412
1154.0,0.009538786425870081
1153.0,0.00958479500816034
1152.0,0.009654954630447854
1151.0,0.009752996652089766
1150.0,0.009871373600337924
1149.0,0.0099999208453237
1148.0,0.010134520064980737
1147.0,0.01027630548925992
1146.0,0.010427636218597793
1145.0,0.01059078417890405
1144.0,0.010765199246072011
1143.0,0.010942728459872268
1142.0,0.01110973254711733
1141.0,0.01125756962922702
1140.0,0.011389353067191958
1139.0,0.01151662760280854
1138.0,0.011651057387463613
1137.0,0.01179631239757168
1136.0,0.011944716183616207
1135.0,0.012085118634292003
1134.0,0.012217314706885678
1133.0,0.012352641659742165
1132.0,0.01249566173646837
1131.0,0.012633457742249537
1130.0,0.012752537189808382
1129.0,0.012862013071427779
1128.0,0.012990983818849496
1127.0,0.013164873099960315
1126.0,0.013388826982233828
1125.0,0.013648990707157922
1124.0,0.013921985840657673
1123.0,0.01418627944099075
1122.0,0.014432636316962111
1121.0,0.014661251039710686
1120.0,0.014866097021843942
1119.0,0.015033079912234529
1118.0,0.015159316157218272
1117.0,0.015259856264082501
1116.0,0.015346499891422522
1115.0,0.015414697987195768
1114.0,0.015460966496716595
1113.0,0.01549736406518876
1112.0,0.015537618140456507
1111.0,0.015587042175153058
1110.0,0.015660566509340015
1109.0,0.01579402057556941
1108.0,0.016015639767802962
1107.0,0.016313957704119926
1106.0,0.016650874700233454
1105.0,0.01699837455882314
1104.0,0.017346681373623454
1103.0,0.017687793635693765
1102.0,0.018014294584936218
1101.0,0.01833097585535066
1100.0,0.018646902475955632
1099.0,0.018962813835921504
1098.0,0.019278055163196455
1097.0,0.01959711287943005
1096.0,0.019916642209668788
1095.0,0.020215249226470538
1094.0,0.020472191985221672
1093.0,0.020684253345400406
1092.0,0.02085400600784745
1091.0,0.02097963054084197
1090.0,0.021067787152526652
1089.0,0.021137016679717187
1088.0,0.021201237352390136
1087.0,0.021273204249510527
1086.0,0.021386090123147065
1085.0,0.021573362596437138
1084.0,0.021809553788540874
1083.0,0.022003171444271868
1082.0,0.02207450872376346
1081.0,0.022020339393069844
1080.0,0.0218887614323349
1079.0,0.02172574302906544
1078.0,0.021563121100837402
1077.0,0.02141872104788065
1076.0,0.021280582955856782
1075.0,0.02111610427059657
1074.0,0.020916831379836943
1073.0,0.020710613584517746
1072.0,0.020515499322908543
1071.0,0.020312560656747865
1070.0,0.020085091997423563
1069.0,0.01985696329528654
1068.0,0.019667307293420255
1067.0,0.019525234509380655
1066.0,0.01940808813909873
1065.0,0.0192902635458081
1064.0,0.01915886853791251
1063.0,0.01901469870242513
1062.0,0.018872658475880523
1061.0,0.01875174591382092
1060.0,0.018657256543505904
1059.0,0.01858217893760647
1058.0,0.018525734299941136
1057.0,0.018493851107888707
1056.0,0.01848033740094798
1055.0,0.018470051375039948
1054.0,0.018468150672815598
1053.0,0.018504468275630296
1052.0,0.018597062308445614
1051.0,0.018730541034513656
1050.0,0.018882004478943615
1049.0,0.019043725230648047
1048.0,0.019206012620990184
1047.0,0.019348429451520297
1046.0,0.019465381895260127
1045.0,0.019573563769146936
1044.0,0.019682564758475136
1043.0,0.019783843100992633
1042.0,0.019876983110262467
1041.0,0.01997746397379979
1040.0,0.020084452309898918
1039.0,0.02016944239407625
1038.0,0.02021498904772864
1037.0,0.020238067285467433
1036.0,0.020256450697917375
1035.0,0.020259244745399523
1034.0,0.020232491331177205
1033.0,0.020190257982469716
1032.0,0.02015529452594856
1031.0,0.020125091810647144
1030.0,0.02007960899650867
1029.0,0.02000998024524519
1028.0,0.01992122718037456
1027.0,0.01982043746886297
1026.0,0.01972119315513917
1025.0,0.01965053439787047
1024.0,0.0196383769682449
1023.0,0.019707691300037154
1022.0,0.019881583116406785
1021.0,0.020184843814119665
1020.0,0.020621643482791312
1019.0,0.021154236222935184
1018.0,0.021711853535211448
1017.0,0.02221526007989378
1016.0,0.022588442994496284
1015.0,0.022770278307861633
1014.0,0.022742537857141497
1013.0,0.02254014518923116
1012.0,0.0222231870081128
1011.0,0.0218489649533135
1010.0,0.021466026849113275
1009.0,0.021107017105778836
1008.0,0.02077797535683275
1007.0,0.02046895340546177
1006.0,0.020177044410811407
1005.0,0.019906719701252094
1004.0,0.01965329012280039
1003.0,0.01940700482197746
1002.0,0.019171661463781103
1001.0,0.018956744797317817
1000.0,0.018751635116081942
999.0,0.018531684283902426
998.0,0.01829279143149056
997.0,0.018056931519501645
996.0,0.017838191517711086
995.0,0.01762456508121895
994.0,0.017400030277433413
993.0,0.017166351319162262
992.0,0.016935582104921833
991.0,0.01671608020836373
990.0,0.01651143060538866
989.0,0.016318847514661738
988.0,0.0161255365652743
987.0,0.015921689714611567
986.0,0.015718938781976572
985.0,0.015539065744508529
984.0,0.015382279951094115
983.0,0.015224590240345868
982.0,0.015049768374441896
981.0,0.014865539449122892
980.0,0.014683564939214046
979.0,0.014503073536800037
978.0,0.014322357147465
977.0,0.014148091028504485
976.0,0.01398213120791758
975.0,0.013813423585499057
974.0,0.013633159409368403
973.0,0.013445466864048641
972.0,0.013254917625165563
971.0,0.013056635453300613
970.0,0.012848049979458851
969.0,0.012638717704342741
968.0,0.012438075473829562
967.0,0.012241890183753549
966.0,0.012039639383888454
965.0,0.01182853218165104
964.0,0.01161295074144637
963.0,0.01139680159402431
962.0,0.011183855006635164
961.0,0.010979965228300404
960.0,0.010788197995741655
959.0,0.010604850242543692
958.0,0.010423527015967078
957.0,0.010239762596197187
956.0,0.010050724551007882
955.0,0.009856837181574587
954.0,0.00966619092411044
953.0,0.009490353328974055
952.0,0.009331887579650248
951.0,0.009181090177387056
950.0,0.009028122793248518
949.0,0.00887348375749705
948.0,0.008723871492518777
947.0,0.008583680610708076
946.0,0.008454500073430123
945.0,0.008337770750549133
944.0,0.00823303541182841
943.0,0.008136500503601162
942.0,0.008044787151683394
941.0,0.007956865911390519
940.0,0.007868695161149377
939.0,0.007769895103474211
938.0,0.007651940389142251
937.0,0.007519435115293925
936.0,0.007389636591446777
935.0,0.007280478389788075
934.0,0.007199186014634536
933.0,0.007139193979158621
932.0,0.007084727194704186
931.0,0.007019538984476024
930.0,0.006935794060818696
929.0,0.006837266549690716
928.0,0.006734626665890597
927.0,0.00663815061338055
926.0,0.006552656753644057
925.0,0.006475227375279141
924.0,0.006397367286626664
923.0,0.006313379297991575
922.0,0.0062282863602025704
921.0,0.006153628673943043
920.0,0.006093862496843034
919.0,0.006042083427354166
918.0,0.00599269278874567
917.0,0.005952333599268077
916.0,0.005930260970685858
915.0,0.005920304150991677
914.0,0.00590225025107876
913.0,0.0058642314432312565
912.0,0.005816784397545601
911.0,0.005780826435167131
910.0,0.005766343736797307
909.0,0.0057656199442653565
908.0,0.005762496324736499
907.0,0.005744364996929756
906.0,0.005710388716092297
905.0,0.005673886405429752
904.0,0.005653960128626269
903.0,0.00565925045481358
902.0,0.005679474357861054
901.0,0.005695437698194944
900.0,0.005695428415148526
899.0,0.005679981343494655
898.0,0.0056546824871731675
897.0,0.005623669980763395
896.0,0.005588103412218288
895.0,0.005544941738251171
894.0,0.005487318497941703
893.0,0.005410801536684023
892.0,0.005321253758449182
891.0,0.005235113226191298
890.0,0.005173376352227687
889.0,0.00515912275774158
888.0,0.005218092045090316
887.0,0.0053693997935991365
886.0,0.00560800713243049
885.0,0.005903760276614508
884.0,0.006227191813219065
883.0,0.0065771580645519415
882.0,0.006981776260539538
881.0,0.0074723046843976956
880.0,0.008055136072388816
879.0,0.008704869739324422
878.0,0.0093793110023652
877.0,0.01003648216047362
876.0,0.010636031527488599
875.0,0.011136054079661672
874.0,0.011497897384637908
873.0,0.011682356439180162
872.0,0.011638047721409875
871.0,0.011324398962840702
870.0,0.01077000927365386
869.0,0.01008982923726338
868.0,0.009426182568254313
867.0,0.008877238638126244
866.0,0.008473162255775431
865.0,0.008197679194353885
864.0,0.008021446423132494
863.0,0.007919797381023774
862.0,0.007873375141116667
861.0,0.007865725736164701
860.0,0.007884680124092519
859.0,0.007924857514249277
858.0,0.007987713110258695
857.0,0.008078181662524992
856.0,0.008198223967719374
855.0,0.008336408580128204
854.0,0.008457790162865988
853.0,0.00850746252772489
852.0,0.008435930988502028
851.0,0.008231707133149541
850.0,0.007927904742878845
849.0,0.007572726480969351
848.0,0.007204277389390426
847.0,0.006861496101887483
846.0,0.00659542934664396
845.0,0.006438517177148826
844.0,0.00636350600458899
843.0,0.006293994284855485
842.0,0.006166430516435128
841.0,0.005976105646770634
840.0,0.0057617706639468864
839.0,0.005561911883874537
838.0,0.0053941104748384365
837.0,0.0052626008528839675
836.0,0.00516859519662669
835.0,0.005108537440083142
834.0,0.005067451744494175
833.0,0.005020519737104401
832.0,0.00494582657110478
831.0,0.0048395466941607845
830.0,0.004719510622232097
829.0,0.004608997124366732
828.0,0.004515484024526152
827.0,0.004429496979469389
826.0,0.004343752051021171
825.0,0.004266282843583968
824.0,0.004212890658480604
823.0,0.00419448804618038
822.0,0.0042132588059006874
821.0,0.004261131980445148
820.0,0.004315923782991978
819.0,0.004347763701747585
818.0,0.004341214075829833
817.0,0.004308983689294367
816.0,0.004276876395051581
815.0,0.004257414461337981
814.0,0.004243544947704113
813.0,0.004225740540557429
812.0,0.004206608664454244
811.0,0.004196123926498005
810.0,0.004199324571783524
809.0,0.004213476977865947
808.0,0.004233439022160855
807.0,0.00425547009655125
806.0,0.004278445070814008
805.0,0.004304787943001402
804.0,0.004337825857804968
803.0,0.004374101748377707
802.0,0.0044004213407890565
801.0,0.004405634893599401
800.0,0.004397724329496172
799.0,0.004404645135602006
798.0,0.004452904094261405
797.0,0.0045449458598222515
796.0,0.004658978977905867
795.0,0.004766061959971989
794.0,0.004842148691912284
793.0,0.004868943978179625
792.0,0.004837516827870874
791.0,0.0047600031096870846
790.0,0.004670181925865949
789.0,0.0045998847366495055
788.0,0.0045545352307611985
787.0,0.004517177327214107
786.0,0.004471246252308523
785.0,0.004410075827505159
784.0,0.004329660578748987
783.0,0.004229891197894714
782.0,0.004128576569205327
781.0,0.004061006359936921
780.0,0.004053507903292961
779.0,0.004097421771899109
778.0,0.004153090897503712
777.0,0.004179284062659926
776.0,0.004156395548349999
775.0,0.004086979389274751
774.0,0.003985618613999622
773.0,0.003874019253647245
772.0,0.0037827559830501765
771.0,0.003744590781835446
770.0,0.003771054556068283
769.0,0.0038335326617156777
768.0,0.0038760391729038644
767.0,0.0038525006485472767
766.0,0.0037532351804466096
765.0,0.0036025398154351414
764.0,0.0034473547294126897
763.0,0.003350800731422191
762.0,0.00336647478707678
761.0,0.0034902230832536216
760.0,0.0036424256406153675
759.0,0.0037169311418974865
758.0,0.0036543652904031648
757.0,0.003466778605394804
756.0,0.0032115339862390287
755.0,0.0029749036391698066
754.0,0.00286705761636823
753.0,0.0029693865047994913
752.0,0.0032468156594725114
751.0,0.003534164193129803
750.0,0.0036492873612223656
749.0,0.003527093466603624
748.0,0.003236895483226688
747.0,0.0028960831128045615
746.0,0.002601649484187193
745.0,0.0024375791981103515
744.0,0.0025002312318415845
743.0,0.0028643028101152726
742.0,0.0035095748713708658
741.0,0.0042971628343087785
740.0,0.005027842389640278
739.0,0.005540287866799448
738.0,0.005789813295114693
737.0,0.005860840462985392
736.0,0.005914515743313366
735.0,0.00611173231028374
734.0,0.00654452448389037
733.0,0.007205940541993748
732.0,0.008013948793742344
731.0,0.008867969938335099
730.0,0.009694108666138079
729.0,0.010448509696100294
728.0,0.011101895906650807
727.0,0.011650745063841332
726.0,0.012132366313855333
725.0,0.012585167797373776
724.0,0.01298479479285572
723.0,0.013248513038993867
722.0,0.013308215964172657
721.0,0.013155696249266519
720.0,0.012820834343901685
719.0,0.012349000556268443
718.0,0.011819458833827838
717.0,0.01135484629207429
716.0,0.01107740601168146
715.0,0.011026522870732549
714.0,0.011100116455824715
713.0,0.011099543030990828
712.0,0.010866738187398108
711.0,0.010397173087695662
710.0,0.00982586471098977
709.0,0.009301630675944274
708.0,0.008886288368454374
707.0,0.008569430757977859
706.0,0.00833623602579361
705.0,0.008185332149316233
704.0,0.008096621024303325
703.0,0.00802726701405133
702.0,0.00794687211118541
701.0,0.007845467991738637
700.0,0.007707728488962284
699.0,0.007514607447930938
698.0,0.007279817383411373
697.0,0.0070498360221115
696.0,0.006845378562330268
695.0,0.00663488394152836
694.0,0.0063870714333942955
693.0,0.006121022314206926
692.0,0.005884253413520241
691.0,0.005704447260420409
690.0,0.005589108400342355
689.0,0.005550573407149248
688.0,0.005590864199593619
687.0,0.005668150927943658
686.0,0.005714267399590436
685.0,0.005688478790142039
684.0,0.00559718593406105
683.0,0.005470406284600099
682.0,0.005338568213610267
681.0,0.005225361661690171
680.0,0.005144785637916968
679.0,0.005098173681702827
678.0,0.005078338443818076
677.0,0.005069673072892248
676.0,0.005058441734084103
675.0,0.005037185780558765
674.0,0.0050082240957884695
673.0,0.0049792398784010185
672.0,0.00495255495458845
671.0,0.004927816082385957
670.0,0.004899708982082912
669.0,0.004840628115513114
668.0,0.004675372538674763
667.0,0.004463359925546995
666.0,0.004317254618870595
665.0,0.004191721639247305
664.0,0.004081636829075483
663.0,0.004033152652801483
662.0,0.004053474466468872
661.0,0.0041355797453444774
660.0,0.004264260990981145
659.0,0.00441370625392783
658.0,0.004551536616638829
657.0,0.004653801692188575
656.0,0.004697011401459285
655.0,0.004645533886178959
654.0,0.0044923519313225194
653.0,0.004292586415976459
652.0,0.004107461633429829
651.0,0.003944882918721807
650.0,0.003783563169249514
649.0,0.0036308267385377745
648.0,0.0035242152290207197
647.0,0.003490060187964482
646.0,0.0035301463714857793
645.0,0.0036341668747376325
644.0,0.003775526746427187
643.0,0.0039051554164101776
642.0,0.003982788680530695
641.0,0.004013065137524755
640.0,0.004022678523724768
639.0,0.0040127959466059095
638.0,0.003964683574892653
637.0,0.0038798212164257856
636.0,0.0037830039765725573
635.0,0.003699533999347776
634.0,0.0036509853997247106
633.0,0.0036516686715402143
632.0,0.0036876568751884886
631.0,0.0037188779274506013
630.0,0.0037246786966280317
629.0,0.003729219253668309
628.0,0.003756569427129309
627.0,0.0037795149214613164
626.0,0.003748171129859316
625.0,0.003660223980661629
624.0,0.0035606689859329216
623.0,0.0034759055203008506
622.0,0.0033970261785462377
621.0,0.003327156702678028
620.0,0.003296322625733074
619.0,0.003316319268726362
618.0,0.003349115469046548
617.0,0.003340781805410793
616.0,0.0032782456296452604
615.0,0.003206987207344421
614.0,0.003198824614164604
613.0,0.0032928700467434874
612.0,0.0034514788420901277
611.0,0.00357446323417601
610.0,0.0035825794263202055
609.0,0.00348599539502515
608.0,0.003344948242459388
607.0,0.003192251589226274
606.0,0.0030335624555084054
605.0,0.0028964419770165385
604.0,0.0028333089953453197
603.0,0.002872754723331792
602.0,0.0029967119540145054
601.0,0.0031679268696989133
600.0,0.003346614114687471
