cm-1,A
4000.0,0.003799734550232775
3999.0,0.0037064666325460557
3998.0,0.003662470811848577
3997.0,0.0036900113725923216
3996.0,0.003758386394054297
3995.0,0.0038154224828639335
3994.0,0.0038349297327179184
3993.0,0.0038342550954578863
3992.0,0.0038441982882380377
3991.0,0.003872840095733422
3990.0,0.003908639491757149
3989.0,0.003942566845764337
3988.0,0.0039806156879717385
3987.0,0.004026604646114939
3986.0,0.004070211740477217
3985.0,0.004097925405061374
3984.0,0.004101158973358299
3983.0,0.004078533808844676
3982.0,0.0040391666172821545
3981.0,0.004007586923205138
3980.0,0.0040155746157086
3979.0,0.0040725810816545326
3978.0,0.004146003064889691
3977.0,0.004183285800930832
3976.0,0.004162916002520766
3975.0,0.004117799508427916
3974.0,0.004101913444485086
3973.0,0.004138402912668414
3972.0,0.004209075664715171
3971.0,0.004275941069969426
3970.0,0.004311899271258487
3969.0,0.004321390901182555
3968.0,0.004328724046676906
3967.0,0.00435316570321124
3966.0,0.004386587588927163
3965.0,0.004405165046717514
3964.0,0.004394069073736474
3963.0,0.004356027637663172
3962.0,0.004303318870239209
3961.0,0.004247777145175479
3960.0,0.004208403125483243
3959.0,0.004207138170103203
3958.0,0.004242163516392705
3957.0,0.004299950129148234
3956.0,0.004373887712238846
3955.0,0.004455852319956025
3954.0,0.0045101744487119275
3953.0,0.004482248568847779
3952.0,0.0043430043538540165
3951.0,0.004133264200737001
3950.0,0.003956258469958843
3949.0,0.0038945524133764363
3948.0,0.003927052731705332
3947.0,0.003982784438338875
3946.0,0.004048406591402041
3945.0,0.0041184968096857275
3944.0,0.004153497817516732
3943.0,0.00413494286118438
3942.0,0.004087682249261619
3941.0,0.0040904654537593215
3940.0,0.00422717185526798
3939.0,0.004458622732047236
3938.0,0.004641126833211998
3937.0,0.004700442094148235
3936.0,0.004683161920181027
3935.0,0.004653161662744496
3934.0,0.004608344292303232
3933.0,0.004534710757384675
3932.0,0.0044596708581723914
3931.0,0.004395879985851468
3930.0,0.004339119356085042
3929.0,0.004294836443398797
3928.0,0.0042529560312903215
3927.0,0.004202873286967905
3926.0,0.004147367240740116
3925.0,0.004116526940962761
3924.0,0.0041235862849148
3923.0,0.0041573351278656415
3922.0,0.004226789809745821
3921.0,0.004257123975622109
3920.0,0.004171125857794484
3919.0,0.004083600480665412
3918.0,0.004153258080758265
3917.0,0.004362042618931526
3916.0,0.00457211133968363
3915.0,0.004758224916793813
3914.0,0.004988319449067923
3913.0,0.005208547251517084
3912.0,0.005288556128676276
3911.0,0.005214958869299411
3910.0,0.005060568497980257
3909.0,0.004887859241864731
3908.0,0.0046701759015292926
3907.0,0.004370605496072016
3906.0,0.004005813495563452
3905.0,0.003687654771416719
3904.0,0.003500110459629646
3903.0,0.0033943258712881424
3902.0,0.00338690115382116
3901.0,0.003565086128365435
3900.0,0.00382451222565278
3899.0,0.0039627928648746785
3898.0,0.003993589365743493
3897.0,0.004109829668786169
3896.0,0.004340569640599536
3895.0,0.004495351157734258
3894.0,0.004493947845946249
3893.0,0.004525678769003378
3892.0,0.004740387273339353
3891.0,0.004852474283485111
3890.0,0.004609695054376587
3889.0,0.004446898578644373
3888.0,0.004644640603835419
3887.0,0.0048738024233610355
3886.0,0.004863851342866352
3885.0,0.004606057811591006
3884.0,0.004225358850059282
3883.0,0.0040966810420222325
3882.0,0.004286160633078559
3881.0,0.004527172074862161
3880.0,0.004604236876814473
3879.0,0.004434519114031735
3878.0,0.004341302138762694
3877.0,0.0045455171533998005
3876.0,0.004690094987871058
3875.0,0.004457542584085983
3874.0,0.003952487345449465
3873.0,0.0035047880004532486
3872.0,0.003439786662443947
3871.0,0.003776043976517575
3870.0,0.004106464912388738
3869.0,0.003971595007012439
3868.0,0.003626386013173555
3867.0,0.0036920954886224145
3866.0,0.003928970556516963
3865.0,0.003912305441901317
3864.0,0.003924981245491543
3863.0,0.004191743868823636
3862.0,0.004536136707671765
3861.0,0.004792028963773995
3860.0,0.0048631437130246535
3859.0,0.004769975883273199
3858.0,0.004563445136115963
3857.0,0.004282547982561039
3856.0,0.003932742646512473
3855.0,0.0036363996073277734
3854.0,0.00386860944697711
3853.0,0.004244329217298377
3852.0,0.0036021518991705553
3851.0,0.0031252944825087376
3850.0,0.003811729618391501
3849.0,0.00472319262013398
3848.0,0.0051656796526116655
3847.0,0.005208492507886074
3846.0,0.005054840705069865
3845.0,0.004795661653535899
3844.0,0.0044884144229797515
3843.0,0.004130246441596831
3842.0,0.003719782982407634
3841.0,0.003380399892290855
3840.0,0.00327261191041665
3839.0,0.0034799761658920007
3838.0,0.0037795189820722854
3837.0,0.0038499887084750602
3836.0,0.003766735938839135
3835.0,0.003854575052871472
3834.0,0.004173040868090271
3833.0,0.004547418046969917
3832.0,0.0048047492172435
3831.0,0.004891332303105917
3830.0,0.004901100651720553
3829.0,0.004960389890042617
3828.0,0.005044259870306598
3827.0,0.004999654305978388
3826.0,0.004730033092007447
3825.0,0.004377306847209992
3824.0,0.0041978705756776785
3823.0,0.004189129860203828
3822.0,0.004274374851974905
3821.0,0.004434178045622437
3820.0,0.004205387578584222
3819.0,0.003935358172022159
3818.0,0.004380977637524456
3817.0,0.005127529182843163
3816.0,0.0054734655053663445
3815.0,0.0052174735569427266
3814.0,0.004900480683810448
3813.0,0.005118855146412948
3812.0,0.0055306788539206
3811.0,0.005575735993649184
3810.0,0.005346153016941526
3809.0,0.005209590247132597
3808.0,0.005274656911135909
3807.0,0.005254175328060193
3806.0,0.004824001342870549
3805.0,0.004324451783882306
3804.0,0.004292567350527297
3803.0,0.004565875077307421
3802.0,0.004901174784045982
3801.0,0.004996583943639991
3800.0,0.004558975356245937
3799.0,0.004354947469961196
3798.0,0.004791167043980844
3797.0,0.005307743340621597
3796.0,0.005534694539265764
3795.0,0.005566653168953606
3794.0,0.005708740182977665
3793.0,0.006029504499459335
3792.0,0.006299874193840217
3791.0,0.006368983470767484
3790.0,0.006284447107592036
3789.0,0.006099024256342671
3788.0,0.005839973915363266
3787.0,0.005594751053805889
3786.0,0.005491885782142722
3785.0,0.005520795495535311
3784.0,0.00551557474960258
3783.0,0.0054061074314111016
3782.0,0.005302593909482381
3781.0,0.005279446640041938
3780.0,0.005368677046134694
3779.0,0.005552224961243496
3778.0,0.005699820983420173
3777.0,0.005837274973817863
3776.0,0.006024513853737999
3775.0,0.006117487412624547
3774.0,0.006030133404723482
3773.0,0.0058959495789206
3772.0,0.0058378790912777204
3771.0,0.005803045847444765
3770.0,0.005675664825532126
3769.0,0.005454300878573678
3768.0,0.005339980211504879
3767.0,0.0055142653231261655
3766.0,0.005806605158798585
3765.0,0.005909887197906838
3764.0,0.005760539729117893
3763.0,0.005584686816886361
3762.0,0.005501371712853163
3761.0,0.005369962345531248
3760.0,0.005222815828453719
3759.0,0.005210862853781745
3758.0,0.005193923062173327
3757.0,0.005025850753973528
3756.0,0.00484520120418255
3755.0,0.004781883847369044
3754.0,0.004684984974469399
3753.0,0.004344810267669967
3752.0,0.0040770169973034205
3751.0,0.004428205491863029
3750.0,0.00480350136809328
3749.0,0.004484421303935419
3748.0,0.004061488189814969
3747.0,0.004202312892556437
3746.0,0.004820078549738661
3745.0,0.005560643696386806
3744.0,0.005682063742958826
3743.0,0.0048589917450205695
3742.0,0.004354340413204524
3741.0,0.0046723629939072545
3740.0,0.004863980088897459
3739.0,0.004499470943030123
3738.0,0.003845465812804351
3737.0,0.003235154499637364
3736.0,0.0029465066007031016
3735.0,0.0030526349708871548
3734.0,0.003337369134578331
3733.0,0.0037878786147796844
3732.0,0.004361506159650071
3731.0,0.004829445334135976
3730.0,0.005208647829599771
3729.0,0.005578409643030111
3728.0,0.005770222797908528
3727.0,0.00563245558995064
3726.0,0.005327077456868173
3725.0,0.005154775231273247
3724.0,0.005252929375755612
3723.0,0.005467022370593003
3722.0,0.005587407482358361
3721.0,0.0055817631038068815
3720.0,0.005575202022127829
3719.0,0.0056721928601832505
3718.0,0.005809032236598127
3717.0,0.005869154904632839
3716.0,0.005835737680026628
3715.0,0.005713938230330111
3714.0,0.005409859214630696
3713.0,0.004966729622562477
3712.0,0.004862630444655855
3711.0,0.0053316693852115005
3710.0,0.005878345186867404
3709.0,0.006294509016909984
3708.0,0.006694750268077889
3707.0,0.006983458354841744
3706.0,0.007054080866878799
3705.0,0.006980862002849794
3704.0,0.006923994186293487
3703.0,0.007012788608607922
3702.0,0.0072663064442337645
3701.0,0.007500474263513029
3700.0,0.007592900567739267
3699.0,0.007691171874077918
3698.0,0.007852414225463582
3697.0,0.007918139288347887
3696.0,0.007819462383890178
3695.0,0.007649984184957643
3694.0,0.007438161577806107
3693.0,0.007052823502285669
3692.0,0.006480483201557183
3691.0,0.006125550768624116
3690.0,0.0064752008370257425
3689.0,0.007164714857906774
3688.0,0.007371759310984379
3687.0,0.007294662809500297
3686.0,0.007604146988193184
3685.0,0.008269731083100442
3684.0,0.008798469095682661
3683.0,0.008941046510757665
3682.0,0.00881154145395139
3681.0,0.008579285210831839
3680.0,0.008258367899823463
3679.0,0.007878392725490044
3678.0,0.007666121262470245
3677.0,0.007838621832937251
3676.0,0.008433141990677908
3675.0,0.00868059224140002
3674.0,0.008148438461700803
3673.0,0.008024325114959503
3672.0,0.00860639986767508
3671.0,0.009138572583957451
3670.0,0.00961631482181934
3669.0,0.00997790133879348
3668.0,0.010164882801459321
3667.0,0.010646369433197557
3666.0,0.01133464147036204
3665.0,0.011843253885763738
3664.0,0.012138584601227692
3663.0,0.012361951487469615
3662.0,0.012557343872768351
3661.0,0.012668449623568936
3660.0,0.012695118510852478
3659.0,0.01273204531735985
3658.0,0.012857509590007189
3657.0,0.013027223063940847
3656.0,0.013043931888857187
3655.0,0.012783036439120928
3654.0,0.012535983380088208
3653.0,0.012403194330962755
3652.0,0.011996260555061915
3651.0,0.011322041178883245
3650.0,0.011555318612590005
3649.0,0.012983286755731523
3648.0,0.013838512429559417
3647.0,0.013851807384300547
3646.0,0.014075868305290225
3645.0,0.014765506998865238
3644.0,0.015635986753405048
3643.0,0.01638493042270782
3642.0,0.016934826599946256
3641.0,0.017367759377960184
3640.0,0.017764145717172244
3639.0,0.018115124304570403
3638.0,0.018354803130421683
3637.0,0.018513957160597064
3636.0,0.018719047177887332
3635.0,0.01896840987620524
3634.0,0.01910716498162921
3633.0,0.019035962975172415
3632.0,0.01888302306706094
3631.0,0.018805856563479908
3630.0,0.019118378573691815
3629.0,0.0201480097040426
3628.0,0.02091951282467605
3627.0,0.020905621944742537
3626.0,0.021148086646283676
3625.0,0.021743972171837933
3624.0,0.02210923530358105
3623.0,0.022145653732973305
3622.0,0.022078664580108077
3621.0,0.022152724362225037
3620.0,0.022510889212350577
3619.0,0.02298476919512673
3618.0,0.023143934096186338
3617.0,0.023059311760474054
3616.0,0.023126783915000778
3615.0,0.02342330263927822
3614.0,0.023855069731282562
3613.0,0.024335918168585133
3612.0,0.024794317253885926
3611.0,0.025269991892341023
3610.0,0.025826407176077756
3609.0,0.02643737176109879
3608.0,0.027018366904595068
3607.0,0.02742747840171494
3606.0,0.027675650822333673
3605.0,0.02790748762250638
3604.0,0.02811757112239808
3603.0,0.028256259951171994
3602.0,0.028404699855120424
3601.0,0.028670914101524662
3600.0,0.029034557568484096
3599.0,0.029405314728862486
3598.0,0.0297397887898503
3597.0,0.030029927800958568
3596.0,0.03030517548341429
3595.0,0.03059155057349769
3594.0,0.030856012839392266
3593.0,0.03105568534023325
3592.0,0.031226306014850463
3591.0,0.03137374301138551
3590.0,0.031452286999490264
3589.0,0.031556908275221465
3588.0,0.031963884504824715
3587.0,0.03250746802739945
3586.0,0.03276165429444184
3585.0,0.03297209104137268
3584.0,0.03348370690994399
3583.0,0.03417493388366858
3582.0,0.03482115007663438
3581.0,0.03530650108757073
3580.0,0.03561084063627806
3579.0,0.03578339816711597
3578.0,0.03592893111043709
3577.0,0.03613076696274307
3576.0,0.03641860231076272
3575.0,0.03677094714965556
3574.0,0.03713489495672444
3573.0,0.03743406613984528
3572.0,0.03759601275740946
3571.0,0.037586788358657586
3570.0,0.037440627464586755
3569.0,0.037292122264537084
3568.0,0.037417058675685275
3567.0,0.037878893336992424
3566.0,0.03825770191646154
3565.0,0.038475977380953805
3564.0,0.03889784526325961
3563.0,0.03954970366366059
3562.0,0.04021623810881208
3561.0,0.04080204942873963
3560.0,0.041318002384623645
3559.0,0.04177176599287579
3558.0,0.04216030565355902
3557.0,0.04248944516273878
3556.0,0.04276353172613753
3555.0,0.0430020513982451
3554.0,0.043247447824647116
3553.0,0.04353631610985332
3552.0,0.04383515222036733
3551.0,0.0440918882152978
3550.0,0.04431954499052206
3549.0,0.044528125513491806
3548.0,0.04469337700058796
3547.0,0.0448768689948411
3546.0,0.04521090057960657
3545.0,0.04570938875999233
3544.0,0.04625809385836635
3543.0,0.0467728209439597
3542.0,0.04723214859288181
3541.0,0.04763082551760389
3540.0,0.04796212830553139
3539.0,0.04823637962645422
3538.0,0.04850077864774254
3537.0,0.048817837200882494
3536.0,0.04918389658735901
3535.0,0.04952066295989665
3534.0,0.049777509711420795
3533.0,0.049980049212203365
3532.0,0.050183022991360585
3531.0,0.0504156269931255
3530.0,0.05067244669723564
3529.0,0.05093311552853803
3528.0,0.05119949293208356
3527.0,0.051493414329807155
3526.0,0.05182605006678747
3525.0,0.052188725539114925
3524.0,0.0525840001510626
3523.0,0.05302664040313785
3522.0,0.053505006478221595
3521.0,0.05397898027792394
3520.0,0.054409910913429865
3519.0,0.05479086969377935
3518.0,0.05516052171134429
3517.0,0.05556100447821926
3516.0,0.05596886567313011
3515.0,0.056294836117921146
3514.0,0.05647525143673979
3513.0,0.0565591051096109
3512.0,0.056690464085391815
3511.0,0.056984362746145566
3510.0,0.05741618244167613
3509.0,0.0578365021724191
3508.0,0.0581318090944661
3507.0,0.05833149920306785
3506.0,0.058524959355957216
3505.0,0.0587704265878893
3504.0,0.05911572319953584
3503.0,0.059576322223349285
3502.0,0.060087295798491605
3501.0,0.06056944483190038
3500.0,0.06099234301485244
3499.0,0.06136351213930727
3498.0,0.06172171688665462
3497.0,0.0620981673255549
3496.0,0.06246418168718881
3495.0,0.06276042056259507
3494.0,0.06298194975232874
3493.0,0.0631900423320483
3492.0,0.06343764131226863
3491.0,0.06373511478992133
3490.0,0.06409474882457886
3489.0,0.06454777204532525
3488.0,0.06507979184294305
3487.0,0.06558792596934208
3486.0,0.06595548124148604
3485.0,0.06615665547085836
3484.0,0.06626727132739553
3483.0,0.06640822139831945
3482.0,0.06668232533848892
3481.0,0.06711400347153462
3480.0,0.06763315379129302
3479.0,0.06812864270958226
3478.0,0.06852442448089698
3477.0,0.0688255644176045
3476.0,0.06911465088191324
3475.0,0.06947863572361113
3474.0,0.06992233191445861
3473.0,0.07037381931488051
3472.0,0.0707612543214731
3471.0,0.07105862542414432
3470.0,0.07128493986938439
3469.0,0.07148958055548077
3468.0,0.07172952310727969
3467.0,0.07204098703948777
3466.0,0.07241438133295983
3465.0,0.07279412538888447
3464.0,0.07311467265759032
3463.0,0.07335692936085392
3462.0,0.07357436092546273
3461.0,0.07384904977333247
3460.0,0.07421519942548482
3459.0,0.07463301431675903
3458.0,0.07503340703667964
3457.0,0.07537693512154833
3456.0,0.07567161221498721
3455.0,0.07596043951576942
3454.0,0.0762914186202703
3453.0,0.07666537458858523
3452.0,0.07701031229558235
3451.0,0.07723671418394634
3450.0,0.07733567633420006
3449.0,0.07740555207667887
3448.0,0.07757884335948315
3447.0,0.0778973702286743
3446.0,0.07828455933299676
3445.0,0.07866855873872013
3444.0,0.0790480358210766
3443.0,0.07943901275724442
3442.0,0.07984038216925601
3441.0,0.08023360541014225
3440.0,0.08059274501588642
3439.0,0.08089828266988151
3438.0,0.0811477797584678
3437.0,0.08136714195961
3436.0,0.08159538517268317
3435.0,0.08185557327275357
3434.0,0.0821494129027754
3433.0,0.08246692833213337
3432.0,0.08279002725664213
3431.0,0.08309064544980654
3430.0,0.08334917718204453
3429.0,0.0835820326538053
3428.0,0.08383919694217842
3427.0,0.08414770549438383
3426.0,0.08446122502488687
3425.0,0.08469350325914145
3424.0,0.08481332008388821
3423.0,0.08488975020811437
3422.0,0.0850245896131294
3421.0,0.08524837620642334
3420.0,0.08551197367570985
3419.0,0.08577744981216859
3418.0,0.08606334010939251
3417.0,0.0863945090172669
3416.0,0.08675967750904874
3415.0,0.0871279899754536
3414.0,0.08747328054210558
3413.0,0.08776961012337432
3412.0,0.08799351135689198
3411.0,0.08815219838000948
3410.0,0.08829308041535613
3409.0,0.08846517501005133
3408.0,0.08867819590762656
3407.0,0.08891107400887012
3406.0,0.08914695466467568
3405.0,0.08938620725243858
3404.0,0.08962955481858512
3403.0,0.08986278559693911
3402.0,0.09006413023164354
3401.0,0.09022785482428582
3400.0,0.09037575217842135
3399.0,0.09053865365406405
3398.0,0.09072774334233528
3397.0,0.09092539398897541
3396.0,0.09110679499387317
3395.0,0.09126225707192226
3394.0,0.09139332508668227
3393.0,0.09150077975593969
3392.0,0.09159214493257989
3391.0,0.09169395243788998
3390.0,0.09183253677572037
3389.0,0.091996037968057
3388.0,0.09213771270614471
3387.0,0.09223035608804518
3386.0,0.09230137944713426
3385.0,0.09239959290000806
3384.0,0.09253746970092756
3383.0,0.09268998946960758
3382.0,0.09284348760617778
3381.0,0.09301405820128998
3380.0,0.09321493294687525
3379.0,0.0934292776425685
3378.0,0.09362981843568206
3377.0,0.09380503183845058
3376.0,0.0939472387837303
3375.0,0.09403471628148868
3374.0,0.09405740321013667
3373.0,0.0940496270212894
3372.0,0.0940642209418244
3371.0,0.09411366267492033
3370.0,0.09416430317607975
3369.0,0.09419194532127685
3368.0,0.09421063254284609
3367.0,0.09423516962318713
3366.0,0.0942484496677398
3365.0,0.09423192066511028
3364.0,0.09420531511193155
3363.0,0.09420874356334802
3362.0,0.0942571454865094
3361.0,0.09433322898154983
3360.0,0.09441395978953895
3359.0,0.09447710625821572
3358.0,0.0944845455804078
3357.0,0.09439352080791732
3356.0,0.09420625719188411
3355.0,0.0939955004975164
3354.0,0.0938603817961176
3353.0,0.09385371739122605
3352.0,0.09395310332094994
3351.0,0.09409231689969705
3350.0,0.09421343185692116
3349.0,0.09429327178271403
3348.0,0.09432885454293811
3347.0,0.09431253743884392
3346.0,0.09423495036877137
3345.0,0.09411388488859451
3344.0,0.09400203122887542
3343.0,0.09394583035862182
3342.0,0.09393578555994186
3341.0,0.09391022610287952
3340.0,0.09381418086728191
3339.0,0.09364960931331055
3338.0,0.09346995904177575
3337.0,0.09333163735408814
3336.0,0.09324727128269329
3335.0,0.09317852732156975
3334.0,0.09307573737660177
3333.0,0.09293042465196079
3332.0,0.09279089797698728
3331.0,0.09272061919559288
3330.0,0.09273394559434744
3329.0,0.092774355995231
3328.0,0.09276102555869314
3327.0,0.09265651553143418
3326.0,0.09248728558416489
3325.0,0.09230707703357229
3324.0,0.09215025222139633
3323.0,0.09201538450802131
3322.0,0.09188062805303104
3321.0,0.0917302661570565
3320.0,0.09157165685831062
3319.0,0.09142858588879987
3318.0,0.09131437170670681
3317.0,0.09120972769822341
3316.0,0.09107363867899748
3315.0,0.0908827530743903
3314.0,0.09065986249548344
3313.0,0.09045573906508912
3312.0,0.09029775884846578
3311.0,0.09016417718493826
3310.0,0.0900193854551789
3309.0,0.08986697580000191
3308.0,0.08974708749744285
3307.0,0.08967539026628356
3306.0,0.08960855932303752
3305.0,0.08949006230919236
3304.0,0.08931813097927366
3303.0,0.08914544870304265
3302.0,0.08901049770188839
3301.0,0.08889406561836341
3300.0,0.08875381147603972
3299.0,0.08858045029108834
3298.0,0.08840121762718171
3297.0,0.0882392390671735
3296.0,0.08809003081206108
3295.0,0.08793474607603408
3294.0,0.08776301344100633
3293.0,0.08758716164218074
3292.0,0.08744527365364978
3291.0,0.0873785229106015
3290.0,0.08738418252544139
3289.0,0.08739306643643503
3288.0,0.08731781408507851
3287.0,0.0871336987288223
3286.0,0.08689744417421252
3285.0,0.08668108283890041
3284.0,0.08650654552935719
3283.0,0.08635255487122548
3282.0,0.08620114702504678
3281.0,0.08605136223575456
3280.0,0.08589622970045262
3279.0,0.08572007220628727
3278.0,0.08552861361811133
3277.0,0.08535797911777779
3276.0,0.08523346267430099
3275.0,0.08512979234159275
3274.0,0.08499348915423766
3273.0,0.08480646280580163
3272.0,0.08461271654511325
3271.0,0.08447736680331792
3270.0,0.08442615724751099
3269.0,0.08442296754801668
3268.0,0.08439974575742097
3267.0,0.08431203496382979
3266.0,0.08417391346389998
3265.0,0.08403778625778352
3264.0,0.08393470061827271
3263.0,0.08383752117123669
3262.0,0.0836966247549454
3261.0,0.08351032219906938
3260.0,0.08333695620153846
3259.0,0.08322875642871526
3258.0,0.08317289604556191
3257.0,0.08311032380531704
3256.0,0.08299304773513233
3255.0,0.08280686803115661
3254.0,0.08255710721410746
3253.0,0.08226957178569227
3252.0,0.08200544732456545
3251.0,0.08183487780190363
3250.0,0.08177121352001825
3249.0,0.08174208426606816
3248.0,0.0816446554963669
3247.0,0.08143164058979008
3246.0,0.08114090413054811
3245.0,0.08085006287269585
3244.0,0.08061122129695991
3243.0,0.0804248100117756
3242.0,0.0802628022316821
3241.0,0.08010825257194422
3240.0,0.07997399657176411
3239.0,0.07988161218310057
3238.0,0.079820964879236
3237.0,0.07974018985123525
3236.0,0.07958574046165853
3235.0,0.07935032327824963
3234.0,0.07907082482467377
3233.0,0.07878664688507783
3232.0,0.07851865169950298
3231.0,0.07828368335960903
3230.0,0.07810075085126103
3229.0,0.07796559858680462
3228.0,0.07783486113930498
3227.0,0.07765927742797804
3226.0,0.07743269784815866
3225.0,0.0771938598558007
3224.0,0.07698059966568527
3223.0,0.07679215681472604
3222.0,0.07659739066057698
3221.0,0.07637368445373693
3220.0,0.07613438539738968
3219.0,0.07591379283090932
3218.0,0.07572108428402999
3217.0,0.07551427731287269
3216.0,0.07523441737648658
3215.0,0.07487814000739913
3214.0,0.07452372265135698
3213.0,0.074258550150716
3212.0,0.07408712783034282
3211.0,0.07393706522975627
3210.0,0.07374810448618828
3209.0,0.07352634563013363
3208.0,0.07330750413370955
3207.0,0.07309605379509393
3206.0,0.07286198614926881
3205.0,0.0725834814271989
3204.0,0.07227446577906378
3203.0,0.07197224083239179
3202.0,0.07170560202413145
3201.0,0.07146921663464388
3200.0,0.07122230604203782
3199.0,0.0709219448703875
3198.0,0.07056871836624311
3197.0,0.07021406914404686
3196.0,0.0699138724555452
3195.0,0.06968252328280122
3194.0,0.0694924736345498
3193.0,0.06930045196591102
3192.0,0.0690685493205622
3191.0,0.06878088094438208
3190.0,0.06845705668445852
3189.0,0.06813919831388277
3188.0,0.06785134020193692
3187.0,0.06757493258288834
3186.0,0.0672748811187959
3185.0,0.06694401818004551
3184.0,0.06661111699246096
3183.0,0.06631027665684958
3182.0,0.06604939585949457
3181.0,0.06580055670549101
3180.0,0.06551535541713267
3179.0,0.06516443138616752
3178.0,0.06477105755028274
3177.0,0.06439146578099017
3176.0,0.06405459182932584
3175.0,0.06374061399489649
3174.0,0.06342554579935686
3173.0,0.06312167483030011
3172.0,0.06285567958087569
3171.0,0.06262541000286316
3170.0,0.0624039898970158
3169.0,0.062176909217007914
3168.0,0.06194989492846113
3167.0,0.061723097197603494
3166.0,0.06148088818527914
3165.0,0.06120721295848365
3164.0,0.06089555118983517
3163.0,0.06054981462358844
3162.0,0.06018982323893178
3161.0,0.05984654226554757
3160.0,0.05953299439834339
3159.0,0.05922651116136516
3158.0,0.05889793419803938
3157.0,0.05855263356249588
3156.0,0.05822210878539131
3155.0,0.05791918889504415
3154.0,0.0576275161577114
3153.0,0.05733654568492276
3152.0,0.057058875632629125
3151.0,0.056802548277349194
3150.0,0.056547859655836016
3149.0,0.05626820601038878
3148.0,0.055960507716316256
3147.0,0.05563845323995122
3146.0,0.05530554980759347
3145.0,0.05495578042389329
3144.0,0.05460204364873291
3143.0,0.05428580328135441
3142.0,0.05404499501451077
3141.0,0.053875716189106304
3140.0,0.05373077214254046
3139.0,0.05355452621896255
3138.0,0.053319208517254524
3137.0,0.0530330082069499
3136.0,0.052721290239521094
3135.0,0.05240534404135071
3134.0,0.05209600462762888
3133.0,0.05179765846392902
3132.0,0.05151258831678522
3131.0,0.05124348564664703
3130.0,0.050991931628047896
3129.0,0.05075128797223337
3128.0,0.050504290826681966
3127.0,0.05023613700379729
3126.0,0.049951079330312856
3125.0,0.049667013834351695
3124.0,0.049395951477572246
3123.0,0.049141154043654586
3122.0,0.04890771787677088
3121.0,0.048699636254834984
3120.0,0.048504160323931386
3119.0,0.0482923649530785
3118.0,0.048044426996244026
3117.0,0.04776975593699411
3116.0,0.04749797816829548
3115.0,0.04725671759302951
3114.0,0.04705903376731404
3113.0,0.04689922117932296
3112.0,0.04675443123106049
3111.0,0.04660283741750555
3110.0,0.04644623978247938
3109.0,0.04630484390477513
3108.0,0.04618744659966591
3107.0,0.046078102654517006
3106.0,0.04595280161073731
3105.0,0.04579105713049459
3104.0,0.045572847823567866
3103.0,0.04529021082474507
3102.0,0.044971403627189634
3101.0,0.044674923310184196
3100.0,0.04444203301478701
3099.0,0.04426060672009312
3098.0,0.04408594977891771
3097.0,0.04388639513835931
3096.0,0.04365990070755932
3095.0,0.04342137969255544
3094.0,0.043191948112469736
3093.0,0.043000451523223786
3092.0,0.04287790796912076
3091.0,0.042839421301803404
3090.0,0.04287226532890223
3089.0,0.04294346853572294
3088.0,0.04301950530581481
3087.0,0.04308093108223787
3086.0,0.04312240722575447
3085.0,0.043140411819088245
3084.0,0.04312040749566399
3083.0,0.04303254254614272
3082.0,0.04284071625993512
3081.0,0.042527120976590664
3080.0,0.04212143534314045
3079.0,0.04170397314368884
3078.0,0.04135923835492817
3077.0,0.041114398634803866
3076.0,0.040927229632282236
3075.0,0.04073839606601931
3074.0,0.040527824374950006
3073.0,0.040312421584055895
3072.0,0.04011036650634388
3071.0,0.03993200768778313
3070.0,0.039795833091901336
3069.0,0.03972627639544426
3068.0,0.0397296544951343
3067.0,0.03979120719615973
3066.0,0.03989709553695345
3065.0,0.04003833557521647
3064.0,0.04018938967305041
3063.0,0.04030523585875173
3062.0,0.04035026783351447
3061.0,0.0403107149155941
3060.0,0.040173276387083935
3059.0,0.039914072962905695
3058.0,0.03952814955925703
3057.0,0.039059721073069764
3056.0,0.03857586669384306
3055.0,0.03811060578389012
3054.0,0.037652687331344095
3053.0,0.03718774196924496
3052.0,0.03673242074824109
3051.0,0.03632183178493408
3050.0,0.035978489498406895
3049.0,0.03569938468674766
3048.0,0.035465273072876446
3047.0,0.03525336098261143
3046.0,0.03504539666999148
3045.0,0.0348360423461115
3044.0,0.03464051748811199
3043.0,0.034488005659475914
3042.0,0.03439859017099943
3041.0,0.03436407948990877
3040.0,0.03435468543772974
3039.0,0.034350960407714834
3038.0,0.034369610965980554
3037.0,0.03445263846049439
3036.0,0.03463222908962676
3035.0,0.03491053067702829
3034.0,0.035273239253292454
3033.0,0.03571650672095665
3032.0,0.03624830745702283
3031.0,0.036861083500416024
3030.0,0.03750668780015622
3029.0,0.03810042804219405
3028.0,0.03855127134692293
3027.0,0.038795667985938295
3026.0,0.03881529786943838
3025.0,0.03861837207041204
3024.0,0.038202638653005494
3023.0,0.03755345227359713
3022.0,0.03668572434241604
3021.0,0.03567741693153516
3020.0,0.0346467748818229
3019.0,0.03369599822279627
3018.0,0.03287681612082831
3017.0,0.03218891577365811
3016.0,0.03159930594641344
3015.0,0.031073546639624486
3014.0,0.030601631516352396
3013.0,0.0301985839939624
3012.0,0.029881439800988827
3011.0,0.029652778029080964
3010.0,0.029502282425083327
3009.0,0.029407010675413122
3008.0,0.029330406510550848
3007.0,0.02924197350033593
3006.0,0.029145937767256234
3005.0,0.029075140428367032
3004.0,0.029041941886980092
3003.0,0.029006183931526788
3002.0,0.02890436631875327
3001.0,0.02870386765977795
3000.0,0.028427336205181924
2999.0,0.028132948305733225
2998.0,0.027875990292216914
2997.0,0.027674122803276822
2996.0,0.02749862583695513
2995.0,0.02730888041123465
2994.0,0.027101584053177478
2993.0,0.026915506192644444
2992.0,0.026776867569866462
2991.0,0.026658688740751117
2990.0,0.026512357106516008
2989.0,0.02633055432322955
2988.0,0.026159441316432823
2987.0,0.026048185202893405
2986.0,0.026001191139072535
2985.0,0.025979112513794075
2984.0,0.025935398329886287
2983.0,0.025850452932562554
2982.0,0.02574514909211998
2981.0,0.025662027890169088
2980.0,0.025623878526770165
2979.0,0.025611327365254635
2978.0,0.025587397429300912
2977.0,0.025542358525800245
2976.0,0.02550181863142634
2975.0,0.02549521207431998
2974.0,0.025528947880387013
2973.0,0.025591491810126737
2972.0,0.02566856925328491
2971.0,0.02574417271792314
2970.0,0.025798639611913206
2969.0,0.025819620013676745
2968.0,0.025815467188724857
2967.0,0.025809038374091712
2966.0,0.025817165776312247
2965.0,0.025840495163085984
2964.0,0.025872041565961703
2963.0,0.02591033147420828
2962.0,0.02596036038768094
2961.0,0.026023385803120656
2960.0,0.026090246264088478
2959.0,0.02614746599962062
2958.0,0.0261885531952086
2957.0,0.026216554708687383
2956.0,0.02623692032691133
2955.0,0.026252804149472096
2954.0,0.026267634115826208
2953.0,0.026286987808151713
2952.0,0.026314728812167124
2951.0,0.026349363123962355
2950.0,0.026386597978369487
2949.0,0.026424654527091845
2948.0,0.0264701443344038
2947.0,0.026542274607752016
2946.0,0.02666820492705348
2945.0,0.026865388318809146
2944.0,0.027126156403495093
2943.0,0.027425936172551776
2942.0,0.027746171914013892
2941.0,0.02808361271076097
2940.0,0.028437416660316597
2939.0,0.028802520720256818
2938.0,0.02918252039228629
2937.0,0.02959712885033439
2936.0,0.03006238787257757
2935.0,0.03056457635857702
2934.0,0.031065986909331544
2933.0,0.031538742273555576
2932.0,0.03198831430248173
2931.0,0.032442037223498234
2930.0,0.032918960573786286
2929.0,0.03340828727477999
2928.0,0.03387060905201656
2927.0,0.03425937589775615
2926.0,0.03454896988905911
2925.0,0.034747338489623025
2924.0,0.03487801751216632
2923.0,0.034946558757529576
2922.0,0.03492930122523937
2921.0,0.03479830306808679
2920.0,0.03455427239856476
2919.0,0.03423065820758282
2918.0,0.033866852228262335
2917.0,0.0334800298944952
2916.0,0.033062134498015
2915.0,0.032599438518716814
2914.0,0.03209266132902117
2913.0,0.03156161610574614
2912.0,0.031036138561905048
2911.0,0.03054287606886545
2910.0,0.030091694458514458
2909.0,0.029667132371350994
2908.0,0.029238603652799365
2907.0,0.028787639402203552
2906.0,0.028326717528638832
2905.0,0.027883308184183137
2904.0,0.027466234458978066
2903.0,0.027058647976893557
2902.0,0.026643012346510928
2901.0,0.02622399963780629
2900.0,0.02581426651961367
2899.0,0.025420493444929748
2898.0,0.025045525890200013
2897.0,0.024696622817218055
2896.0,0.02438321228913384
2895.0,0.024102956361920398
2894.0,0.023843478781492098
2893.0,0.023596048398399183
2892.0,0.023362603831567807
2891.0,0.02314751797025097
2890.0,0.02294695584817424
2889.0,0.022749991610898457
2888.0,0.022547999570209518
2887.0,0.02234120495353667
2886.0,0.022135448599412147
2885.0,0.021935238113893987
2884.0,0.021744027811697857
2883.0,0.021569447482688613
2882.0,0.021421705420024726
2881.0,0.021303577652635988
2880.0,0.02120668950913064
2879.0,0.021118700914093395
2878.0,0.021026079046175473
2877.0,0.020907524116505937
2876.0,0.020742117770228632
2875.0,0.0205385269511367
2874.0,0.020347695250601646
2873.0,0.02022847496099116
2872.0,0.02019517164287675
2871.0,0.02021453839184319
2870.0,0.020248790298680604
2869.0,0.020284951563327568
2868.0,0.020322615842192332
2867.0,0.020353514185599907
2866.0,0.020368294400267647
2865.0,0.020371346678748226
2864.0,0.02037987691646507
2863.0,0.020415645306890152
2862.0,0.020499902207932272
2861.0,0.02064442919460289
2860.0,0.020837861302946712
2859.0,0.021050440280430426
2858.0,0.02126134799020494
2857.0,0.02147421061424458
2856.0,0.021699229778568634
2855.0,0.021926560178511287
2854.0,0.022126336079036385
2853.0,0.0222685428296505
2852.0,0.022335780195374376
2851.0,0.02232380915146471
2850.0,0.022235889030942185
2849.0,0.022076134315422616
2848.0,0.021842437177002388
2847.0,0.021529715891799372
2846.0,0.0211435089720028
2845.0,0.020703310251244562
2844.0,0.020228737992856904
2843.0,0.01972952080140557
2842.0,0.019217568882317165
2841.0,0.018721752270818837
2840.0,0.01827775868382801
2839.0,0.017900533941391128
2838.0,0.01757396541237402
2837.0,0.017268727399472855
2836.0,0.01696796019857256
2835.0,0.01667910258293303
2834.0,0.016424614607943967
2833.0,0.01622369071043034
2832.0,0.016076610156551555
2831.0,0.015964344240918808
2830.0,0.015862966274787515
2829.0,0.01575608820269257
2828.0,0.015639771155300623
2827.0,0.0155208855874432
2826.0,0.01541300222488241
2825.0,0.015329543354289557
2824.0,0.015274302326874208
2823.0,0.015237676468332847
2822.0,0.015201659025974746
2821.0,0.015150247419766293
2820.0,0.015078060006934162
2819.0,0.014992394619323345
2818.0,0.014906147059537786
2817.0,0.014824469854352599
2816.0,0.0147411895380807
2815.0,0.014650753731311746
2814.0,0.014559319179081601
2813.0,0.014479241080896915
2812.0,0.014415255841867241
2811.0,0.014363009976375851
2810.0,0.014321120343734967
2809.0,0.014296864672565303
2808.0,0.014296833958617056
2807.0,0.014315006457795564
2806.0,0.014330446318140582
2805.0,0.014315251552104736
2804.0,0.014249886897497241
2803.0,0.014140206115092485
2802.0,0.01401837137380471
2801.0,0.01391893741322301
2800.0,0.013850312358017824
2799.0,0.013792289747332915
2798.0,0.013723505836686379
2797.0,0.01364596542025026
2796.0,0.01358066850773196
2795.0,0.01354428158500364
2794.0,0.013531758550726409
2793.0,0.013520565736115238
2792.0,0.013493061505012624
2791.0,0.01345460599643804
2790.0,0.013425719033174832
2789.0,0.013413834417598346
2788.0,0.013398452958887124
2787.0,0.013351845808692628
2786.0,0.013271617623611157
2785.0,0.013186464081235558
2784.0,0.013131025851575533
2783.0,0.013120250145240871
2782.0,0.013144820228309059
2781.0,0.013179507220984543
2780.0,0.013195277243989348
2779.0,0.013175328933362037
2778.0,0.013123713590173846
2777.0,0.013056155869931921
2776.0,0.012983692035115945
2775.0,0.012908844296555345
2774.0,0.012836573937113922
2773.0,0.012778097245450036
2772.0,0.012738807725833794
2771.0,0.012710002580570515
2770.0,0.012677427584987742
2769.0,0.012635248670896538
2768.0,0.012589062092896742
2767.0,0.012548540040547677
2766.0,0.012520287511949746
2765.0,0.01250479488265637
2764.0,0.012496674282432837
2763.0,0.01248802683063586
2762.0,0.01247344914683909
2761.0,0.012452167888989936
2760.0,0.012426406249497755
2759.0,0.012398292294324653
2758.0,0.012367095515478174
2757.0,0.012329810939124776
2756.0,0.012285813952757945
2755.0,0.012239636979631903
2754.0,0.012195866367293482
2753.0,0.012152502857065107
2752.0,0.01210509711656082
2751.0,0.012058053926559923
2750.0,0.0120246430064197
2749.0,0.012012339736039945
2748.0,0.012013681719359499
2747.0,0.012014489153651296
2746.0,0.012006584469571245
2745.0,0.011990391180542768
2744.0,0.011971437930888115
2743.0,0.011956859596565339
2742.0,0.011948444766706262
2741.0,0.011937283890702062
2740.0,0.011913109974820875
2739.0,0.011881284532347661
2738.0,0.01186145124921482
2737.0,0.011864107050946367
2736.0,0.011878244773674215
2735.0,0.011886809143084346
2734.0,0.011883801643977966
2733.0,0.011870641709479907
2732.0,0.011846614316745021
2731.0,0.011812094040582411
2730.0,0.011772717205403262
2729.0,0.011731917714297956
2728.0,0.011687085732728869
2727.0,0.011640053556303341
2726.0,0.011602018614258792
2725.0,0.011578590964349517
2724.0,0.011559769293715685
2723.0,0.01153465607205332
2722.0,0.01150699862665584
2721.0,0.011487053485335776
2720.0,0.011477632309313772
2719.0,0.011478574111094614
2718.0,0.011492493342544579
2717.0,0.011511920477949453
2716.0,0.011512242990202499
2715.0,0.0114756255751046
2714.0,0.011416002618284033
2713.0,0.011364617174342157
2712.0,0.011335753968184972
2711.0,0.011319310839283146
2710.0,0.011300243290337396
2709.0,0.011270089944465295
2708.0,0.011227060168607757
2707.0,0.01118152239126281
2706.0,0.011155622387171014
2705.0,0.011159962547019439
2704.0,0.011175410690788708
2703.0,0.011175332551699623
2702.0,0.01116083761288117
2701.0,0.011154833837292105
2700.0,0.011163876857755203
2699.0,0.01116797741793685
2698.0,0.011149461133177649
2697.0,0.011114320817123387
2696.0,0.011081143007024959
2695.0,0.011063662515879358
2694.0,0.011064976892365838
2693.0,0.011073742763492054
2692.0,0.011065704328689198
2691.0,0.011025516014280898
2690.0,0.010969109321673245
2689.0,0.010929439517578498
2688.0,0.010918877493382759
2687.0,0.010920791759144727
2686.0,0.010919027637930904
2685.0,0.010915836331135728
2684.0,0.01091609895177244
2683.0,0.010912634427200259
2682.0,0.010897181540494533
2681.0,0.01087296314083878
2680.0,0.01084775331194768
2679.0,0.010824876202625384
2678.0,0.010806483988066835
2677.0,0.010795375466083173
2676.0,0.010788546736395246
2675.0,0.010779277031784813
2674.0,0.010769646856794839
2673.0,0.01076889049460792
2672.0,0.010774200420975783
2671.0,0.010766812334963296
2670.0,0.01073630558406835
2669.0,0.010699190035144688
2668.0,0.010682782864707587
2667.0,0.010697801146880207
2666.0,0.010734588007923705
2665.0,0.010780145630833168
2664.0,0.010829098762103452
2663.0,0.01087992539583165
2662.0,0.010928377405489404
2661.0,0.010966506805319824
2660.0,0.010987322746644136
2659.0,0.01099098975639748
2658.0,0.01098531950126386
2657.0,0.010977411755577178
2656.0,0.010966560579355128
2655.0,0.010949361530674861
2654.0,0.010928193585746473
2653.0,0.010907606581047197
2652.0,0.01088462190511041
2651.0,0.010851200748886736
2650.0,0.010806121887348651
2649.0,0.010756983332857569
2648.0,0.01071119083070416
2647.0,0.010672195711700009
2646.0,0.010642631728520653
2645.0,0.010621880927989104
2644.0,0.010601385483015698
2643.0,0.01057194557977727
2642.0,0.010536124413222858
2641.0,0.010505162849953623
2640.0,0.010483729212653274
2639.0,0.01046516456696863
2638.0,0.01044064948912599
2637.0,0.010405651059956129
2636.0,0.010359816688848602
2635.0,0.01030894362996097
2634.0,0.010264274457081666
2633.0,0.010232798986904894
2632.0,0.010211886469836501
2631.0,0.010198798832023414
2630.0,0.010194358838827907
2629.0,0.010186457272377556
2628.0,0.010146610567289325
2627.0,0.010065395872224832
2626.0,0.009983332934633124
2625.0,0.009959107205661025
2624.0,0.01000366835906225
2623.0,0.010066189525900058
2622.0,0.010085395325216092
2621.0,0.010037344372119538
2620.0,0.00993754072362674
2619.0,0.00982040432950672
2618.0,0.009723129256462749
2617.0,0.009665597011609092
2616.0,0.009636199675048628
2615.0,0.009610668592434882
2614.0,0.009586723126337633
2613.0,0.00958231978163116
2612.0,0.00959919207501059
2611.0,0.009611782942079712
2610.0,0.009599138648883032
2609.0,0.0095669201926196
2608.0,0.009529294648279864
2607.0,0.009488844798938944
2606.0,0.009446789714671628
2605.0,0.00941500431459582
2604.0,0.00940271756274723
2603.0,0.009400818516687405
2602.0,0.009390111631749423
2601.0,0.009359580096820095
2600.0,0.009312418163141828
2599.0,0.009262802099357502
2598.0,0.009229073862202316
2597.0,0.009218529839911739
2596.0,0.009215888503992055
2595.0,0.009198811315674089
2594.0,0.009166211375219075
2593.0,0.009137880542295416
2592.0,0.009124372554107913
2591.0,0.00911252151511562
2590.0,0.009086943046956985
2589.0,0.009052752229237567
2588.0,0.009029536958084857
2587.0,0.009030027815086493
2586.0,0.009048412273276353
2585.0,0.009063301982205221
2584.0,0.00905133306672424
2583.0,0.00900484330242167
2582.0,0.008936251533966981
2581.0,0.008862475016955883
2580.0,0.00879327804018376
2579.0,0.008740581340285077
2578.0,0.008724224267628053
2577.0,0.00875184596626047
2576.0,0.00880196162625612
2575.0,0.008842730424204717
2574.0,0.008859065933313244
2573.0,0.008848272113460866
2572.0,0.008805296931135236
2571.0,0.008736316347961952
2570.0,0.00867585743386012
2569.0,0.008661984594042953
2568.0,0.00869515390697983
2567.0,0.008741363119126152
2566.0,0.008771096537994579
2565.0,0.008775473153788843
2564.0,0.008755013591066198
2563.0,0.00871999532827891
2562.0,0.008694750513014004
2561.0,0.00869226233807798
2560.0,0.008688994335077827
2559.0,0.008654325230996934
2558.0,0.008601305009736432
2557.0,0.008577182529759482
2556.0,0.008603613651008478
2555.0,0.008657633443446819
2554.0,0.008712550988631978
2553.0,0.00875948789332549
2552.0,0.008779549377080219
2551.0,0.008734369835111819
2550.0,0.008610418700228847
2549.0,0.008454327199103523
2548.0,0.008341082415018684
2547.0,0.008312299097387616
2546.0,0.008352920814574066
2545.0,0.008415689051486746
2544.0,0.008460834269668364
2543.0,0.008481710021648377
2542.0,0.008497896067080122
2541.0,0.008521845153196296
2540.0,0.00854020127527735
2539.0,0.00853562469136861
2538.0,0.008513151985300366
2537.0,0.008488486056787082
2536.0,0.008463298010669217
2535.0,0.008435315249568207
2534.0,0.008422412775567122
2533.0,0.008447852415381554
2532.0,0.008505339565643297
2531.0,0.00856578587798227
2530.0,0.008617070003177275
2529.0,0.008670925438860685
2528.0,0.008731203834602892
2527.0,0.008782416722935947
2526.0,0.008813387167304518
2525.0,0.00882866796143755
2524.0,0.008833512705413734
2523.0,0.008829604648762838
2522.0,0.008827929811038429
2521.0,0.008843474200702904
2520.0,0.008872213550295572
2519.0,0.008892479836969775
2518.0,0.008893388655601232
2517.0,0.008886429167369602
2516.0,0.008888352534051298
2515.0,0.008907567108996659
2514.0,0.008943793310403233
2513.0,0.00898292717724486
2512.0,0.008995871530284458
2511.0,0.008962367885361781
2510.0,0.008895244634231452
2509.0,0.008825824650705047
2508.0,0.008769941225665804
2507.0,0.00872378375827223
2506.0,0.008683310873638337
2505.0,0.008646828709032226
2504.0,0.008608106792620113
2503.0,0.008569629569198978
2502.0,0.008551581397839847
2501.0,0.008561983575427442
2500.0,0.008570338745771094
2499.0,0.008542369768543402
2498.0,0.008491122151906205
2497.0,0.008458730912896414
2496.0,0.008454236859541378
2495.0,0.008448778247262527
2494.0,0.008430838298576798
2493.0,0.008422115331086588
2492.0,0.008428149408575794
2491.0,0.008413653952837304
2490.0,0.00834830566261938
2489.0,0.008250990181380162
2488.0,0.0081691933344294
2487.0,0.008130949231954766
2486.0,0.008130229344016639
2485.0,0.008144723304673019
2484.0,0.008155524145991543
2483.0,0.008156849274428592
2482.0,0.0081520793712679
2481.0,0.008138708447020193
2480.0,0.00810626477856624
2479.0,0.008058063340410794
2478.0,0.008019306878389804
2477.0,0.008005168552155042
2476.0,0.007996248850109224
2475.0,0.00796968324512934
2474.0,0.007938915131174687
2473.0,0.00793268402963702
2472.0,0.007948045252227061
2471.0,0.007959302810877807
2470.0,0.007963683822832107
2469.0,0.007978528172395062
2468.0,0.0079971671136062
2467.0,0.007990608869755044
2466.0,0.007959519543740684
2465.0,0.007946221524560823
2464.0,0.007981276509653744
2463.0,0.008045743992285404
2462.0,0.008097088065720086
2461.0,0.008110109978611923
2460.0,0.008087884083075373
2459.0,0.008055933574885535
2458.0,0.008048597712775952
2457.0,0.008076430969296161
2456.0,0.00810456028376581
2455.0,0.008089249681539812
2454.0,0.008037715111120766
2453.0,0.008003962431302396
2452.0,0.008022441309316076
2451.0,0.00807433424731756
2450.0,0.00812184724747135
2449.0,0.008142879173071568
2448.0,0.008125480806246917
2447.0,0.008063188258040694
2446.0,0.007971610686192324
2445.0,0.007883382721823949
2444.0,0.007812125829355573
2443.0,0.0077441203983460195
2442.0,0.007677903957123209
2441.0,0.007647274686996976
2440.0,0.007685179377112333
2439.0,0.007777345440820102
2438.0,0.007864917406646337
2437.0,0.0078878554509635
2436.0,0.00782870520960165
2435.0,0.0077293598783827015
2434.0,0.007663634946818279
2433.0,0.0076744279844880615
2432.0,0.007734734083209939
2431.0,0.0077844553255299095
2430.0,0.007798923083083309
2429.0,0.007799362801592897
2428.0,0.007803334812697151
2427.0,0.00779709424428046
2426.0,0.007763238625885849
2425.0,0.007710231244751701
2424.0,0.007663855213651661
2423.0,0.00764399314891657
2422.0,0.007653375681663023
2421.0,0.007675664677685446
2420.0,0.007685862213547348
2419.0,0.007675609241091874
2418.0,0.007661285255643366
2417.0,0.00765378543770392
2416.0,0.00763621722760551
2415.0,0.007595987829045482
2414.0,0.007563582328740106
2413.0,0.007582489959278868
2412.0,0.007643161443983521
2411.0,0.007682003859289957
2410.0,0.007650528695692098
2409.0,0.0075590629454072335
2408.0,0.007452956005470319
2407.0,0.00737514599378512
2406.0,0.007352633881763779
2405.0,0.007386126323020346
2404.0,0.00744401819008164
2403.0,0.007490484395343222
2402.0,0.007524235283670031
2401.0,0.007569359312460023
2400.0,0.007630043411735208
2399.0,0.007680818980226819
2398.0,0.0077013594717446916
2397.0,0.00769309962110707
2396.0,0.007662053367970684
2395.0,0.007616344437215797
2394.0,0.00758262816712447
2393.0,0.007590904392651232
2392.0,0.007633186973067528
2391.0,0.007664102099975716
2390.0,0.007651664873347496
2389.0,0.007604800885388256
2388.0,0.007546866487588736
2387.0,0.007491130056463253
2386.0,0.007451322356568988
2385.0,0.007445389890622711
2384.0,0.007470098654993344
2383.0,0.007492698763304405
2382.0,0.007486419122387421
2381.0,0.007459276235470562
2380.0,0.007430108633345027
2379.0,0.007392400111747532
2378.0,0.007327245856276846
2377.0,0.007241935769263643
2376.0,0.007171791354842081
2375.0,0.0071517776717597015
2374.0,0.007204698032539164
2373.0,0.007331696193134105
2372.0,0.007483410707896005
2371.0,0.007574010890339027
2370.0,0.007569898342265475
2369.0,0.007541978231300294
2368.0,0.007570719194011758
2367.0,0.007635479676603649
2366.0,0.007669356709442292
2365.0,0.007674716693666142
2364.0,0.007679692205672713
2363.0,0.007649425213139254
2362.0,0.007582354161983076
2361.0,0.0076269091061715935
2360.0,0.00791860168330421
2359.0,0.008364102820593458
2358.0,0.00871042546110163
2357.0,0.008800314472086287
2356.0,0.008721011084041243
2355.0,0.00864637982763604
2354.0,0.00865250483604466
2353.0,0.008700276641810766
2352.0,0.008684360607233668
2351.0,0.008557326596460836
2350.0,0.00835400308575544
2349.0,0.008180965617362453
2348.0,0.0081096658715045
2347.0,0.008114719977143605
2346.0,0.008173858104983271
2345.0,0.008227521647441484
2344.0,0.008179293092680557
2343.0,0.008040638086015104
2342.0,0.007961530224728374
2341.0,0.008007679456791532
2340.0,0.008020926658316043
2339.0,0.007938640295305902
2338.0,0.007881575143673
2337.0,0.007981391947530716
2336.0,0.00818412043896717
2335.0,0.008342131214309441
2334.0,0.008433028005541802
2333.0,0.008527122758331182
2332.0,0.00862993500336519
2331.0,0.008646957248660523
2330.0,0.008584545652785849
2329.0,0.008605177159483366
2328.0,0.008882184519654456
2327.0,0.009368407714048588
2326.0,0.009914915760941733
2325.0,0.010308210746775768
2324.0,0.010444196176433754
2323.0,0.01032665811491557
2322.0,0.010080723312100462
2321.0,0.009842496956941355
2320.0,0.009648112625556154
2319.0,0.009489262829213299
2318.0,0.009352354175107923
2317.0,0.009249204402917746
2316.0,0.009184156348987092
2315.0,0.009157135006730311
2314.0,0.009178946760944783
2313.0,0.009205199969995154
2312.0,0.00916971981833496
2311.0,0.009034945706303699
2310.0,0.008890070708430462
2309.0,0.008813653459791206
2308.0,0.00880557298138323
2307.0,0.008781194198726519
2306.0,0.008728181778097614
2305.0,0.00868207786344196
2304.0,0.008666322579747485
2303.0,0.008636224914202727
2302.0,0.00857225585136816
2301.0,0.008506524515955821
2300.0,0.008493304786345416
2299.0,0.008537043408872189
2298.0,0.008615208997120705
2297.0,0.008690948600319544
2296.0,0.008744050885776507
2295.0,0.00876701273230873
2294.0,0.00879186738586288
2293.0,0.008851033908832493
2292.0,0.00895662121178059
2291.0,0.009087041071363459
2290.0,0.009222328476613492
2289.0,0.009336761462792328
2288.0,0.009394968368388112
2287.0,0.00937541180564366
2286.0,0.009302221887305265
2285.0,0.009220978590070716
2284.0,0.009146070453217975
2283.0,0.00906317454827405
2282.0,0.008962102107076635
2281.0,0.008841515248033237
2280.0,0.008695908243442779
2279.0,0.008551409800007044
2278.0,0.008483905605285225
2277.0,0.008541962743738831
2276.0,0.008656876456137571
2275.0,0.008702767214093573
2274.0,0.008640058934166795
2273.0,0.008528591158568275
2272.0,0.008411675957559005
2271.0,0.008268475615853725
2270.0,0.008100220674082385
2269.0,0.007970977865767075
2268.0,0.007928853910818687
2267.0,0.00794730392084607
2266.0,0.007971987499257994
2265.0,0.007972588125308053
2264.0,0.00793243647966961
2263.0,0.007854741292763182
2262.0,0.007800922615362492
2261.0,0.007855670570591876
2260.0,0.008021512766776812
2259.0,0.00819598854346876
2258.0,0.008274035595726597
2257.0,0.008229253875101232
2256.0,0.008085886783576964
2255.0,0.007878922083686277
2254.0,0.007660948258569654
2253.0,0.007495721654528648
2252.0,0.007410089939597612
2251.0,0.007390755055962357
2250.0,0.007437821336782877
2249.0,0.007562372118070856
2248.0,0.007723465846581137
2247.0,0.00782903549419536
2246.0,0.007828791978841584
2245.0,0.007762203773506945
2244.0,0.007704481505526743
2243.0,0.0077006960172819865
2242.0,0.007756394927355569
2241.0,0.007835150734704576
2240.0,0.007863591928460022
2239.0,0.007792326206949713
2238.0,0.0076668060747465145
2237.0,0.0075911712862228725
2236.0,0.007617016212537167
2235.0,0.007704602312337203
2234.0,0.007782262818473327
2233.0,0.007792687398097211
2232.0,0.00770857193757611
2231.0,0.00757212358716671
2230.0,0.007497718469751238
2229.0,0.0075619870042528455
2228.0,0.007701967138858705
2227.0,0.0078009552750386395
2226.0,0.007841254334375136
2225.0,0.007882418341424452
2224.0,0.00792113600611957
2223.0,0.00789510423735298
2222.0,0.007816457614132062
2221.0,0.007777777216452864
2220.0,0.007807314917728507
2219.0,0.007834782910697483
2218.0,0.007818453792923096
2217.0,0.0077895301748778945
2216.0,0.007749555658145368
2215.0,0.007641140817737147
2214.0,0.007463302967025893
2213.0,0.00730952861092443
2212.0,0.00724581157166159
2211.0,0.007244243535721702
2210.0,0.007274855812462004
2209.0,0.0073599354328284985
2208.0,0.007493760612948437
2207.0,0.007601850789555811
2206.0,0.007629100590704377
2205.0,0.007596073482056498
2204.0,0.00753785831291724
2203.0,0.007466323926370368
2202.0,0.007415746323575672
2201.0,0.007436978132767326
2200.0,0.007508219963126847
2199.0,0.007535178717055085
2198.0,0.007477054154775358
2197.0,0.0074015468586837935
2196.0,0.007387208634527112
2195.0,0.007438836745404188
2194.0,0.00751502974406976
2193.0,0.007564556955720935
2192.0,0.007528606985828459
2191.0,0.007392533122617187
2190.0,0.007252401319910951
2189.0,0.007250118000633237
2188.0,0.007418450647749971
2187.0,0.00765316841625784
2186.0,0.007824620738568683
2185.0,0.007838845414522795
2184.0,0.007648074080625794
2183.0,0.007325584244399869
2182.0,0.007099316775163028
2181.0,0.007151916220847313
2180.0,0.007371064686546598
2179.0,0.0074626215866617366
2178.0,0.007294460470888447
2177.0,0.0069943647391803405
2176.0,0.006726454354775274
2175.0,0.006528553635187994
2174.0,0.006413604985032509
2173.0,0.006455843587869468
2172.0,0.006688175214598882
2171.0,0.007045490030142042
2170.0,0.007452454624004652
2169.0,0.007859740355663673
2168.0,0.008179855304927753
2167.0,0.008320205093440641
2166.0,0.008323587077977576
2165.0,0.008354580016653982
2164.0,0.008466267827357606
2163.0,0.008461528129819054
2162.0,0.008032805528118138
2161.0,0.006996532475312816
2160.0,0.005456654757538546
2159.0,0.003846745053857704
2158.0,0.00273643425866187
2157.0,0.0024179566051810843
2156.0,0.0026945028125521663
2155.0,0.0031800063927626783
2154.0,0.0037026561533595793
2153.0,0.00428879472892218
2152.0,0.0048943229080174785
2151.0,0.005335278415285411
2150.0,0.005489114948585674
2149.0,0.005409055481088126
2148.0,0.005232687435976339
2147.0,0.005072366653990112
2146.0,0.005006982250615168
2145.0,0.005054990140883746
2144.0,0.005140022925484781
2143.0,0.005175312496934755
2142.0,0.005182089377000875
2141.0,0.005235548568504654
2140.0,0.005322677587412306
2139.0,0.005357821611183603
2138.0,0.0053197164119062525
2137.0,0.005255784734045321
2136.0,0.005157770748688041
2135.0,0.004961405113190311
2134.0,0.004688559364729179
2133.0,0.004476092321670314
2132.0,0.004430547706940429
2131.0,0.004538842575807472
2130.0,0.004728560583478333
2129.0,0.004940017381814411
2128.0,0.005132446582086365
2127.0,0.0052928180989489535
2126.0,0.005453039002947267
2125.0,0.005654385554090285
2124.0,0.005884024546975298
2123.0,0.0060843823117782275
2122.0,0.0062173127812206784
2121.0,0.006281457825353314
2120.0,0.00628788990624226
2119.0,0.006265612594312045
2118.0,0.006275020942459862
2117.0,0.006357956873204302
2116.0,0.0064821773769209775
2115.0,0.0065845626548114745
2114.0,0.006654047482597627
2113.0,0.0067144072657901325
2112.0,0.006746610882952985
2111.0,0.006704104002611207
2110.0,0.006599014074301561
2109.0,0.006503633482586746
2108.0,0.006462614346824947
2107.0,0.006466393203732352
2106.0,0.006508347103625135
2105.0,0.006597104937296921
2104.0,0.006707453759882677
2103.0,0.0067845230231206415
2102.0,0.0068071896472619315
2101.0,0.006792837811579046
2100.0,0.006743367359642233
2099.0,0.006641088875879977
2098.0,0.006495089839510813
2097.0,0.006340217054599002
2096.0,0.006194296297610554
2095.0,0.0060712591735572995
2094.0,0.006016649455377386
2093.0,0.006059774768974753
2092.0,0.006149107401984126
2091.0,0.0062074844307796325
2090.0,0.006240061233636036
2089.0,0.0063195430693847475
2088.0,0.00646125832606399
2087.0,0.006588274742033453
2086.0,0.0066236898654037715
2085.0,0.006566998128727342
2084.0,0.00648194500605694
2083.0,0.006452900312730356
2082.0,0.006532081832599175
2081.0,0.006680048764495732
2080.0,0.006777639006040273
2079.0,0.006752684882029763
2078.0,0.006665615144718114
2077.0,0.006613757787262843
2076.0,0.006598564461123766
2075.0,0.006562625050060514
2074.0,0.006512054329080358
2073.0,0.006494758130232658
2072.0,0.00649437576717839
2071.0,0.006447928629881269
2070.0,0.006355637820530822
2069.0,0.0062772514387523255
2068.0,0.006235104325202982
2067.0,0.006210192513154552
2066.0,0.006212759093738757
2065.0,0.006260573780514207
2064.0,0.006308437402247179
2063.0,0.00629979854921076
2062.0,0.0062523324705791574
2061.0,0.006207506746383479
2060.0,0.0061600336948302485
2059.0,0.006115937361252208
2058.0,0.006137397068707174
2057.0,0.006223365981599401
2056.0,0.006248573327437477
2055.0,0.006172267445859563
2054.0,0.006199294768720827
2053.0,0.006522970237431552
2052.0,0.006977045679582402
2051.0,0.0071671948106795755
2050.0,0.006931942428892899
2049.0,0.006499788207368376
2048.0,0.006142746606019183
2047.0,0.005907162507669881
2046.0,0.005786271213362668
2045.0,0.005838982937617401
2044.0,0.006017310496277475
2043.0,0.006132635206314684
2042.0,0.0061115682972208
2041.0,0.0060815893370456614
2040.0,0.006107783383486088
2039.0,0.006058055964931468
2038.0,0.00583183080327886
2037.0,0.005514241086473077
2036.0,0.00521519308965027
2035.0,0.004939674950703303
2034.0,0.004711434335147905
2033.0,0.004626840526726598
2032.0,0.004685006651092666
2031.0,0.004753918424031385
2030.0,0.004772003973540617
2029.0,0.004800127033369548
2028.0,0.004855403016773904
2027.0,0.004876935741667512
2026.0,0.004871938660020966
2025.0,0.0049018795363568474
2024.0,0.0049333721335605325
2023.0,0.0048940129036064055
2022.0,0.004849487581024641
2021.0,0.00490714587343304
2020.0,0.0049828109968728905
2019.0,0.004907009730821346
2018.0,0.004744868307109471
2017.0,0.004745437533606305
2016.0,0.004931310341638275
2015.0,0.005078477700550596
2014.0,0.005113510877043611
2013.0,0.005182541355769147
2012.0,0.005343437506959492
2011.0,0.005447205890836868
2010.0,0.005368577885097979
2009.0,0.005145056219063928
2008.0,0.004855452260956828
2007.0,0.004565829474882344
2006.0,0.004419007923714587
2005.0,0.004526000912095427
2004.0,0.0047566369386087696
2003.0,0.004865921379998516
2002.0,0.004817853100393824
2001.0,0.004789471288752725
2000.0,0.004865333954742562
1999.0,0.004950830264222746
1998.0,0.004988111550726668
1997.0,0.005042370581173127
1996.0,0.005124506939468917
1995.0,0.005127307208337286
1994.0,0.004991787970557543
1993.0,0.004790832471123151
1992.0,0.0045973669576437805
1991.0,0.004413922586610568
1990.0,0.00430828640228709
1989.0,0.0044042611131982655
1988.0,0.0046861890456776105
1987.0,0.004986944734340668
1986.0,0.0052055737153631
1985.0,0.00538530906172423
1984.0,0.005559286930330171
1983.0,0.0056962625998852046
1982.0,0.005805458434880216
1981.0,0.005894467520058892
1980.0,0.005800899284471252
1979.0,0.0053248601000407845
1978.0,0.0045925562639412484
1977.0,0.004025887806183438
1976.0,0.0038282637246894752
1975.0,0.0038219088368531664
1974.0,0.0038460292218089965
1973.0,0.003944321784447863
1972.0,0.0040934342535073245
1971.0,0.004085118285819065
1970.0,0.0038160219627880578
1969.0,0.00347185253153094
1968.0,0.0033151039487960667
1967.0,0.003410678782120078
1966.0,0.0036571583605441516
1965.0,0.00395670611783382
1964.0,0.004214665500192029
1963.0,0.004322100356643288
1962.0,0.004265465131961532
1961.0,0.0041573895993879985
1960.0,0.004091398390055652
1959.0,0.004059727476505933
1958.0,0.004043225391235154
1957.0,0.004054894592794128
1956.0,0.004081269890851611
1955.0,0.0041089118699617205
1954.0,0.004205001740526638
1953.0,0.0044315411832372064
1952.0,0.004695612011560541
1951.0,0.004825140221973353
1950.0,0.004800918019842298
1949.0,0.0047565664679248216
1948.0,0.00475341430049489
1947.0,0.0047210105435963375
1946.0,0.004632095490955263
1945.0,0.004576788977875114
1944.0,0.004615882563866272
1943.0,0.004689148993173009
1942.0,0.004720132782109862
1941.0,0.00471255228640096
1940.0,0.004684184895455254
1939.0,0.004619288776758274
1938.0,0.004545438410076622
1937.0,0.0045282376250174936
1936.0,0.004544622264653728
1935.0,0.0044914925188964646
1934.0,0.004355173898711092
1933.0,0.004250573828826464
1932.0,0.004249726490793467
1931.0,0.004285268965556111
1930.0,0.004289583359737504
1929.0,0.0042746174861989315
1928.0,0.004248906737823928
1927.0,0.004186245414889705
1926.0,0.004096433476587953
1925.0,0.004063830948497156
1924.0,0.0041279534922079334
1923.0,0.004217627467893971
1922.0,0.004245310790438842
1921.0,0.004224702326678674
1920.0,0.004196442678758811
1919.0,0.004153458568583765
1918.0,0.004109047267899532
1917.0,0.004099487383972338
1916.0,0.004115322821231715
1915.0,0.004125873383750138
1914.0,0.004128254611939624
1913.0,0.004149147556063173
1912.0,0.004176001528971038
1911.0,0.004148607375520645
1910.0,0.004059017164117833
1909.0,0.003974910932482008
1908.0,0.003945374825142459
1907.0,0.003962597424078212
1906.0,0.004007142137019643
1905.0,0.004074690584676525
1904.0,0.0041190978305878255
1903.0,0.004093302278108354
1902.0,0.004031091173338888
1901.0,0.003997764252699178
1900.0,0.003991031404945211
1899.0,0.0039675282028340565
1898.0,0.0039354961066138065
1897.0,0.003962896501450374
1896.0,0.004067157353327772
1895.0,0.004186571883885896
1894.0,0.004278258972525856
1893.0,0.004354025583224781
1892.0,0.004407574106966899
1891.0,0.004409090120050302
1890.0,0.004392999203984958
1889.0,0.004429847671343098
1888.0,0.004500673854209355
1887.0,0.004533527916656804
1886.0,0.004505493334824551
1885.0,0.004457237361355298
1884.0,0.004426252275161392
1883.0,0.004407191024992997
1882.0,0.004398717983350968
1881.0,0.004410543707117645
1880.0,0.004430797966421793
1879.0,0.0044421232388562925
1878.0,0.00445578602745259
1877.0,0.004498506238384292
1876.0,0.004552217006767777
1875.0,0.004564101364195619
1874.0,0.004534087500922112
1873.0,0.004511647353857951
1872.0,0.004499662890360327
1871.0,0.004443454039419278
1870.0,0.004344105387834882
1869.0,0.0043076071600545015
1868.0,0.004347933506161599
1867.0,0.004363291041468887
1866.0,0.004358082463648897
1865.0,0.004377803931995431
1864.0,0.004400568278810833
1863.0,0.0043748614316541585
1862.0,0.004296866159130773
1861.0,0.004218925284727983
1860.0,0.004176577794085332
1859.0,0.004156282195053683
1858.0,0.004138867226120915
1857.0,0.004114127048208492
1856.0,0.004058139775486271
1855.0,0.003957867446726763
1854.0,0.003854467552334158
1853.0,0.0038025526297301316
1852.0,0.0037875764582954883
1851.0,0.0037631208844412503
1850.0,0.0037028837466678895
1849.0,0.003640819507280111
1848.0,0.0036218845924039077
1847.0,0.003652832735836718
1846.0,0.003724364724507101
1845.0,0.0038371072855743985
1844.0,0.003936062710156478
1843.0,0.003926031583390761
1842.0,0.0038748322174490084
1841.0,0.0038643826673368884
1840.0,0.0038493335818119987
1839.0,0.003782041440442337
1838.0,0.003697271659188807
1837.0,0.0036769073590589693
1836.0,0.00371897519544296
1835.0,0.003752651201590509
1834.0,0.0037552360584055967
1833.0,0.0037553997406116523
1832.0,0.0037598927768112394
1831.0,0.003760250470630812
1830.0,0.0037759296125906092
1829.0,0.003815195601970446
1828.0,0.003856575171966611
1827.0,0.003875686074982742
1826.0,0.0038563511532736993
1825.0,0.0038615886356320435
1824.0,0.003925759934580685
1823.0,0.003995510573461408
1822.0,0.004038101800643945
1821.0,0.004047960746062413
1820.0,0.0040180957165228525
1819.0,0.003940638962281262
1818.0,0.0038569095030772773
1817.0,0.0038517584111241957
1816.0,0.00392459698671604
1815.0,0.003997820287484879
1814.0,0.0040426515657309365
1813.0,0.00410008286802672
1812.0,0.004210076218331536
1811.0,0.004329335764599266
1810.0,0.00442088775503385
1809.0,0.004517641885573335
1808.0,0.004619421127924946
1807.0,0.004681822562345765
1806.0,0.004703416149256636
1805.0,0.004728833760120992
1804.0,0.004772688038628003
1803.0,0.0048129761681331975
1802.0,0.004860971807174612
1801.0,0.004949548388287399
1800.0,0.005058931093323379
1799.0,0.0051146630144976585
1798.0,0.005120287609680836
1797.0,0.005128884452695116
1796.0,0.005149915853918726
1795.0,0.005146990054694698
1794.0,0.005091285535954822
1793.0,0.0050022536457705715
1792.0,0.0049048807278133325
1791.0,0.004763560166452243
1790.0,0.004629580036938134
1789.0,0.0045646008492911
1788.0,0.004524774677720782
1787.0,0.004457486239258918
1786.0,0.004376302308404011
1785.0,0.004330230096232927
1784.0,0.004314276162022074
1783.0,0.0042866453329140405
1782.0,0.004238181953338015
1781.0,0.004184090876086448
1780.0,0.004154260663234044
1779.0,0.004117960826810606
1778.0,0.004065100361894151
1777.0,0.004015265110562692
1776.0,0.003982563088129428
1775.0,0.00395984832242975
1774.0,0.003900225137570835
1773.0,0.0038438868411191547
1772.0,0.0038982314332726064
1771.0,0.0039920046618285784
1770.0,0.004071724443101904
1769.0,0.0041639436243740445
1768.0,0.004233064573767545
1767.0,0.004237725825918041
1766.0,0.0042061918483735795
1765.0,0.004198997570381069
1764.0,0.004219786145456936
1763.0,0.004244400311918101
1762.0,0.004283812955915173
1761.0,0.004333667518730618
1760.0,0.00438507333128385
1759.0,0.004407334689610055
1758.0,0.0043994541805230875
1757.0,0.0044152787608018355
1756.0,0.004483013823724504
1755.0,0.004566077451953734
1754.0,0.004631526103139671
1753.0,0.004666282059864015
1752.0,0.004698178140998403
1751.0,0.0047466866777722706
1750.0,0.004773260267583818
1749.0,0.004825760915401315
1748.0,0.004944351755786561
1747.0,0.00505980958613003
1746.0,0.005115312247574992
1745.0,0.0051417618944752976
1744.0,0.005193553695284043
1743.0,0.0052475870890999815
1742.0,0.0052757509984939195
1741.0,0.005316284770854717
1740.0,0.005393246299818305
1739.0,0.005445326786223189
1738.0,0.005470164366442378
1737.0,0.005548376670996969
1736.0,0.005643605036391974
1735.0,0.005714884921616465
1734.0,0.005823159162236399
1733.0,0.005867460168061545
1732.0,0.0058822824970346434
1731.0,0.005924018958411412
1730.0,0.005938026046165714
1729.0,0.005958109875993814
1728.0,0.006014804756445209
1727.0,0.0060839763713620935
1726.0,0.0061258893491266155
1725.0,0.006168528125320025
1724.0,0.006268613235641497
1723.0,0.006371627639374395
1722.0,0.006428864375352998
1721.0,0.00647216956542206
1720.0,0.006513100785076765
1719.0,0.006512901395388371
1718.0,0.006567090846550881
1717.0,0.006851223660684913
1716.0,0.007215638331306893
1715.0,0.007461670515786872
1714.0,0.007591551550312232
1713.0,0.0076967100077688835
1712.0,0.007821604327054305
1711.0,0.007939095820705308
1710.0,0.008029417144473885
1709.0,0.008111643368346225
1708.0,0.008219107250387606
1707.0,0.00836321340269629
1706.0,0.00857481914998529
1705.0,0.008887393675379511
1704.0,0.0092359315307635
1703.0,0.009577813362347363
1702.0,0.009849594342242696
1701.0,0.010132871900546875
1700.0,0.010541939306855128
1699.0,0.010855401515007
1698.0,0.0111279476602555
1697.0,0.011562266444064207
1696.0,0.01211123290215063
1695.0,0.012438078716342199
1694.0,0.012581607300838668
1693.0,0.012786059230342671
1692.0,0.013015107189907126
1691.0,0.013220377552199826
1690.0,0.01346366924366037
1689.0,0.013811638386330781
1688.0,0.014220580356679665
1687.0,0.014599286989862171
1686.0,0.014854026619586076
1685.0,0.015236027015967456
1684.0,0.01597383994572732
1683.0,0.016459275026277892
1682.0,0.016743746016864323
1681.0,0.01710961515110027
1680.0,0.01748952254262722
1679.0,0.017831731216085122
1678.0,0.018136707032835507
1677.0,0.0184695106017974
1676.0,0.01890809120252451
1675.0,0.019397658111682863
1674.0,0.019749205589309305
1673.0,0.0199909299631792
1672.0,0.02024600291143944
1671.0,0.020544315977319497
1670.0,0.020959131481645753
1669.0,0.021437847071173292
1668.0,0.02183836280911641
1667.0,0.022143034124132616
1666.0,0.02236651497831033
1665.0,0.022554296055821207
1664.0,0.02279470865591323
1663.0,0.02313307095137776
1662.0,0.02348274978794482
1661.0,0.023760435601917353
1660.0,0.024018745270630026
1659.0,0.02424074014840146
1658.0,0.024398370785713348
1657.0,0.024539596397436376
1656.0,0.0247710839861147
1655.0,0.02503422008862506
1654.0,0.025337837657352834
1653.0,0.025670016318107454
1652.0,0.025620613852263264
1651.0,0.025624963720127094
1650.0,0.025733816253331102
1649.0,0.02573267448572726
1648.0,0.02575406780586709
1647.0,0.025912618773982068
1646.0,0.025989621269211963
1645.0,0.025990795374576704
1644.0,0.02607874533770569
1643.0,0.026159460932343826
1642.0,0.026161581403334102
1641.0,0.02610056497451615
1640.0,0.026044425503171105
1639.0,0.026028188584536583
1638.0,0.025997857069145123
1637.0,0.025911739358455192
1636.0,0.025802434713369425
1635.0,0.025627508796629873
1634.0,0.02544572313865724
1633.0,0.02540290467033214
1632.0,0.02539822202443007
1631.0,0.025330892102992792
1630.0,0.025178260172156564
1629.0,0.024948480565159747
1628.0,0.024687798120555896
1627.0,0.024448613135709507
1626.0,0.02424655412669413
1625.0,0.02402956772107607
1624.0,0.02374121956467448
1623.0,0.023379679747029626
1622.0,0.023030594630622285
1621.0,0.022801907230556414
1620.0,0.02268893472865836
1619.0,0.02256197099586842
1618.0,0.02227557170662495
1617.0,0.02179574992902176
1616.0,0.02127848983115461
1615.0,0.020929952715804456
1614.0,0.02075850933828196
1613.0,0.020624180947470788
1612.0,0.020448145393975957
1611.0,0.020257201660444688
1610.0,0.020115934106342912
1609.0,0.020081599775928164
1608.0,0.020197223027171737
1607.0,0.020462502358712754
1606.0,0.020828946226610887
1605.0,0.021246132877363034
1604.0,0.02170543084423046
1603.0,0.02213828990316398
1602.0,0.022371808441450917
1601.0,0.022272940600051232
1600.0,0.021848437135630713
1599.0,0.0211820258850272
1598.0,0.020371937960131314
1597.0,0.019525362401515617
1596.0,0.018729881199541998
1595.0,0.018032710983128183
1594.0,0.017456430638573776
1593.0,0.016998317583051502
1592.0,0.016628432304228703
1591.0,0.016314131344712365
1590.0,0.016049989541240556
1589.0,0.015851347679785004
1588.0,0.01573519681824088
1587.0,0.01570702253047095
1586.0,0.015756101474653186
1585.0,0.015832829280833155
1584.0,0.015861753747723098
1583.0,0.015779676751141173
1582.0,0.015537057438817444
1581.0,0.015169198596248504
1580.0,0.014790368756875324
1579.0,0.014487212198691573
1578.0,0.014234338777650957
1577.0,0.013998337299896378
1576.0,0.013770333249720011
1575.0,0.013557933974778412
1574.0,0.013457353509092104
1573.0,0.013445535209138725
1572.0,0.013398703232863553
1571.0,0.013258785384571491
1570.0,0.013096121895911857
1569.0,0.012991799635621793
1568.0,0.012952088392128459
1567.0,0.012955021131131245
1566.0,0.012935593831189807
1565.0,0.012868315635133222
1564.0,0.012814292689078455
1563.0,0.012822678849113568
1562.0,0.012876483300807567
1561.0,0.012809275597471866
1560.0,0.012536432312219768
1559.0,0.012586750179880698
1558.0,0.012880190245175848
1557.0,0.013082958402330709
1556.0,0.013326252341248394
1555.0,0.013486614760219406
1554.0,0.013547564714466817
1553.0,0.013578996702437923
1552.0,0.013620962019700013
1551.0,0.013693624022239552
1550.0,0.013804097839681728
1549.0,0.013962035803491757
1548.0,0.014110609655094367
1547.0,0.014211751324101157
1546.0,0.014238540930971585
1545.0,0.014268469663276172
1544.0,0.014384556876994917
1543.0,0.01454698657610335
1542.0,0.014674540882558682
1541.0,0.015011346232238296
1540.0,0.015558072293026411
1539.0,0.015722341245427703
1538.0,0.01571264704667026
1537.0,0.01581492056255817
1536.0,0.01589881497431569
1535.0,0.01592733837360397
1534.0,0.016017206281927168
1533.0,0.016247044997908994
1532.0,0.016462409532688724
1531.0,0.016583647555995
1530.0,0.0166333444908528
1529.0,0.01666077394981084
1528.0,0.016729805141363564
1527.0,0.016853037852167414
1526.0,0.016992246287351777
1525.0,0.017106322735137285
1524.0,0.01719609123436587
1523.0,0.017269472130752778
1522.0,0.017464627707542504
1521.0,0.01779480742062497
1520.0,0.017995421009104073
1519.0,0.01806122616383588
1518.0,0.018104788345459585
1517.0,0.018244962804199544
1516.0,0.018470795980024733
1515.0,0.018644750193153602
1514.0,0.018768033892482442
1513.0,0.018844611663079634
1512.0,0.018889563655852093
1511.0,0.018891517568156407
1510.0,0.018889930659307382
1509.0,0.01888432134607551
1508.0,0.019066846656489393
1507.0,0.019624136658617477
1506.0,0.01996986921865557
1505.0,0.020103480354185004
1504.0,0.020322834276611818
1503.0,0.020514689696665568
1502.0,0.020693583721171326
1501.0,0.020951344942133757
1500.0,0.021377002459070718
1499.0,0.022090786696722344
1498.0,0.0234580593898646
1497.0,0.02605651961002837
1496.0,0.029500637040876847
1495.0,0.032449315166059284
1494.0,0.03433883552046358
1493.0,0.035287776764605275
1492.0,0.03528788948335827
1491.0,0.034151562741010166
1490.0,0.032047525293309814
1489.0,0.02994448796737701
1488.0,0.028497229550092
1487.0,0.0275166738206975
1486.0,0.02682359092147312
1485.0,0.0263638198358676
1484.0,0.02603472926438853
1483.0,0.025755598592150594
1482.0,0.0255258656333347
1481.0,0.02541719291478443
1480.0,0.025413184376085106
1479.0,0.025435386578206806
1478.0,0.02545882103627979
1477.0,0.025529302558845553
1476.0,0.025650929453506336
1475.0,0.025757661462017464
1474.0,0.02588153004786309
1473.0,0.026196984801848386
1472.0,0.026606155510488817
1471.0,0.02684868671839087
1470.0,0.027014586001953056
1469.0,0.027209453045125967
1468.0,0.027407078201024913
1467.0,0.02757294154842286
1466.0,0.0277414453373167
1465.0,0.02799165788087704
1464.0,0.028282751418180006
1463.0,0.028484588075685886
1462.0,0.028642567198178363
1461.0,0.028802948539616638
1460.0,0.029034517754184704
1459.0,0.02940111495729905
1458.0,0.0306768600284233
1457.0,0.03386422574697936
1456.0,0.03733734108451696
1455.0,0.03962205546872526
1454.0,0.04129598336145875
1453.0,0.04261404766229198
1452.0,0.043340089803998366
1451.0,0.043290522043625296
1450.0,0.04264502198808951
1449.0,0.041734511094356726
1448.0,0.04075866322876026
1447.0,0.039887303902916685
1446.0,0.039211666979079775
1445.0,0.038654200293258986
1444.0,0.03810160301533896
1443.0,0.037528400556156756
1442.0,0.03700874232573764
1441.0,0.036599759262491004
1440.0,0.036281756018967465
1439.0,0.03599406173583823
1438.0,0.03568242009431482
1437.0,0.03532722864277441
1436.0,0.03494498944135652
1435.0,0.03462824893985903
1434.0,0.034441293438251225
1433.0,0.03433291050609383
1432.0,0.03422990378803258
1431.0,0.03412549705408057
1430.0,0.03407247509434719
1429.0,0.03410346017504295
1428.0,0.034167791413022036
1427.0,0.03422906665361985
1426.0,0.0342959944559197
1425.0,0.0343739069796872
1424.0,0.03447730317006257
1423.0,0.034619628553952814
1422.0,0.034824283120145745
1421.0,0.035057462545560775
1420.0,0.03520897954110871
1419.0,0.03520528209658448
1418.0,0.03514195194736696
1417.0,0.035156915456727965
1416.0,0.035200495589423036
1415.0,0.035183232693675855
1414.0,0.035114673606833915
1413.0,0.03501889956114975
1412.0,0.03486116841669781
1411.0,0.03460291227066384
1410.0,0.03428327585933718
1409.0,0.03395701944364558
1408.0,0.03358915135798273
1407.0,0.03310753349608338
1406.0,0.032484794543507264
1405.0,0.03174440859374812
1404.0,0.031006010776248066
1403.0,0.03042710526195635
1402.0,0.030036789575711376
1401.0,0.029700814973342607
1400.0,0.029249581187849816
1399.0,0.02867756779643974
1398.0,0.028156324928060625
1397.0,0.02773097072966131
1396.0,0.027220235565198828
1395.0,0.026543158841237417
1394.0,0.025879027149133794
1393.0,0.02537935592740321
1392.0,0.02499913486718732
1391.0,0.024656271383515446
1390.0,0.02432343883209403
1389.0,0.02396374666505764
1388.0,0.023508923585134556
1387.0,0.022985441099823745
1386.0,0.022542390066593084
1385.0,0.02223348740241619
1384.0,0.021976652421259332
1383.0,0.021705105253293024
1382.0,0.02142340497809832
1381.0,0.021151583819194582
1380.0,0.020882210008570084
1379.0,0.020623622283730794
1378.0,0.02040220652699037
1377.0,0.020201700493211603
1376.0,0.01995480606140908
1375.0,0.0196262646350635
1374.0,0.019270142043689296
1373.0,0.018965955491121497
1372.0,0.018725216864183457
1371.0,0.01850405645136224
1370.0,0.018254882647535692
1369.0,0.017948470298628588
1368.0,0.017613691606731628
1367.0,0.017321213825485942
1366.0,0.017097028369226254
1365.0,0.016881072148421373
1364.0,0.016590091646478487
1363.0,0.01622042512253222
1362.0,0.015865220160196827
1361.0,0.015582886598507394
1360.0,0.015341400631690965
1359.0,0.015108060645556656
1358.0,0.01488140787897516
1357.0,0.014656128369627631
1356.0,0.014420667525603097
1355.0,0.014187153437718054
1354.0,0.013982171746237029
1353.0,0.013807772055295639
1352.0,0.013640263705767104
1351.0,0.013471974914647966
1350.0,0.013311749835183101
1349.0,0.013149397296744383
1348.0,0.012974526237953563
1347.0,0.01279481786596948
1346.0,0.012618999514374792
1345.0,0.012434392463176153
1344.0,0.012233069409400638
1343.0,0.012032607446095134
1342.0,0.011846864160781696
1341.0,0.011659598050588423
1340.0,0.011457503209942932
1339.0,0.011274980982544376
1338.0,0.011153287939505919
1337.0,0.011078153048150647
1336.0,0.011014816654264938
1335.0,0.010958331002606136
1334.0,0.010914690130013775
1333.0,0.010870729683905959
1332.0,0.010810904474168884
1331.0,0.01074513718619012
1330.0,0.010688074325112672
1329.0,0.010629224560087018
1328.0,0.010552252530662588
1327.0,0.010464371169832357
1326.0,0.010376162899094203
1325.0,0.010274406616359168
1324.0,0.010149317000677362
1323.0,0.010019510334146442
1322.0,0.009905612340804709
1321.0,0.009798211711967642
1320.0,0.009681490387853032
1319.0,0.009571271943214114
1318.0,0.009494270312790376
1317.0,0.009444387509392773
1316.0,0.009399039265361533
1315.0,0.009357410307398471
1314.0,0.009327497511000885
1313.0,0.009294064642440564
1312.0,0.009232022475376207
1311.0,0.009142869422975358
1310.0,0.00904396703357144
1309.0,0.008938627266866207
1308.0,0.008821899753720427
1307.0,0.008701727727503255
1306.0,0.00858978382526324
1305.0,0.008481583040466898
1304.0,0.008370091586112592
1303.0,0.008261690219248628
1302.0,0.008163686609252166
1301.0,0.008068813673412712
1300.0,0.007971113035144917
1299.0,0.007880941334560658
1298.0,0.007807230590019603
1297.0,0.007739576369242584
1296.0,0.0076660119379806605
1295.0,0.007593250697336943
1294.0,0.007530497397553345
1293.0,0.007471947107114848
1292.0,0.007412221008030573
1291.0,0.007361371723050236
1290.0,0.00732705611487869
1289.0,0.007298149264575244
1288.0,0.007263754169355043
1287.0,0.007231492290441935
1286.0,0.00720873737344151
1285.0,0.007185999093106939
1284.0,0.007157559229498024
1283.0,0.007137392754735792
1282.0,0.007136035254483279
1281.0,0.00713804570288719
1280.0,0.007122911114585583
1279.0,0.007093032391572296
1278.0,0.007061002449853332
1277.0,0.007026685259728547
1276.0,0.006986478543573675
1275.0,0.006950351823423967
1274.0,0.006928628582073701
1273.0,0.006915935395818196
1272.0,0.006906486942702331
1271.0,0.006911615289864002
1270.0,0.0069418834064591504
1269.0,0.006985631454804164
1268.0,0.00702665247141653
1267.0,0.007068352905570103
1266.0,0.007122383613596869
1265.0,0.007187025392956197
1264.0,0.0072529666908048
1263.0,0.0073192856820695346
1262.0,0.007388496471930767
1261.0,0.007454895059479041
1260.0,0.007511766871029314
1259.0,0.007560718752623284
1258.0,0.007602545213553295
1257.0,0.007633432024019832
1256.0,0.007661019388044817
1255.0,0.0077089384383008525
1254.0,0.007790016967620307
1253.0,0.007887791364184708
1252.0,0.007979631478424301
1251.0,0.008065815802599165
1250.0,0.008161058599798723
1249.0,0.00826991541040609
1248.0,0.008386685728233523
1247.0,0.008509701153405033
1246.0,0.00863997034519895
1245.0,0.008771868916450116
1244.0,0.00889650985795274
1243.0,0.009011353284060879
1242.0,0.009119215822958195
1241.0,0.009222706104026462
1240.0,0.009324876490418615
1239.0,0.009428414050625517
1238.0,0.009529208456480632
1237.0,0.009618775838848476
1236.0,0.0096973828860321
1235.0,0.009775617487704228
1234.0,0.009858933947276986
1233.0,0.009941429722680598
1232.0,0.010019750765522702
1231.0,0.01010013515777754
1230.0,0.010184522885237905
1229.0,0.010262512947495025
1228.0,0.010326050044239973
1227.0,0.01038166869127891
1226.0,0.010439325576190393
1225.0,0.010498463745502142
1224.0,0.010554375972604817
1223.0,0.010608625250755836
1222.0,0.010662392995542211
1221.0,0.010708173930573973
1220.0,0.01073999579533716
1219.0,0.010766589217290668
1218.0,0.01080393860775911
1217.0,0.01085814105082318
1216.0,0.010922997574763015
1215.0,0.010989536910221025
1214.0,0.011051188867534624
1213.0,0.011105903795541546
1212.0,0.011159835197648842
1211.0,0.011223637916693542
1210.0,0.01130038950423776
1209.0,0.011383304628326579
1208.0,0.01146867236751499
1207.0,0.011561633001247892
1206.0,0.011664374097932705
1205.0,0.011768537062516883
1204.0,0.011866537156988776
1203.0,0.011961770660352505
1202.0,0.012060090031468865
1201.0,0.012159307868289018
1200.0,0.012255287757693356
1199.0,0.012350924274655426
1198.0,0.012449793137481659
1197.0,0.01254679076088305
1196.0,0.012633928161605367
1195.0,0.012712200396928813
1194.0,0.012790296586030321
1193.0,0.012874539911804723
1192.0,0.012967110194767883
1191.0,0.013070518352868172
1190.0,0.013186698702521704
1189.0,0.01331485778684189
1188.0,0.013457738518639184
1187.0,0.013627718838593612
1186.0,0.013838157922777771
1185.0,0.014087070171174759
1184.0,0.014353010305595867
1183.0,0.014606006640732007
1182.0,0.014820228401361345
1181.0,0.01497846349062646
1180.0,0.01507129341295501
1179.0,0.015099899738610496
1178.0,0.015081785403119701
1177.0,0.015048983855255826
1176.0,0.015035717361659606
1175.0,0.015063441773148126
1174.0,0.015130328703727387
1173.0,0.01521420973621351
1172.0,0.015291352816612994
1171.0,0.015355119728919144
1170.0,0.015417794584293425
1169.0,0.015495605465880646
1168.0,0.01559350861179196
1167.0,0.015703490502488315
1166.0,0.015814370136983273
1165.0,0.01592189196272851
1164.0,0.016030380856928428
1163.0,0.01614763439400083
1162.0,0.016280905450339608
1161.0,0.01643806312180353
1160.0,0.016629084656189345
1159.0,0.01685961728156905
1158.0,0.017119297196754996
1157.0,0.017380218900746126
1156.0,0.0176112180254087
1155.0,0.017793269282167457
1154.0,0.017919815510966306
1153.0,0.01798519366561159
1152.0,0.017983022319426722
1151.0,0.01792330026997025
1150.0,0.017842672143383857
1149.0,0.01778400608275614
1148.0,0.01776602741052275
1147.0,0.0177790287539555
1146.0,0.0178062352340585
1145.0,0.017842690702013195
1144.0,0.017896375962083974
1143.0,0.017978106058375753
1142.0,0.018089485988904856
1141.0,0.018216592614832838
1140.0,0.018337638666739774
1139.0,0.01844137006611194
1138.0,0.018535846408746035
1137.0,0.018634563914213597
1136.0,0.018739215543644546
1135.0,0.01884401392433394
1134.0,0.018951153807144173
1133.0,0.019069846113975636
1132.0,0.01920219479532461
1131.0,0.01934192749628928
1130.0,0.019486474082061993
1129.0,0.019638662969940605
1128.0,0.019795328561027965
1127.0,0.01994569498907031
1126.0,0.020084211818163385
1125.0,0.02021520986813967
1124.0,0.020342674615395115
1123.0,0.020465793834806893
1122.0,0.020586751074763952
1121.0,0.020712851402731387
1120.0,0.020849394295421556
1119.0,0.02099920550589585
1118.0,0.021166793325255454
1117.0,0.021350924436037796
1116.0,0.021535553807556052
1115.0,0.02170333693778856
1114.0,0.021858007411321642
1113.0,0.022017200244544073
1112.0,0.02218300009534828
1111.0,0.02233949973282428
1110.0,0.022481405310964958
1109.0,0.02262454707306212
1108.0,0.02278195656707767
1107.0,0.02294923987359116
1106.0,0.023121279308872762
1105.0,0.023304296219004907
1104.0,0.02350461788439461
1103.0,0.023720457782678832
1102.0,0.023946986690929352
1101.0,0.024173154203109434
1100.0,0.02437419463089932
1099.0,0.02453243923101906
1098.0,0.02466922069183959
1097.0,0.02482846367788171
1096.0,0.025023108722647548
1095.0,0.025223677594611228
1094.0,0.025404528582011053
1093.0,0.025571288921935872
1092.0,0.025734417193452173
1091.0,0.025888001860211618
1090.0,0.026028685007889255
1089.0,0.026167308364861565
1088.0,0.02630831632238053
1087.0,0.026443141954017473
1086.0,0.02657493434807523
1085.0,0.026722097060442998
1084.0,0.02688413652195422
1083.0,0.02703061248291274
1082.0,0.027138234795030684
1081.0,0.027215644793271404
1080.0,0.027282325391674793
1079.0,0.027349807988557046
1078.0,0.027430977325731618
1077.0,0.027538423333760213
1076.0,0.027665047781525377
1075.0,0.027793049378887033
1074.0,0.02792631519510312
1073.0,0.02808304548617379
1072.0,0.02825141790874463
1071.0,0.02838717191872006
1070.0,0.028464619324440693
1069.0,0.02849622709224494
1068.0,0.028493313195648767
1067.0,0.028445471249658093
1066.0,0.028350380296816607
1065.0,0.028228282176267577
1064.0,0.028096091061935634
1063.0,0.02795847323879739
1062.0,0.027828528259496166
1061.0,0.02772360002653386
1060.0,0.027636467007770955
1059.0,0.027542814122000617
1058.0,0.027440596465592222
1057.0,0.027349291652853422
1056.0,0.027268701551527642
1055.0,0.027176080769214163
1054.0,0.027070045415478625
1053.0,0.026979376326894913
1052.0,0.02691633725399694
1051.0,0.026859736534860068
1050.0,0.026801908165917127
1049.0,0.026769612549476407
1048.0,0.02677620781989172
1047.0,0.026794208204029182
1046.0,0.026793014068792087
1045.0,0.026768672221168813
1044.0,0.02672608063059443
1043.0,0.026665586214084575
1042.0,0.02659900561717083
1041.0,0.026552808612019245
1040.0,0.02654559185027071
1039.0,0.026582050429947088
1038.0,0.026673319452622128
1037.0,0.02684334164669097
1036.0,0.02711342686339028
1035.0,0.027497191301570224
1034.0,0.02800234338382937
1033.0,0.028608623673484178
1032.0,0.029243402411196086
1031.0,0.029809380702931328
1030.0,0.030243838601458815
1029.0,0.030522886784970525
1028.0,0.030611913445148416
1027.0,0.030467857301133196
1026.0,0.03010649861990513
1025.0,0.02961801140545589
1024.0,0.029097791439681435
1023.0,0.028596430114169576
1022.0,0.02813537941757118
1021.0,0.02772347628833423
1020.0,0.027347359035110125
1019.0,0.026983022744223838
1018.0,0.026631950334059372
1017.0,0.026320189351625736
1016.0,0.02605581208902802
1015.0,0.025816082374724963
1014.0,0.02558207967062729
1013.0,0.025357873184436164
1012.0,0.0251498546699694
1011.0,0.024955823318002335
1010.0,0.02478199041580085
1009.0,0.024644103772824
1008.0,0.02454323900811306
1007.0,0.024461612991329845
1006.0,0.024385418938720836
1005.0,0.024306182544480026
1004.0,0.024194018400131745
1003.0,0.02400082471503895
1002.0,0.023708739148040885
1001.0,0.023356061572387406
1000.0,0.023002067279806845
999.0,0.02268096009906905
998.0,0.02239299732080304
997.0,0.022120554440446458
996.0,0.02184527181091058
995.0,0.02156304958791288
994.0,0.021288782371206523
993.0,0.021038870131012542
992.0,0.020811091119104
991.0,0.02059228147908513
990.0,0.020380179904614798
989.0,0.020182794401361857
988.0,0.02000141573203686
987.0,0.019831086699914097
986.0,0.019673472465812407
985.0,0.019531754805034867
984.0,0.019396278078997325
983.0,0.019252185214640092
982.0,0.019096958102002418
981.0,0.0189325355612094
980.0,0.018745404195734876
979.0,0.018516520169975167
978.0,0.01824983845137693
977.0,0.017969800764120563
976.0,0.017691207458913786
975.0,0.017412196937819025
974.0,0.017135088254779687
973.0,0.016871858485102108
972.0,0.01662810303859422
971.0,0.016401967213305328
970.0,0.01620047599980884
969.0,0.016036654564001582
968.0,0.01590560916997127
967.0,0.0157795048295217
966.0,0.015631722702470922
965.0,0.015453622034182914
964.0,0.015244916907453398
963.0,0.015003820238113637
962.0,0.014733005735951658
961.0,0.014441653908717052
960.0,0.014135490404325327
959.0,0.013815393324662258
958.0,0.013489821592513173
957.0,0.013178780541332997
956.0,0.01290069754244651
955.0,0.012659804844551405
954.0,0.01244671018525742
953.0,0.012247687413600682
952.0,0.012055048285368401
951.0,0.011872205568489412
950.0,0.011707075831865983
949.0,0.011559479963698414
948.0,0.011421416982850725
947.0,0.011291917063485583
946.0,0.011180650141016577
945.0,0.011089150637116803
944.0,0.010997607563260115
943.0,0.010880845610733533
942.0,0.01073233204388038
941.0,0.010563531351581466
940.0,0.010386221754152679
939.0,0.01020683414508906
938.0,0.010032427094448921
937.0,0.009868565497053543
936.0,0.009712362653727543
935.0,0.00955685495439489
934.0,0.009399893909381868
933.0,0.009241088659262129
932.0,0.009075191947437746
931.0,0.008899752937227078
930.0,0.008726858416006664
929.0,0.00857535595120058
928.0,0.008449636640414246
927.0,0.008334329947678614
926.0,0.008213457244549135
925.0,0.008090822951446058
924.0,0.00798808728622246
923.0,0.007922761518632922
922.0,0.007889258069391312
921.0,0.007864636765020111
920.0,0.007834831852754957
919.0,0.007811187289626442
918.0,0.007817356338743496
917.0,0.007865409812592334
916.0,0.007952402127462413
915.0,0.008074074135511585
914.0,0.008228040568162454
913.0,0.008404112652366773
912.0,0.008585192893394409
911.0,0.00876097390734943
910.0,0.008928684784915007
909.0,0.009075287430392188
908.0,0.009171718178047229
907.0,0.009193119036965059
906.0,0.009132244486029052
905.0,0.008983742173120635
904.0,0.008733629814349522
903.0,0.008384266385886276
902.0,0.007977106401336524
901.0,0.0075680778977578606
900.0,0.007186792300163773
899.0,0.006835410904113309
898.0,0.006515415877277716
897.0,0.006236054031842624
896.0,0.006002187004810696
895.0,0.005809087707579423
894.0,0.005647050203139284
893.0,0.00550341146141297
892.0,0.00536691147497239
891.0,0.005239602493172114
890.0,0.005140778160599005
889.0,0.005094529296595311
888.0,0.005120017894768809
887.0,0.005234052348586371
886.0,0.005446267465667155
885.0,0.005744386684863496
884.0,0.006101960728670346
883.0,0.006516731630079552
882.0,0.00703026055659383
881.0,0.007687439447874162
880.0,0.008476071721877344
879.0,0.009321799364473894
878.0,0.010143935166370483
877.0,0.010901728981446902
876.0,0.01158497378396264
875.0,0.012179235307744778
874.0,0.012634952138805906
873.0,0.012836595131284441
872.0,0.012616190535866559
871.0,0.011874620618294886
870.0,0.010722984232368463
869.0,0.00945241818595215
868.0,0.008342465740605313
867.0,0.007516180805678448
866.0,0.006946365072293008
865.0,0.006545189537478575
864.0,0.006235913235367523
863.0,0.0059727221752895986
862.0,0.005735401747552566
861.0,0.005523300401792084
860.0,0.0053490772673693565
859.0,0.0052274336553149205
858.0,0.005159749530129619
857.0,0.005124391467393359
856.0,0.00508526916830343
855.0,0.005015482415574583
854.0,0.004913661187942436
853.0,0.004797823877675782
852.0,0.004691394422485971
851.0,0.004619433877284307
850.0,0.004602688128443399
849.0,0.004637413350442862
848.0,0.004687443749493418
847.0,0.004714174805711263
846.0,0.00471481088479031
845.0,0.004716508803156938
844.0,0.004734519785919551
843.0,0.004753922101557607
842.0,0.004751843849242751
841.0,0.0047174015050434025
840.0,0.004646190337242825
839.0,0.004537018946397062
838.0,0.004404034925107547
837.0,0.004274091881731484
836.0,0.004161466703030334
835.0,0.004057689974086516
834.0,0.003952853589607015
833.0,0.0038528783267484865
832.0,0.0037670670863107145
831.0,0.0036945847441758987
830.0,0.003637813743252838
829.0,0.0036162587009603182
828.0,0.0036465448531669727
827.0,0.0037101793261075655
826.0,0.0037605694452724735
825.0,0.003769900417481889
824.0,0.003756700275513704
823.0,0.00376083062857507
822.0,0.0037994896748947335
821.0,0.003852296837851533
820.0,0.00388584007334479
819.0,0.003889829669201119
818.0,0.003888926098908157
817.0,0.00391596236220431
816.0,0.003974865004259951
815.0,0.004037757753452165
814.0,0.0040784843941199765
813.0,0.0040975592390341785
812.0,0.004110389336348514
811.0,0.004126200821425185
810.0,0.0041478840567377925
809.0,0.004180264530585891
808.0,0.004226889728638366
807.0,0.0042847011232254074
806.0,0.004349902535619853
805.0,0.0044228245397228624
804.0,0.004501009897337795
803.0,0.004575090203953646
802.0,0.004637133860557228
801.0,0.00468525174997857
800.0,0.004717486688965371
799.0,0.004734229040190396
798.0,0.004750488506960714
797.0,0.004788709481345164
796.0,0.004851182157993916
795.0,0.004915286399851431
794.0,0.004964623652512545
793.0,0.005007701295992994
792.0,0.005055493579130078
791.0,0.005101160685162545
790.0,0.005138909544992371
789.0,0.0051856314885335465
788.0,0.0052628501884824305
787.0,0.00536751501569515
786.0,0.00547908537132253
785.0,0.0055879786894416465
784.0,0.005700667309988968
783.0,0.005824320530339697
782.0,0.005964022423441261
781.0,0.006129520361320799
780.0,0.006329234357902433
779.0,0.006562414035153643
778.0,0.00682857942602744
777.0,0.00713554411445232
776.0,0.007484988988268243
775.0,0.00786247547256743
774.0,0.008260361772245563
773.0,0.008699920818676474
772.0,0.00920796655152352
771.0,0.009777690589077133
770.0,0.010374913666613812
769.0,0.010978191613823626
768.0,0.011588420968066119
767.0,0.012201139906368574
766.0,0.012796010862852893
765.0,0.013359809831614344
764.0,0.013904409942629429
763.0,0.01446175248248547
762.0,0.015068624975292856
761.0,0.01574246322688145
760.0,0.016454828305484517
759.0,0.01713640113135652
758.0,0.017721879584319304
757.0,0.018182477053169263
756.0,0.018513027640129943
755.0,0.018715792722526763
754.0,0.0188111563484724
753.0,0.018837423648132623
752.0,0.018825775055210332
751.0,0.018800921209791058
750.0,0.01880584732122216
749.0,0.01887531260691977
748.0,0.018960853463272864
747.0,0.018919899572798583
746.0,0.018613214663822646
745.0,0.018000165369433843
744.0,0.017132881485539826
743.0,0.01610120385800403
742.0,0.015008439262452863
741.0,0.013956477784781457
740.0,0.013008013228765401
739.0,0.01216481652904414
738.0,0.011394319442170842
737.0,0.010667851364309332
736.0,0.009970146634350897
735.0,0.009294788755356713
734.0,0.008647090041955855
733.0,0.008042311467994497
732.0,0.007493777388067724
731.0,0.007012724104615328
730.0,0.006619601128819472
729.0,0.006333978489737418
728.0,0.006142991329164363
727.0,0.0059960371953519664
726.0,0.005845165530199713
725.0,0.005681210076448534
724.0,0.005521150115357691
723.0,0.005376090800122177
722.0,0.005246561373889208
721.0,0.005137621030625223
720.0,0.005061261605191204
719.0,0.005028346940074688
718.0,0.005052192336550083
717.0,0.005153307752454778
716.0,0.005343625217239415
715.0,0.005602581546522149
714.0,0.005876910522937068
713.0,0.006114566383200383
712.0,0.006308919948315634
711.0,0.0065280676254659
710.0,0.006910797193462263
709.0,0.007615053752566093
708.0,0.008749757254468332
707.0,0.010348621785488784
706.0,0.012404154048219377
705.0,0.01491736363041702
704.0,0.01790375001097043
703.0,0.02136361608942488
702.0,0.025273689801459526
701.0,0.029598871916508
700.0,0.03427988300989526
699.0,0.03920456581789292
698.0,0.044179502802661696
697.0,0.04884622023692023
696.0,0.05255674624554568
695.0,0.05445152708167572
694.0,0.05390936854258131
693.0,0.05101598563233471
692.0,0.04651914938792023
691.0,0.04135838363298599
690.0,0.03628219741102749
689.0,0.03174432990255542
688.0,0.027934507726639003
687.0,0.024845746771298423
686.0,0.02237203629580052
685.0,0.02038567589885009
684.0,0.018760265982526864
683.0,0.017387836031307773
682.0,0.01620784421056
681.0,0.015200755959349027
680.0,0.014348413363353369
679.0,0.013623220829994911
678.0,0.013010019609873837
677.0,0.012494125001279752
676.0,0.012030048222323998
675.0,0.011572120503058645
674.0,0.011140146572948262
673.0,0.01079856680088108
672.0,0.010560203551600825
671.0,0.010353939986381937
670.0,0.010091095917350502
669.0,0.009711896754767895
668.0,0.009301700362626827
667.0,0.009066410570702284
666.0,0.00896172903254144
665.0,0.008809109306478845
664.0,0.008578149800292124
663.0,0.008292426226308693
662.0,0.007990689663799726
661.0,0.007727049206877997
660.0,0.007512578603209807
659.0,0.007302939859411155
658.0,0.007064932289494889
657.0,0.006823651602505115
656.0,0.00662081008069346
655.0,0.0064676030614384365
654.0,0.006356919116630253
653.0,0.0062888661207141094
652.0,0.0062501766981109645
651.0,0.006191824833327825
650.0,0.006068557088981734
649.0,0.005887975825519528
648.0,0.005692952193708092
647.0,0.005516356022223098
646.0,0.005374474103513428
645.0,0.005279579174954058
644.0,0.005234005213167296
643.0,0.0052233213689958195
642.0,0.005228793822839674
641.0,0.005233807754726996
640.0,0.0052116584773476415
639.0,0.005136958920854726
638.0,0.005028300921292483
637.0,0.004947410225145145
636.0,0.0049354044571389075
635.0,0.004974636226065081
634.0,0.005024556214231004
633.0,0.005063658421392132
632.0,0.0050775445018259105
631.0,0.0050511540259033615
630.0,0.00500504267883185
629.0,0.00499661244002297
628.0,0.005054547833392233
627.0,0.005142059860899162
626.0,0.0052032665747552415
625.0,0.005212425571680342
624.0,0.005157273046044845
623.0,0.0050316899509641674
622.0,0.004882730578857252
621.0,0.004798464752181274
620.0,0.004796103667728334
619.0,0.0047708402074465965
618.0,0.004621124321980662
617.0,0.004392719504087598
616.0,0.004216123461795826
615.0,0.004135172344320797
614.0,0.004088067161923604
613.0,0.004021065182014269
612.0,0.00393865783992391
611.0,0.003865010793782906
610.0,0.003813429926570709
609.0,0.0037884575567844747
608.0,0.003785631670999736
607.0,0.0037936634298344103
606.0,0.003817287672240037
605.0,0.0038699484218049293
604.0,0.003921653641953186
603.0,0.003907156127784257
602.0,0.003818503112778416
601.0,0.0037333667600819957
600.0,0.0037208405600019784
