cm-1,A
4000.0,0.0044920787773950754
3999.0,0.004515311811015605
3998.0,0.004534435030883291
3997.0,0.004561387460756372
3996.0,0.004583621272520062
3995.0,0.004580711359244035
3994.0,0.004544881675976562
3993.0,0.004489241010176299
3992.0,0.00443538111406994
3991.0,0.004401112037819514
3990.0,0.004396736634153757
3989.0,0.004425472018276861
3988.0,0.004486588229639788
3987.0,0.004569517133959242
3986.0,0.004653976797219137
3985.0,0.004720571409103142
3984.0,0.004762659124779788
3983.0,0.0047916923213303375
3982.0,0.004826155832123674
3981.0,0.004872133207629362
3980.0,0.004913585747291442
3979.0,0.004925443154727108
3978.0,0.004890554731552933
3977.0,0.004808888457187058
3976.0,0.004703520469173501
3975.0,0.004613023885918185
3974.0,0.004576422221650956
3973.0,0.004612986009991132
3972.0,0.004713639579186002
3971.0,0.004844605523834894
3970.0,0.004960232107346635
3969.0,0.005022734790228276
3968.0,0.005009459273842488
3967.0,0.004919531096687021
3966.0,0.004777646690343567
3965.0,0.004636627116003898
3964.0,0.004567262742262018
3963.0,0.004612385193218729
3962.0,0.004747726825633028
3961.0,0.00489832623828928
3960.0,0.005005484714839584
3959.0,0.00507491722384895
3958.0,0.005129816286865771
3957.0,0.005171399315923074
3956.0,0.005181326544425741
3955.0,0.005138699771542583
3954.0,0.005038733344629119
3953.0,0.004899477833922201
3952.0,0.004754174789377558
3951.0,0.0046423556372543525
3950.0,0.004602324348242629
3949.0,0.004640269009371985
3948.0,0.0047023005224515815
3947.0,0.004718313340099572
3946.0,0.004686173242488285
3945.0,0.004641120490117825
3944.0,0.004611501132564576
3943.0,0.00461683538506895
3942.0,0.0046315504985153695
3941.0,0.004652183721869256
3940.0,0.004759355333701481
3939.0,0.0049829047879422425
3938.0,0.005207717387418678
3937.0,0.005298246790718806
3936.0,0.005228301440781407
3935.0,0.005071224967168952
3934.0,0.004918062278356646
3933.0,0.004835518013866122
3932.0,0.004848961365565899
3931.0,0.004905295134558061
3930.0,0.004947929637594583
3929.0,0.00497314608700271
3928.0,0.004962830442647927
3927.0,0.00489463885161508
3926.0,0.004790400935930604
3925.0,0.00473222528169915
3924.0,0.004768232417998402
3923.0,0.00487564843358196
3922.0,0.005042525362735402
3921.0,0.005186649066729557
3920.0,0.005210547644534607
3919.0,0.005192661477268667
3918.0,0.005278429874447663
3917.0,0.005454473581420854
3916.0,0.005579936041393554
3915.0,0.005640364964426589
3914.0,0.0057662727044592785
3913.0,0.005992213992128022
3912.0,0.006205194304917354
3911.0,0.006298884457665107
3910.0,0.006213509730559829
3909.0,0.005944201942302871
3908.0,0.005520601851199663
3907.0,0.005041675691188675
3906.0,0.004669307054907888
3905.0,0.004532422046298001
3904.0,0.0045173848483199015
3903.0,0.004349030920535868
3902.0,0.004080878849251042
3901.0,0.004037701667709217
3900.0,0.004292027776390695
3899.0,0.004601469331916776
3898.0,0.004805039862057395
3897.0,0.004988455129733076
3896.0,0.005187208672150457
3895.0,0.0052543590252568575
3894.0,0.005148133828279507
3893.0,0.005116060193281072
3892.0,0.005355387337400078
3891.0,0.005535654203647827
3890.0,0.0052854141390839115
3889.0,0.004978592678894231
3888.0,0.005019693144169108
3887.0,0.005250865719262662
3886.0,0.005419685343161942
3885.0,0.005345621600215145
3884.0,0.004979894892236995
3883.0,0.004732231264030792
3882.0,0.004854091106788775
3881.0,0.005148895499810673
3880.0,0.005310549351203047
3879.0,0.005143321651018063
3878.0,0.004944336401535861
3877.0,0.0050365503107786345
3876.0,0.00518890246901179
3875.0,0.005118018479388732
3874.0,0.004844941319838501
3873.0,0.004515964369547543
3872.0,0.0043613537370744415
3871.0,0.004527480021182157
3870.0,0.004804577830112282
3869.0,0.004751696239684789
3868.0,0.004456063296499498
3867.0,0.0045160947708658625
3866.0,0.004875563828630932
3865.0,0.005131801234268265
3864.0,0.005339422609328568
3863.0,0.005535152344433027
3862.0,0.005593773193152287
3861.0,0.005509755846604979
3860.0,0.005282663553636758
3859.0,0.0049533695550703395
3858.0,0.004577484288004596
3857.0,0.004194573763582718
3856.0,0.0038611975864087083
3855.0,0.0038034445960570453
3854.0,0.004485368426423995
3853.0,0.005286256859747221
3852.0,0.004870161959683008
3851.0,0.0043671070735911595
3850.0,0.004932404289141965
3849.0,0.005758238115268641
3848.0,0.00609936327648598
3847.0,0.006024113161082459
3846.0,0.005790389857873697
3845.0,0.005508943886663455
3844.0,0.0051852306666722876
3843.0,0.004764538727459012
3842.0,0.004246346811530577
3841.0,0.0038400193132786635
3840.0,0.0038229187231312925
3839.0,0.004260385668774569
3838.0,0.004769112535863249
3837.0,0.0049228950422145566
3836.0,0.004830133322194294
3835.0,0.004877254572942798
3834.0,0.005172436381330241
3833.0,0.005554372380495888
3832.0,0.005816916187065651
3831.0,0.005842828111091783
3830.0,0.005714420078788885
3829.0,0.005642443684208442
3828.0,0.005724195391916934
3827.0,0.005843112467784472
3826.0,0.00577330234231729
3825.0,0.005457133741614649
3824.0,0.005090366636247363
3823.0,0.00478749449395708
3822.0,0.004609241098470631
3821.0,0.004643950168948101
3820.0,0.004455924652190066
3819.0,0.004218121136436595
3818.0,0.004673118043687001
3817.0,0.005536382074279297
3816.0,0.006064375068436403
3815.0,0.00592989884544636
3814.0,0.005599099868419808
3813.0,0.005756848104179193
3812.0,0.006186260317147483
3811.0,0.006282450486736568
3810.0,0.006038557240191337
3809.0,0.005852013422316562
3808.0,0.005961456064744183
3807.0,0.006140781034562568
3806.0,0.005918088222377282
3805.0,0.0054158094532297234
3804.0,0.005172450455419199
3803.0,0.005214509150006295
3802.0,0.0054163086786570645
3801.0,0.005500864469580034
3800.0,0.00509179148249885
3799.0,0.004854518717319196
3798.0,0.0052949177868346145
3797.0,0.005896656007820406
3796.0,0.006167618359657227
3795.0,0.006116648309331641
3794.0,0.006095303127292263
3793.0,0.006295494491828625
3792.0,0.006540119763718084
3791.0,0.006640164734010318
3790.0,0.006608651999402151
3789.0,0.006506945732915314
3788.0,0.006355294039094314
3787.0,0.006193069486901905
3786.0,0.00609505020250151
3785.0,0.006054870363653797
3784.0,0.005956016157019826
3783.0,0.005766193910860343
3782.0,0.005624126392291822
3781.0,0.005647526205861479
3780.0,0.005860066774839278
3779.0,0.0061556000853253655
3778.0,0.006324735054646161
3777.0,0.006399548701450137
3776.0,0.006507093615365072
3775.0,0.006523523169905827
3774.0,0.006303170405456202
3773.0,0.005954470492599546
3772.0,0.005721192308125145
3771.0,0.005736242024501041
3770.0,0.005891969644522609
3769.0,0.00593441008922777
3768.0,0.005847413599466351
3767.0,0.00585325662346982
3766.0,0.005962049564970146
3765.0,0.005979549266653906
3764.0,0.0058249549277972126
3763.0,0.005663361740943991
3762.0,0.0056063974188006495
3761.0,0.005510800425508958
3760.0,0.005337339542176687
3759.0,0.0052288876213012325
3758.0,0.005171822708629597
3757.0,0.005081623406663082
3756.0,0.005005615861069308
3755.0,0.004981564210206863
3754.0,0.004885599980462637
3753.0,0.004579199178102839
3752.0,0.004327801333460227
3751.0,0.004520826359741523
3750.0,0.004653970366164495
3749.0,0.004235328354850404
3748.0,0.0038121340116631357
3747.0,0.003960945725336815
3746.0,0.004657039965646908
3745.0,0.005568978966692168
3744.0,0.005885141208284678
3743.0,0.005164908810016831
3742.0,0.004608469432570091
3741.0,0.004877911149199757
3740.0,0.005097264857847207
3739.0,0.0047846075945653255
3738.0,0.004302661027460674
3737.0,0.004125625322230967
3736.0,0.004377320409690966
3735.0,0.004621021663158611
3734.0,0.004488177584028238
3733.0,0.00440345204591318
3732.0,0.004697485891368801
3731.0,0.005101508985949785
3730.0,0.005405864551949755
3729.0,0.005605963604917859
3728.0,0.0056397517001185934
3727.0,0.005488525832478195
3726.0,0.005310293690722296
3725.0,0.0052600674886167115
3724.0,0.005363569943923454
3723.0,0.005486893142314276
3722.0,0.005494326578100374
3721.0,0.005436641715023453
3720.0,0.00548956772950405
3719.0,0.005728150881734015
3718.0,0.005996385274584907
3717.0,0.006070092527192036
3716.0,0.005889758637665006
3715.0,0.005543382909837163
3714.0,0.0051101801126157646
3713.0,0.004750694609536433
3712.0,0.0048199396587173746
3711.0,0.005259725490744821
3710.0,0.0055315128369736975
3709.0,0.005662411893789876
3708.0,0.005952529683257076
3707.0,0.006331520117507193
3706.0,0.006600972381734644
3705.0,0.006714111849862639
3704.0,0.006750498142893904
3703.0,0.0068035356575058825
3702.0,0.006905511053073951
3701.0,0.006945714914134465
3700.0,0.006877204094009274
3699.0,0.006882672444991441
3698.0,0.007053125825623029
3697.0,0.007222995870111855
3696.0,0.0072274849325871145
3695.0,0.007065674885308154
3694.0,0.0067798679135632305
3693.0,0.006330934037112946
3692.0,0.005753836639444005
3691.0,0.005420402386649549
3690.0,0.005762013169471314
3689.0,0.006452722960931705
3688.0,0.006721157179229069
3687.0,0.006661815572624125
3686.0,0.0068601655546819875
3685.0,0.007349187051558981
3684.0,0.007732806889945569
3683.0,0.007782758273076755
3682.0,0.007573249235926895
3681.0,0.007231466901794242
3680.0,0.006751765727446343
3679.0,0.00613804958522665
3678.0,0.00563610358879948
3677.0,0.0056175245842401186
3676.0,0.0062741822883232885
3675.0,0.00676379829467111
3674.0,0.006345835930347616
3673.0,0.00608356322151468
3672.0,0.006540548236224542
3671.0,0.00714036953089028
3670.0,0.0077153963948720355
3669.0,0.008000845250182841
3668.0,0.007953475432693074
3667.0,0.008203512935533641
3666.0,0.008773004411891171
3665.0,0.009234355313425101
3664.0,0.009466894308470359
3663.0,0.009575567452636066
3662.0,0.009632078267254037
3661.0,0.00962503817971978
3660.0,0.009570560252206343
3659.0,0.00955767100454396
3658.0,0.009680942732554355
3657.0,0.009931761924388409
3656.0,0.01010296498617717
3655.0,0.009966002678531052
3654.0,0.009697539909628227
3653.0,0.009427061625944384
3652.0,0.008864977628068375
3651.0,0.008035303526217483
3650.0,0.007957012632225448
3649.0,0.008901735435133243
3648.0,0.009464551664243273
3647.0,0.0094820046857029
3646.0,0.009770871649785146
3645.0,0.010439334150119507
3644.0,0.011197627834479425
3643.0,0.01179275774347742
3642.0,0.012166691375725316
3641.0,0.012383024371173688
3640.0,0.012534198202315876
3639.0,0.01268046561548554
3638.0,0.012810367443377824
3637.0,0.012917482112657603
3636.0,0.013064241554314703
3635.0,0.01326253978002253
3634.0,0.013413647312568125
3633.0,0.013416081100223992
3632.0,0.013322146399472774
3631.0,0.013227821948239783
3630.0,0.013350496279048128
3629.0,0.013981334702992124
3628.0,0.014452887215944829
3627.0,0.014411156489862856
3626.0,0.014753991380093985
3625.0,0.015487823351532141
3624.0,0.015925851401620634
3623.0,0.015914033081436126
3622.0,0.01571829625439818
3621.0,0.01564262373780967
3620.0,0.01583959538640293
3619.0,0.016127675339319723
3618.0,0.016108537073859945
3617.0,0.01587298241865282
3616.0,0.0158224341006239
3615.0,0.016030457573075706
3614.0,0.016345857102685
3613.0,0.016610748020613793
3612.0,0.01676207061340749
3611.0,0.016937993627364163
3610.0,0.017302310304373573
3609.0,0.017844871674325236
3608.0,0.01842197682754121
3607.0,0.018855649626251445
3606.0,0.019163697673146
3605.0,0.019493639984714463
3604.0,0.019814375907005036
3603.0,0.020017783977731535
3602.0,0.020128925982004057
3601.0,0.020239864319777385
3600.0,0.020369946961483455
3599.0,0.02050250510697359
3598.0,0.02065924844057838
3597.0,0.020849509196778398
3596.0,0.021073839522278082
3595.0,0.021331638303026455
3594.0,0.021579946354133635
3593.0,0.02176183853210753
3592.0,0.02188604380726227
3591.0,0.021947393841630466
3590.0,0.021912704925064096
3589.0,0.021902805993435814
3588.0,0.02220572597860987
3587.0,0.022668596545988327
3586.0,0.022858302154054048
3585.0,0.022981197260181455
3584.0,0.02336468156517065
3583.0,0.023880562198667295
3582.0,0.024331416911775317
3581.0,0.024691235649560345
3580.0,0.025013589965775428
3579.0,0.025304230878244224
3578.0,0.025527807889013536
3577.0,0.02566056223221075
3576.0,0.025734467329777386
3575.0,0.025819123290102577
3574.0,0.025958172318219556
3573.0,0.026118524402074322
3572.0,0.026210033308414694
3571.0,0.0261405198639688
3570.0,0.025880763745198418
3569.0,0.0255493567354454
3568.0,0.025498790262467784
3567.0,0.025920257299868216
3566.0,0.02637463912845417
3565.0,0.02661516996791509
3564.0,0.026962600158834962
3563.0,0.02753118238131525
3562.0,0.028159288551701044
3561.0,0.028740911016281463
3560.0,0.029258419130569167
3559.0,0.029710459499485052
3558.0,0.03008106145123001
3557.0,0.030324486790165348
3556.0,0.030388268320917303
3555.0,0.030311260924537037
3554.0,0.03026338427137587
3553.0,0.03041819859070915
3552.0,0.030732908341574786
3551.0,0.031015886069427123
3550.0,0.03120386354862076
3549.0,0.03136730176088291
3548.0,0.03155798971230139
3547.0,0.03179303613798904
3546.0,0.03206688098404827
3545.0,0.032354051141321845
3544.0,0.03266394974014799
3543.0,0.03302119618682226
3542.0,0.03338538811242638
3541.0,0.033692103783360135
3540.0,0.033939056814088896
3539.0,0.034187806618957935
3538.0,0.03448456638975598
3537.0,0.03479665135678526
3536.0,0.035042883586817036
3535.0,0.035205715022534445
3534.0,0.03536501043121754
3533.0,0.03558754220188197
3532.0,0.03584301389896582
3531.0,0.03604726782541272
3530.0,0.03616177159290731
3529.0,0.036216050580761765
3528.0,0.03625508938485414
3527.0,0.03629698711794518
3526.0,0.03636218706997889
3525.0,0.03650681231416209
3524.0,0.036788925698147235
3523.0,0.03719095511960066
3522.0,0.037615138338782064
3521.0,0.03799363368423974
3520.0,0.038343862742393195
3519.0,0.03870622605500435
3518.0,0.03907925239360514
3517.0,0.03942075186093287
3516.0,0.039700415453256914
3515.0,0.03992587938232303
3514.0,0.04011179902485726
3513.0,0.0402488264075326
3512.0,0.0403271189635159
3511.0,0.04037785846354853
3510.0,0.04046613477436453
3509.0,0.04061602154155866
3508.0,0.0407881894320889
3507.0,0.04095357287063046
3506.0,0.04112540583745548
3505.0,0.041332017971768775
3504.0,0.04160740713507697
3503.0,0.04195060019801184
3502.0,0.04230903810138101
3501.0,0.042653151785280584
3500.0,0.04298866308086162
3499.0,0.043303384247392294
3498.0,0.04358064285602404
3497.0,0.043823881520465714
3496.0,0.04403760567836656
3495.0,0.04421707921619799
3494.0,0.04437240247562733
3493.0,0.04453571934046448
3492.0,0.04472816512799227
3491.0,0.04494273378216446
3490.0,0.04516964655885319
3489.0,0.045413395548611034
3488.0,0.04567074027085446
3487.0,0.04591404356550528
3486.0,0.04611680367315614
3485.0,0.046282652723314714
3484.0,0.04644130178875879
3483.0,0.04663414729059308
3482.0,0.046893109175298014
3481.0,0.04720134562626955
3480.0,0.04749365478341316
3479.0,0.047718151128809304
3478.0,0.04788215235016044
3477.0,0.04803831995466857
3476.0,0.04824289947525401
3475.0,0.04851506227975307
3474.0,0.0488290817283621
3473.0,0.04914592181695241
3472.0,0.049434876210336647
3471.0,0.04967390727941593
3470.0,0.04986551324661378
3469.0,0.05004805757750938
3468.0,0.05025862011441431
3467.0,0.05048763620471642
3466.0,0.050692937575141456
3465.0,0.05085165103080264
3464.0,0.05097354007775883
3463.0,0.051078569061423995
3462.0,0.051193340002050204
3461.0,0.051361545075290026
3460.0,0.05161921527636554
3459.0,0.05194925144356986
3458.0,0.05228823356355271
3457.0,0.052591171535576124
3456.0,0.05286358899788911
3455.0,0.05312054243314536
3454.0,0.05333890463309053
3453.0,0.05347314685612465
3452.0,0.053519365225929864
3451.0,0.0535409341872791
3450.0,0.05362129903047564
3449.0,0.05379135098881192
3448.0,0.054008694545115664
3447.0,0.05419955487715572
3446.0,0.05433098728925291
3445.0,0.05443989363556238
3444.0,0.05457302382099695
3443.0,0.054739951306548754
3442.0,0.054944788057829465
3441.0,0.05520304408361311
3440.0,0.05550983009343421
3439.0,0.055823852118261644
3438.0,0.0560936381384592
3437.0,0.05629900310424262
3436.0,0.05645857014850586
3435.0,0.05660389809359038
3434.0,0.056755771560267336
3433.0,0.05691253184655671
3432.0,0.057055878906020395
3431.0,0.05717510174923409
3430.0,0.057289329338208746
3429.0,0.05743034081501441
3428.0,0.05760692056537142
3427.0,0.057798315764920144
3426.0,0.057980858149662355
3425.0,0.05814614982441082
3424.0,0.05829231765042521
3423.0,0.05841608004496257
3422.0,0.05852179784247122
3421.0,0.058626831165811966
3420.0,0.058744249579074426
3419.0,0.058869936943571385
3418.0,0.05899538547572167
3417.0,0.059123950005552386
3416.0,0.059270571764847735
3415.0,0.0594443818689704
3414.0,0.059631110035442414
3413.0,0.059797565778810194
3412.0,0.059920529549680523
3411.0,0.06001208366941488
3410.0,0.06011122882929787
3409.0,0.06024509674072606
3408.0,0.06040148495780667
3407.0,0.06054725858744611
3406.0,0.06066665322760127
3405.0,0.06076797022912507
3404.0,0.06085095532073924
3403.0,0.06088942159603386
3402.0,0.06087122347352687
3401.0,0.06084664384479996
3400.0,0.06089761286238238
3399.0,0.06104571865678739
3398.0,0.06122010454949778
3397.0,0.061337607465603336
3396.0,0.06139862490923251
3395.0,0.06147241708728653
3394.0,0.061599964979805855
3393.0,0.06174639079744186
3392.0,0.06184745627500274
3391.0,0.061878335664906414
3390.0,0.06186973546969675
3389.0,0.06187441976013695
3388.0,0.061929660729790253
3387.0,0.06203444673668994
3386.0,0.06214749959707383
3385.0,0.06222333924146632
3384.0,0.06225822034548213
3383.0,0.062286118272410526
3382.0,0.06233053345079985
3381.0,0.06238221095418356
3380.0,0.0624292930351831
3379.0,0.06248509706456036
3378.0,0.06257123842779957
3377.0,0.06268195919329521
3376.0,0.06278043224096236
3375.0,0.06282999739039764
3374.0,0.06282719035450703
3373.0,0.062805692001428
3372.0,0.06280459772886839
3371.0,0.06283080274698509
3370.0,0.06285881072351808
3369.0,0.0628703724177523
3368.0,0.06287761466384952
3367.0,0.06289429199202135
3366.0,0.0629009862344449
3365.0,0.06286459144856658
3364.0,0.06278716852975101
3363.0,0.06271335426460528
3362.0,0.06268856514790387
3361.0,0.06272174601444903
3360.0,0.06278338248572861
3359.0,0.06282547554441753
3358.0,0.06281166559520406
3357.0,0.06275258728552052
3356.0,0.06271174493297187
3355.0,0.06274589606843352
3354.0,0.06283331068682013
3353.0,0.06288988754466472
3352.0,0.06286325461610485
3351.0,0.06278467484173174
3350.0,0.06271537108321433
3349.0,0.06267027793291655
3348.0,0.06262279398158378
3347.0,0.06256646158380227
3346.0,0.06253279766109612
3345.0,0.06254577867190889
3344.0,0.06258444818747923
3343.0,0.06260075466470597
3342.0,0.06256352570162634
3341.0,0.06247837469811242
3340.0,0.06237156833059858
3339.0,0.06226184886063792
3338.0,0.062153633227731445
3337.0,0.06205491769363887
3336.0,0.0619869613888404
3335.0,0.06196141232027562
3334.0,0.06195354002620708
3333.0,0.061918605601874496
3332.0,0.06183905454095415
3331.0,0.061741525260036595
3330.0,0.06166286173621058
3329.0,0.06161440757201736
3328.0,0.0615868074034978
3327.0,0.06157101713715964
3326.0,0.06155683688147209
3325.0,0.061525898408353194
3324.0,0.06146835807202093
3323.0,0.061396476672282776
3322.0,0.06132235968366016
3321.0,0.06123335671881726
3320.0,0.06111132880327412
3319.0,0.060967915797195654
3318.0,0.06083742440711422
3317.0,0.060735481016106846
3316.0,0.0606453978222852
3315.0,0.06054680040041156
3314.0,0.060439048757406966
3313.0,0.0603341183353297
3312.0,0.060244738593610014
3311.0,0.060184003019495336
3310.0,0.06015859831893751
3309.0,0.060152522775562434
3308.0,0.06013288827133577
3307.0,0.06008269473912552
3306.0,0.060014411587543295
3305.0,0.05994484407061319
3304.0,0.059873060268924264
3303.0,0.05979087650762763
3302.0,0.05970043933305638
3301.0,0.059611111078287204
3300.0,0.05952734167132698
3299.0,0.05944943076899145
3298.0,0.05937928653479288
3297.0,0.05931574737657562
3296.0,0.0592496307412175
3295.0,0.0591698423491759
3294.0,0.0590713585832663
3293.0,0.05895590223538705
3292.0,0.05883212973862214
3291.0,0.05871709953907943
3290.0,0.05862707378757871
3289.0,0.058558628129666696
3288.0,0.058487434010335175
3287.0,0.05839466879861493
3286.0,0.058286542728720886
3285.0,0.05817896361578158
3284.0,0.05807323191606016
3283.0,0.05795914667277692
3282.0,0.05783604850340126
3281.0,0.057716579165037876
3280.0,0.05760820893723526
3279.0,0.05750326156032213
3278.0,0.057391686684184415
3277.0,0.05727521991087069
3276.0,0.0571631533102034
3275.0,0.05705970031754804
3274.0,0.05696100127670499
3273.0,0.05686216927315105
3272.0,0.0567629110273972
3271.0,0.05666645881512964
3270.0,0.05657539132115439
3269.0,0.05648854523531994
3268.0,0.05640236337599481
3267.0,0.056315197591289466
3266.0,0.056227390053693295
3265.0,0.05613558759750532
3264.0,0.056033215816089055
3263.0,0.05591994083152719
3262.0,0.05580677418749044
3261.0,0.05570586957498306
3260.0,0.055613874582838056
3259.0,0.05551242609821256
3258.0,0.05538810763284504
3257.0,0.055243807567943906
3256.0,0.055087095606805435
3255.0,0.0549237807157062
3254.0,0.05477146621374735
3253.0,0.05466035439382953
3252.0,0.05459688115205982
3251.0,0.054533779969436244
3250.0,0.05440532650705886
3249.0,0.05420116950521919
3248.0,0.05398535754343065
3247.0,0.05382859883621265
3246.0,0.05373820306428096
3245.0,0.05366976236397557
3244.0,0.05359134820657248
3243.0,0.05350577002421643
3242.0,0.053414448103379565
3241.0,0.05329735201504112
3240.0,0.053139791763272964
3239.0,0.052953561590193925
3238.0,0.05275979225533281
3237.0,0.052569921981845485
3236.0,0.05239423372801573
3235.0,0.0522494264165614
3234.0,0.0521366541762518
3233.0,0.052025835418702406
3232.0,0.05188809435257563
3231.0,0.051738583148503686
3230.0,0.05162086536738536
3229.0,0.051545552294143086
3228.0,0.051469164151508304
3227.0,0.051345878223220426
3226.0,0.05118084886313655
3225.0,0.05101421815495984
3224.0,0.05086756116207374
3223.0,0.050727922681490165
3222.0,0.0505787278092924
3221.0,0.05042458898147641
3220.0,0.05027934392412849
3219.0,0.0501435789142792
3218.0,0.050007271064122345
3217.0,0.04986779374921428
3216.0,0.04973188411563743
3215.0,0.04960260929320293
3214.0,0.04947138872194852
3213.0,0.049324432582666125
3212.0,0.04915786300870381
3211.0,0.048985335528417384
3210.0,0.04882463153025569
3209.0,0.048669731903794915
3208.0,0.04848453770361159
3207.0,0.048242826628181426
3206.0,0.04797353675357951
3205.0,0.047746995216326
3204.0,0.04760829107464514
3203.0,0.047536002179739634
3202.0,0.04747499047190799
3201.0,0.047392232282273884
3200.0,0.0472835834733208
3199.0,0.047144902897507265
3198.0,0.04696837812643384
3197.0,0.04676846143912099
3196.0,0.04658303510994402
3195.0,0.046436176623088694
3194.0,0.04631239917933003
3193.0,0.04617420161597054
3192.0,0.04599674171550313
3191.0,0.045784358049340015
3190.0,0.04556322708409052
3189.0,0.04536036575899868
3188.0,0.04518277897198988
3187.0,0.045013550003735796
3186.0,0.04483292285760957
3185.0,0.044639330386356514
3184.0,0.044439252889239056
3183.0,0.04422428832517179
3182.0,0.04397880862638243
3181.0,0.043710584550147494
3180.0,0.04345438521166192
3179.0,0.04323889577402782
3178.0,0.04306165785863762
3177.0,0.042902966699748885
3176.0,0.042749492664780286
3175.0,0.04259262610400299
3174.0,0.04241970993072079
3173.0,0.04222691777374059
3172.0,0.042033322000204085
3171.0,0.04186351893114843
3170.0,0.04171727816657183
3169.0,0.04157002419726507
3168.0,0.0414051921618196
3167.0,0.04123408776007676
3166.0,0.04107973265685284
3165.0,0.04094887227894022
3164.0,0.04082411399251657
3163.0,0.040680943088482795
3162.0,0.040510255392291264
3161.0,0.040324838392047375
3160.0,0.04014511229250604
3159.0,0.039978543543468595
3158.0,0.03980986937586559
3157.0,0.0396086552811634
3156.0,0.03934934729364493
3155.0,0.03903350915810436
3154.0,0.0387009434764404
3153.0,0.03841636346893766
3152.0,0.03823151881716761
3151.0,0.0381482015517541
3150.0,0.038115877081982955
3149.0,0.03806719133036889
3148.0,0.037957248072953594
3147.0,0.03777718395500191
3146.0,0.037546787619278175
3145.0,0.03730391303570909
3144.0,0.03708947574858043
3143.0,0.03692134211659873
3142.0,0.036776923941709644
3141.0,0.03661485446327048
3140.0,0.03642265692638989
3139.0,0.0362352495139874
3138.0,0.036096981520818236
3137.0,0.03601067719060044
3136.0,0.03593406123655337
3135.0,0.03582304906183152
3134.0,0.035668613819457164
3133.0,0.03549076187323203
3132.0,0.03530871838607533
3131.0,0.03512999613434782
3130.0,0.03496299690538808
3129.0,0.034819402849392805
3128.0,0.03469400838094954
3127.0,0.034553810455561246
3126.0,0.03436675125757388
3125.0,0.03414197996142986
3124.0,0.033928224285120274
3123.0,0.03376710793178842
3122.0,0.033651289308370934
3121.0,0.03353592670566777
3120.0,0.033389557042181404
3119.0,0.03321984325664043
3118.0,0.03304872397979997
3117.0,0.03288130862101077
3116.0,0.032711477702672735
3115.0,0.032547280664509626
3114.0,0.03241045094585309
3113.0,0.032306883163329955
3112.0,0.03221401333033389
3111.0,0.03210614257121513
3110.0,0.0319792660505467
3109.0,0.031843129294623074
3108.0,0.03170182140280807
3107.0,0.031554016292145985
3106.0,0.031402968857249906
3105.0,0.03125125335130233
3104.0,0.031097061731141275
3103.0,0.030949930584904452
3102.0,0.0308334259815091
3101.0,0.030753785253633016
3100.0,0.030681228743523553
3099.0,0.030587826866760287
3098.0,0.030490407912884702
3097.0,0.030425025403296203
3096.0,0.030383995327637865
3095.0,0.030308540496004864
3094.0,0.03015608926461559
3093.0,0.02995183947599149
3092.0,0.02975721339397533
3091.0,0.029608428054880537
3090.0,0.029500860761871868
3089.0,0.029414502222264223
3088.0,0.029333466480338022
3087.0,0.029245282763061063
3086.0,0.029139710779041705
3085.0,0.029015908730518743
3084.0,0.028886255516310404
3083.0,0.028769831733801626
3082.0,0.028677970139206123
3081.0,0.02859944560213091
3080.0,0.028501078142678875
3079.0,0.028356290027760266
3078.0,0.028179918300369984
3077.0,0.028022055778066584
3076.0,0.027917888319134825
3075.0,0.02785217309366161
3074.0,0.027783205335915117
3073.0,0.02769192027842887
3072.0,0.02759029593123379
3071.0,0.027487535448906312
3070.0,0.02736907221370996
3069.0,0.027220031452306663
3068.0,0.027058869599137444
3067.0,0.02692801201368588
3066.0,0.02684759528337567
3065.0,0.02679111274570396
3064.0,0.026716753474214098
3063.0,0.02661605332765914
3062.0,0.026516379677602443
3061.0,0.026437837880872297
3060.0,0.026364257859501312
3059.0,0.026261447931474616
3058.0,0.026117333400047467
3057.0,0.02595467208704016
3056.0,0.025804215468865892
3055.0,0.025676891844377558
3054.0,0.025566167133583242
3053.0,0.02546824617634024
3052.0,0.025389176292324293
3051.0,0.025332614126948462
3050.0,0.025286485303352126
3049.0,0.02522408662780992
3048.0,0.025120490175712593
3047.0,0.024967729962387133
3046.0,0.024774600580342115
3045.0,0.024558650972790814
3044.0,0.024345914853569406
3043.0,0.024173515838153553
3042.0,0.0240751822096251
3041.0,0.02405082959716933
3040.0,0.024056038918229168
3039.0,0.0240371994543478
3038.0,0.023979945875164055
3037.0,0.02390885164003503
3036.0,0.023841063690248115
3035.0,0.02376107243221335
3034.0,0.023652137464625893
3033.0,0.02353562779824372
3032.0,0.023452210971597127
3031.0,0.023411887569414595
3030.0,0.023385862214996413
3029.0,0.023346613688252076
3028.0,0.023288475670386406
3027.0,0.023209361168520036
3026.0,0.023103045504409628
3025.0,0.02297712915507721
3024.0,0.022859152693723354
3023.0,0.022769809920913098
3022.0,0.022701823708647133
3021.0,0.022636438850817633
3020.0,0.022571693804045907
3019.0,0.02251988439266702
3018.0,0.022482626660506714
3017.0,0.02244293814383709
3016.0,0.02238411505449784
3015.0,0.022308825585052594
3014.0,0.02223751193423254
3013.0,0.02219334753169083
3012.0,0.022184051293377343
3011.0,0.02219217301575986
3010.0,0.022186914594317292
3009.0,0.022151321296871935
3008.0,0.02209768346487091
3007.0,0.022053168572817028
3006.0,0.02203600872149143
3005.0,0.022046665782244332
3004.0,0.022071005016412456
3003.0,0.022087227937416742
3002.0,0.02207799008513457
3001.0,0.0220488919370093
3000.0,0.022029949299545437
2999.0,0.022044297706612946
2998.0,0.02207964865185857
2997.0,0.02210498501478139
2996.0,0.022114038118770517
2995.0,0.02213259698886538
2994.0,0.02218233569966186
2993.0,0.02225864084716056
2992.0,0.022354205281261665
2991.0,0.02248657722988863
2990.0,0.02268432154105544
2989.0,0.02295068928456764
2988.0,0.023252042384280826
2987.0,0.023544752922497546
2986.0,0.02381375451252435
2985.0,0.024091152736283143
2984.0,0.024435064380483214
2983.0,0.02488336386918242
2982.0,0.025426985943197977
2981.0,0.026037323979231863
2980.0,0.026716650399448896
2979.0,0.02750222261335337
2978.0,0.028422901626338568
2977.0,0.02947747604093323
2976.0,0.03066939404965631
2975.0,0.032038714180813194
2974.0,0.03363642431010101
2973.0,0.03547997622329946
2972.0,0.03755756412050745
2971.0,0.03987091769446997
2970.0,0.04244871203672871
2969.0,0.04531718123207605
2968.0,0.04847021799946151
2967.0,0.05186227679488046
2966.0,0.05541476688114457
2965.0,0.05902420261401647
2964.0,0.06256247991298025
2963.0,0.06586005109895751
2962.0,0.06870221348511076
2961.0,0.07089811301546158
2960.0,0.07239833474926592
2959.0,0.07334233445216455
2958.0,0.07399422820848899
2957.0,0.07464437082259116
2956.0,0.07554983847490598
2955.0,0.07689351928405413
2954.0,0.07870591508039475
2953.0,0.08079651099978637
2952.0,0.08277274858515528
2951.0,0.08415234637113375
2950.0,0.084506344939977
2949.0,0.08356513063114929
2948.0,0.08128875044700513
2947.0,0.07787492554726987
2946.0,0.07370488539698254
2945.0,0.06925797222296139
2944.0,0.06500690292752974
2943.0,0.061324722971464296
2942.0,0.05843439765683161
2941.0,0.05641536555187287
2940.0,0.05524813666819016
2939.0,0.05486291049308828
2938.0,0.05517272929983244
2937.0,0.05609309596547856
2936.0,0.057559007633650947
2935.0,0.05953227302302983
2934.0,0.06198416304054105
2933.0,0.06487950213900846
2932.0,0.0681800027396641
2931.0,0.07184766866576628
2930.0,0.07582054706773869
2929.0,0.07998761466650994
2928.0,0.08421760834444592
2927.0,0.08841286570678461
2926.0,0.09253061273777674
2925.0,0.09657376511760309
2924.0,0.10057664237850168
2923.0,0.10456698078751898
2922.0,0.10850456128695854
2921.0,0.11223065857820248
2920.0,0.11547254126984242
2919.0,0.11788463921454381
2918.0,0.11910101695511051
2917.0,0.11883519303168263
2916.0,0.11701362668478962
2915.0,0.11384870528694284
2914.0,0.10977311256059229
2913.0,0.10530471317786924
2912.0,0.100903274112133
2911.0,0.0968701610914695
2910.0,0.0933327404617811
2909.0,0.09027855115571899
2908.0,0.08760711402445001
2907.0,0.08516749732927409
2906.0,0.08280450402011161
2905.0,0.08041131466842211
2904.0,0.07795438350843437
2903.0,0.07545604446315707
2902.0,0.07295209049378448
2901.0,0.07047195041296203
2900.0,0.06804031746737976
2899.0,0.06569206496399072
2898.0,0.06347330117101549
2897.0,0.061429589400111256
2896.0,0.05959588059677077
2895.0,0.05798822738564219
2894.0,0.05660720374260523
2893.0,0.05544706643071165
2892.0,0.05450000562998666
2891.0,0.053752048381408186
2890.0,0.053179848901951855
2889.0,0.05275537262363674
2888.0,0.05245503160742202
2887.0,0.052266767627993815
2886.0,0.05219067436961322
2885.0,0.05223492277951016
2884.0,0.05240812201026714
2883.0,0.052709509943187224
2882.0,0.05311943689216067
2881.0,0.05359098955315286
2880.0,0.05404796064680774
2879.0,0.05439124682255925
2878.0,0.05452714480942306
2877.0,0.05441378564161024
2876.0,0.05410012630588195
2875.0,0.053720621353213524
2874.0,0.053438400711515184
2873.0,0.053382543361782865
2872.0,0.053607132696732736
2871.0,0.05408527095268819
2870.0,0.05472078352655662
2869.0,0.05535554948788718
2868.0,0.05577528191803198
2867.0,0.05573965417446534
2866.0,0.055052363564630544
2865.0,0.05364631347939474
2864.0,0.051629649967764556
2863.0,0.04926108317301891
2862.0,0.046867215280489156
2861.0,0.044761971268627035
2860.0,0.043175147639832406
2859.0,0.04220986260658502
2858.0,0.04185584057237782
2857.0,0.04205183810462092
2856.0,0.042740566593013805
2855.0,0.04387356420566456
2854.0,0.04536611319139609
2853.0,0.04704387070270776
2852.0,0.04863952408177425
2851.0,0.049849219164283955
2850.0,0.050447682054926515
2849.0,0.050408753978534844
2848.0,0.0499390027715318
2847.0,0.04938972655612613
2846.0,0.049093928049023065
2845.0,0.049255972094739496
2844.0,0.04992694751099492
2843.0,0.0510253041531558
2842.0,0.052362326305797124
2841.0,0.053681014884164074
2840.0,0.054698946725773315
2839.0,0.05514172715541226
2838.0,0.054776459625427404
2837.0,0.05346490761031398
2836.0,0.05123045574858222
2835.0,0.04827071423994743
2834.0,0.04488791151672733
2833.0,0.04140352039486548
2832.0,0.038086498473455334
2831.0,0.035120390093472224
2830.0,0.03259125675380068
2829.0,0.03049694783512643
2828.0,0.028781491213772988
2827.0,0.027370979100213584
2826.0,0.026198222947023942
2825.0,0.02521448867706802
2824.0,0.024391796603350824
2823.0,0.023710086292868113
2822.0,0.023136223211559174
2821.0,0.02262281965914974
2820.0,0.022139143395576284
2819.0,0.02169325485435613
2818.0,0.021309462378685876
2817.0,0.02098662190011472
2816.0,0.02069721962237537
2815.0,0.020422190687241683
2814.0,0.02016294090125703
2813.0,0.019919154046542313
2812.0,0.019677156003995045
2811.0,0.01942927136847063
2810.0,0.0191867658898331
2809.0,0.018960168921824595
2808.0,0.01874051690507921
2807.0,0.018513112254036037
2806.0,0.018278332532422347
2805.0,0.018044706316400802
2804.0,0.017809934815410707
2803.0,0.017565673381777575
2802.0,0.01731918451161627
2801.0,0.017096963770002315
2800.0,0.016923746281097996
2799.0,0.01680189127567154
2798.0,0.01671063866667498
2797.0,0.016620851171167423
2796.0,0.016514436470783378
2795.0,0.01639358759945098
2794.0,0.016267207980747586
2793.0,0.016130171601054268
2792.0,0.015964620266422324
2791.0,0.015766408011181864
2790.0,0.015561170752783526
2789.0,0.015386594255552645
2788.0,0.015263706084020934
2787.0,0.015186283278579737
2786.0,0.015128237325854645
2785.0,0.015054527866711905
2784.0,0.01493768901511601
2783.0,0.014780071388893905
2782.0,0.014614822725680692
2781.0,0.01447485325227459
2780.0,0.014364466920156353
2779.0,0.014265739395761399
2778.0,0.014164222142726446
2777.0,0.014059855819223963
2776.0,0.013959388501679413
2775.0,0.013871627733802495
2774.0,0.013806995564706777
2773.0,0.013767542924558354
2772.0,0.013738568632673514
2771.0,0.01370112265468679
2770.0,0.013651942102716284
2769.0,0.013603113425799819
2768.0,0.013564275398506707
2767.0,0.013533842421222384
2766.0,0.013507307387967061
2765.0,0.013483642496751751
2764.0,0.013460098596093597
2763.0,0.013427809310116556
2762.0,0.013377095884284226
2761.0,0.013305229722294368
2760.0,0.013220301176796834
2759.0,0.013140968237268921
2758.0,0.013088486842716749
2757.0,0.013071434252794969
2756.0,0.013077048432109467
2755.0,0.01308119423566131
2754.0,0.013068859551746203
2753.0,0.013043870072692216
2752.0,0.013020322948015705
2751.0,0.013006464967469617
2750.0,0.012995605750028977
2749.0,0.012970036457284078
2748.0,0.012916753767986441
2747.0,0.01284397300499838
2746.0,0.012780075455586152
2745.0,0.012752672014671899
2744.0,0.012766604909956531
2743.0,0.012802375360764914
2742.0,0.012834071540166626
2741.0,0.012847040577710125
2740.0,0.012843059633124765
2739.0,0.012833464411525287
2738.0,0.012829213811990002
2737.0,0.01283822706946798
2736.0,0.012867853208172492
2735.0,0.012920295797339188
2734.0,0.012982093779907935
2733.0,0.013028596307306852
2732.0,0.013049252753383474
2731.0,0.013061380486435958
2730.0,0.01308759390467782
2729.0,0.01312612573043136
2728.0,0.013158275249479986
2727.0,0.013181718942301364
2726.0,0.013217371450313944
2725.0,0.013277990356412694
2724.0,0.013346036612702136
2723.0,0.013388370786045647
2722.0,0.013380465034882131
2721.0,0.01331386153320287
2720.0,0.013197697742583897
2719.0,0.01306170670280131
2718.0,0.01294192002299484
2717.0,0.012850722529007002
2716.0,0.012768625710300975
2715.0,0.012672008440462158
2714.0,0.012559863127257605
2713.0,0.012446757601611597
2712.0,0.01234253996552963
2711.0,0.012249378576034633
2710.0,0.012169348752240731
2709.0,0.012103062731564727
2708.0,0.012046706433750796
2707.0,0.011998180261486815
2706.0,0.011958983563076682
2705.0,0.011924811825065475
2704.0,0.01188521688901578
2703.0,0.011839787440357852
2702.0,0.011802400880490418
2701.0,0.011779307268853777
2700.0,0.011754560099800715
2699.0,0.011709983579641661
2698.0,0.011650063565235647
2697.0,0.011594600248862049
2696.0,0.011555673632037572
2695.0,0.011534470044336576
2694.0,0.011532027159309309
2693.0,0.011546637214934933
2692.0,0.011564134206834654
2691.0,0.011565029900776689
2690.0,0.011541611293924446
2689.0,0.011501599082671506
2688.0,0.011459546066970269
2687.0,0.011430759134163854
2686.0,0.011425987602384993
2685.0,0.011440457467882803
2684.0,0.011452598542052156
2683.0,0.011443579901883348
2682.0,0.011414534872395047
2681.0,0.011378675241892637
2680.0,0.011343171411827939
2679.0,0.011307505621305947
2678.0,0.011272642520623042
2677.0,0.011241359505957931
2676.0,0.011214039683932848
2675.0,0.011191784523379988
2674.0,0.011178494921394312
2673.0,0.011172714856530753
2672.0,0.011164008151808444
2671.0,0.011145821850678299
2670.0,0.01112636082878795
2669.0,0.011120475182776647
2668.0,0.011136625297569848
2667.0,0.011176360440674469
2666.0,0.011235470170336697
2665.0,0.011297627008558348
2664.0,0.01133842661828012
2663.0,0.011345873065692645
2662.0,0.011329436859173514
2661.0,0.011301861669181089
2660.0,0.011264439789231815
2659.0,0.011219531067289554
2658.0,0.011181490409851362
2657.0,0.011159996777469677
2656.0,0.011144101415393067
2655.0,0.011119564521418168
2654.0,0.01108982754988207
2653.0,0.011062527796488164
2652.0,0.011028127846789013
2651.0,0.010974439535080684
2650.0,0.010913963841564409
2649.0,0.010871618732312129
2648.0,0.010848924054235274
2647.0,0.01082350332033072
2646.0,0.010782697456275619
2645.0,0.010735595475275424
2644.0,0.010690509178767226
2643.0,0.010641517123000726
2642.0,0.010581794083332494
2641.0,0.010514727161746978
2640.0,0.010450277187929579
2639.0,0.01040280845121984
2638.0,0.010388150350411081
2637.0,0.010405421526561171
2636.0,0.010423825941708835
2635.0,0.010407303916832016
2634.0,0.010352600376662857
2633.0,0.01028646935142898
2632.0,0.010229076283536333
2631.0,0.010179113937786765
2630.0,0.010133172506751043
2629.0,0.010096451999536099
2628.0,0.01007106637007302
2627.0,0.0100527857626863
2626.0,0.010040921520456556
2625.0,0.010033949673186625
2624.0,0.010016942707947611
2623.0,0.009974672904684026
2622.0,0.00991795727005228
2621.0,0.00987461751565645
2620.0,0.009851213683394302
2619.0,0.009826146602347952
2618.0,0.009784471225378741
2617.0,0.009735856523947685
2616.0,0.009691816343783105
2615.0,0.009649441497219566
2614.0,0.0096094427786413
2613.0,0.009588592883475331
2612.0,0.00959742517874032
2611.0,0.009618684502659394
2610.0,0.009621371606913879
2609.0,0.0095882097141938
2608.0,0.009521997004926059
2607.0,0.009435569136704378
2606.0,0.009347226092757833
2605.0,0.009278690176437277
2604.0,0.009245529707329054
2603.0,0.009246384551832321
2602.0,0.009260077575589892
2601.0,0.009254102043221864
2600.0,0.009206641379109584
2599.0,0.009129224770737155
2598.0,0.009060659144619352
2597.0,0.009028139740035435
2596.0,0.009021995456254633
2595.0,0.009020369469324684
2594.0,0.009024712829244004
2593.0,0.00905001881699637
2592.0,0.0090909255175459
2591.0,0.009123517697176809
2590.0,0.009138592345367286
2589.0,0.009149221767768929
2588.0,0.009164760143215205
2587.0,0.009178803849210403
2586.0,0.009184053262251177
2585.0,0.00917899610446403
2584.0,0.009158794060977958
2583.0,0.009120258633951984
2582.0,0.00907751095786202
2581.0,0.009050872496768222
2580.0,0.00903503003630797
2579.0,0.008998474910686702
2578.0,0.008922732541698853
2577.0,0.008828020411331343
2576.0,0.008752793638623423
2575.0,0.008719001695548168
2574.0,0.008719658558273603
2573.0,0.008727325683795629
2572.0,0.008713245673998265
2571.0,0.008670534755524557
2570.0,0.008620441753837214
2569.0,0.008587027265861491
2568.0,0.008567875599069357
2567.0,0.008541040127168591
2566.0,0.008497223426575185
2565.0,0.008449484068003442
2564.0,0.00841197108237912
2563.0,0.008384175172326749
2562.0,0.008358567912594352
2561.0,0.008334358113013536
2560.0,0.008322980222854286
2559.0,0.008343456770593229
2558.0,0.00840326485232928
2557.0,0.00847509414217939
2556.0,0.008506131813961006
2555.0,0.008466818577441665
2554.0,0.008381339168269221
2553.0,0.00829668618932177
2552.0,0.008235016159683906
2551.0,0.008193445745750002
2550.0,0.008173809543083593
2549.0,0.008182473200018591
2548.0,0.008204187719448438
2547.0,0.008204181464193945
2546.0,0.008162719428820272
2545.0,0.008093941719585012
2544.0,0.008030328903646512
2543.0,0.007998338353049403
2542.0,0.008002993813728656
2541.0,0.008023170493865018
2540.0,0.008027286334405703
2539.0,0.008005005654249098
2538.0,0.007976184047807956
2537.0,0.007961327743676383
2536.0,0.00795816883427311
2535.0,0.00795785483965547
2534.0,0.00796318217177126
2533.0,0.007973673646576357
2532.0,0.007975121820650003
2531.0,0.007966246955818938
2530.0,0.007973176490658164
2529.0,0.008009625467682736
2528.0,0.00804400567780177
2527.0,0.008039936389051958
2526.0,0.008012068742031054
2525.0,0.008003936951505008
2524.0,0.008022470219524116
2523.0,0.008033703417046548
2522.0,0.008017122424850705
2521.0,0.007986205415891574
2520.0,0.007956086732135685
2519.0,0.007926079377121205
2518.0,0.007897402250364732
2517.0,0.007878497939867436
2516.0,0.007870254208840674
2515.0,0.007870453611301273
2514.0,0.007888183164791892
2513.0,0.007925415764564575
2512.0,0.007950985230605659
2511.0,0.007927978677995329
2510.0,0.007867364783445711
2509.0,0.007821382176667538
2508.0,0.007819997781835203
2507.0,0.007844997736608463
2506.0,0.007870140785913438
2505.0,0.007892345730247566
2504.0,0.007912474989584117
2503.0,0.00791529576162729
2502.0,0.007885438624127836
2501.0,0.00782722021735411
2500.0,0.007760270157442864
2499.0,0.007708088307207549
2498.0,0.007689877242248729
2497.0,0.00770357180575351
2496.0,0.007715364910638553
2495.0,0.007686795930227195
2494.0,0.007616957144107019
2493.0,0.0075438804463382
2492.0,0.007504686799991523
2491.0,0.0075072180303063125
2490.0,0.007533539240870538
2489.0,0.0075530627745851505
2488.0,0.0075410780403780756
2487.0,0.007506192510368626
2486.0,0.007491572555155762
2485.0,0.007526500131628533
2484.0,0.007585026491172932
2483.0,0.0076155588907896865
2482.0,0.00759971788320744
2481.0,0.007555958367113966
2480.0,0.007500367804420274
2479.0,0.007440176659160797
2478.0,0.007396233303493083
2477.0,0.007388185894947448
2476.0,0.00739491875817681
2475.0,0.00736981845511731
2474.0,0.0073042358795206794
2473.0,0.007243868167879171
2472.0,0.007234346437623714
2471.0,0.0072774821547898425
2470.0,0.007343354678218754
2469.0,0.0073944374721353415
2468.0,0.007396098886289261
2467.0,0.007340142129816481
2466.0,0.007268697734101872
2465.0,0.007243313623203726
2464.0,0.0072768251717262485
2463.0,0.007320919788111396
2462.0,0.007328661423510623
2461.0,0.0073011231382654335
2460.0,0.007265026266493746
2459.0,0.007237554642152229
2458.0,0.007229084385545651
2457.0,0.007250587867352776
2456.0,0.007295086076764748
2455.0,0.0073302282202422735
2454.0,0.0073284700268113415
2453.0,0.007293656469787009
2452.0,0.007249105206245457
2451.0,0.0072152257749807935
2450.0,0.007205711371366066
2449.0,0.007223922862519274
2448.0,0.007250257671715091
2447.0,0.007251805757033778
2446.0,0.007218207081845191
2445.0,0.007174356503029418
2444.0,0.007148821145955836
2443.0,0.007145058713079341
2442.0,0.007152237298617407
2441.0,0.007166535825399724
2440.0,0.0071886361144051555
2439.0,0.007213193196586438
2438.0,0.007233568483095722
2437.0,0.007249598121807985
2436.0,0.007263649864175768
2435.0,0.007275923016056691
2434.0,0.007285886019949051
2433.0,0.0072894287578384905
2432.0,0.007275749051031899
2431.0,0.00724020681692665
2430.0,0.0071993603860222265
2429.0,0.007176885907002346
2428.0,0.007172257068066309
2427.0,0.007159481524152009
2426.0,0.007121722154345984
2425.0,0.0070747700579033655
2424.0,0.007052662125204511
2423.0,0.007078228444021157
2422.0,0.007144098949601789
2421.0,0.007209743027217512
2420.0,0.007223697744100782
2419.0,0.007168905076354745
2418.0,0.007086718003732992
2417.0,0.007041006930746333
2416.0,0.0070582321802555754
2415.0,0.007114391607056687
2414.0,0.007172513505228448
2413.0,0.0072097294052464855
2412.0,0.007211411421280563
2411.0,0.0071689268708090385
2410.0,0.007094616802424437
2409.0,0.007021077757724814
2408.0,0.006974602693373884
2407.0,0.006958276906974018
2406.0,0.006961258143875968
2405.0,0.006969074636357667
2404.0,0.006964667153440478
2403.0,0.006938330765075376
2402.0,0.006902489613700406
2401.0,0.00688305871925525
2400.0,0.0068913574692615505
2399.0,0.006915385672209777
2398.0,0.006939752051309329
2397.0,0.006960869474796957
2396.0,0.006980852945514461
2395.0,0.006998761979129367
2394.0,0.007009917166120856
2393.0,0.00700566800829891
2392.0,0.006977703242724811
2391.0,0.006933380887163524
2390.0,0.006899197774748605
2389.0,0.006892537672138941
2388.0,0.006896447152879915
2387.0,0.006884222979015706
2386.0,0.0068661877372703725
2385.0,0.0068867357076142464
2384.0,0.00696716774971823
2383.0,0.007069188333092445
2382.0,0.00712730053103215
2381.0,0.007108899250495269
2380.0,0.007035014381145918
2379.0,0.006950546096435601
2378.0,0.006886169852861905
2377.0,0.006846789839206089
2376.0,0.006824816728907529
2375.0,0.0068192373249678015
2374.0,0.006836791739918387
2373.0,0.006857807309388496
2372.0,0.006824452580784204
2371.0,0.006705324752281245
2370.0,0.006579320601152055
2369.0,0.006597917468583797
2368.0,0.006830680697367088
2367.0,0.00717694848016345
2366.0,0.007456722985424432
2365.0,0.007546555052980635
2364.0,0.007431120077733631
2363.0,0.007201312795759968
2362.0,0.007033662487370288
2361.0,0.007052235270386746
2360.0,0.007183887129480855
2359.0,0.007300949824529293
2358.0,0.007413993624558178
2357.0,0.007600160314310411
2356.0,0.007835737225167434
2355.0,0.00800885932670477
2354.0,0.008127634194946724
2353.0,0.008271991295633536
2352.0,0.008429007342141573
2351.0,0.008475647617832174
2350.0,0.008317623815074898
2349.0,0.008028747915770398
2348.0,0.0077557263149470035
2347.0,0.007622573741208772
2346.0,0.007675773701165978
2345.0,0.007820358549245043
2344.0,0.00789252483285689
2343.0,0.007759677025810003
2342.0,0.007507980990587011
2341.0,0.007291089799059139
2340.0,0.007192568087773937
2339.0,0.007241416145341038
2338.0,0.007422404184934913
2337.0,0.007691647700538958
2336.0,0.007926985049819145
2335.0,0.008050838684659663
2334.0,0.008076494184621514
2333.0,0.008112850999285794
2332.0,0.008188385889332692
2331.0,0.008273468323585215
2330.0,0.0083058693019054
2329.0,0.008371960685893694
2328.0,0.008534752231346603
2327.0,0.008794173533849843
2326.0,0.009037924392650514
2325.0,0.009145172919876526
2324.0,0.009086553740058248
2323.0,0.008921227202341094
2322.0,0.008771045630882929
2321.0,0.008693738254434737
2320.0,0.008657949102421243
2319.0,0.008613296636815749
2318.0,0.008521081928922368
2317.0,0.00840109819031388
2316.0,0.008259809286906252
2315.0,0.008147432068713512
2314.0,0.008083355967837075
2313.0,0.00809017276564061
2312.0,0.008125193092299548
2311.0,0.00817234507742146
2310.0,0.008210469639367744
2309.0,0.008243092904599248
2308.0,0.008242220813747548
2307.0,0.008209312565423715
2306.0,0.008154556699177343
2305.0,0.008100437075884816
2304.0,0.008042713433696882
2303.0,0.00799735467031799
2302.0,0.007981608839252597
2301.0,0.00799970830649091
2300.0,0.008004118738316671
2299.0,0.007974234168216989
2298.0,0.00793416546867793
2297.0,0.007929972199287396
2296.0,0.007953644326946884
2295.0,0.007980723180021208
2294.0,0.008011157297936599
2293.0,0.008065124372498182
2292.0,0.00812648686351408
2291.0,0.008154124794829642
2290.0,0.008137268479474286
2289.0,0.008101556015780009
2288.0,0.008064538426901878
2287.0,0.008015349974162032
2286.0,0.007950386207106655
2285.0,0.007881738603297767
2284.0,0.007813901575170725
2283.0,0.007734642199559267
2282.0,0.007645231788654913
2281.0,0.0075662894748778926
2280.0,0.007512672449212636
2279.0,0.007479285903786033
2278.0,0.007454904104520087
2277.0,0.00742926017043004
2276.0,0.007391720440581867
2275.0,0.007351186486886171
2274.0,0.0073394826445945735
2273.0,0.007370636100046086
2272.0,0.00740452057577546
2271.0,0.007392976120622197
2270.0,0.007341906217117979
2269.0,0.007291605595194874
2268.0,0.007248271586971047
2267.0,0.007185394755734518
2266.0,0.0071027277911632145
2265.0,0.007033442853892839
2264.0,0.006992868188864091
2263.0,0.0069705301400986375
2262.0,0.0069720943992707465
2261.0,0.007016086395408351
2260.0,0.007085576675919825
2259.0,0.007125388039878574
2258.0,0.007099619430438452
2257.0,0.007016859424742981
2256.0,0.006904535437500516
2255.0,0.00679675574251992
2254.0,0.006738813999368257
2253.0,0.006759607444770579
2252.0,0.006830622965069088
2251.0,0.006896775617969372
2250.0,0.006941021144891063
2249.0,0.0069841205564793885
2248.0,0.007023117134773034
2247.0,0.007021462632826399
2246.0,0.006967011070208561
2245.0,0.0069026012497418075
2244.0,0.0068870153075556466
2243.0,0.006942377863012813
2242.0,0.007036348648184433
2241.0,0.007093493601057852
2240.0,0.007051574032675054
2239.0,0.006936378507038177
2238.0,0.006859641401149781
2237.0,0.006900405053899668
2236.0,0.007003975707706373
2235.0,0.007039222298861477
2234.0,0.006933358850837949
2233.0,0.006720150159061855
2232.0,0.00648881796962876
2231.0,0.006338208855233184
2230.0,0.006339226028745815
2229.0,0.006472686658284857
2228.0,0.006616917118703057
2227.0,0.006670661856599542
2226.0,0.006669935609432091
2225.0,0.006724570293877899
2224.0,0.006859729393268892
2223.0,0.006987280865443465
2222.0,0.0070193854363714645
2221.0,0.006947476387417573
2220.0,0.006822074994594645
2219.0,0.0067136677513797835
2218.0,0.006674099275141033
2217.0,0.006680994211297608
2216.0,0.0066409259137510815
2215.0,0.006508847552837631
2214.0,0.0063698488073983305
2213.0,0.006335425885248047
2212.0,0.006396322542018731
2211.0,0.006463539706620576
2210.0,0.006518241327605136
2209.0,0.006613755180295335
2208.0,0.006746828044817119
2207.0,0.0068335947583044515
2206.0,0.006818139046753953
2205.0,0.0067208894219875975
2204.0,0.0065810948645943
2203.0,0.006434615859907449
2202.0,0.006345541115580223
2201.0,0.006373869664831944
2200.0,0.006496129209750509
2199.0,0.0066285940630012846
2198.0,0.0067247088831788255
2197.0,0.006782809748842724
2196.0,0.006782517027057182
2195.0,0.006696927461354737
2194.0,0.006563485021812388
2193.0,0.006465711841815941
2192.0,0.0064491447305196955
2191.0,0.00652013945417806
2190.0,0.0066909737060914486
2189.0,0.006929981664177468
2188.0,0.0070964851598093
2187.0,0.007045133940126289
2186.0,0.006798280856169515
2185.0,0.0065172166937200494
2184.0,0.006305374285561485
2183.0,0.006151488069580591
2182.0,0.006065102372742116
2181.0,0.006121490099896198
2180.0,0.006315690044597125
2179.0,0.006495118958232808
2178.0,0.006500472617965376
2177.0,0.0063184532512528925
2176.0,0.006073167942530514
2175.0,0.005899423295034295
2174.0,0.005855607979747932
2173.0,0.0059309103156527125
2172.0,0.006102689623665328
2171.0,0.006380761452262697
2170.0,0.0067503662691186855
2169.0,0.007070403043888621
2168.0,0.007133155106520893
2167.0,0.006900050550719955
2166.0,0.006605107454749372
2165.0,0.00653823267398178
2164.0,0.006742647750949859
2163.0,0.006981035807801824
2162.0,0.006932153711724587
2161.0,0.006379546480652384
2160.0,0.005398411743548025
2159.0,0.00444795203621052
2158.0,0.004039836301178781
2157.0,0.0042080162834986405
2156.0,0.004516602044507913
2155.0,0.004625140050750667
2154.0,0.004619540872426788
2153.0,0.004721726035235843
2152.0,0.0049042316110694635
2151.0,0.004966670298555323
2150.0,0.004871177453323194
2149.0,0.004782117145050769
2148.0,0.0048151087273754015
2147.0,0.004925618849995361
2146.0,0.005035981478334847
2145.0,0.005117100778868771
2144.0,0.0051462703167301895
2143.0,0.005107369492910575
2142.0,0.005033924448597425
2141.0,0.004970096792296704
2140.0,0.004903192599596392
2139.0,0.0048057952443807525
2138.0,0.004702595312076366
2137.0,0.004618992678294204
2136.0,0.004515034540345457
2135.0,0.004367699843681869
2134.0,0.00426705203491856
2133.0,0.004323381600530559
2132.0,0.004518728007496445
2131.0,0.00474169389531753
2130.0,0.004928452156391614
2129.0,0.005084398636405888
2128.0,0.005210423049666429
2127.0,0.005294427522130936
2126.0,0.005357727747456911
2125.0,0.005433253552058856
2124.0,0.005508249153056285
2123.0,0.005550494528245484
2122.0,0.005574813636040752
2121.0,0.0056243693328582485
2120.0,0.005705430910816855
2119.0,0.00579698015634388
2118.0,0.005900486691822058
2117.0,0.006019169678569089
2116.0,0.006115294228708076
2115.0,0.006153296420664479
2114.0,0.006163447124789201
2113.0,0.006195942036791302
2112.0,0.006241017054336714
2111.0,0.006265723203836263
2110.0,0.006297023947908512
2109.0,0.006377979826665443
2108.0,0.006465299630340483
2107.0,0.006468953786834452
2106.0,0.006385514368676109
2105.0,0.006300624488170202
2104.0,0.006257451860353271
2103.0,0.006220035074605556
2102.0,0.006175546341938596
2101.0,0.006176262936821515
2100.0,0.0062468241787648785
2099.0,0.0063232265757432364
2098.0,0.006318943586066666
2097.0,0.00620504082764033
2096.0,0.00601453837382229
2095.0,0.005814197133767144
2094.0,0.005677544494977797
2093.0,0.00563598697886457
2092.0,0.005653692121053697
2091.0,0.005687244273803783
2090.0,0.005747452766692093
2089.0,0.005857516986405745
2088.0,0.005980338521056598
2087.0,0.006056129054023338
2086.0,0.006083555356236888
2085.0,0.006099877895923249
2084.0,0.0061085570881528935
2083.0,0.006098009397589626
2082.0,0.006101401821096356
2081.0,0.006151704165146911
2080.0,0.00619356895105763
2079.0,0.00613565405583276
2078.0,0.005990056308170962
2077.0,0.005868213948419676
2076.0,0.005834920670158043
2075.0,0.00585633916403667
2074.0,0.005897671210363782
2073.0,0.005970689830843983
2072.0,0.006065983055285568
2071.0,0.006123589463066303
2070.0,0.006101190969459868
2069.0,0.006014230808887052
2068.0,0.005903424418126137
2067.0,0.00581763645064164
2066.0,0.005818416635309744
2065.0,0.005923306217036836
2064.0,0.0060490382689855245
2063.0,0.006101094311645833
2062.0,0.006094275258527815
2061.0,0.006101016770748165
2060.0,0.0061267999692598985
2059.0,0.006119000705951083
2058.0,0.006069736000725202
2057.0,0.006021004430329164
2056.0,0.005997347761595855
2055.0,0.00603076738254526
2054.0,0.006205692793472991
2053.0,0.006549223070912604
2052.0,0.006901552633811174
2051.0,0.007032388228994175
2050.0,0.006896798291531328
2049.0,0.006670791661609047
2048.0,0.006491423988812839
2047.0,0.006313876857611652
2046.0,0.006100634703586217
2045.0,0.0059508352159169655
2044.0,0.0059430117889367265
2043.0,0.005986477698684685
2042.0,0.0059324188465566694
2041.0,0.00575127183741791
2040.0,0.005541030003620617
2039.0,0.005413563002063176
2038.0,0.005408585769743764
2037.0,0.005452788858655617
2036.0,0.005397316795618321
2035.0,0.005191289655241927
2034.0,0.004984214153196032
2033.0,0.004939367018701581
2032.0,0.004994856795755987
2031.0,0.004977692001225142
2030.0,0.004885220934269725
2029.0,0.00485454779069057
2028.0,0.004902872300498289
2027.0,0.004899141725309432
2026.0,0.004792965239868467
2025.0,0.004679252838703085
2024.0,0.004625733772090746
2023.0,0.004593470068760774
2022.0,0.004546942050945296
2021.0,0.004490388402420193
2020.0,0.004405124033683669
2019.0,0.004289924292419997
2018.0,0.004246525947574185
2017.0,0.0043746525957910586
2016.0,0.004599032426149907
2015.0,0.004785715621612276
2014.0,0.004942216491937461
2013.0,0.005129127045055194
2012.0,0.005287542393859638
2011.0,0.005311598375929817
2010.0,0.005222551497238953
2009.0,0.005115646299024528
2008.0,0.004995980864182911
2007.0,0.004835172589252457
2006.0,0.0047148566529028975
2005.0,0.004713867890034929
2004.0,0.004747947271498045
2003.0,0.004708427198974433
2002.0,0.004671920305254145
2001.0,0.0047831883043293645
2000.0,0.004995331861976801
1999.0,0.0051349225660559895
1998.0,0.00516821923632865
1997.0,0.005210806392697109
1996.0,0.005291891837416826
1995.0,0.005312515181739869
1994.0,0.0052379173264044745
1993.0,0.005170275124930813
1992.0,0.0051921021377004765
1991.0,0.00527343677954739
1990.0,0.0053956176216728114
1989.0,0.005575178185480848
1988.0,0.005750862345436947
1987.0,0.00582555859109348
1986.0,0.005821529847156432
1985.0,0.005847339783882288
1984.0,0.005924373666302226
1983.0,0.005990619157146419
1982.0,0.006041785774305551
1981.0,0.00609568747623211
1980.0,0.0060390409147705
1979.0,0.005731481861904098
1978.0,0.005276285037537889
1977.0,0.00495843095117933
1976.0,0.004855206696114366
1975.0,0.004789983172376759
1974.0,0.004674725607551933
1973.0,0.0046067482970955
1972.0,0.004614226692447736
1971.0,0.004574701021692964
1970.0,0.0044426041127609015
1969.0,0.004347794633408044
1968.0,0.004401128353456926
1967.0,0.004536422406512219
1966.0,0.00462813451905316
1965.0,0.004640715152899706
1964.0,0.0045844578402727655
1963.0,0.00448133205994083
1962.0,0.004413870376197288
1961.0,0.004455162128011897
1960.0,0.0045331636714287605
1959.0,0.004511674354260582
1958.0,0.004398202999078563
1957.0,0.00433163339672269
1956.0,0.004382971450293529
1955.0,0.00449969218677445
1954.0,0.004628890690311192
1953.0,0.00475654268613132
1952.0,0.004832955221033517
1951.0,0.0048001261959931645
1950.0,0.004714523117763142
1949.0,0.004696605344670285
1948.0,0.004750804511025927
1947.0,0.004759221728219771
1946.0,0.004665692728255972
1945.0,0.004548599994341675
1944.0,0.004486415553452529
1943.0,0.004462310709346607
1942.0,0.004432219510727159
1941.0,0.004401612844679686
1940.0,0.00439381394970292
1939.0,0.004414623140712571
1938.0,0.0044842092033023995
1937.0,0.0046164752141511535
1936.0,0.004748491485608486
1935.0,0.004782230050918157
1934.0,0.004708868956062874
1933.0,0.0046234367207535695
1932.0,0.004603933772342335
1931.0,0.004642561637285662
1930.0,0.004714285114238614
1929.0,0.004802288918368176
1928.0,0.004872036399017271
1927.0,0.0048951615862767766
1926.0,0.004888612085584487
1925.0,0.004891151235333922
1924.0,0.004879622972815908
1923.0,0.004810865387528197
1922.0,0.004720747272464378
1921.0,0.004696249443990952
1920.0,0.004746460728764687
1919.0,0.004813810086242707
1918.0,0.004878276565881844
1917.0,0.004946238853443368
1916.0,0.004989597376387162
1915.0,0.004981824235462134
1914.0,0.004934336862547268
1913.0,0.004890078416626694
1912.0,0.0048624729153588404
1911.0,0.004825500159109313
1910.0,0.004779846591343265
1909.0,0.004750211491502075
1908.0,0.00472868280704062
1907.0,0.00469463660285768
1906.0,0.00466897432424152
1905.0,0.004695939402263014
1904.0,0.004753367120481114
1903.0,0.0047859874131582995
1902.0,0.004790209441189562
1901.0,0.0047978488938204885
1900.0,0.004804586909203876
1899.0,0.004777476643181952
1898.0,0.0047133907711955445
1897.0,0.004648830675754802
1896.0,0.004600477067304372
1895.0,0.0045668109316467816
1894.0,0.004564349392511503
1893.0,0.0045989614755205166
1892.0,0.004626103185200958
1891.0,0.004607545702545748
1890.0,0.00459472659906362
1889.0,0.004651730534294295
1888.0,0.004727434468351077
1887.0,0.004750819175231512
1886.0,0.004738865253858751
1885.0,0.004749306414590408
1884.0,0.004778248436131693
1883.0,0.00476430882859035
1882.0,0.004697756628102649
1881.0,0.004633748704095849
1880.0,0.00460998819771934
1879.0,0.004612334714032562
1878.0,0.004619732484825101
1877.0,0.004637602729236929
1876.0,0.0046589889812175475
1875.0,0.004655515417569658
1874.0,0.004633110329227529
1873.0,0.0046280676762854335
1872.0,0.004638175120028574
1871.0,0.0046195288208715265
1870.0,0.004577956568957872
1869.0,0.004595643692086105
1868.0,0.004662381771288832
1867.0,0.004686623277621571
1866.0,0.004682194418208271
1865.0,0.004690135522805745
1864.0,0.0046946435245860405
1863.0,0.004671076472210281
1862.0,0.004638081320438351
1861.0,0.00462953104542973
1860.0,0.004633286185612751
1859.0,0.004614872162825989
1858.0,0.004587684558914336
1857.0,0.0045948706842967825
1856.0,0.004634443757467795
1855.0,0.004661153026396233
1854.0,0.004653285906563805
1853.0,0.004620778765253658
1852.0,0.004572030996249987
1851.0,0.004521821149130425
1850.0,0.004483001265339198
1849.0,0.004475915263262824
1848.0,0.004496365484811926
1847.0,0.004517865869515819
1846.0,0.004531256373859741
1845.0,0.004564430324899091
1844.0,0.004605449704783684
1843.0,0.004579708711861221
1842.0,0.004529893397204685
1841.0,0.00452338259165639
1840.0,0.004533895828779562
1839.0,0.0045274395378811115
1838.0,0.0045214620086043945
1837.0,0.004548583517469886
1836.0,0.004582229221291788
1835.0,0.004585250867580441
1834.0,0.0045730089035458076
1833.0,0.004570611542730098
1832.0,0.00455457066971295
1831.0,0.004498757086164627
1830.0,0.004451610437632691
1829.0,0.004466581659492063
1828.0,0.004513601724114429
1827.0,0.0045424790318544074
1826.0,0.0045320551094363256
1825.0,0.004532830491019493
1824.0,0.004563595367823685
1823.0,0.0045749005373624035
1822.0,0.004552259483446869
1821.0,0.004514396111313321
1820.0,0.004474999873282649
1819.0,0.004429658997818988
1818.0,0.004396553896201395
1817.0,0.004418616023601469
1816.0,0.004480435991937258
1815.0,0.004529945105021357
1814.0,0.00455586652605257
1813.0,0.004586437425903215
1812.0,0.004636832334686344
1811.0,0.0046737665075640995
1810.0,0.004695288186962807
1809.0,0.00473801275375766
1808.0,0.004787738198111075
1807.0,0.004802016556657019
1806.0,0.004792945751833046
1805.0,0.004809545208354871
1804.0,0.0048542656062691494
1803.0,0.004885617602654576
1802.0,0.00489677307058773
1801.0,0.004927017258946013
1800.0,0.004983155193411718
1799.0,0.005011631968385377
1798.0,0.005016741724767493
1797.0,0.005040959786666425
1796.0,0.005090274978602404
1795.0,0.005132660716921202
1794.0,0.00514895821166634
1793.0,0.005166902479272624
1792.0,0.005189566463481012
1791.0,0.005140114884524009
1790.0,0.005060260900808709
1789.0,0.005033947807471072
1788.0,0.0050402467917459795
1787.0,0.0050284965737718785
1786.0,0.004999178759763014
1785.0,0.004980668065964377
1784.0,0.004959082243024818
1783.0,0.004909560039854043
1782.0,0.004847264552105178
1781.0,0.004811605998661034
1780.0,0.004827159478495897
1779.0,0.0048346594581888695
1778.0,0.004808363504120033
1777.0,0.004776395255577529
1776.0,0.00477791002720967
1775.0,0.004816744148554426
1774.0,0.004838280853525125
1773.0,0.004839879480428676
1772.0,0.004866124976556193
1771.0,0.004869660488755996
1770.0,0.004878530740998236
1769.0,0.004947392053617892
1768.0,0.005024163631824174
1767.0,0.005043669442313133
1766.0,0.005024567545286497
1765.0,0.005028992840681258
1764.0,0.00505758000233688
1763.0,0.005073829952667671
1762.0,0.00507991484457121
1761.0,0.0050883042485829096
1760.0,0.005113003562838235
1759.0,0.005143283496396118
1758.0,0.005177667987277628
1757.0,0.005237303434611046
1756.0,0.005318777702712818
1755.0,0.005383128537726444
1754.0,0.005419385595533776
1753.0,0.005422715571727386
1752.0,0.005411243340867405
1751.0,0.00542137960250886
1750.0,0.00546286705832591
1749.0,0.005567482102361636
1748.0,0.005714600994863695
1747.0,0.005820422059961498
1746.0,0.005854903807838864
1745.0,0.00588103759680841
1744.0,0.005961149800485998
1743.0,0.006061895427388034
1742.0,0.0061295245689848635
1741.0,0.006174432009511628
1740.0,0.0062181807003318336
1739.0,0.006236368963770465
1738.0,0.0062578581707459936
1737.0,0.006351762673935096
1736.0,0.006464330125503022
1735.0,0.0065405239047619974
1734.0,0.006636899410356761
1733.0,0.006664106431765057
1732.0,0.006658835417573934
1731.0,0.006698167378618093
1730.0,0.0067378665063673095
1729.0,0.006775825131057178
1728.0,0.006825285449988021
1727.0,0.006878245049512469
1726.0,0.006915754623545302
1725.0,0.0069623227067525505
1724.0,0.007053494895577269
1723.0,0.007146523996136633
1722.0,0.007217046358885013
1721.0,0.00729010486619552
1720.0,0.007355289422237109
1719.0,0.007356757286542141
1718.0,0.007381586458621553
1717.0,0.007595821078892631
1716.0,0.007857206305093673
1715.0,0.008001874496789135
1714.0,0.008063738699086803
1713.0,0.008128397159524502
1712.0,0.008223964214600473
1711.0,0.008322581463594717
1710.0,0.00840539286788336
1709.0,0.008482339557150144
1708.0,0.008567169423691075
1707.0,0.008654435672585704
1706.0,0.008777357226592244
1705.0,0.008990912976094584
1704.0,0.009257662544159297
1703.0,0.009539264207105071
1702.0,0.009766312752465452
1701.0,0.009994331309246486
1700.0,0.010318968627613879
1699.0,0.010562028112769573
1698.0,0.01078922784301885
1697.0,0.011146513086674331
1696.0,0.01155011099758344
1695.0,0.011731159591083243
1694.0,0.01178600209701522
1693.0,0.011957474723771275
1692.0,0.012205038315875173
1691.0,0.012451773012846624
1690.0,0.012717737416685436
1689.0,0.013043589958221672
1688.0,0.013392308049344399
1687.0,0.013689951215144124
1686.0,0.013854182966767253
1685.0,0.014111159276495363
1684.0,0.014705691664311928
1683.0,0.01509069419293034
1682.0,0.015280199096454089
1681.0,0.015565867227000017
1680.0,0.01590355890051068
1679.0,0.01621523388734097
1678.0,0.016479176621294358
1677.0,0.016736354692507845
1676.0,0.017040834916350917
1675.0,0.017357485528037713
1674.0,0.017572697748059425
1673.0,0.017743740661520412
1672.0,0.017963441417773174
1671.0,0.018235242634602425
1670.0,0.018607458796250673
1669.0,0.019011031602610518
1668.0,0.019320386063753272
1667.0,0.0195563840748914
1666.0,0.019754547221281046
1665.0,0.019931526733316305
1664.0,0.020126553942141412
1663.0,0.020372725049864954
1662.0,0.020615598919173122
1661.0,0.020796375631058277
1660.0,0.020967220571916283
1659.0,0.02111631354228627
1658.0,0.02122278190532099
1657.0,0.02131572336323234
1656.0,0.02147048180584264
1655.0,0.02160457032330841
1654.0,0.021791291001633475
1653.0,0.022127063428124517
1652.0,0.02205373336866323
1651.0,0.021947030874823418
1650.0,0.021983412840027666
1649.0,0.02195299828858352
1648.0,0.02192810558134929
1647.0,0.02206677682597382
1646.0,0.022185473495565277
1645.0,0.02216868242538309
1644.0,0.022171927935127955
1643.0,0.02219357586482865
1642.0,0.022188335111960854
1641.0,0.022154095221435893
1640.0,0.022117715938221327
1639.0,0.02208790215036274
1638.0,0.022022082756395528
1637.0,0.02190993445617705
1636.0,0.021814600692284785
1635.0,0.021652541020735275
1634.0,0.02142938572111608
1633.0,0.021326330740980448
1632.0,0.021288022288469714
1631.0,0.02121294099520806
1630.0,0.02106709012653137
1629.0,0.020860684645021214
1628.0,0.0206345285055704
1627.0,0.020424456296025312
1626.0,0.020239250177225762
1625.0,0.02004228763150763
1624.0,0.019799381521708133
1623.0,0.019515394931363558
1622.0,0.019237639111933793
1621.0,0.019037281352725526
1620.0,0.018925952566145394
1619.0,0.018813992156348703
1618.0,0.01860806960381944
1617.0,0.018299190966984596
1616.0,0.017948039709511466
1615.0,0.017661387996147346
1614.0,0.017492839918983313
1613.0,0.01736568384102511
1612.0,0.017201717061131827
1611.0,0.017003899669333786
1610.0,0.016808492117719856
1609.0,0.016630235118658625
1608.0,0.016468627575401244
1607.0,0.016332742085629345
1606.0,0.01622509953776091
1605.0,0.016122885007576356
1604.0,0.016017932132826037
1603.0,0.015909914476606064
1602.0,0.015795908770917695
1601.0,0.015673901285698368
1600.0,0.015547436352513995
1599.0,0.015423879189238744
1598.0,0.01530652064603125
1597.0,0.015197602185495238
1596.0,0.015098756481914482
1595.0,0.015011057663928719
1594.0,0.014934200841647503
1593.0,0.014862070009975178
1592.0,0.014791485188947674
1591.0,0.014729219670132573
1590.0,0.01468461960630281
1589.0,0.014652924717307211
1588.0,0.01462530524457925
1587.0,0.014605604270343464
1586.0,0.014605298153535583
1585.0,0.01461424460761334
1584.0,0.014618904295047822
1583.0,0.014628937032925098
1582.0,0.014638599449844934
1581.0,0.014639960904851552
1580.0,0.014643867356315857
1579.0,0.01466916643290617
1578.0,0.014698158215342805
1577.0,0.014753669632069078
1576.0,0.014824799697323345
1575.0,0.014814950410430235
1574.0,0.014805766416789552
1573.0,0.014869556610359536
1572.0,0.014937437784610427
1571.0,0.014962305644014531
1570.0,0.01499835071666802
1569.0,0.015051001692633622
1568.0,0.01507684248615435
1567.0,0.01510199253004356
1566.0,0.015122563307444242
1565.0,0.015125625191073074
1564.0,0.015160377659408756
1563.0,0.015254158117159522
1562.0,0.015392636331423116
1561.0,0.015417332173907387
1560.0,0.015266356175295166
1559.0,0.015327088127306616
1558.0,0.015364391562061125
1557.0,0.015292453969424784
1556.0,0.015377971125932012
1555.0,0.015450867737912728
1554.0,0.015432900679530893
1553.0,0.015394283428813892
1552.0,0.015393532139971675
1551.0,0.015420650624743789
1550.0,0.015438781762530007
1549.0,0.01544938965959864
1548.0,0.015448491254137418
1547.0,0.015435722224778781
1546.0,0.01539232736686224
1545.0,0.01538089345593617
1544.0,0.015462970473896245
1543.0,0.015557245629817824
1542.0,0.015537864989609629
1541.0,0.015525261998362006
1540.0,0.015535983978146227
1539.0,0.015312557496301324
1538.0,0.015117249884437772
1537.0,0.015138483931555705
1536.0,0.015197587788230122
1535.0,0.01516729045437748
1534.0,0.015079684024990467
1533.0,0.01504938084120817
1532.0,0.015053553325703566
1531.0,0.015039998046944385
1530.0,0.01499974552602935
1529.0,0.014946440512388515
1528.0,0.01490602031752777
1527.0,0.014871891250481484
1526.0,0.014836827859615702
1525.0,0.014823976192198138
1524.0,0.014839004283608685
1523.0,0.014822648687643738
1522.0,0.01484185170563039
1521.0,0.01497516357204065
1520.0,0.015058630766631984
1519.0,0.015043923684203996
1518.0,0.015001082332947235
1517.0,0.015039131367928674
1516.0,0.015155205616754389
1515.0,0.015224663120752296
1514.0,0.015255704430199562
1513.0,0.015275571041107616
1512.0,0.015290252666386377
1511.0,0.015261321130133041
1510.0,0.015216448056660899
1509.0,0.015179983594870362
1508.0,0.015348332585597774
1507.0,0.01579498232718508
1506.0,0.015895111212597787
1505.0,0.01576997657535395
1504.0,0.015812758969676214
1503.0,0.015902669907375485
1502.0,0.01597956444895172
1501.0,0.01607188456061485
1500.0,0.016201313058372857
1499.0,0.016324722796221276
1498.0,0.01644509261179522
1497.0,0.01669558999734682
1496.0,0.01702924748504429
1495.0,0.01724305121593543
1494.0,0.017359224678827865
1493.0,0.01747730992949949
1492.0,0.01758896967106463
1491.0,0.017654847566430293
1490.0,0.01775221094163431
1489.0,0.017965183360879548
1488.0,0.018177650846094278
1487.0,0.018297461478393985
1486.0,0.018411453379871014
1485.0,0.018587169120361867
1484.0,0.018800025942451615
1483.0,0.019013633780588544
1482.0,0.01925529971341954
1481.0,0.019579873486755234
1480.0,0.019938245052590807
1479.0,0.020265107710193405
1478.0,0.02062752830405079
1477.0,0.021182364656147992
1476.0,0.02196539253965991
1475.0,0.02286618021896756
1474.0,0.02402428394751575
1473.0,0.0258276171676467
1472.0,0.027812488804210396
1471.0,0.029201190218209133
1470.0,0.030281028142060205
1469.0,0.031461125249306825
1468.0,0.03277698152046846
1467.0,0.03423427892206989
1466.0,0.03603402196096281
1465.0,0.03829105020987126
1464.0,0.0403903340933125
1463.0,0.04171513023161473
1462.0,0.042472123567027766
1461.0,0.042997530001817164
1460.0,0.043402128193049165
1459.0,0.043678237979764035
1458.0,0.044116922987878886
1457.0,0.0449257034045139
1456.0,0.04537015353956048
1455.0,0.04534353262051389
1454.0,0.04529510993117671
1453.0,0.04521124914694544
1452.0,0.04494448106917475
1451.0,0.04443274573640396
1450.0,0.04367812041602944
1449.0,0.04252535595974663
1448.0,0.04082008230993718
1447.0,0.03888092101298894
1446.0,0.037195178918909076
1445.0,0.035825254234876494
1444.0,0.034616531490496275
1443.0,0.03353118011948103
1442.0,0.03266123769756132
1441.0,0.032056449290953144
1440.0,0.03168183942972487
1439.0,0.03148831234612221
1438.0,0.03145620977042728
1437.0,0.03150984341412835
1436.0,0.03137406716157641
1435.0,0.030919864527198332
1434.0,0.03029998340552261
1433.0,0.029579561272250664
1432.0,0.028764249713858984
1431.0,0.02797141679084346
1430.0,0.027345675009996503
1429.0,0.02691381154555818
1428.0,0.02660441109133578
1427.0,0.026382184669408164
1426.0,0.026215817345447093
1425.0,0.026050377712560843
1424.0,0.025892153896562284
1423.0,0.025787223529177773
1422.0,0.025738196416413766
1421.0,0.025665372236772167
1420.0,0.02550258368438468
1419.0,0.025312729940756278
1418.0,0.025162368167168894
1417.0,0.02501574483989399
1416.0,0.02484198840778206
1415.0,0.024644880699139792
1414.0,0.024421117671589634
1413.0,0.024151785118517555
1412.0,0.023828182132866603
1411.0,0.023478199073124748
1410.0,0.023128022870052733
1409.0,0.02277392822109449
1408.0,0.022403966457016415
1407.0,0.022030364912914168
1406.0,0.02165340941859696
1405.0,0.02123362884795023
1404.0,0.020791112899793556
1403.0,0.02041148877212736
1402.0,0.020107971397618368
1401.0,0.01978947755963002
1400.0,0.019398839004012177
1399.0,0.01900883829631149
1398.0,0.018696083388608332
1397.0,0.01841479069531217
1396.0,0.018114195829894493
1395.0,0.017843238226715477
1394.0,0.01761668052397254
1393.0,0.017386606242555742
1392.0,0.01717711458873032
1391.0,0.017043101181752184
1390.0,0.016984840135710222
1389.0,0.01697214756904901
1388.0,0.017063990250423162
1387.0,0.01739953862302689
1386.0,0.01798834342309547
1385.0,0.01879166924536785
1384.0,0.019965522746790008
1383.0,0.021752450162447676
1382.0,0.024277928478673293
1381.0,0.027596686447412366
1380.0,0.031830643466548035
1379.0,0.03686528525704864
1378.0,0.041907626702159535
1377.0,0.04575427979492864
1376.0,0.047321393972496996
1375.0,0.04569523833122377
1374.0,0.04106033000920451
1373.0,0.035485599943594646
1372.0,0.030767207337378866
1371.0,0.02705063778408718
1370.0,0.023958081218701188
1369.0,0.021400003258998997
1368.0,0.01950969058423764
1367.0,0.01829494236321793
1366.0,0.017571644841458737
1365.0,0.017155633295584564
1364.0,0.016962360411768487
1363.0,0.01700405836476576
1362.0,0.017255753159009048
1361.0,0.01755643313374694
1360.0,0.0177310301734615
1359.0,0.017687206125870974
1358.0,0.01739260512193647
1357.0,0.016857552904793217
1356.0,0.016130500433487523
1355.0,0.015302331054781067
1354.0,0.014493656936191073
1353.0,0.013794691532250491
1352.0,0.013212983064917128
1351.0,0.012714681214960822
1350.0,0.012280717119465857
1349.0,0.011903304197072275
1348.0,0.011573881845563818
1347.0,0.011282852908236208
1346.0,0.01102912569965532
1345.0,0.010807818102422673
1344.0,0.010607605248053955
1343.0,0.010423883724590894
1342.0,0.010263565852578732
1341.0,0.010134546592750704
1340.0,0.010037971257493979
1339.0,0.00996110422206803
1338.0,0.009885041221083826
1337.0,0.009803314340364555
1336.0,0.009723498229524886
1335.0,0.009663282902535892
1334.0,0.009638789518006457
1333.0,0.009646756518495843
1332.0,0.009666380741114932
1331.0,0.00967700160717126
1330.0,0.00966521390179494
1329.0,0.009622424114630804
1328.0,0.00954867261328922
1327.0,0.009455695715316745
1326.0,0.009353211448362334
1325.0,0.009237872033385093
1324.0,0.009108631487689213
1323.0,0.008977809164775623
1322.0,0.008859483003136617
1321.0,0.008754721320129718
1320.0,0.008659473221758678
1319.0,0.008574721083923063
1318.0,0.008496406862750631
1317.0,0.008410648293209914
1316.0,0.008313860685836123
1315.0,0.008222914964986904
1314.0,0.00815497414457103
1313.0,0.008107297716593359
1312.0,0.008068816230962162
1311.0,0.008045641872190456
1310.0,0.008058010851849389
1309.0,0.008122932941478707
1308.0,0.008247890563879078
1307.0,0.008424271524247597
1306.0,0.008611917459181148
1305.0,0.008744262573562044
1304.0,0.008769489625057025
1303.0,0.008686774106351913
1302.0,0.008541421733609078
1301.0,0.008387167912859456
1300.0,0.008260485314994518
1299.0,0.008176867381775433
1298.0,0.008131040737818715
1297.0,0.00809966384012064
1296.0,0.008057899004982473
1295.0,0.00799572723714759
1294.0,0.007914333489424523
1293.0,0.00781663079973643
1292.0,0.007709877153945331
1291.0,0.0076086607655636174
1290.0,0.007523636982891574
1289.0,0.007452494115178615
1288.0,0.007389506108288825
1287.0,0.0073359531592499735
1286.0,0.007293479525556222
1285.0,0.007257554121501589
1284.0,0.007225718355072802
1283.0,0.007202724682505062
1282.0,0.007191372639019157
1281.0,0.007186333978129553
1280.0,0.007183580788794542
1279.0,0.007186406680017314
1278.0,0.00719590331864188
1277.0,0.007206301280317689
1276.0,0.007214432638324764
1275.0,0.007224136823619432
1274.0,0.007236858961405546
1273.0,0.007249649963220115
1272.0,0.007265857419023507
1271.0,0.007294336551661985
1270.0,0.007332550501241087
1269.0,0.007366314864936198
1268.0,0.007393264730216346
1267.0,0.0074299147875361345
1266.0,0.007488158954293179
1265.0,0.007559427835059321
1264.0,0.0076306386686492405
1263.0,0.00770400044715917
1262.0,0.007792853994837168
1261.0,0.007907585994363715
1260.0,0.008052380557518758
1259.0,0.008224581400316542
1258.0,0.008407896821728862
1257.0,0.008572226963585124
1256.0,0.00868392128805326
1255.0,0.008717493300807616
1254.0,0.00866611687314073
1253.0,0.008550891433953885
1252.0,0.008417483986434193
1251.0,0.008310782559529288
1250.0,0.00824475974829618
1249.0,0.008203351224326317
1248.0,0.00817154384997557
1247.0,0.008151150585767833
1246.0,0.008144962517612762
1245.0,0.008145854728895962
1244.0,0.008149791203990092
1243.0,0.00816366347277708
1242.0,0.008190108841235926
1241.0,0.008218649798411885
1240.0,0.008240976424738013
1239.0,0.00826232589283352
1238.0,0.00828948378295718
1237.0,0.008319555278700364
1236.0,0.008348692728642788
1235.0,0.008379011776069641
1234.0,0.008407900709673032
1233.0,0.008424268637369529
1232.0,0.008426736465773759
1231.0,0.008433494870931904
1230.0,0.008461270567022477
1229.0,0.008504004408612546
1228.0,0.008544799035553307
1227.0,0.00858044013577066
1226.0,0.008621576661502466
1225.0,0.008674907079186476
1224.0,0.008737161869142303
1223.0,0.008802296329807613
1222.0,0.008863672433095899
1221.0,0.008912692690521043
1220.0,0.008945246641086766
1219.0,0.00896721095800121
1218.0,0.008985041218688816
1217.0,0.008993278767603138
1216.0,0.008979857907525058
1215.0,0.008942346731780723
1214.0,0.00889149345706274
1213.0,0.008840332503459107
1212.0,0.008796674892423846
1211.0,0.008765076039726668
1210.0,0.008748843342198848
1209.0,0.008748895330471938
1208.0,0.00876440456891543
1207.0,0.008793316546216158
1206.0,0.00883009054548823
1205.0,0.008866220486268714
1204.0,0.008896402400986598
1203.0,0.008922663805106775
1202.0,0.008951229145460912
1201.0,0.008987323120567998
1200.0,0.009032432867728628
1199.0,0.009081540866038643
1198.0,0.009122706715299765
1197.0,0.009146386201350309
1196.0,0.009157747121923241
1195.0,0.009176206229372444
1194.0,0.009220268655261184
1193.0,0.009294235287041725
1192.0,0.009388419993914406
1191.0,0.009486812787288572
1190.0,0.009575759240309178
1189.0,0.009651965002567276
1188.0,0.009724041349177467
1187.0,0.009803621936347425
1186.0,0.009896443125172131
1185.0,0.010004877528022722
1184.0,0.010133325462826363
1183.0,0.010282340375162353
1182.0,0.010440901304835559
1181.0,0.010595485062517312
1180.0,0.010747350977132974
1179.0,0.010913328070656592
1178.0,0.011110940390923894
1177.0,0.011352056618551563
1176.0,0.011649893743191229
1175.0,0.012021403151386317
1174.0,0.012480758642729788
1173.0,0.013036859515410917
1172.0,0.013690823582961639
1171.0,0.014417552248735248
1170.0,0.01514573265978629
1169.0,0.015769843185990826
1168.0,0.01619384769006409
1167.0,0.016374739682027843
1166.0,0.01633814628488876
1165.0,0.016155639689961504
1164.0,0.01590372420426482
1163.0,0.015639333471365677
1162.0,0.015397977683238025
1161.0,0.015196934227891815
1160.0,0.01504026938985337
1159.0,0.014928250027913408
1158.0,0.014861623062387617
1157.0,0.014835790836503968
1156.0,0.014836631644909878
1155.0,0.014847457463495962
1154.0,0.014856456116840288
1153.0,0.01485279388413226
1152.0,0.014821872223821846
1151.0,0.014754959664630744
1150.0,0.014661946015611743
1149.0,0.01456393417655406
1148.0,0.014472407737945222
1147.0,0.01438328881233904
1146.0,0.014289923471450059
1145.0,0.014193861557144395
1144.0,0.01410372259525532
1143.0,0.014030315658335343
1142.0,0.013981123177048083
1141.0,0.013953071321964383
1140.0,0.013932481644710587
1139.0,0.013908313484497524
1138.0,0.013883784703088077
1137.0,0.013868857923499348
1136.0,0.01386504510246269
1135.0,0.01386707679327431
1134.0,0.01387700499115569
1133.0,0.013904585073693208
1132.0,0.013952461023481667
1131.0,0.014011686612699779
1130.0,0.014075212045473066
1129.0,0.014146695728994817
1128.0,0.014231027987433666
1127.0,0.014323551828306323
1126.0,0.014414072032504808
1125.0,0.014496156751663825
1124.0,0.014568943983767475
1123.0,0.014636262227381173
1122.0,0.01470734617940899
1121.0,0.014791287045226316
1120.0,0.014887678554352957
1119.0,0.014989634235319245
1118.0,0.015096987383946343
1117.0,0.015216297432860109
1116.0,0.015344974668009666
1115.0,0.015467171612848808
1114.0,0.015572223524106348
1113.0,0.01566854167023183
1112.0,0.015773580735970363
1111.0,0.015899257669778264
1110.0,0.01604999465376322
1109.0,0.016223735132535846
1108.0,0.016408864677748262
1107.0,0.016591047292419253
1106.0,0.016769981241951906
1105.0,0.016956778825321202
1104.0,0.01714940956879332
1103.0,0.017324121599275658
1102.0,0.01745653802207562
1101.0,0.017537599234406922
1100.0,0.01756707696232527
1099.0,0.017554716998858418
1098.0,0.017533748554055078
1097.0,0.017545155498898287
1096.0,0.017594916653783068
1095.0,0.017647713931058923
1094.0,0.017675356510305065
1093.0,0.01768969187196427
1092.0,0.01771330168194574
1091.0,0.017741685147255482
1090.0,0.01775580332253348
1089.0,0.017755358492608227
1088.0,0.017759260926883215
1087.0,0.01778479643641056
1086.0,0.017841394376420926
1085.0,0.017931102145287994
1084.0,0.018037096806691136
1083.0,0.018121008356388957
1082.0,0.01814989703655464
1081.0,0.018122629852546018
1080.0,0.018062700886675314
1079.0,0.017998514082471617
1078.0,0.017957438482848646
1077.0,0.0179589145507834
1076.0,0.01799787091635571
1075.0,0.01804528566963833
1074.0,0.01807617169293946
1073.0,0.018088646561955597
1072.0,0.018089992263904377
1071.0,0.018080525305502877
1070.0,0.018061902881284002
1069.0,0.018045508015876482
1068.0,0.018040099653254916
1067.0,0.018042829727275368
1066.0,0.018051166132560022
1065.0,0.018071176774641314
1064.0,0.018106036685115283
1063.0,0.018148758791147038
1062.0,0.018193072433473775
1061.0,0.018238880057290484
1060.0,0.018281809550305193
1059.0,0.018312893670713846
1058.0,0.01833561737032892
1057.0,0.018367320061528674
1056.0,0.018416682192955794
1055.0,0.01847610741803211
1054.0,0.018542779967207417
1053.0,0.018628094147658526
1052.0,0.01873530445217962
1051.0,0.018848460860191207
1050.0,0.0189597483864369
1049.0,0.019084185568982497
1048.0,0.01922731777364122
1047.0,0.019363516633596423
1046.0,0.019465463241370506
1045.0,0.019531961125264168
1044.0,0.019571776775775426
1043.0,0.01958342584141871
1042.0,0.019567582916216304
1041.0,0.019541214979772743
1040.0,0.019521702456618915
1039.0,0.019507768365801533
1038.0,0.019488637745383276
1037.0,0.0194621623102349
1036.0,0.019434527809110338
1035.0,0.01941181274837319
1034.0,0.01939840251978299
1033.0,0.019393618601412328
1032.0,0.019386008990963096
1031.0,0.019363007484845818
1030.0,0.01932870002082209
1029.0,0.01929689208235565
1028.0,0.019264488572036113
1027.0,0.019210528119518483
1026.0,0.019126622400925566
1025.0,0.019029922495460934
1024.0,0.018940165378985338
1023.0,0.018861632848700176
1022.0,0.018792395673291544
1021.0,0.018732027509041457
1020.0,0.018672256587196557
1019.0,0.0185967427974126
1018.0,0.018500377504297304
1017.0,0.0183965489238026
1016.0,0.018299101423027573
1015.0,0.01821027412414972
1014.0,0.01812940098628762
1013.0,0.018057471562845154
1012.0,0.017988525037210296
1011.0,0.017912607238804147
1010.0,0.017832615607479983
1009.0,0.017763082013057586
1008.0,0.017709415125742162
1007.0,0.017666882100945334
1006.0,0.017646543081353216
1005.0,0.017684392113468228
1004.0,0.01781663271094212
1003.0,0.01806227752929733
1002.0,0.018434803805257624
1001.0,0.018939783894669455
1000.0,0.019526442131206134
999.0,0.020046043166851737
998.0,0.02029580849067638
997.0,0.020133729840633375
996.0,0.01956401137947484
995.0,0.018730926250944288
994.0,0.017835026944003563
993.0,0.017026909736713745
992.0,0.016355077326169382
991.0,0.015798832501241426
990.0,0.015329989495911849
989.0,0.014936344861291334
988.0,0.014609490858423717
987.0,0.014340287702775519
986.0,0.014128313448183643
985.0,0.013977439780416975
984.0,0.013879867395921959
983.0,0.013821546193285024
982.0,0.013809724448768598
981.0,0.013881279963264225
980.0,0.014074668534481
979.0,0.014402011140228505
978.0,0.014853498776971178
977.0,0.015412698622256065
976.0,0.016043799490963972
975.0,0.016658625585539044
974.0,0.017110270341510282
973.0,0.017235367059784942
972.0,0.0169255595490642
971.0,0.01619649003014434
970.0,0.015203502792087813
969.0,0.014162368755454596
968.0,0.013232164996938026
967.0,0.012466367476578928
966.0,0.011849923070032034
965.0,0.01135476887307385
964.0,0.010958811516511655
963.0,0.010636400208603212
962.0,0.0103557608851201
961.0,0.010091533389382533
960.0,0.009834514730760004
959.0,0.009588740426099328
958.0,0.0093626721545403
957.0,0.009161977821674928
956.0,0.008985814851199557
955.0,0.0088272662731896
954.0,0.008677849819723724
953.0,0.008533214118757269
952.0,0.008395491756311053
951.0,0.008270171568885456
950.0,0.008159947983615745
949.0,0.008061517485602344
948.0,0.00796983816089036
947.0,0.007885820791499864
946.0,0.007817132985244633
945.0,0.0077689237676370655
944.0,0.007735218871067585
943.0,0.007702169880948137
942.0,0.007658633251811757
941.0,0.007600372508723845
940.0,0.007524788782057177
939.0,0.007427201577112977
938.0,0.007305377401619611
937.0,0.007165029584926125
936.0,0.007018752802163124
935.0,0.0068805505282654895
934.0,0.0067601370111922115
933.0,0.006658781009847946
932.0,0.006570186248923415
931.0,0.006487994620109587
930.0,0.00641269559891109
929.0,0.006348902705747041
928.0,0.006296256168725471
927.0,0.006246922949181848
926.0,0.00619387075602185
925.0,0.006138811723551598
924.0,0.006089862388295862
923.0,0.006053458310348989
922.0,0.00602961196706249
921.0,0.00601191416269309
920.0,0.00599043243899702
919.0,0.005958541966835448
918.0,0.005920234216467863
917.0,0.005887249872597488
916.0,0.005865672278604302
915.0,0.005848757743331242
914.0,0.005826389239407924
913.0,0.005797122752762203
912.0,0.005765536666692004
911.0,0.005732915526419699
910.0,0.005699378468260085
909.0,0.005672375182408365
908.0,0.005663298499489688
907.0,0.005676544609052203
906.0,0.0057124226653508525
905.0,0.0057822574946143086
904.0,0.005908670768154519
903.0,0.006102379619275801
902.0,0.0063405739107796465
901.0,0.006568554984028153
900.0,0.00671788585749499
899.0,0.006730902446027023
898.0,0.006589992053406404
897.0,0.006331959040191591
896.0,0.006025044515589455
895.0,0.005727477023927825
894.0,0.005468790629112735
893.0,0.005263017696902383
892.0,0.005122418495108886
891.0,0.005048375582664232
890.0,0.005020566586960795
889.0,0.005013441722493961
888.0,0.005024174781102049
887.0,0.0050742514144160745
886.0,0.0051850829762130745
885.0,0.005362232959149308
884.0,0.00560208461888839
883.0,0.005902641222079737
882.0,0.006266773897082691
881.0,0.006700986920602368
880.0,0.007204377426050453
879.0,0.00774594500711466
878.0,0.008258268462227259
877.0,0.008671199952540617
876.0,0.008955118376980563
875.0,0.009123974571381678
874.0,0.009191714996445784
873.0,0.009126114763064911
872.0,0.008857740592981
871.0,0.008355228033953048
870.0,0.007693544088976562
869.0,0.007026115740542424
868.0,0.006482372657019418
867.0,0.006099168212582395
866.0,0.005841367131581064
865.0,0.005666496187683952
864.0,0.005555675844245241
863.0,0.005494327428981864
862.0,0.005455708607519805
861.0,0.005420138180174514
860.0,0.00539450746859815
859.0,0.005395785990795373
858.0,0.005424247207300455
857.0,0.005465482679400783
856.0,0.005506349021175265
855.0,0.005530301223401651
854.0,0.0055073915209842075
853.0,0.00541511838091192
852.0,0.005271666968932175
851.0,0.005131026429529747
850.0,0.005040412444562364
849.0,0.005013763564710659
848.0,0.005048933813895692
847.0,0.005158336914304302
846.0,0.005382775074142166
845.0,0.005783055673045672
844.0,0.006395026401778697
843.0,0.007144969129828753
842.0,0.007803015515620126
841.0,0.008081061254206438
840.0,0.00783695541110516
839.0,0.007193071713711897
838.0,0.006438883634755949
837.0,0.005815357683588712
836.0,0.0053979325816140514
835.0,0.005144009337516808
834.0,0.004987073924423054
833.0,0.004878587585714526
832.0,0.004787668328015561
831.0,0.004700621869436712
830.0,0.004620961055205144
829.0,0.004556343148032918
828.0,0.004507930729470158
827.0,0.0044755389862680284
826.0,0.004461368136068228
825.0,0.004460537435455105
824.0,0.004458269078620873
823.0,0.004445657580677267
822.0,0.004430044604650841
821.0,0.004424833287131093
820.0,0.00444010131392277
819.0,0.004485907427807334
818.0,0.004572128515858807
817.0,0.004700074244911902
816.0,0.004861556579268907
815.0,0.005049842668542514
814.0,0.005265642323158615
813.0,0.005507575208891358
812.0,0.005759043300974752
811.0,0.0059869214393199945
810.0,0.00615219152363714
809.0,0.006223296693790906
808.0,0.006188812686102545
807.0,0.006067430111045706
806.0,0.005901881065566838
805.0,0.005733175004077702
804.0,0.005582414749475273
803.0,0.005458778623537004
802.0,0.005371920766855505
801.0,0.0053270501305003656
800.0,0.005315528959376476
799.0,0.005319164773594424
798.0,0.005321143462081514
797.0,0.005310870923277502
796.0,0.005285342888249715
795.0,0.005249196981962315
794.0,0.005206054015402488
793.0,0.0051488377534015025
792.0,0.005072151525999937
791.0,0.004997936368065219
790.0,0.004968236782597182
789.0,0.004998827029771171
788.0,0.005055157570378711
787.0,0.005087392396223831
786.0,0.005077043953413383
785.0,0.005036771984179221
784.0,0.004982944263970977
783.0,0.004932888996918312
782.0,0.00491477029466764
781.0,0.004948840737910298
780.0,0.005019725162415433
779.0,0.005089274935428864
778.0,0.005136235891120734
777.0,0.005164660376993414
776.0,0.005177820889962683
775.0,0.005170178470825491
774.0,0.005147182921340169
773.0,0.005126671769645938
772.0,0.005114450148411496
771.0,0.005100517704305278
770.0,0.005085682944463484
769.0,0.005090159715941707
768.0,0.005126751815199252
767.0,0.005184112708896359
766.0,0.005245311587082708
765.0,0.0053072550622126295
764.0,0.005373412208297424
763.0,0.005442923358334935
762.0,0.00551562967656772
761.0,0.005594110886954485
760.0,0.005672784448205775
759.0,0.005736089031946681
758.0,0.005772730293674581
757.0,0.005780797137791498
756.0,0.005761044355771194
755.0,0.0057250310522634455
754.0,0.0057072053441345125
753.0,0.005737443075015437
752.0,0.005793643843236305
751.0,0.005812948700506863
750.0,0.00576539977344126
749.0,0.005690497195521969
748.0,0.005642511632060664
747.0,0.005623669447694615
746.0,0.005596212849642037
745.0,0.005545238873423987
744.0,0.005502189283791696
743.0,0.005508850817021332
742.0,0.005576851090917032
741.0,0.005681666455997901
740.0,0.005781896901738703
739.0,0.005844726492597822
738.0,0.0058650073012819735
737.0,0.005865226637144005
736.0,0.005879513601360627
735.0,0.00593904611258949
734.0,0.006061569983337168
733.0,0.006235588335907771
732.0,0.006414166917384653
731.0,0.006545222803137202
730.0,0.006616950911055769
729.0,0.006660610024856559
728.0,0.006708136895066583
727.0,0.006766758365588512
726.0,0.00683357389600172
725.0,0.006907793375697101
724.0,0.006986563564569524
723.0,0.007076853067208261
722.0,0.007211829691676636
721.0,0.00741736070950268
720.0,0.007643119058234317
719.0,0.007773109626892448
718.0,0.0077452616721553486
717.0,0.007618926179432658
716.0,0.007505647679094278
715.0,0.0074691529380137775
714.0,0.007487955151580024
713.0,0.007485249060947507
712.0,0.0073907027232335935
711.0,0.007200267287120657
710.0,0.006992922823122045
709.0,0.006868372249740833
708.0,0.006856984154402439
707.0,0.006909219220358278
706.0,0.006975441859468336
705.0,0.007064107063760254
704.0,0.007206654735535511
703.0,0.0074014644561672845
702.0,0.0076215734617683835
701.0,0.007844312041471197
700.0,0.008036147587695303
699.0,0.008136655520887267
698.0,0.00810149830240698
697.0,0.007947746942003356
696.0,0.0077223823734686135
695.0,0.007444990781579692
694.0,0.0071192192296892914
693.0,0.006781895373833335
692.0,0.006497133842997157
691.0,0.006305334883762486
690.0,0.006204071369111323
689.0,0.006171634985265427
688.0,0.006184526509363512
687.0,0.006217205786999146
686.0,0.006250289644678362
685.0,0.00627626053747149
684.0,0.006284765327883666
683.0,0.006259744918216598
682.0,0.006205955118799181
681.0,0.006158895218861628
680.0,0.006148161614017676
679.0,0.006164758756507474
678.0,0.006178436447932877
677.0,0.0061702542142193124
676.0,0.006134642691310265
675.0,0.0060727509800976055
674.0,0.005999878330864024
673.0,0.005943374719554945
672.0,0.005900382851693885
671.0,0.0058310250378675495
670.0,0.00570567408319177
669.0,0.005586694982770951
668.0,0.005553072209680449
667.0,0.005557667310889889
666.0,0.005602648879098244
665.0,0.005685047396909285
664.0,0.0057296598808989525
663.0,0.005710799894348192
662.0,0.005657218050039093
661.0,0.005622814040430826
660.0,0.0056360937887877625
659.0,0.005674740376837278
658.0,0.005699046620383379
657.0,0.005698277887369121
656.0,0.005688793685825477
655.0,0.005680458251044365
654.0,0.005668262713014304
653.0,0.005644256205080869
652.0,0.005600943778350385
651.0,0.00553760219417616
650.0,0.005476625149784607
649.0,0.005448595559195048
648.0,0.005447659030789236
647.0,0.0054299101924727075
646.0,0.005371200436251677
645.0,0.005295850902772143
644.0,0.005234442702391401
643.0,0.005184779603504674
642.0,0.005127294528718216
641.0,0.005056167310905548
640.0,0.0049832835879757495
639.0,0.004932913695764141
638.0,0.0049334344398332675
637.0,0.004984541785104525
636.0,0.005031804853673494
635.0,0.0050105423910228215
634.0,0.004932476615118218
633.0,0.004879833779557936
632.0,0.004895717040598473
631.0,0.0049374480193701
630.0,0.00494624407559302
629.0,0.004910116990692062
628.0,0.00484195932814473
627.0,0.004758827313023111
626.0,0.0047158233406577425
625.0,0.004783608536662029
624.0,0.004937222139132728
623.0,0.005032602113452255
622.0,0.0049575824213265104
621.0,0.0047581748618542585
620.0,0.004563388045178782
619.0,0.004439648215152952
618.0,0.004370628562763247
617.0,0.004339552191141814
616.0,0.004353582721911029
615.0,0.004395191543550697
614.0,0.004429038582705658
613.0,0.004449037213436886
612.0,0.0044680890570991325
611.0,0.004482744818474726
610.0,0.004482307963844787
609.0,0.004474986894345924
608.0,0.004469307080383896
607.0,0.0044540440589862645
606.0,0.004435608956250264
605.0,0.0044548067624220825
604.0,0.0045216601569834855
603.0,0.004580853941932129
602.0,0.004589106014404161
601.0,0.004572073380475175
600.0,0.004555794573729226
