cm-1,A
4000.0,0.0019852046873762574
3999.0,0.002016960950789865
3998.0,0.0020824985869322687
3997.0,0.002154436364379779
3996.0,0.0022041655805741635
3995.0,0.0022170837109845853
3994.0,0.0021895343553112595
3993.0,0.002126221759537945
3992.0,0.0020457384466262647
3991.0,0.0019773195963974774
3990.0,0.001942283376946039
3989.0,0.0019386703412626978
3988.0,0.0019543946696660847
3987.0,0.001983901624418888
3986.0,0.002022770597584398
3985.0,0.002055968942229181
3984.0,0.002065949491571375
3983.0,0.0020548334700594946
3982.0,0.0020452953795911917
3981.0,0.002052968792794486
3980.0,0.0020681224106340714
3979.0,0.0020733144140738574
3978.0,0.002067784326197859
3977.0,0.0020710469336416865
3976.0,0.0021078425669576973
3975.0,0.002187021071849619
3974.0,0.002292910590532226
3973.0,0.002384403652258984
3972.0,0.0024099468178743633
3971.0,0.0023393288841061797
3970.0,0.0021950940757844376
3969.0,0.0020496484231625053
3968.0,0.00197383789623091
3967.0,0.0019943465765304104
3966.0,0.0020858604587779385
3965.0,0.002194882675946878
3964.0,0.00226986137204828
3963.0,0.002285991650866321
3962.0,0.002262191243801585
3961.0,0.00223717151233841
3960.0,0.002227386945306175
3959.0,0.002219327132828218
3958.0,0.0022036499073347067
3957.0,0.0022037459535109126
3956.0,0.0022486919919140072
3955.0,0.002333665630377433
3954.0,0.00242114162652483
3953.0,0.002473849572424072
3952.0,0.002482130184955675
3951.0,0.002467949212822935
3950.0,0.0024650240159828085
3949.0,0.0024949256101833165
3948.0,0.0025559073468167633
3947.0,0.002636661974791469
3946.0,0.0027179678217045386
3945.0,0.0027355223627707724
3944.0,0.0026298985221041484
3943.0,0.0024516662739103275
3942.0,0.002331614997210989
3941.0,0.0023378810456656067
3940.0,0.0024165691526396027
3939.0,0.0024738765202824975
3938.0,0.002477041370758784
3937.0,0.0024794831367102718
3936.0,0.002536767627129028
3935.0,0.0026302537519667024
3934.0,0.00270353788538212
3933.0,0.002737636990386801
3932.0,0.0027563054578929377
3931.0,0.002753844637559434
3930.0,0.00270753418246214
3929.0,0.002649892571884035
3928.0,0.0026302910080295604
3927.0,0.002633380810212994
3926.0,0.0026044847530920408
3925.0,0.0025762880076830325
3924.0,0.0026374660623822684
3923.0,0.0027707742809856264
3922.0,0.002870288065798931
3921.0,0.002858976251175715
3920.0,0.002756620172701645
3919.0,0.002638669521732865
3918.0,0.002544170490482162
3917.0,0.002480385176696666
3916.0,0.0024570512960978494
3915.0,0.0024649224754381745
3914.0,0.0024564966112639603
3913.0,0.002382410964924379
3912.0,0.0022611777349308354
3911.0,0.0021770041120325063
3910.0,0.0021896773774274167
3909.0,0.0023062180206981937
3908.0,0.002490629308216824
3907.0,0.002678034179670034
3906.0,0.002792174333937335
3905.0,0.0028506433047744096
3904.0,0.0029928946437640554
3903.0,0.003270513152794843
3902.0,0.003542750781137978
3901.0,0.0036154799456117282
3900.0,0.0034344871635563767
3899.0,0.0031408528176295226
3898.0,0.0029169484253877796
3897.0,0.0028228273203961193
3896.0,0.0028215305623991507
3895.0,0.0028629102740602864
3894.0,0.0028841225263244886
3893.0,0.0027948984895557263
3892.0,0.0025905950499947464
3891.0,0.0024058514116398295
3890.0,0.0023860873776553855
3889.0,0.0025925911106564085
3888.0,0.0028305206473459906
3887.0,0.0027707567054949074
3886.0,0.0024916518566434516
3885.0,0.0024575907141708674
3884.0,0.0028104421508064583
3883.0,0.0032411887843933115
3882.0,0.0033561815052854825
3881.0,0.003079241137178247
3880.0,0.002734827528445581
3879.0,0.0025993294776214043
3878.0,0.002683816777380478
3877.0,0.0028124543780882576
3876.0,0.0027342780186375383
3875.0,0.0024624168466310867
3874.0,0.0023973191398077446
3873.0,0.002794376644411764
3872.0,0.0033293348851809977
3871.0,0.003473121246675424
3870.0,0.003225425218773486
3869.0,0.0030509651893786023
3868.0,0.003171081842491974
3867.0,0.00335939688012896
3866.0,0.003293933473940614
3865.0,0.00305399927327517
3864.0,0.0030230553985765808
3863.0,0.0032038122341441592
3862.0,0.0032804886846905974
3861.0,0.0031578091524589362
3860.0,0.0029354479974052763
3859.0,0.002720963081450022
3858.0,0.002606921427136387
3857.0,0.002679287854612064
3856.0,0.0028522759033961604
3855.0,0.0027358046367651134
3854.0,0.002435598382431142
3853.0,0.002586095447850251
3852.0,0.0029554367202954497
3851.0,0.003151638364293651
3850.0,0.0031439410919843393
3849.0,0.002983997652509658
3848.0,0.0027997950744811616
3847.0,0.002688092865871553
3846.0,0.002653345950617221
3845.0,0.0026632596306038385
3844.0,0.0027092152109397215
3843.0,0.0028042119029106248
3842.0,0.002941464199921773
3841.0,0.003061119009291448
3840.0,0.003111322944899142
3839.0,0.0031365281885325754
3838.0,0.0031470847728793166
3837.0,0.003084339986400525
3836.0,0.0029786653695762794
3835.0,0.00291282370661223
3834.0,0.0028663732580677366
3833.0,0.0027514772590056915
3832.0,0.002578389922159619
3831.0,0.0024615825944382993
3830.0,0.0024684492642384533
3829.0,0.0025289176290789342
3828.0,0.0025044117244291267
3827.0,0.0023982761071687196
3826.0,0.0024317253899587693
3825.0,0.0027764234063565162
3824.0,0.0032878449486386475
3823.0,0.0034896713387061523
3822.0,0.0031498611823421695
3821.0,0.0028924091672450913
3820.0,0.003167910108710965
3819.0,0.0036610003164259256
3818.0,0.003893547316169343
3817.0,0.0035543398682018395
3816.0,0.0029393195975200717
3815.0,0.0026221183414449597
3814.0,0.0026655303959323817
3813.0,0.0027593676959981233
3812.0,0.0027254872588208835
3811.0,0.0026712042227559603
3810.0,0.002759370454913074
3809.0,0.0028576822287058193
3808.0,0.002683477322910582
3807.0,0.002356390331813207
3806.0,0.0023165487251477265
3805.0,0.0027275994333177773
3804.0,0.0032797651327820723
3803.0,0.0034326326303679303
3802.0,0.00319050892523605
3801.0,0.003168212402288687
3800.0,0.003484099866938162
3799.0,0.0037695664575059127
3798.0,0.0037228805243888228
3797.0,0.003337662440106552
3796.0,0.002930471822576033
3795.0,0.002745645567723223
3794.0,0.0027214830432903724
3793.0,0.0026906421861389125
3792.0,0.0026025751264902915
3791.0,0.002520011967009664
3790.0,0.0024951839807242386
3789.0,0.0025163464688095494
3788.0,0.00255198189280449
3787.0,0.002577314046135929
3786.0,0.0025788319200359773
3785.0,0.0025785011596801367
3784.0,0.002632393251601136
3783.0,0.002762057973193772
3782.0,0.0028984714594921055
3781.0,0.0029159698558264904
3780.0,0.002810509230665955
3779.0,0.0027318512618696436
3778.0,0.0027400156846939293
3777.0,0.0027566529466534866
3776.0,0.002706984186833514
3775.0,0.0026209546118247332
3774.0,0.0026322929516943644
3773.0,0.002796953945395704
3772.0,0.002959830748987556
3771.0,0.0029594059219081766
3770.0,0.0028991526326731885
3769.0,0.0029726026156386602
3768.0,0.003151790680696049
3767.0,0.00323856846475844
3766.0,0.0031268042677560217
3765.0,0.002956795475990197
3764.0,0.002942142511672201
3763.0,0.0031003166076620453
3762.0,0.0032375386794412427
3761.0,0.0032033554478751933
3760.0,0.0031252306444419994
3759.0,0.0032013722404453035
3758.0,0.00336922987404716
3757.0,0.0034767991289749263
3756.0,0.003537186716654448
3755.0,0.0035813906790937693
3754.0,0.0035194908728887345
3753.0,0.0032859410964308075
3752.0,0.0031307196969613616
3751.0,0.003378037838354094
3750.0,0.0036941890841567654
3749.0,0.003721986349213618
3748.0,0.0037811372509805536
3747.0,0.004097313575702363
3746.0,0.0042679589626738275
3745.0,0.003987753044420988
3744.0,0.0036748266442754125
3743.0,0.003671501149813317
3742.0,0.003832586462875193
3741.0,0.003922992656140628
3740.0,0.003916874588956644
3739.0,0.003971782492968084
3738.0,0.00408767383859908
3737.0,0.004099907359633461
3736.0,0.004093605397523194
3735.0,0.004255686950504038
3734.0,0.004377922775911655
3733.0,0.004208399902169361
3732.0,0.00387363595811266
3731.0,0.0036578776346028984
3730.0,0.0036827504194944525
3729.0,0.0038090939687445867
3728.0,0.0038023764767458152
3727.0,0.0036588936847708536
3726.0,0.0036259626084689757
3725.0,0.003772802747145805
3724.0,0.003878265043861142
3723.0,0.0038082555987595298
3722.0,0.0037086862069805986
3721.0,0.003752361275834045
3720.0,0.0038934413731473707
3719.0,0.003951148454651527
3718.0,0.0038467646702485293
3717.0,0.0037183555257862613
3716.0,0.003747382939090207
3715.0,0.003927237069091987
3714.0,0.004062320496467985
3713.0,0.004016733140163344
3712.0,0.003994824380790993
3711.0,0.004224078953889801
3710.0,0.004480554974468717
3709.0,0.004514615679904901
3708.0,0.004371744812407647
3707.0,0.0042090881639033325
3706.0,0.004159858715799366
3705.0,0.004264694233552462
3704.0,0.004454186498159653
3703.0,0.004624203032177154
3702.0,0.004742131962582368
3701.0,0.00482832555489855
3700.0,0.004903195226575934
3699.0,0.004966932679231427
3698.0,0.0049813622066880395
3697.0,0.004964246533254727
3696.0,0.005032970708052377
3695.0,0.005239683660960177
3694.0,0.005479721495548708
3693.0,0.005618075520887458
3692.0,0.005625405094742164
3691.0,0.005612330309734277
3690.0,0.005769567988046651
3689.0,0.006086979161503464
3688.0,0.0062973475318136365
3687.0,0.006336386189855372
3686.0,0.006311619009676169
3685.0,0.006243762872518295
3684.0,0.006158157018296688
3683.0,0.006163666006883417
3682.0,0.00630765183234318
3681.0,0.006506724952078604
3680.0,0.006742434704022075
3679.0,0.007135623163655033
3678.0,0.007662339727745736
3677.0,0.00796987837889669
3676.0,0.008062044405346174
3675.0,0.008335217043503856
3674.0,0.0087796688576719
3673.0,0.009263415155761899
3672.0,0.00955221578569308
3671.0,0.009449766264495982
3670.0,0.0093479356281855
3669.0,0.00955052155638761
3668.0,0.009787166352510293
3667.0,0.009879311211889561
3666.0,0.00985948428225275
3665.0,0.009815297436348196
3664.0,0.009843867217225851
3663.0,0.009980733459456752
3662.0,0.01019602070535288
3661.0,0.010463073605044242
3660.0,0.010791588285875998
3659.0,0.011157851044769903
3658.0,0.01146581292878036
3657.0,0.011693636042982831
3656.0,0.011995631703219023
3655.0,0.012471960572296558
3654.0,0.013089743506881132
3653.0,0.01371608872042852
3652.0,0.014137901835598578
3651.0,0.014331516692871572
3650.0,0.014799656768552459
3649.0,0.015703110222004192
3648.0,0.016248812854750175
3647.0,0.016218074281061926
3646.0,0.016084645708305336
3645.0,0.016104021503055642
3644.0,0.016267252520033335
3643.0,0.016504036653004983
3642.0,0.016821235091886013
3641.0,0.017241430955780516
3640.0,0.017701328152279927
3639.0,0.018109317682914128
3638.0,0.0184655775399552
3637.0,0.0188200330248173
3636.0,0.019144565273242438
3635.0,0.019366281790115174
3634.0,0.019574922674646125
3633.0,0.019991529761337466
3632.0,0.020686878560961852
3631.0,0.021379794607414127
3630.0,0.02177169450199211
3629.0,0.02218477730626079
3628.0,0.022823883525943764
3627.0,0.023336838258496306
3626.0,0.023620162853247882
3625.0,0.023773316089806144
3624.0,0.02392626341611331
3623.0,0.024214125065642498
3622.0,0.024640295254121498
3621.0,0.025112328899714428
3620.0,0.02563484795326389
3619.0,0.026276243753798882
3618.0,0.026938937671542918
3617.0,0.027538543798990872
3616.0,0.028107603958474857
3615.0,0.02862474652117808
3614.0,0.029030657641954595
3613.0,0.02932317869200026
3612.0,0.029558776064019764
3611.0,0.029796531656467305
3610.0,0.030054068668202656
3609.0,0.030369011466905307
3608.0,0.030807370802516075
3607.0,0.03131241029344391
3606.0,0.03175099310696586
3605.0,0.03209371627764027
3604.0,0.032397379542887066
3603.0,0.03273151101696365
3602.0,0.03315002572857208
3601.0,0.03368550346649115
3600.0,0.03432108256179256
3599.0,0.03496597772564779
3598.0,0.03551803949970602
3597.0,0.035926272900364736
3596.0,0.03620071620450116
3595.0,0.03640588827120773
3594.0,0.03663515091486747
3593.0,0.03694915568130403
3592.0,0.03736514636291606
3591.0,0.03785041277004465
3590.0,0.03829672136808195
3589.0,0.03862139928545511
3588.0,0.038983222943649004
3587.0,0.03954540187644086
3586.0,0.040120867427647554
3585.0,0.04052930989027361
3584.0,0.040811382729254816
3583.0,0.04106552845006777
3582.0,0.04137613699516894
3581.0,0.04178066350142898
3580.0,0.042265690040406215
3579.0,0.04278880000565441
3578.0,0.04331363950435628
3577.0,0.04381255855793886
3576.0,0.044252880481596306
3575.0,0.04461834572292529
3574.0,0.044949968667815754
3573.0,0.04533136869243511
3572.0,0.045825546074296154
3571.0,0.04642604584660114
3570.0,0.04704536165944323
3569.0,0.04757937055610102
3568.0,0.04809931000395605
3567.0,0.048778007715619964
3566.0,0.04946583581706378
3565.0,0.04989852582226045
3564.0,0.05011174056752488
3563.0,0.0502596744677044
3562.0,0.050446640096616396
3561.0,0.050730327320801794
3560.0,0.05111266354348666
3559.0,0.05154567358547954
3558.0,0.05197400832828108
3557.0,0.05238403028856468
3556.0,0.052803010917226764
3555.0,0.05325996191637508
3554.0,0.053759061358906034
3553.0,0.0542941630183345
3552.0,0.05484892169079306
3551.0,0.05539411514503923
3550.0,0.05590657518406516
3549.0,0.05637225038501897
3548.0,0.05680060762036199
3547.0,0.05725193462679697
3546.0,0.057785023111355985
3545.0,0.05835534768722577
3544.0,0.05885001440013232
3543.0,0.059220025069015594
3542.0,0.05950875700243115
3541.0,0.05979689672099234
3540.0,0.060146400594970284
3539.0,0.060572548073145965
3538.0,0.061052056268789054
3537.0,0.06155180833002262
3536.0,0.06204006238167957
3535.0,0.062483843766550765
3534.0,0.0628715010294991
3533.0,0.06323681259202688
3532.0,0.06364993182659803
3531.0,0.06416616260796806
3530.0,0.06477177163285688
3529.0,0.06539085194432416
3528.0,0.06596194616480103
3527.0,0.06648532710930921
3526.0,0.06697929575828106
3525.0,0.06743332428872745
3524.0,0.06783351235231122
3523.0,0.06820620928709868
3522.0,0.06860035665856538
3521.0,0.06903629870574769
3520.0,0.06949347532106563
3519.0,0.06994877763195924
3518.0,0.07040987109239102
3517.0,0.07089296905886414
3516.0,0.07137804637988111
3515.0,0.07181801384018353
3514.0,0.07219913967952521
3513.0,0.07256815884246082
3512.0,0.07299335925284864
3511.0,0.07350780339532499
3510.0,0.07408834525977748
3509.0,0.07467633149608462
3508.0,0.07522460089771711
3507.0,0.07573193253344251
3506.0,0.07622956416532142
3505.0,0.07675397510115826
3504.0,0.0773239280802616
3503.0,0.07789348542670115
3502.0,0.07837277020419635
3501.0,0.07874955987553349
3500.0,0.07911429327512601
3499.0,0.07955097864348777
3498.0,0.08005675830500114
3497.0,0.08055970662478587
3496.0,0.08099595591832232
3495.0,0.08136728686627431
3494.0,0.08173510807157548
3493.0,0.08217159936584661
3492.0,0.08271133680635052
3491.0,0.08333015033630922
3490.0,0.08395666871867209
3489.0,0.08451867636406682
3488.0,0.08499696983804264
3487.0,0.08542797813883234
3486.0,0.08585055410621817
3485.0,0.08626604121714015
3484.0,0.08665464920499004
3483.0,0.087020640104971
3482.0,0.08740954031531147
3481.0,0.08786850135820279
3480.0,0.0883983301136089
3479.0,0.08895501386626306
3478.0,0.08948766208322202
3477.0,0.08997350925295372
3476.0,0.09043239101052568
3475.0,0.09090531841799408
3474.0,0.09140479357592741
3473.0,0.0918948601238432
3472.0,0.09232999424624655
3471.0,0.09270558367478067
3470.0,0.09306475695725572
3469.0,0.09345815373266186
3468.0,0.09390142607116714
3467.0,0.09437326249933381
3466.0,0.09484444707900544
3465.0,0.0953042111883986
3464.0,0.09576887874525274
3463.0,0.09627062491424915
3462.0,0.09682278977195735
3461.0,0.09738402764426392
3460.0,0.09787203878147545
3459.0,0.09823919445936906
3458.0,0.09853707458909951
3457.0,0.09888470302860428
3456.0,0.09935566693339445
3455.0,0.09989973418877313
3454.0,0.10039255322617927
3453.0,0.1007714481812928
3452.0,0.10110628851584764
3451.0,0.10151097395295208
3450.0,0.10200325719045084
3449.0,0.10248513577764905
3448.0,0.10286856398924132
3447.0,0.10319206281236583
3446.0,0.10356278191333448
3445.0,0.10401111165033636
3444.0,0.10447229547398644
3443.0,0.10488798014186106
3442.0,0.10527058500963478
3441.0,0.10566519228578224
3440.0,0.10608551290602294
3439.0,0.1065173475591456
3438.0,0.10695632323420731
3437.0,0.1074055646261057
3436.0,0.10784962588875711
3435.0,0.10826309673311997
3434.0,0.1086451098302963
3433.0,0.10901929407068203
3432.0,0.109395464249805
3431.0,0.10974872930428789
3430.0,0.11005148128874645
3429.0,0.11031579078824275
3428.0,0.11058320182939216
3427.0,0.11087660124117264
3426.0,0.11118308527065039
3425.0,0.11148681971804199
3424.0,0.11179665177291946
3423.0,0.11212997329674121
3422.0,0.11248113611935094
3421.0,0.11282086855174318
3420.0,0.11312765084635541
3419.0,0.11340820987207668
3418.0,0.11368596130505738
3417.0,0.11398212721749673
3416.0,0.11430871546875894
3415.0,0.11466371423733902
3414.0,0.11502682177836754
3413.0,0.11537051643561146
3412.0,0.11568072870374241
3411.0,0.1159591098180411
3410.0,0.11620601324808601
3409.0,0.11641732460683707
3408.0,0.11660493335470817
3407.0,0.11680862902029907
3406.0,0.1170750621654542
3405.0,0.11742250628807173
3404.0,0.11782240609728138
3403.0,0.11821104176604001
3402.0,0.11852576465586835
3401.0,0.11874180195476754
3400.0,0.11888060182908344
3399.0,0.11898575709661283
3398.0,0.11909465385858077
3397.0,0.11922758546244507
3396.0,0.11939276486079302
3395.0,0.1195942753758473
3394.0,0.11983256889553673
3393.0,0.12009818159338384
3392.0,0.12036657926250911
3391.0,0.12060321533160308
3390.0,0.12077727347478485
3389.0,0.12087491038306872
3388.0,0.12090797544899093
3387.0,0.12091540498862165
3386.0,0.12094898930723041
3385.0,0.12104375246006274
3384.0,0.12119508529884833
3383.0,0.12136833207800722
3382.0,0.12153134050696798
3381.0,0.12166960366563785
3380.0,0.1217742647841674
3379.0,0.12183568596981685
3378.0,0.12186184472138538
3377.0,0.12188845898572431
3376.0,0.12194930897057003
3375.0,0.12204187324202466
3374.0,0.12213841539423342
3373.0,0.122223860720799
3372.0,0.12230356835850485
3371.0,0.12237967508975998
3370.0,0.12244451280432211
3369.0,0.12250043902259794
3368.0,0.12256071787345846
3367.0,0.12262006686298046
3366.0,0.12264787811297778
3365.0,0.12262781186465166
3364.0,0.12258673391387842
3363.0,0.12256641612679103
3362.0,0.12257712650004068
3361.0,0.12259317837208061
3360.0,0.12258795650263474
3359.0,0.12256152844222665
3358.0,0.12253726377071195
3357.0,0.12253877417240686
3356.0,0.1225633137301369
3355.0,0.12257405619206127
3354.0,0.12253398526589696
3353.0,0.12245451070541163
3352.0,0.12239363474694542
3351.0,0.12239254002335109
3350.0,0.12242252347604887
3349.0,0.1224102901819882
3348.0,0.12231318082497276
3347.0,0.12215937650123262
3346.0,0.12202009645022996
3345.0,0.1219495492502363
3344.0,0.12193972667642085
3343.0,0.12192179449561126
3342.0,0.12182224702511552
3341.0,0.12162915850077095
3340.0,0.12139759468261865
3339.0,0.12118740703270622
3338.0,0.12101250518342617
3337.0,0.12085876126283891
3336.0,0.12072429187823328
3335.0,0.12061375109058368
3334.0,0.12050770047233901
3333.0,0.1203703788678107
3332.0,0.12018649855056517
3331.0,0.1199699377008356
3330.0,0.11974088033419591
3329.0,0.11951633423118072
3328.0,0.11931944465164875
3327.0,0.1191687823694236
3326.0,0.11904720325668008
3325.0,0.11890264038227379
3324.0,0.11869891496986279
3323.0,0.1184594482975075
3322.0,0.11825054049340882
3321.0,0.11812195700937653
3320.0,0.11806199189469177
3319.0,0.1180026776782664
3318.0,0.11786903295357071
3317.0,0.11763437619886237
3316.0,0.1173354599997973
3315.0,0.11703593357427353
3314.0,0.11677797540570044
3313.0,0.11656481842051267
3312.0,0.11637576234325413
3311.0,0.11618867927708092
3310.0,0.11599351269292754
3309.0,0.11579440431705251
3308.0,0.1155977815643374
3307.0,0.11539578028375266
3306.0,0.11517159898325256
3305.0,0.1149291706194868
3304.0,0.11470686975200699
3303.0,0.11454598033822042
3302.0,0.11444518034669122
3301.0,0.1143571677073294
3300.0,0.11423110055667868
3299.0,0.11405166506966646
3298.0,0.11384175429677709
3297.0,0.11363635916659173
3296.0,0.11345125194612277
3295.0,0.11327065674420894
3294.0,0.1130680256957265
3293.0,0.11284215384592948
3292.0,0.11262521760494701
3291.0,0.11244697240756243
3290.0,0.11229969718005396
3289.0,0.11215025329765554
3288.0,0.11197879272639938
3287.0,0.11179119533697288
3286.0,0.11159693303151559
3285.0,0.11138878075399064
3284.0,0.11114782678328203
3283.0,0.11086654186381616
3282.0,0.11057098927954907
3281.0,0.11031805552573026
3280.0,0.11015364731678123
3279.0,0.11006149372260116
3278.0,0.1099613304790422
3277.0,0.10977337151552381
3276.0,0.10948769823453301
3275.0,0.10916542029854319
3274.0,0.10887742491254275
3273.0,0.10865066642866211
3272.0,0.10846521293458142
3271.0,0.10828223469994266
3270.0,0.10806820082678315
3269.0,0.10780674107333152
3268.0,0.10750526484896535
3267.0,0.10719691742703168
3266.0,0.10692907543224568
3265.0,0.1067304378537567
3264.0,0.1065762668358967
3263.0,0.1064013752864973
3262.0,0.10616812668527828
3261.0,0.1059097283331722
3260.0,0.10568142772607754
3259.0,0.1054822486658833
3258.0,0.10526091308978126
3257.0,0.10499243555178679
3256.0,0.10470033954652355
3255.0,0.10439491354484323
3254.0,0.1040478144645939
3253.0,0.10366110699181877
3252.0,0.1033085319015288
3251.0,0.10305610404866007
3250.0,0.10287406892103902
3249.0,0.10267609669428962
3248.0,0.10242822614900778
3247.0,0.10217138122125305
3246.0,0.1019421979117576
3245.0,0.10172089336838007
3244.0,0.10146738934631847
3243.0,0.10116804292666641
3242.0,0.10082789157107301
3241.0,0.10045080514739937
3240.0,0.10005123111630941
3239.0,0.09966555396486688
3238.0,0.09932971950241853
3237.0,0.09904893184209393
3236.0,0.09879533266182722
3235.0,0.09853157072393952
3234.0,0.09824081873578754
3233.0,0.09794305641450132
3232.0,0.09767372568729818
3231.0,0.09743279010523548
3230.0,0.09716805895225535
3229.0,0.09683196795001439
3228.0,0.09644681796859837
3227.0,0.09608521441924776
3226.0,0.09578610378973353
3225.0,0.09551830532323456
3224.0,0.09522895996580077
3223.0,0.09489846487348208
3222.0,0.09454098144402424
3221.0,0.09417796038924968
3220.0,0.09382606912811448
3219.0,0.09349266735897778
3218.0,0.09316435374903287
3217.0,0.09280783418808763
3216.0,0.0923959279001782
3215.0,0.09193521659828982
3214.0,0.09146652637855704
3213.0,0.09103901586917679
3212.0,0.09068117351618415
3211.0,0.09038506524734544
3210.0,0.0901108881290615
3209.0,0.08981492998458288
3208.0,0.08948231796908737
3207.0,0.08912898852121244
3206.0,0.0887718715178522
3205.0,0.08840831211514924
3204.0,0.0880267087887995
3203.0,0.0876260028724439
3202.0,0.08721734062911102
3201.0,0.08681077264533305
3200.0,0.08640551263707191
3199.0,0.08599332674686215
3198.0,0.08557185783442274
3197.0,0.08515484988171118
3196.0,0.08476176652590507
3195.0,0.08439087898055335
3194.0,0.08401020079402191
3193.0,0.08358636291942509
3192.0,0.08312117261351076
3191.0,0.08265010380726887
3190.0,0.0822054063081612
3189.0,0.08178974965825804
3188.0,0.08138437608166087
3187.0,0.08097096588163473
3186.0,0.08054308369245333
3185.0,0.08010507795123395
3184.0,0.07966270598721077
3183.0,0.07921026267470536
3182.0,0.07872929792920769
3181.0,0.07821160404824105
3180.0,0.07768531472810916
3179.0,0.07720394129736402
3178.0,0.07679802732412003
3177.0,0.07644447843635349
3176.0,0.07609345100251774
3175.0,0.07571554523723
3174.0,0.07531180073665109
3173.0,0.07489054070728114
3172.0,0.07445340402828882
3171.0,0.07400448083514748
3170.0,0.0735580090347456
3169.0,0.07312429479665351
3168.0,0.07269062420533785
3167.0,0.07222868779921798
3166.0,0.07172714997235219
3165.0,0.07121063878744317
3164.0,0.07071985046548991
3163.0,0.07027574297884173
3162.0,0.06986906564003735
3161.0,0.06948147000954873
3160.0,0.06910319127251534
3159.0,0.0687257571004434
3158.0,0.06833229539855785
3157.0,0.06790921539334253
3156.0,0.0674616608865655
3155.0,0.06700421814924473
3154.0,0.06654255594024361
3153.0,0.0660813733865418
3152.0,0.06564540559006954
3151.0,0.06526638401046067
3150.0,0.0649389847612831
3149.0,0.06461002873625858
3148.0,0.06422988551304912
3147.0,0.06380439536480882
3146.0,0.06337883351180214
3145.0,0.06297869586682397
3144.0,0.06258881815832029
3143.0,0.06219121684500606
3142.0,0.06179649587255957
3141.0,0.061421675624171765
3140.0,0.06105396774512628
3139.0,0.06066256132822742
3138.0,0.060248229931466446
3137.0,0.059856900037079684
3136.0,0.059528229570513826
3135.0,0.059242105656944155
3134.0,0.05893238379772548
3133.0,0.0585552937013468
3132.0,0.05813365143843143
3131.0,0.057726200102266936
3130.0,0.057363362653495856
3129.0,0.05702454947222506
3128.0,0.05667218870828465
3127.0,0.056293459957511324
3126.0,0.05590157169923136
3125.0,0.0555074529196223
3124.0,0.05510920905449594
3123.0,0.05471059933408723
3122.0,0.054333489444011326
3121.0,0.05400076998547947
3120.0,0.053712292268819246
3119.0,0.05344597509321547
3118.0,0.053177913800438674
3117.0,0.05289432531443321
3116.0,0.05259172166982256
3115.0,0.0522773448444883
3114.0,0.05196577840639582
3113.0,0.05166288389808897
3112.0,0.05135507591633661
3111.0,0.051027434998780624
3110.0,0.050690629984375325
3109.0,0.05037498411928015
3108.0,0.05009658787475716
3107.0,0.04984383762011222
3106.0,0.04960017107058326
3105.0,0.04936168697771556
3104.0,0.04912185170228315
3103.0,0.04885693628432129
3102.0,0.048548606855415996
3101.0,0.048215415907562786
3100.0,0.04789880430681493
3099.0,0.04761487624968211
3098.0,0.04734125932929779
3097.0,0.04705347763246722
3096.0,0.04675213070115492
3095.0,0.04644834050822486
3094.0,0.046141723708510746
3093.0,0.04582955799343826
3092.0,0.04552751798344817
3091.0,0.0452619741132607
3090.0,0.04504221725059848
3089.0,0.04485026788204712
3088.0,0.04465639197117739
3087.0,0.044437345347467794
3086.0,0.0441835823648335
3085.0,0.04390083223273543
3084.0,0.04360655136237814
3083.0,0.043316315194278567
3082.0,0.04303131272209457
3081.0,0.04274421970056079
3080.0,0.04245659716053776
3079.0,0.04218239612201669
3078.0,0.04193250057111581
3077.0,0.04170341696286224
3076.0,0.04148373490287955
3075.0,0.0412656091080235
3074.0,0.04104639430565409
3073.0,0.040824498717344095
3072.0,0.04059813562906909
3071.0,0.040363853056897374
3070.0,0.04011454330982746
3069.0,0.03984513186492116
3068.0,0.03956478109730199
3067.0,0.039297624387914044
3066.0,0.03906347053664299
3065.0,0.038859145463331225
3064.0,0.038662270803975905
3063.0,0.03845014033915487
3062.0,0.03821112332767666
3061.0,0.037944104139445496
3060.0,0.037656386232684025
3059.0,0.0373614286108772
3058.0,0.03707174803017604
3057.0,0.03679198743849219
3056.0,0.036521817347146844
3055.0,0.03626359961374386
3054.0,0.03602092938474143
3053.0,0.035788005261821895
3052.0,0.03554617382243766
3051.0,0.03527694245781558
3050.0,0.034979568450380555
3049.0,0.034675486856380125
3048.0,0.034392717545381056
3047.0,0.03414191866500889
3046.0,0.03390796087389466
3045.0,0.03366771381100986
3044.0,0.033419097042448935
3043.0,0.03318917702833542
3042.0,0.033004228449274225
3041.0,0.03285263087674269
3040.0,0.03268742095397683
3039.0,0.03247180426433994
3038.0,0.0322184915372468
3037.0,0.03197690926447951
3036.0,0.031784807336119665
3035.0,0.031636888302731536
3034.0,0.03149796297456262
3033.0,0.031340968714003985
3032.0,0.03116632791826629
3031.0,0.03098935006315958
3030.0,0.03081687210741854
3029.0,0.03064292048820376
3028.0,0.03046572651722524
3027.0,0.030295867750624553
3026.0,0.030140687318860597
3025.0,0.029984918158908545
3024.0,0.02980238264296175
3023.0,0.02958788341816796
3022.0,0.029363201095490794
3021.0,0.02914990861278292
3020.0,0.028950504700000865
3019.0,0.0287630193360066
3018.0,0.028596343570631733
3017.0,0.02845812388067417
3016.0,0.028339564987447524
3015.0,0.02822842308512461
3014.0,0.028128051130513067
3013.0,0.028046408301501888
3012.0,0.027971972809648304
3011.0,0.027879654758724844
3010.0,0.027758445928102678
3009.0,0.02761601334862279
3008.0,0.027460096591807
3007.0,0.0272948166887974
3006.0,0.02713628511207083
3005.0,0.027012111768967603
3004.0,0.02693500692945753
3003.0,0.026886813401752346
3002.0,0.0268347572464437
3001.0,0.02675667753215659
3000.0,0.026653372612856968
2999.0,0.02654894331099599
2998.0,0.026480220034065624
2997.0,0.026468788096306935
2996.0,0.02649678222405397
2995.0,0.026523771146107263
2994.0,0.026530728338246233
2993.0,0.026535920972822154
2992.0,0.026565540257393314
2991.0,0.02662801361536396
2990.0,0.026725407402407426
2989.0,0.026866445331418024
2988.0,0.0270514846416855
2987.0,0.027261326637087444
2986.0,0.027483030509200364
2985.0,0.027739335826569525
2984.0,0.028071136084617917
2983.0,0.028494992018954446
2982.0,0.028993869170079276
2981.0,0.029549208528182935
2980.0,0.03016678391866781
2979.0,0.030870697099288746
2978.0,0.031690905300183723
2977.0,0.032661464250688256
2976.0,0.03381546537772506
2975.0,0.035168475290968115
2974.0,0.03671315243562065
2973.0,0.038439657782389176
2972.0,0.040359257572927215
2971.0,0.04250324279511043
2970.0,0.044899374182352035
2969.0,0.04755387427426779
2968.0,0.05044914084966925
2967.0,0.05354422858766462
2966.0,0.05676870947331683
2965.0,0.0600111987083742
2964.0,0.06311557484676912
2963.0,0.06590082978694274
2962.0,0.06821671038599329
2961.0,0.07001756062496045
2960.0,0.07139232317722088
2959.0,0.0725205457945156
2958.0,0.07361499579595243
2957.0,0.07490351924819545
2956.0,0.07661081229898328
2955.0,0.07888506187714503
2954.0,0.08169051822457217
2953.0,0.08476833242668062
2952.0,0.08769687172878171
2951.0,0.08999037161595944
2950.0,0.09118588966833104
2949.0,0.09092290369112994
2948.0,0.08905382343987883
2947.0,0.08572659782903364
2946.0,0.08137114403081569
2945.0,0.07658419783048899
2944.0,0.07195227775937588
2943.0,0.06791183426263385
2942.0,0.06471154168720245
2941.0,0.06245435939381265
2940.0,0.06114838107987432
2939.0,0.06073646044802984
2938.0,0.0611225533110822
2937.0,0.06220556947789832
2936.0,0.0639059166674041
2935.0,0.06617048126624236
2934.0,0.06895731122469853
2933.0,0.0722251042393169
2932.0,0.07593309557600887
2931.0,0.08003788651421477
2930.0,0.08447735236673898
2929.0,0.08915385901887402
2928.0,0.09394683506272326
2927.0,0.09874366736188192
2926.0,0.10346889048749079
2925.0,0.10810764722608551
2924.0,0.11270607561867409
2923.0,0.11732406810248565
2922.0,0.12197087790130762
2921.0,0.12654299401257435
2920.0,0.13077648007012582
2919.0,0.13422859431116752
2918.0,0.13634060328893896
2917.0,0.13663450799827037
2916.0,0.1349310037625154
2915.0,0.13142872818534695
2914.0,0.12660303795216307
2913.0,0.1210598566344452
2912.0,0.11538632263409788
2911.0,0.1100119475841179
2910.0,0.10515501130210816
2909.0,0.10084752250862584
2908.0,0.09700695434704587
2907.0,0.09349448942829511
2906.0,0.09017368463001708
2905.0,0.08696266517820765
2904.0,0.08383886712134114
2903.0,0.08080346220364135
2902.0,0.07784845775144991
2901.0,0.07496864581179204
2900.0,0.07218974957262307
2899.0,0.06955894067067088
2898.0,0.06711269462174022
2897.0,0.06486493452968714
2896.0,0.06282233966993757
2895.0,0.061002606669951984
2894.0,0.0594330464042454
2893.0,0.05813166509730122
2892.0,0.057086378670863594
2891.0,0.05625558511941439
2890.0,0.055598380635745494
2889.0,0.055103500700518684
2888.0,0.05478281724471985
2887.0,0.054635617256305405
2886.0,0.0546343425758178
2885.0,0.05475130530995652
2884.0,0.05499171016862109
2883.0,0.05538730190422838
2882.0,0.055950730751831296
2881.0,0.056634435124541194
2880.0,0.05732712149255523
2879.0,0.05788744365401773
2878.0,0.058197266107798656
2877.0,0.05820747449065531
2876.0,0.05796036747377731
2875.0,0.057578404597744534
2874.0,0.057226827734728807
2873.0,0.05706843460457105
2872.0,0.057207747763803996
2871.0,0.0576504312798648
2870.0,0.05829838720076033
2869.0,0.058974133894905904
2868.0,0.059446049442266585
2867.0,0.05945405125507834
2866.0,0.05876469068662713
2865.0,0.05726117221780442
2864.0,0.05502374400537013
2863.0,0.05233601785943093
2862.0,0.04959513217035151
2861.0,0.04719101042399199
2860.0,0.04539387258208396
2859.0,0.04430983010662207
2858.0,0.04392146872856284
2857.0,0.04416439121892565
2856.0,0.04496824419767443
2855.0,0.04625415071926341
2854.0,0.04791421346819842
2853.0,0.04978172226828581
2852.0,0.05160007644604523
2851.0,0.0530197969140135
2850.0,0.05370244225822937
2849.0,0.05350994589533773
2848.0,0.05263148544936221
2847.0,0.05151211801108077
2846.0,0.05061737836799976
2845.0,0.05024356403291303
2844.0,0.05047119095642831
2843.0,0.051219460402853884
2842.0,0.0523037052748271
2841.0,0.053471573017955534
2840.0,0.05442662347614876
2839.0,0.05486037050540973
2838.0,0.054503350858634586
2837.0,0.05318358338906591
2836.0,0.05088493818580688
2835.0,0.04776714895137642
2834.0,0.04412673501361247
2833.0,0.040326472025303255
2832.0,0.03669449430382844
2831.0,0.03345375031876193
2830.0,0.03069768977266351
2829.0,0.028413117064840118
2828.0,0.026532297866086716
2827.0,0.024979018640157738
2826.0,0.023695392282270432
2825.0,0.022637875757775875
2824.0,0.02176000028781046
2823.0,0.021013415601781767
2822.0,0.02036618673584038
2821.0,0.01980558843531203
2820.0,0.019319957741194473
2819.0,0.018885183102546516
2818.0,0.018478771930989582
2817.0,0.018098386783387724
2816.0,0.017754643629161772
2815.0,0.01745001650906102
2814.0,0.017175718882364768
2813.0,0.016925303981840417
2812.0,0.016698430615802028
2811.0,0.01648815726485146
2810.0,0.016272729269173117
2809.0,0.016026279676314183
2808.0,0.015735970773253196
2807.0,0.015409406657459344
2806.0,0.015070055305370263
2805.0,0.014747818856458195
2804.0,0.014467503757315373
2803.0,0.014236202012706381
2802.0,0.014038048565263542
2801.0,0.013843106049729085
2800.0,0.013630114852698166
2799.0,0.013408582319700617
2798.0,0.013214513364718475
2797.0,0.013075464831055313
2796.0,0.01297799221866382
2795.0,0.012877624839019167
2794.0,0.012746129847965934
2793.0,0.012597090276427034
2792.0,0.012456144934362296
2791.0,0.012319584282100655
2790.0,0.01215980701380589
2789.0,0.011969793451401357
2788.0,0.011781682354271173
2787.0,0.011631451746207918
2786.0,0.011517875503941389
2785.0,0.011406633309839905
2784.0,0.011268738130911192
2783.0,0.011105008643008795
2782.0,0.010937280579052874
2781.0,0.01078897440950784
2780.0,0.010674542094869432
2779.0,0.010593797918162343
2778.0,0.010530547384943058
2777.0,0.010463576789358636
2776.0,0.010384034220497565
2775.0,0.01030185394374582
2774.0,0.01023275743670086
2773.0,0.01018153602165203
2772.0,0.010140566177937568
2771.0,0.01009812252218672
2770.0,0.010043352220002511
2769.0,0.009970216547257701
2768.0,0.00988443001409917
2767.0,0.009802934965233389
2766.0,0.009739368448647638
2765.0,0.009691427715219931
2764.0,0.009648084929483004
2763.0,0.009605021900199958
2762.0,0.009563705965770193
2761.0,0.009517944818420405
2760.0,0.00945537432255042
2759.0,0.009376699276463979
2758.0,0.009302656536425105
2757.0,0.009255134315728525
2756.0,0.009235968590514261
2755.0,0.009227024955635965
2754.0,0.009205884327525502
2753.0,0.009160233470676004
2752.0,0.00909521798414421
2751.0,0.009031624032049317
2750.0,0.008991096243990665
2749.0,0.008977142310275089
2748.0,0.008975207540756992
2747.0,0.00897174273367922
2746.0,0.00896453048585987
2745.0,0.00895335723158594
2744.0,0.008933027121179663
2743.0,0.008902480164909788
2742.0,0.00887130039053399
2741.0,0.008850124371368373
2740.0,0.008841947194962537
2739.0,0.008848692453066942
2738.0,0.008876900801255416
2737.0,0.008926847489422624
2736.0,0.008983763385639387
2735.0,0.009030768732223818
2734.0,0.009066145001943238
2733.0,0.00909975214069211
2732.0,0.009136651151002284
2731.0,0.009172366815937538
2730.0,0.009201663023734838
2729.0,0.009226919671544454
2728.0,0.009261698242860404
2727.0,0.009326129041340236
2726.0,0.009427467718482768
2725.0,0.009538143015807047
2724.0,0.009604545135391971
2723.0,0.009590794333996467
2722.0,0.009506805417100073
2721.0,0.00938778545445165
2720.0,0.0092585319718663
2719.0,0.009130238214005423
2718.0,0.009015444292295737
2717.0,0.008921921518436758
2716.0,0.008837317512802874
2715.0,0.008739770379381348
2714.0,0.008625400742676072
2713.0,0.008509592802209748
2712.0,0.008401656911857843
2711.0,0.008295468145766267
2710.0,0.008188135021675026
2709.0,0.008091010759071128
2708.0,0.00801603762739526
2707.0,0.007962773517197728
2706.0,0.007924054126046666
2705.0,0.007894029396676005
2704.0,0.007865819209878696
2703.0,0.007830950590181927
2702.0,0.007786639832673881
2701.0,0.0077377575729627585
2700.0,0.007689529827538056
2699.0,0.007644612849378448
2698.0,0.00760662260990874
2697.0,0.007577470434216582
2696.0,0.007550379129182201
2695.0,0.007514296519016061
2694.0,0.007467433062583885
2693.0,0.007418693238464813
2692.0,0.007375662697229741
2691.0,0.0073394969599838555
2690.0,0.007312011817060407
2689.0,0.007298306480558995
2688.0,0.007299085138402448
2687.0,0.007306993721680663
2686.0,0.007312233713161647
2685.0,0.0073072065393632556
2684.0,0.007288035628480247
2683.0,0.007259445985181433
2682.0,0.00723584976476996
2681.0,0.007228214837107446
2680.0,0.007229482389000463
2679.0,0.007221705283454524
2678.0,0.007196981553473349
2677.0,0.007163780883331623
2676.0,0.007135707239781632
2675.0,0.007123553532919231
2674.0,0.007134507052035114
2673.0,0.0071637145245402635
2672.0,0.00718573410464623
2671.0,0.007170509346810249
2670.0,0.007115512993630835
2669.0,0.007054695315290134
2668.0,0.007029664524742064
2667.0,0.007057700949384184
2666.0,0.007125563896140736
2665.0,0.0072023220637683055
2664.0,0.007255524979875531
2663.0,0.007267919962641131
2662.0,0.007249581592531758
2661.0,0.007228709820776608
2660.0,0.007223919938532355
2659.0,0.007227829732137009
2658.0,0.007219713213408259
2657.0,0.007189289145146733
2656.0,0.0071445085748703795
2655.0,0.007099707850109962
2654.0,0.007059729024944552
2653.0,0.007014219027321413
2652.0,0.006948623382942295
2651.0,0.006863695394037828
2650.0,0.006782063281208181
2649.0,0.006729708422169455
2648.0,0.006711284564277272
2647.0,0.00670771473450402
2646.0,0.006693668962415798
2645.0,0.006652959531554788
2644.0,0.006584170688848373
2643.0,0.006503473417856447
2642.0,0.006437584677242736
2641.0,0.006400966166964159
2640.0,0.006379008716720288
2639.0,0.006343537912843435
2638.0,0.006283606278782198
2637.0,0.006212383463766103
2636.0,0.006149660701092879
2635.0,0.0061102659753634846
2634.0,0.006103045947018418
2633.0,0.006121169701982616
2632.0,0.006133364974437736
2631.0,0.006106368303269879
2630.0,0.006042240268598155
2629.0,0.005978674414771929
2628.0,0.005946184149336977
2627.0,0.005939971941268138
2626.0,0.0059383790337417626
2625.0,0.005932245197018911
2624.0,0.005925946401916768
2623.0,0.005921291589344238
2622.0,0.005912393169740165
2621.0,0.005891618104373891
2620.0,0.005855234105999364
2619.0,0.0058078554373069925
2618.0,0.005763349990729519
2617.0,0.00573451292371356
2616.0,0.00572059685131086
2615.0,0.0057106904186144955
2614.0,0.005696376670452846
2613.0,0.005672892972369726
2612.0,0.00563420256083083
2611.0,0.005581255193668693
2610.0,0.005532085150498177
2609.0,0.005506294629660705
2608.0,0.005498380072057709
2607.0,0.005481549350279979
2606.0,0.005438356357698311
2605.0,0.005373874821098827
2604.0,0.005300302363378494
2603.0,0.005226326069691717
2602.0,0.00516390788473094
2601.0,0.005126951083348234
2600.0,0.005116631091714024
2599.0,0.005119959534314962
2598.0,0.005125060633481815
2597.0,0.005126732209050434
2596.0,0.005118816259631794
2595.0,0.005097107479338467
2594.0,0.00507231326085268
2593.0,0.005066489757679524
2592.0,0.005092795896270344
2591.0,0.005145164021996482
2590.0,0.0052029829929844205
2589.0,0.00523629746069828
2588.0,0.0052191800874062545
2587.0,0.005157339161937895
2586.0,0.005093104277124743
2585.0,0.005063778667668357
2584.0,0.005063815630079537
2583.0,0.005068001601979921
2582.0,0.005076426419134434
2581.0,0.0051033187566641575
2580.0,0.005130438528827146
2579.0,0.005113337753083485
2578.0,0.005038756006698255
2577.0,0.00494320149462019
2576.0,0.004867344121868291
2575.0,0.00482124054027158
2574.0,0.004798880234477224
2573.0,0.0047939555343756235
2572.0,0.004791931850530455
2571.0,0.004776345291800945
2570.0,0.004752782155747286
2569.0,0.004740573878281048
2568.0,0.004734733869106821
2567.0,0.004706217708471492
2566.0,0.004647802577061476
2565.0,0.004586332908131258
2564.0,0.004538084674986362
2563.0,0.004487893590122719
2562.0,0.0044312101807417945
2561.0,0.004402555108982041
2560.0,0.004432768955988006
2559.0,0.004498982881709665
2558.0,0.004542972804851924
2557.0,0.004528527092964668
2556.0,0.004466672454907134
2555.0,0.004397347295178324
2554.0,0.004357512029995957
2553.0,0.004353706686026408
2552.0,0.004356240448905197
2551.0,0.004332668355856969
2550.0,0.004288111193290251
2549.0,0.004252868260821047
2548.0,0.004233399528415583
2547.0,0.0042082471696844636
2546.0,0.004175359162605117
2545.0,0.004163527670897152
2544.0,0.004182150764806229
2543.0,0.004198520790750883
2542.0,0.004188448774215385
2541.0,0.00417452406731396
2540.0,0.0041842163670927565
2539.0,0.00419956515191144
2538.0,0.004182528710264365
2537.0,0.004129914695627845
2536.0,0.004071889426486008
2535.0,0.004031300911463267
2534.0,0.004014841348162447
2533.0,0.004030451117647539
2532.0,0.00407934274653
2531.0,0.004134173325248018
2530.0,0.00415322792000412
2529.0,0.004121470918885111
2528.0,0.004064910670429759
2527.0,0.0040258760069204706
2526.0,0.004031765602906676
2525.0,0.004076518922580584
2524.0,0.004119519124467457
2523.0,0.0041142074918433715
2522.0,0.004052722140582107
2521.0,0.003974345842107398
2520.0,0.003919272824555478
2519.0,0.0038871245736207417
2518.0,0.0038541752857931206
2517.0,0.003814557685452081
2516.0,0.003783351258446671
2515.0,0.00377027060267398
2514.0,0.0037721910532494954
2513.0,0.003786067769647272
2512.0,0.0038105981349503435
2511.0,0.0038378462370466755
2510.0,0.003857848528871044
2509.0,0.003870213554629026
2508.0,0.003881722471648764
2507.0,0.003896275876433603
2506.0,0.003913815502635401
2505.0,0.00393103783812747
2504.0,0.003936316465608445
2503.0,0.003916194646888365
2502.0,0.0038775339409117737
2501.0,0.003850501812602025
2500.0,0.0038554422189786552
2499.0,0.003878098734653789
2498.0,0.003893638740694546
2497.0,0.003903747769015381
2496.0,0.003928537419553479
2495.0,0.003967824141694178
2494.0,0.003996007531591917
2493.0,0.004000085827053941
2492.0,0.004000813807756241
2491.0,0.0040217180994944375
2490.0,0.004049782519939541
2489.0,0.004046056313538568
2488.0,0.003996012309859039
2487.0,0.003933423272742682
2486.0,0.003902879272166212
2485.0,0.0039061559819859298
2484.0,0.0039029000811144883
2483.0,0.003867281681187609
2482.0,0.0038254728772757008
2481.0,0.0038228458384155636
2480.0,0.003864956003139554
2479.0,0.003909579468316473
2478.0,0.003913938649814928
2477.0,0.003873743460920842
2476.0,0.0038179652916746822
2475.0,0.003781808327343203
2474.0,0.003785333474604747
2473.0,0.0038220428067142504
2472.0,0.0038638416966347965
2471.0,0.0038882174804171377
2470.0,0.0039014050405806414
2469.0,0.0039247832812675555
2468.0,0.003961944592107575
2467.0,0.0039941775277590515
2466.0,0.004007084296583217
2465.0,0.004005309041213986
2464.0,0.0040003850775911865
2463.0,0.004000135116896306
2462.0,0.004011707066786497
2461.0,0.004038607481096504
2460.0,0.004071030339933374
2459.0,0.004093430480131711
2458.0,0.004104546314924023
2457.0,0.004116790788903333
2456.0,0.004134871561514193
2455.0,0.004149250350165591
2454.0,0.0041510713643722885
2453.0,0.004138011458162212
2452.0,0.004106562307310909
2451.0,0.004058724488907939
2450.0,0.004018376922912311
2449.0,0.004017947246813241
2448.0,0.00405968492987634
2447.0,0.004108407100479996
2446.0,0.004131680082537316
2445.0,0.0041310922791070745
2444.0,0.0041257568875254485
2443.0,0.004121528888389645
2442.0,0.0041084440170988615
2441.0,0.004077650569893113
2440.0,0.004031296565620476
2439.0,0.003983305228057567
2438.0,0.003955013373125014
2437.0,0.003960966306654042
2436.0,0.003995772219632776
2435.0,0.004042391197098327
2434.0,0.0040894020528742265
2433.0,0.004127763331996327
2432.0,0.004140196781415749
2431.0,0.004119507768670753
2430.0,0.004096234655698661
2429.0,0.00411738988638321
2428.0,0.004186717309995816
2427.0,0.0042509148267190966
2426.0,0.004258577444060179
2425.0,0.004210793218409024
2424.0,0.004139731121087941
2423.0,0.004062512013624872
2422.0,0.003982575364918117
2421.0,0.003921011026637696
2420.0,0.003913373753731413
2419.0,0.0039707069570160776
2418.0,0.004060579082487214
2417.0,0.004131366266388513
2416.0,0.00414925941321828
2415.0,0.0041156810646799675
2414.0,0.004060680180109557
2413.0,0.004022149891447107
2412.0,0.00402145612608044
2411.0,0.004049433593213995
2410.0,0.0040734822684530434
2409.0,0.004061687749577688
2408.0,0.004007777155411369
2407.0,0.003937757905344586
2406.0,0.0038897760010562785
2405.0,0.0038839039317682643
2404.0,0.0039128877536959055
2403.0,0.003960763942645941
2402.0,0.004019969009973154
2401.0,0.004084606297493541
2400.0,0.004138737932277886
2399.0,0.004165180740599982
2398.0,0.0041622489723469915
2397.0,0.00414293678291446
2396.0,0.004122491137023899
2395.0,0.004112860403159064
2394.0,0.004118636216196574
2393.0,0.0041279696668660455
2392.0,0.004118991692817545
2391.0,0.004088894187791081
2390.0,0.004065452279454017
2389.0,0.004072275782618009
2388.0,0.0040938458219849025
2387.0,0.004097858271707535
2386.0,0.004083494055461702
2385.0,0.004080757131346603
2384.0,0.004103678467072133
2383.0,0.004130043400868447
2382.0,0.004133593190465252
2381.0,0.0041149439925798875
2380.0,0.00409078846867831
2379.0,0.004071089726937273
2378.0,0.0040598685126330795
2377.0,0.004062356071618092
2376.0,0.004079414682054956
2375.0,0.0041097951601008
2374.0,0.004162887599575647
2373.0,0.004239755397804241
2372.0,0.004295523007283486
2371.0,0.004273324764290454
2370.0,0.004198707258064652
2369.0,0.004173139816903682
2368.0,0.004229351409902579
2367.0,0.004272043300035034
2366.0,0.0042381932790630525
2365.0,0.0042269653738279565
2364.0,0.00434645155664935
2363.0,0.004507813953809447
2362.0,0.00452925674971723
2361.0,0.004407553073147176
2360.0,0.004329768522524399
2359.0,0.004415428395527761
2358.0,0.004592004006120273
2357.0,0.00472708144327167
2356.0,0.004764457775055857
2355.0,0.004712041369934145
2354.0,0.004610791202054942
2353.0,0.004533437245760712
2352.0,0.004530235055440582
2351.0,0.004575928899987951
2350.0,0.0045978691826490505
2349.0,0.00454695408954756
2348.0,0.004429875635326673
2347.0,0.004308909724722782
2346.0,0.004276214821038108
2345.0,0.004353250135799134
2344.0,0.00445956226020713
2343.0,0.004528555470962581
2342.0,0.004585841731665027
2341.0,0.004679601477566805
2340.0,0.004799863642653806
2339.0,0.00490823850090203
2338.0,0.004985851549003161
2337.0,0.005035845131102747
2336.0,0.005058014234068131
2335.0,0.005055588201851693
2334.0,0.0050427543123679605
2333.0,0.005034109130714948
2332.0,0.005021044323671304
2331.0,0.005002105824116436
2330.0,0.005014481423151328
2329.0,0.005129526391789637
2328.0,0.005394959967624532
2327.0,0.005782170046088624
2326.0,0.006186447502311619
2325.0,0.0064552918108820925
2324.0,0.006473507116290505
2323.0,0.006255115309053588
2322.0,0.005948405181414983
2321.0,0.005719039736238968
2320.0,0.005629947920608822
2319.0,0.0056420175568972575
2318.0,0.005678461558185453
2317.0,0.005679296724395796
2316.0,0.005616552241318545
2315.0,0.005510705781997314
2314.0,0.005414816622579113
2313.0,0.005371508137442421
2312.0,0.005382767270451069
2311.0,0.0054285603601277954
2310.0,0.005485356990189856
2309.0,0.0055169267942906785
2308.0,0.005482161283940863
2307.0,0.005381698921097847
2306.0,0.005271933616528783
2305.0,0.005204755966844786
2304.0,0.005177169096761924
2303.0,0.005165598158538309
2302.0,0.005180663525174126
2301.0,0.005247787691343949
2300.0,0.00534641866221674
2299.0,0.005416631918349401
2298.0,0.0054256389644787685
2297.0,0.00539268403500846
2296.0,0.005352475514970171
2295.0,0.005327587313776771
2294.0,0.005338404411588141
2293.0,0.0054008997320147065
2292.0,0.005502351360298473
2291.0,0.005603715553698592
2290.0,0.005675540582490731
2289.0,0.005709704159524712
2288.0,0.005699989517479933
2287.0,0.0056384963740137226
2286.0,0.005538081637347521
2285.0,0.005430524140545159
2284.0,0.0053333565374533475
2283.0,0.005243260623775499
2282.0,0.005166081758770198
2281.0,0.005125555228579603
2280.0,0.005132498072691184
2279.0,0.005169644396661417
2278.0,0.0052134268676401
2277.0,0.005246608571473647
2276.0,0.005245832758604644
2275.0,0.005192319860899649
2274.0,0.0051069707061426675
2273.0,0.0050470662409884395
2272.0,0.005049679297574189
2271.0,0.005092176227181773
2270.0,0.005115995028780096
2269.0,0.005072546641093198
2268.0,0.004955114342639578
2267.0,0.004811132702137822
2266.0,0.004723537465243221
2265.0,0.004742096340542757
2264.0,0.004826867811799055
2263.0,0.004882551978299618
2262.0,0.004859004175133375
2261.0,0.0047936556916327805
2260.0,0.004760846646023025
2259.0,0.004797570865607516
2258.0,0.0048775679716522614
2257.0,0.004929334834352417
2256.0,0.00488799114718074
2255.0,0.0047547005283078295
2254.0,0.004604477133696531
2253.0,0.004514008057169144
2252.0,0.00449479934170414
2251.0,0.004514561789793037
2250.0,0.004559713062144255
2249.0,0.004638475033163129
2248.0,0.004742952129200059
2247.0,0.004847404084532614
2246.0,0.004925323315098256
2245.0,0.004936191026544531
2244.0,0.004831381186511104
2243.0,0.0046279929688894765
2242.0,0.004445811983216119
2241.0,0.004403835073902468
2240.0,0.004479102614490918
2239.0,0.004534290591851439
2238.0,0.004483687542906218
2237.0,0.004374160358105277
2236.0,0.0043084622399688355
2235.0,0.004341293243050526
2234.0,0.004452142230268284
2233.0,0.004560419795085703
2232.0,0.004576411742183297
2231.0,0.00449011552164709
2230.0,0.004400113167410274
2229.0,0.004399368774616942
2228.0,0.004452035497445572
2227.0,0.004458501670058997
2226.0,0.0044185259052440485
2225.0,0.0044324272773394405
2224.0,0.004536615788435245
2223.0,0.004637034772954026
2222.0,0.004635737549194368
2221.0,0.0045458388955405115
2220.0,0.004448152995953124
2219.0,0.004399846676634496
2218.0,0.00441093159653799
2217.0,0.004453013747051388
2216.0,0.004466035388306237
2215.0,0.004411851644758339
2214.0,0.00433472363113253
2213.0,0.004314291995640935
2212.0,0.004351642659926392
2211.0,0.004367760262748934
2210.0,0.004323775353720085
2209.0,0.004268613868619704
2208.0,0.004249071713117662
2207.0,0.00424867694949255
2206.0,0.004248730267174753
2205.0,0.004273228859620697
2204.0,0.004324633483594713
2203.0,0.00432862467497887
2202.0,0.00420110811205685
2201.0,0.003959245302563432
2200.0,0.0037423498616105224
2199.0,0.003721397190718281
2198.0,0.003965299158410392
2197.0,0.004355388084968714
2196.0,0.00464939474443604
2195.0,0.004690009406509664
2194.0,0.004545415790949095
2193.0,0.004401468720065457
2192.0,0.004350170095228229
2191.0,0.0043425165175059125
2190.0,0.004317703862032386
2189.0,0.004284742483062403
2188.0,0.004270464491304924
2187.0,0.004274741821846075
2186.0,0.004291304273772789
2185.0,0.004298480179661891
2184.0,0.004227074507608666
2183.0,0.004020339973265392
2182.0,0.0037450395502939774
2181.0,0.003561443803342109
2180.0,0.0035523835127232737
2179.0,0.0036505121600400696
2178.0,0.0037411394511022485
2177.0,0.0037749695110601104
2176.0,0.003774679109275562
2175.0,0.003783380729313531
2174.0,0.003825446091864401
2173.0,0.0038924350290216996
2172.0,0.003973627225192379
2171.0,0.004110172100251875
2170.0,0.004367213254093028
2169.0,0.004720993645884642
2168.0,0.005039208534868254
2167.0,0.00523462702750669
2166.0,0.005363059990831107
2165.0,0.005500054332509462
2164.0,0.005596146054245153
2163.0,0.005538403984968718
2162.0,0.005258323597259014
2161.0,0.0046888454070736964
2160.0,0.0037619473732251572
2159.0,0.0026319234312880925
2158.0,0.0017420052890008276
2157.0,0.0014251247253680155
2156.0,0.0015695776924530979
2155.0,0.0018528542388427543
2154.0,0.002128207915632532
2153.0,0.0024182253031569904
2152.0,0.002696872081052114
2151.0,0.0028742773805056176
2150.0,0.0029586405844169773
2149.0,0.0030436744938446446
2148.0,0.0031383496789099035
2147.0,0.003155374693800264
2146.0,0.0030772940978676102
2145.0,0.0030021954715579524
2144.0,0.0030013687353889315
2143.0,0.003030963786224147
2142.0,0.003007897864843334
2141.0,0.002898116349645602
2140.0,0.0027289968095068227
2139.0,0.002565293693101073
2138.0,0.0024661038218925374
2137.0,0.0024202335768335158
2136.0,0.0023582930949740933
2135.0,0.0022763417479604274
2134.0,0.002279212614627145
2133.0,0.0024307045732481786
2132.0,0.0026401306162761157
2131.0,0.002783303318168677
2130.0,0.0028678462244823306
2129.0,0.0029791474867151865
2128.0,0.0031196052155194076
2127.0,0.003211598517863709
2126.0,0.0032399582619550855
2125.0,0.0032811813763609227
2124.0,0.003383654577672671
2123.0,0.0035053234068659505
2122.0,0.0035859799661203955
2121.0,0.003616082475365848
2120.0,0.003624945345561028
2119.0,0.003654751593407211
2118.0,0.003748366475270954
2117.0,0.003907477332455091
2116.0,0.00406505197187337
2115.0,0.00414730922194221
2114.0,0.004156330993586525
2113.0,0.0041408814741225805
2112.0,0.00411159832963528
2111.0,0.004051432886502847
2110.0,0.003989248238354961
2109.0,0.003980154596997657
2108.0,0.004018772205148587
2107.0,0.004051520386406402
2106.0,0.004068729236530913
2105.0,0.004105307050832029
2104.0,0.004154600801981477
2103.0,0.004172671760219062
2102.0,0.004172350027469626
2101.0,0.004219229266755115
2100.0,0.004313417179319784
2099.0,0.004356409158330058
2098.0,0.00427040578866482
2097.0,0.004087863090016842
2096.0,0.0039042943373919954
2095.0,0.003793613431929927
2094.0,0.0037855641034334466
2093.0,0.0038587486023042095
2092.0,0.0039406708652916286
2091.0,0.003965711410717872
2090.0,0.0039469135460769265
2089.0,0.003952785662418012
2088.0,0.004013888656320042
2087.0,0.00410722648144165
2086.0,0.0042137957313435155
2085.0,0.004324828424291498
2084.0,0.0043980958279285
2083.0,0.004380766129415336
2082.0,0.0042808240089138
2081.0,0.004159740450801382
2080.0,0.004056343349467062
2079.0,0.003970590515804554
2078.0,0.003912147845107641
2077.0,0.003894357454040349
2076.0,0.0038897866917820033
2075.0,0.0038685271476452104
2074.0,0.003863532236201529
2073.0,0.003917726899541869
2072.0,0.003988941181786939
2071.0,0.004003164189596758
2070.0,0.003983752915048355
2069.0,0.004015538551432323
2068.0,0.004089767679524646
2067.0,0.0040983160633239965
2066.0,0.0039964720674992805
2065.0,0.003869089713461002
2064.0,0.0038071760516759324
2063.0,0.0038121138572674755
2062.0,0.003854543434472498
2061.0,0.003924163203369745
2060.0,0.003997735510049778
2059.0,0.0040451396814836305
2058.0,0.0040684946261686375
2057.0,0.004066099507419014
2056.0,0.003998336495060333
2055.0,0.003893197890049033
2054.0,0.00392636561612978
2053.0,0.004232826627901234
2052.0,0.004655685037397442
2051.0,0.004857046120342248
2050.0,0.004703461315820665
2049.0,0.004409867068688336
2048.0,0.004218703602850277
2047.0,0.0041142561737496025
2046.0,0.003995914777601
2045.0,0.003903037517639623
2044.0,0.003918819749054142
2043.0,0.004006285627525079
2042.0,0.004078068442593377
2041.0,0.00411470088724048
2040.0,0.004118637400604319
2039.0,0.004064531402398502
2038.0,0.0039699135447267405
2037.0,0.003897758368015514
2036.0,0.0038251628436209014
2035.0,0.0036475091462734493
2034.0,0.003382723969793138
2033.0,0.0032102974331774804
2032.0,0.003215860166848345
2031.0,0.0032701298361473403
2030.0,0.0032514385868437213
2029.0,0.0032059654443531
2028.0,0.003209265069414561
2027.0,0.0032291366531801372
2026.0,0.0032102027113711956
2025.0,0.00316149641304673
2024.0,0.0030821934702477388
2023.0,0.002928370098328179
2022.0,0.00272943771379326
2021.0,0.002618935009870892
2020.0,0.002689803306927192
2019.0,0.0029161081456663992
2018.0,0.0032243739737047596
2017.0,0.003508838084963527
2016.0,0.003611227470417808
2015.0,0.0034675896108097644
2014.0,0.0032461625904882377
2013.0,0.003199390103542332
2012.0,0.00336847364093576
2011.0,0.003537434410484697
2010.0,0.0034969719498249706
2009.0,0.0032312488729786992
2008.0,0.0028412270290861315
2007.0,0.002430380430441474
2006.0,0.0021085324528825893
2005.0,0.001966365836594566
2004.0,0.0019871930726583975
2003.0,0.002082366723720396
2002.0,0.0022131642722046665
2001.0,0.002371254549464338
2000.0,0.002494336206372544
1999.0,0.002531555764624865
1998.0,0.00255438721674977
1997.0,0.0026647666060147625
1996.0,0.00282196229054032
1995.0,0.0029186318915578736
1994.0,0.002988037467722485
1993.0,0.0031586927857526724
1992.0,0.0033785364485588963
1991.0,0.0034184260823217814
1990.0,0.0032454656985635728
1989.0,0.003091694605006267
1988.0,0.0031154133359291673
1987.0,0.003217680997174442
1986.0,0.0032484198013663828
1985.0,0.0032363889780103626
1984.0,0.0033177894119517447
1983.0,0.003547806306732413
1982.0,0.0038513559396296
1981.0,0.004061231870300374
1980.0,0.003989620081579465
1979.0,0.0035891820078533796
1978.0,0.0030772173431729394
1977.0,0.002741860341800544
1976.0,0.0025959168062461907
1975.0,0.00243678574251789
1974.0,0.0022219007113765906
1973.0,0.002129504903975424
1972.0,0.0022375427464209666
1971.0,0.0023856357140738635
1970.0,0.0024130845589664923
1969.0,0.0023335969198464627
1968.0,0.002228909713780372
1967.0,0.0021320103016936706
1966.0,0.002079825289349856
1965.0,0.0021226129567160977
1964.0,0.0022100722800798495
1963.0,0.002209199353857355
1962.0,0.0020703914575307732
1961.0,0.001889304857957754
1960.0,0.0017799136076576815
1959.0,0.0017803273133177742
1958.0,0.0018992237802288724
1957.0,0.002119022459519192
1956.0,0.0023312409531295484
1955.0,0.0023992279055154012
1954.0,0.002316290592122133
1953.0,0.002207645022168626
1952.0,0.0021606312782341025
1951.0,0.0021657421856751072
1950.0,0.0022136537200688256
1949.0,0.0023138719922763304
1948.0,0.0024166160280818753
1947.0,0.0024354026999319506
1946.0,0.0023731600483224563
1945.0,0.0023301623741735548
1944.0,0.0023600495369319745
1943.0,0.0024034066403150855
1942.0,0.002385628723524135
1941.0,0.002305646533883981
1940.0,0.002190051753341755
1939.0,0.0020528725752772163
1938.0,0.0019371769369482782
1937.0,0.001908088420123544
1936.0,0.0019739625440356313
1935.0,0.0020866797916744384
1934.0,0.002217156803130175
1933.0,0.0023559907982162393
1932.0,0.0024519468135303733
1931.0,0.0024518666294920093
1930.0,0.0023908986376669555
1929.0,0.002341377511778007
1928.0,0.0023057719660465243
1927.0,0.002231278030599734
1926.0,0.0021284150709549605
1925.0,0.002074205414515651
1924.0,0.0021072018773765364
1923.0,0.0022017520559179517
1922.0,0.0023245070020430714
1921.0,0.0024503789516013862
1920.0,0.002515771472239563
1919.0,0.0024448999527151914
1918.0,0.0022902934392852333
1917.0,0.0022193287126858795
1916.0,0.002277964063124207
1915.0,0.002365538701001643
1914.0,0.002408748552157188
1913.0,0.0024243178685474914
1912.0,0.0024394266466176507
1911.0,0.0024380329691355905
1910.0,0.002410751601464772
1909.0,0.0023790283459180486
1908.0,0.0023514430156719463
1907.0,0.0023130787381619305
1906.0,0.0022874357904001832
1905.0,0.0023200762995445683
1904.0,0.0023928695201603928
1903.0,0.0024438352530393934
1902.0,0.002459008172962337
1901.0,0.002470555878506084
1900.0,0.0024764531446989702
1899.0,0.002432713054411749
1898.0,0.0023396588118530497
1897.0,0.002256995478684723
1896.0,0.0022130732981584427
1895.0,0.002173517891986596
1894.0,0.002123030033254776
1893.0,0.0020994667715525
1892.0,0.0021195196247849957
1891.0,0.002151647139488981
1890.0,0.0021823761190935555
1889.0,0.0022299885042215838
1888.0,0.0022780297503636185
1887.0,0.0022901234124322887
1886.0,0.00226271383731768
1885.0,0.002220829595965895
1884.0,0.002183923037147545
1883.0,0.0021664373501102314
1882.0,0.0021974372695485462
1881.0,0.0022828000462738157
1880.0,0.002365174427107858
1879.0,0.0023767981720684895
1878.0,0.002330384584068331
1877.0,0.002301698429816181
1876.0,0.0023103276001176167
1875.0,0.0022994542463207965
1874.0,0.0022420395237214208
1873.0,0.0021787085957798054
1872.0,0.0021373054322249498
1871.0,0.0020905788118802593
1870.0,0.0020307409057721253
1869.0,0.0020327333583246075
1868.0,0.002114303923079094
1867.0,0.002176310457745045
1866.0,0.0021898151537648315
1865.0,0.002191649571812211
1864.0,0.0021806199274640174
1863.0,0.0021345774019450934
1862.0,0.002074835278910132
1861.0,0.0020520486468311476
1860.0,0.002069153829868714
1859.0,0.002080294352654417
1858.0,0.0020735215506044857
1857.0,0.002080295540745216
1856.0,0.002105576318811116
1855.0,0.002116675041865285
1854.0,0.0021137615401116616
1853.0,0.0021271714983863437
1852.0,0.002163155109701033
1851.0,0.002186640465260251
1850.0,0.002168602555032256
1849.0,0.0021265377087015076
1848.0,0.002088426901969849
1847.0,0.002059462954762311
1846.0,0.0020397428866938184
1845.0,0.0020433501244509988
1844.0,0.0020624029343282715
1843.0,0.0020491602893793026
1842.0,0.0020253144421094665
1841.0,0.002039519434352229
1840.0,0.0020734893227109296
1839.0,0.0020856318622904943
1838.0,0.0020911343093506177
1837.0,0.0021294525920726687
1836.0,0.0021727333363719915
1835.0,0.002163346962129287
1834.0,0.0021163938275620157
1833.0,0.002093826891652514
1832.0,0.0021055854451562635
1831.0,0.0020927514492509363
1830.0,0.002052934553686971
1829.0,0.0020572736697664134
1828.0,0.0021028410888284128
1827.0,0.0021306560154930976
1826.0,0.00211139645378574
1825.0,0.0020887266607353115
1824.0,0.0021013174175053963
1823.0,0.0021161751197638344
1822.0,0.002112855532218582
1821.0,0.002105577731623805
1820.0,0.0020956310793376664
1819.0,0.002060162467949647
1818.0,0.002013940284071116
1817.0,0.002012558703676178
1816.0,0.0020590540814386772
1815.0,0.002103023847651633
1814.0,0.0021266485572357984
1813.0,0.0021691991957056285
1812.0,0.002246331525173343
1811.0,0.002300329758456733
1810.0,0.0023012903393410306
1809.0,0.0023032250703784456
1808.0,0.0023441580942730085
1807.0,0.0023951985350839605
1806.0,0.0024243157726057596
1805.0,0.0024376259305171374
1804.0,0.0024401066680666537
1803.0,0.002427502517982194
1802.0,0.0024136411179947535
1801.0,0.0024398781311956376
1800.0,0.002493117248468823
1799.0,0.0025021469707937416
1798.0,0.002467000965902317
1797.0,0.0024574132596932932
1796.0,0.0025023667719395017
1795.0,0.00255791210535441
1794.0,0.0025638412079776202
1793.0,0.0025296834121553502
1792.0,0.0025223557478586895
1791.0,0.0025402382441866572
1790.0,0.0025643663394919417
1789.0,0.002611243966960392
1788.0,0.002658571273189041
1787.0,0.0026609782106065934
1786.0,0.002622000499471505
1785.0,0.002602836402350278
1784.0,0.002626966909393117
1783.0,0.0026605903411210446
1782.0,0.002668331318970308
1781.0,0.0026690401320707434
1780.0,0.0026899387235919245
1779.0,0.0026988354497160735
1778.0,0.0026793543918035923
1777.0,0.0026585572865777778
1776.0,0.002665921539889928
1775.0,0.0027021224527012154
1774.0,0.0027419744956340654
1773.0,0.002803946069211892
1772.0,0.0029268210733215455
1771.0,0.003002518615728019
1770.0,0.002984911422198453
1769.0,0.0029718115088001925
1768.0,0.0030002812049572287
1767.0,0.0030313976877078992
1766.0,0.0030479241701718424
1765.0,0.0030875664647877603
1764.0,0.003163021226002054
1763.0,0.003241897323838374
1762.0,0.003301848245536019
1761.0,0.003359172327089939
1760.0,0.003417293980842232
1759.0,0.0034611411133185412
1758.0,0.0034920628048387744
1757.0,0.0035492011640403604
1756.0,0.0036565184405269405
1755.0,0.0037590605397540373
1754.0,0.0038280608691817156
1753.0,0.0038983262244910036
1752.0,0.004022578349011866
1751.0,0.004198569157784055
1750.0,0.004371996109969911
1749.0,0.004548888776728632
1748.0,0.0047456743047454
1747.0,0.004902142312892644
1746.0,0.004986264123729396
1745.0,0.005062187308453022
1744.0,0.005176099332559049
1743.0,0.005284970321504071
1742.0,0.0053479169649206714
1741.0,0.005398593282614924
1740.0,0.005459872363863552
1739.0,0.0054935314574125595
1738.0,0.00548133335062039
1737.0,0.005485553277536684
1736.0,0.005530368745922565
1735.0,0.0055589350017298
1734.0,0.005618551884075862
1733.0,0.005765821255266413
1732.0,0.005969038808849275
1731.0,0.006175478924831728
1730.0,0.00633068991022964
1729.0,0.006447902646288365
1728.0,0.006556035098449209
1727.0,0.006647480647951613
1726.0,0.006713744069962479
1725.0,0.0068038500203916625
1724.0,0.006959893175642981
1723.0,0.007134075388918568
1722.0,0.007275407822520764
1721.0,0.007398182413806617
1720.0,0.007509912778297304
1719.0,0.007549929763114456
1718.0,0.007583176971868036
1717.0,0.007868375561799703
1716.0,0.008358765869146528
1715.0,0.008763596127627457
1714.0,0.009002261170822803
1713.0,0.009178464837058524
1712.0,0.009380120559914674
1711.0,0.009604074611235514
1710.0,0.009824568507527612
1709.0,0.01006402301783142
1708.0,0.010363528449694001
1707.0,0.010708691878685407
1706.0,0.011080278074569398
1705.0,0.011478691858465083
1704.0,0.011838620710003
1703.0,0.012148328527763817
1702.0,0.012465199271735866
1701.0,0.012886617581512135
1700.0,0.013511693570629757
1699.0,0.01404622487884509
1698.0,0.014400803133530225
1697.0,0.014920660142222663
1696.0,0.015710398568608713
1695.0,0.016405631268840693
1694.0,0.016879674132849895
1693.0,0.017334751472089134
1692.0,0.017837403706948776
1691.0,0.0183630238324193
1690.0,0.01890541371314047
1689.0,0.019459749757192127
1688.0,0.019966404289553263
1687.0,0.020396477949995346
1686.0,0.02081436898511097
1685.0,0.02153236782975326
1684.0,0.022759260417103844
1683.0,0.023675956494786196
1682.0,0.02409200326703089
1681.0,0.02451172654701904
1680.0,0.025059328508613973
1679.0,0.025615560280673046
1678.0,0.026097544249850446
1677.0,0.026583984834600845
1676.0,0.02719231141264005
1675.0,0.02788146915658543
1674.0,0.02844001614489165
1673.0,0.02888257725140128
1672.0,0.029378808251493582
1671.0,0.029985805484139358
1670.0,0.030672195641932104
1669.0,0.031305125840089536
1668.0,0.03176893918233185
1667.0,0.032106989477696246
1666.0,0.0324074088999397
1665.0,0.0327485009399343
1664.0,0.03318293622772605
1663.0,0.03371139674677774
1662.0,0.034228583235736736
1661.0,0.03465154226885572
1660.0,0.03503266753812025
1659.0,0.03537174428019983
1658.0,0.03562322682420488
1657.0,0.03578375775129933
1656.0,0.03594379010943786
1655.0,0.036115486526999294
1654.0,0.036306438597194055
1653.0,0.03668467076311146
1652.0,0.036952756878101484
1651.0,0.03712747570751474
1650.0,0.03733702711044
1649.0,0.03748282560098834
1648.0,0.03760882916387385
1647.0,0.037806043573394475
1646.0,0.037892534303654475
1645.0,0.03781713045627563
1644.0,0.03777662282382697
1643.0,0.037775275134506216
1642.0,0.0377240790753745
1641.0,0.03761079676652981
1640.0,0.03749311468532055
1639.0,0.03739839288377577
1638.0,0.03729897931481789
1637.0,0.03716166771502497
1636.0,0.03699043157434963
1635.0,0.03670213274334699
1634.0,0.03630608501482406
1633.0,0.03598082896639934
1632.0,0.03575209625450153
1631.0,0.035543322763632715
1630.0,0.03528334722265441
1629.0,0.03493992633936564
1628.0,0.03454919710784668
1627.0,0.03417058896406636
1626.0,0.03381258867758199
1625.0,0.0334287372559422
1624.0,0.03294926742929734
1623.0,0.032377321452153385
1622.0,0.03182384152773472
1621.0,0.03138112133360769
1620.0,0.031038351442982275
1619.0,0.030697187285140294
1618.0,0.030208656860871298
1617.0,0.029503403475444216
1616.0,0.028794309221449897
1615.0,0.028306241242690683
1614.0,0.027981484998243822
1613.0,0.02767313746217965
1612.0,0.02730984616663772
1611.0,0.026901815344948888
1610.0,0.026475791337666917
1609.0,0.02603556170415618
1608.0,0.025594771024994696
1607.0,0.025196849367417014
1606.0,0.024861418329392804
1605.0,0.024563255202185906
1604.0,0.024282085618306373
1603.0,0.024017649148849067
1602.0,0.02376785605849069
1601.0,0.02351630862937126
1600.0,0.023253058073264672
1599.0,0.022987753205330554
1598.0,0.022730845606965856
1597.0,0.022483158866258544
1596.0,0.022244393122140393
1595.0,0.022025816505754605
1594.0,0.021837628702374087
1593.0,0.02167069012063704
1592.0,0.021510895587329482
1591.0,0.021358971609224627
1590.0,0.02122155294567138
1589.0,0.02109454352902473
1588.0,0.020973386550060542
1587.0,0.020865676713884854
1586.0,0.020783961196143484
1585.0,0.020718509259626573
1584.0,0.02065825952095631
1583.0,0.02060562540630257
1582.0,0.020556226049835466
1581.0,0.02049695231444124
1580.0,0.020426112903095418
1579.0,0.020355960236651732
1578.0,0.02029202545047942
1577.0,0.020241959136058054
1576.0,0.02020239374771972
1575.0,0.02015636640257138
1574.0,0.02013491669909972
1573.0,0.020153507451584982
1572.0,0.020181123206698594
1571.0,0.02018859254933152
1570.0,0.02018771328977745
1569.0,0.02016632456319619
1568.0,0.020099899609622805
1567.0,0.020038330803835
1566.0,0.02001102873192869
1565.0,0.019976942744805933
1564.0,0.019912474891885756
1563.0,0.019823298961013633
1562.0,0.019763908602156398
1561.0,0.019748260621382612
1560.0,0.019667805120508915
1559.0,0.01973453242865555
1558.0,0.019841330650448852
1557.0,0.01970983364839876
1556.0,0.01961155506046631
1555.0,0.019574545794753952
1554.0,0.01952927783867422
1553.0,0.019492135282415685
1552.0,0.01948010627382933
1551.0,0.019482294053698758
1550.0,0.019468097965644797
1549.0,0.019430370291238622
1548.0,0.019367785400129796
1547.0,0.01928574560990358
1546.0,0.019163112857798606
1545.0,0.019011718497858703
1544.0,0.018888180674321294
1543.0,0.01878717887781783
1542.0,0.018613376829173363
1541.0,0.0183682138398884
1540.0,0.01817902407096894
1539.0,0.017977423000374353
1538.0,0.01778411306840174
1537.0,0.017710634562596618
1536.0,0.017682052940751647
1535.0,0.0175755851181719
1534.0,0.017329778444906525
1533.0,0.01703955528592214
1532.0,0.016802243562154835
1531.0,0.016605870773746853
1530.0,0.016421926613571135
1529.0,0.016227259995920867
1528.0,0.016015158721320137
1527.0,0.015791906792724297
1526.0,0.015571071596582858
1525.0,0.015383412714485907
1524.0,0.015242068371694659
1523.0,0.015098110869261574
1522.0,0.014941022042292706
1521.0,0.01483148800842747
1520.0,0.014756162675856825
1519.0,0.014683572482159082
1518.0,0.014576084581022053
1517.0,0.014426238380099637
1516.0,0.01425602109104043
1515.0,0.014057932529094735
1514.0,0.013848574604377457
1513.0,0.01363940032177436
1512.0,0.013423748512156348
1511.0,0.013189725228224203
1510.0,0.012955187452709929
1509.0,0.01274891861669035
1508.0,0.012644912449087324
1507.0,0.012665105378288449
1506.0,0.012545368291516881
1505.0,0.012335986586636274
1504.0,0.012257136583936866
1503.0,0.012242212210510035
1502.0,0.012216801394800116
1501.0,0.012194586709885803
1500.0,0.012195108737896893
1499.0,0.01217812995013915
1498.0,0.012121821453272636
1497.0,0.012124796514884486
1496.0,0.012207975011282297
1495.0,0.012264149812316057
1494.0,0.012291148335111846
1493.0,0.012341137938870168
1492.0,0.01238882484995913
1491.0,0.01236387030264375
1490.0,0.012311781063619586
1489.0,0.01236852379916429
1488.0,0.012477609534014607
1487.0,0.01251507195286072
1486.0,0.012526615728088952
1485.0,0.012594200960834995
1484.0,0.012725613769904796
1483.0,0.012889028159341905
1482.0,0.013098714387380993
1481.0,0.013396013002417089
1480.0,0.013738577398896092
1479.0,0.014066773086368767
1478.0,0.014447467335765737
1477.0,0.01502785903791046
1476.0,0.015835591436140214
1475.0,0.016778217387872527
1474.0,0.018035618781673965
1473.0,0.020050975701098164
1472.0,0.02234895248385633
1471.0,0.024014619565578193
1470.0,0.025255095704640247
1469.0,0.02653794020746103
1468.0,0.027957620083278234
1467.0,0.029551258948733256
1466.0,0.03152909477094776
1465.0,0.03398714479886816
1464.0,0.03625001480979221
1463.0,0.0376476221389736
1462.0,0.03839365268940801
1461.0,0.03885401955779446
1460.0,0.03913719959903794
1459.0,0.03923686014731646
1458.0,0.03940995448177006
1457.0,0.03987081598524285
1456.0,0.040087941268592206
1455.0,0.039965231725940895
1454.0,0.03982560245442033
1453.0,0.03960265871702508
1452.0,0.03914110265752368
1451.0,0.03841426153658809
1450.0,0.03744103319734296
1449.0,0.036070407053040175
1448.0,0.03418711360222223
1447.0,0.032151139393964454
1446.0,0.030419577883680396
1445.0,0.029015110941000843
1444.0,0.027778431430797806
1443.0,0.02668665713608246
1442.0,0.025824609939381304
1441.0,0.025216205517558477
1440.0,0.024815328657482125
1439.0,0.024597666494673313
1438.0,0.02457449109339045
1437.0,0.02465206263417206
1436.0,0.024528947087703513
1435.0,0.02406342955350523
1434.0,0.02340137968064737
1433.0,0.022619187316619858
1432.0,0.021743203404412232
1431.0,0.020894685226502833
1430.0,0.020203449447306357
1429.0,0.019689003434262407
1428.0,0.01930503210867008
1427.0,0.0190371250576286
1426.0,0.018849813309626092
1425.0,0.018676758009622624
1424.0,0.018514791439038763
1423.0,0.018403860708099042
1422.0,0.01832369067392019
1421.0,0.018197480718672946
1420.0,0.017977700439276188
1419.0,0.01775551999534701
1418.0,0.017641721055154245
1417.0,0.017580688985901427
1416.0,0.017504639522810977
1415.0,0.01740678393341643
1414.0,0.017269376787764707
1413.0,0.017067996642371658
1412.0,0.01681358429167149
1411.0,0.016555558429357256
1410.0,0.01631095070375702
1409.0,0.016054807595514843
1408.0,0.01577964027785725
1407.0,0.015510864883173478
1406.0,0.015236897204103702
1405.0,0.014898337508024218
1404.0,0.014519469180685345
1403.0,0.014207481315334627
1402.0,0.013981066307681544
1401.0,0.01374511733411233
1400.0,0.013435459241271163
1399.0,0.013121044994107975
1398.0,0.012882008104623015
1397.0,0.012680484125750568
1396.0,0.012479939212810504
1395.0,0.012324187824847302
1394.0,0.01220743067398158
1393.0,0.012078053091298658
1392.0,0.011972119761281166
1391.0,0.011947822980813705
1390.0,0.011985858419979265
1389.0,0.012042897174377669
1388.0,0.012199140599006765
1387.0,0.012641100984863818
1386.0,0.013392278359842389
1385.0,0.014380095557928418
1384.0,0.015743028521018453
1383.0,0.017746849959901976
1382.0,0.020558603808470955
1381.0,0.024279289900390095
1380.0,0.029065276198315837
1379.0,0.03478058098003236
1378.0,0.040536951261944586
1377.0,0.04501202292244308
1376.0,0.047018657001373296
1375.0,0.045514172723374866
1374.0,0.04060252174747627
1373.0,0.03449744986861869
1372.0,0.02923039734083361
1371.0,0.025052342831191034
1370.0,0.02159142039414421
1369.0,0.01875926388182581
1368.0,0.016696870940012116
1367.0,0.015403133174792992
1366.0,0.01466728992133311
1365.0,0.014287968389987901
1364.0,0.014173036065927652
1363.0,0.014321378687983003
1362.0,0.014691344761238487
1361.0,0.01511324242286604
1360.0,0.015402552684636691
1359.0,0.015447952489263422
1358.0,0.01519788875562451
1357.0,0.014659988013979986
1356.0,0.013899370549859204
1355.0,0.01302905407011391
1354.0,0.012185183665385478
1353.0,0.011466259655809736
1352.0,0.010883126234601807
1351.0,0.010400650666031196
1350.0,0.009994435388667195
1349.0,0.009649758340610999
1348.0,0.009345511508493387
1347.0,0.009066197220246444
1346.0,0.008818721493155284
1345.0,0.00861243773158853
1344.0,0.008436123308601658
1343.0,0.00826993049766512
1342.0,0.008108174794904513
1341.0,0.007961391045892328
1340.0,0.007845160003525198
1339.0,0.007766398955547616
1338.0,0.007720167832495855
1337.0,0.007698639305822276
1336.0,0.007696331436567717
1335.0,0.007714165613606324
1334.0,0.007757007330448798
1333.0,0.007822379867602982
1332.0,0.007896331537909662
1331.0,0.00796171677913468
1330.0,0.008004187485538869
1329.0,0.00801214569448912
1328.0,0.007978906034690333
1327.0,0.007908392665456569
1326.0,0.00781111612378955
1325.0,0.007695249674507031
1324.0,0.007569398863474873
1323.0,0.007447576747985258
1322.0,0.007341636690752624
1321.0,0.007250158577593565
1320.0,0.007164356038324778
1319.0,0.007082923279544495
1318.0,0.00701063090794206
1317.0,0.0069452391283494185
1316.0,0.006879562132705266
1315.0,0.006813243787145873
1314.0,0.006752286354239988
1313.0,0.006700919473552688
1312.0,0.006662194027495344
1311.0,0.006644958163508446
1310.0,0.006661175990196642
1309.0,0.006719944601970567
1308.0,0.006826127109351094
1307.0,0.00697442972450453
1306.0,0.007134267296897038
1305.0,0.007250548497667599
1304.0,0.007276726779600893
1303.0,0.007212127112527436
1302.0,0.007102487502739641
1301.0,0.007000898983833395
1300.0,0.006934075936786554
1299.0,0.006901407881500508
1298.0,0.006889575638334677
1297.0,0.006881219156176378
1296.0,0.006859527350805694
1295.0,0.0068135682490214865
1294.0,0.0067402965549970325
1293.0,0.006643720913559052
1292.0,0.006535559028746193
1291.0,0.006432676658124574
1290.0,0.006346131665489849
1289.0,0.006273683047977386
1288.0,0.006207557634511236
1287.0,0.006145822444924589
1286.0,0.006091232538783423
1285.0,0.0060449395844482355
1284.0,0.006008556567919361
1283.0,0.00598666693386978
1282.0,0.005979801855901102
1281.0,0.0059784432720578
1280.0,0.005971762885865943
1279.0,0.005960085399439825
1278.0,0.005953041041229864
1277.0,0.005957915333924344
1276.0,0.005973818049691278
1275.0,0.005994048356997701
1274.0,0.006010369742940672
1273.0,0.0060190765383865315
1272.0,0.00602625822833589
1271.0,0.00604297289789117
1270.0,0.006072250071443791
1269.0,0.006106762127702647
1268.0,0.006142242580914637
1267.0,0.006184815603458989
1266.0,0.006241215243017196
1265.0,0.006308826907906221
1264.0,0.006380696196524859
1263.0,0.006455870694887017
1262.0,0.0065406600255500935
1261.0,0.006642804591451838
1260.0,0.0067672256266992255
1259.0,0.006912465136125676
1258.0,0.007066122405976106
1257.0,0.007204457993089799
1256.0,0.0072983533971218775
1255.0,0.007324403433578104
1254.0,0.007278063030782782
1253.0,0.007179222964713818
1252.0,0.007063032072102056
1251.0,0.006961514274067942
1250.0,0.006889062948987307
1249.0,0.006843128382204525
1248.0,0.006816620988537546
1247.0,0.006804402780648842
1246.0,0.006799667224937498
1245.0,0.006794251222474625
1244.0,0.006786324528722907
1243.0,0.0067819612308766455
1242.0,0.006785991605343138
1241.0,0.006796572595390477
1240.0,0.0068108053870182695
1239.0,0.006828909947621463
1238.0,0.006849020024565385
1237.0,0.006863236681330702
1236.0,0.006863832431151934
1235.0,0.00685145120131809
1234.0,0.006834690360258791
1233.0,0.006822891292987734
1232.0,0.00682017821586225
1231.0,0.0068240399310926965
1230.0,0.006828888774160472
1229.0,0.006833248586935452
1228.0,0.006842578229350901
1227.0,0.006862368213373457
1226.0,0.006890709388094517
1225.0,0.00692219069936131
1224.0,0.0069565384308336
1223.0,0.006996415696728781
1222.0,0.007038053005939238
1221.0,0.007071520063771543
1220.0,0.007090367829369748
1219.0,0.007094649098177527
1218.0,0.007084389987228266
1217.0,0.007056934286204708
1216.0,0.007012332316532831
1215.0,0.006956145559570455
1214.0,0.006895704998488223
1213.0,0.006838349473927646
1212.0,0.006793072254519427
1211.0,0.006766695870929831
1210.0,0.006757375271368254
1209.0,0.006758883957658465
1208.0,0.006771181110794087
1207.0,0.006798111931078946
1206.0,0.006834666318144682
1205.0,0.0068675605655554774
1204.0,0.006892108691778967
1203.0,0.006919746321831498
1202.0,0.0069644848937045045
1201.0,0.007028295930875488
1200.0,0.0071026256179862555
1199.0,0.007176578542485691
1198.0,0.007240485220531619
1197.0,0.0072895990108230915
1196.0,0.0073296675678307804
1195.0,0.007374836089910516
1194.0,0.007435795873614235
1193.0,0.007512896012602089
1192.0,0.00760337483025968
1191.0,0.007710226375176465
1190.0,0.007839121151163494
1189.0,0.007989147917447854
1188.0,0.00815078270376824
1187.0,0.008312970662708499
1186.0,0.00847183743610353
1185.0,0.00863274231776831
1184.0,0.008803285893174431
1183.0,0.008984810311375796
1182.0,0.009172039644909244
1181.0,0.009361052743990697
1180.0,0.009556455455544559
1179.0,0.00977185852418793
1178.0,0.010025170246265248
1177.0,0.010331112028478199
1176.0,0.010694209268433019
1175.0,0.011109710121204437
1174.0,0.011574766568119697
1173.0,0.01209466791922804
1172.0,0.012668021091740637
1171.0,0.013265574848199128
1170.0,0.013831512573652952
1169.0,0.014304759461351044
1168.0,0.01463542286992527
1167.0,0.014796650336438285
1166.0,0.014801437601919192
1165.0,0.014700822319342735
1164.0,0.014550509038604224
1163.0,0.014385191603792102
1162.0,0.014229117236342372
1161.0,0.014110794522499259
1160.0,0.014049779930105945
1159.0,0.014037930299112576
1158.0,0.014050212218440404
1157.0,0.014073501501595965
1156.0,0.014114774751123282
1155.0,0.014184170007013813
1154.0,0.01427935952574522
1153.0,0.014382405857370311
1152.0,0.01446288662926553
1151.0,0.014490284300792203
1150.0,0.014457653294097178
1149.0,0.01439242222388245
1148.0,0.014336234901374173
1147.0,0.01431651756608554
1146.0,0.01433743474203987
1145.0,0.014387608845142532
1144.0,0.01445014660135252
1143.0,0.014514045719440836
1142.0,0.014585017773753688
1141.0,0.0146787498978392
1140.0,0.014797168453432829
1139.0,0.014920601153119693
1138.0,0.015030468227980785
1137.0,0.015127861053884306
1136.0,0.015220159194561014
1135.0,0.01530430043306398
1134.0,0.015378298441243419
1133.0,0.015455545509009821
1132.0,0.015549031503044795
1131.0,0.01565014839475411
1130.0,0.015740669394673983
1129.0,0.01581945905342626
1128.0,0.015900875131779943
1127.0,0.01599224104303969
1126.0,0.01608889210589735
1125.0,0.01618711696339417
1124.0,0.01628597830160455
1123.0,0.01637842617237147
1122.0,0.016454735582758458
1121.0,0.016513158528073644
1120.0,0.016556219969322435
1119.0,0.01658114627907071
1118.0,0.016586061941380473
1117.0,0.016581843233822054
1116.0,0.016586451123547338
1115.0,0.016608285457168106
1114.0,0.016641420088670606
1113.0,0.01667593852415885
1112.0,0.01670917656642583
1111.0,0.016749661395468452
1110.0,0.016811010121393168
1109.0,0.01689762065861468
1108.0,0.016998695857739818
1107.0,0.017104406657987212
1106.0,0.01722227754131875
1105.0,0.01735905600068011
1104.0,0.01748736352402993
1103.0,0.017553856572400328
1102.0,0.017529758209416206
1101.0,0.01743537974159393
1100.0,0.017309111555860495
1099.0,0.01717411398276572
1098.0,0.017041407777785303
1097.0,0.016919764936547108
1096.0,0.016807597159903393
1095.0,0.016692226316158548
1094.0,0.016569526869327975
1093.0,0.016451004210246187
1092.0,0.016344108208182932
1091.0,0.01624115842096468
1090.0,0.016134691840995682
1089.0,0.0160281258485577
1088.0,0.015924492821972985
1087.0,0.01582008051055599
1086.0,0.015715392302810556
1085.0,0.015616629703222407
1084.0,0.015521006661407884
1083.0,0.015418023922174246
1082.0,0.015309994149041068
1081.0,0.015210039002812172
1080.0,0.015112676224892915
1079.0,0.014990948487745251
1078.0,0.014836786801202342
1077.0,0.014680967264938248
1076.0,0.014552963670588795
1075.0,0.014438238239887297
1074.0,0.014297463510715942
1073.0,0.014119550180862653
1072.0,0.013935327338406658
1071.0,0.013781131081717558
1070.0,0.013664336774181565
1069.0,0.013565934383755189
1068.0,0.013464906187470965
1067.0,0.013354341873929525
1066.0,0.013240414756237794
1065.0,0.013132554356935337
1064.0,0.013036444536276247
1063.0,0.012953937613089921
1062.0,0.012882820388156614
1061.0,0.012813104633935781
1060.0,0.01272956577769132
1059.0,0.012626498930579023
1058.0,0.01251807182570152
1057.0,0.012424749748327937
1056.0,0.012350612706646613
1055.0,0.012283490476230976
1054.0,0.012216876852105544
1053.0,0.012161049982257564
1052.0,0.01212889176562584
1051.0,0.012120506586325314
1050.0,0.01212886062821419
1049.0,0.012151010243583834
1048.0,0.012182754568339543
1047.0,0.012208332729308043
1046.0,0.012205226530606187
1045.0,0.012156861814038307
1044.0,0.012059092492997196
1043.0,0.011923090776672751
1042.0,0.011775278824751524
1041.0,0.011645343940864687
1040.0,0.011547310656243023
1039.0,0.011472484123007692
1038.0,0.011400532796260347
1037.0,0.011315865907139469
1036.0,0.011216230960459924
1035.0,0.011111409909002168
1034.0,0.011014154990583842
1033.0,0.010928294874359371
1032.0,0.010846002179248311
1031.0,0.010759341429153278
1030.0,0.010670653749036443
1029.0,0.010586465153505323
1028.0,0.010505742836867542
1027.0,0.010422784845288052
1026.0,0.010339298837188881
1025.0,0.010263525851261137
1024.0,0.010196761848170678
1023.0,0.010129438692036228
1022.0,0.010052702796452984
1021.0,0.009966872082328326
1020.0,0.009876217131046527
1019.0,0.009782450086142112
1018.0,0.009686890207559657
1017.0,0.009592670153509338
1016.0,0.009499533944923186
1015.0,0.00940028887355985
1014.0,0.009287949098941796
1013.0,0.009165519382980533
1012.0,0.009045461758250082
1011.0,0.008940218664729441
1010.0,0.008855697609793843
1009.0,0.008793849284257929
1008.0,0.0087579870150621
1007.0,0.008751509900486648
1006.0,0.008772619079887047
1005.0,0.008818615994830248
1004.0,0.008903228834078156
1003.0,0.009067079163883864
1002.0,0.009356688856740191
1001.0,0.009776528038476562
1000.0,0.010251676487490091
999.0,0.010638250208314649
998.0,0.01078686793553247
997.0,0.010618238141078474
996.0,0.010156594159070182
995.0,0.009508749629627625
994.0,0.008809758018172954
993.0,0.008165200759021624
992.0,0.007625365318011373
991.0,0.007197757978847884
990.0,0.006868473059401747
989.0,0.006614819874930773
988.0,0.006416171675861615
987.0,0.006263135762833161
986.0,0.006153995299763319
985.0,0.006083255650085363
984.0,0.0060423299655341465
983.0,0.00603413691955481
982.0,0.006080012478874202
981.0,0.006207931556798305
980.0,0.006437502632501181
979.0,0.006776966391620499
978.0,0.007225654286751423
977.0,0.00776760553360362
976.0,0.008354570205562625
975.0,0.008893239679180563
974.0,0.009256319503406045
973.0,0.009321854628486281
972.0,0.00902695938205569
971.0,0.008412642646538036
970.0,0.007619615235128566
969.0,0.0068149828091277065
968.0,0.006109350671728358
967.0,0.005537219769632241
966.0,0.005090086205288891
965.0,0.0047464182472680295
964.0,0.004478678034881018
963.0,0.004257569995611773
962.0,0.004064501990205416
961.0,0.003896390628758571
960.0,0.0037537793694398334
959.0,0.0036295559914116936
958.0,0.003514188084993689
957.0,0.0034066393279273376
956.0,0.0033117181290879833
955.0,0.003227585781304578
954.0,0.0031439649625670304
953.0,0.0030552384523583123
952.0,0.002969565166339507
951.0,0.002900515373264627
950.0,0.0028522806765982657
949.0,0.0028172737508573367
948.0,0.0027873045530290574
947.0,0.00276380472022293
946.0,0.0027563768432970932
945.0,0.0027711984068891533
944.0,0.002799752745442266
943.0,0.00282079415964007
942.0,0.002817932141941178
941.0,0.0027936966474643825
940.0,0.002759203054942365
939.0,0.0027123149822296973
938.0,0.002639533154648547
937.0,0.002543965725389667
936.0,0.0024566808474307013
935.0,0.002406122409313297
934.0,0.0023825345260295103
933.0,0.0023476856412451078
932.0,0.002278578664323256
931.0,0.002189134720765599
930.0,0.0021099039635128682
929.0,0.0020596989340582045
928.0,0.0020392908558026952
927.0,0.002038638336144087
926.0,0.002042166422994268
925.0,0.002035980507524373
924.0,0.002018128505166663
923.0,0.0019989040485993963
922.0,0.001988588874189288
921.0,0.001989018721845759
920.0,0.0019971670085787967
919.0,0.00200907512791193
918.0,0.0020185159929665165
917.0,0.002020038123317835
916.0,0.002016097080478311
915.0,0.002014117933855508
914.0,0.0020144874413888948
913.0,0.0020096424749692747
912.0,0.0019980735058708066
911.0,0.0019904806830402817
910.0,0.0019970141292289523
909.0,0.0020164913539256375
908.0,0.0020451067604057363
907.0,0.00208981818052598
906.0,0.0021674372556726405
905.0,0.0022955837976958576
904.0,0.0024870880626188304
903.0,0.0027422032577832708
902.0,0.00303493155757561
901.0,0.003309651868162381
900.0,0.003499025590784669
899.0,0.0035517581420848425
898.0,0.003453095164882453
897.0,0.0032292662498310132
896.0,0.0029384718240747613
895.0,0.0026518623758130053
894.0,0.0024233098345580635
893.0,0.002264299062676006
892.0,0.002151358613336145
891.0,0.0020597196929616427
890.0,0.001985808221059508
889.0,0.0019394339505324973
888.0,0.0019243134465861365
887.0,0.001932335274831996
886.0,0.001953318350091387
885.0,0.0019856192420483008
884.0,0.002038069949353268
883.0,0.0021250436696873005
882.0,0.002259229731851496
881.0,0.0024436202579139928
880.0,0.0026643991362659478
879.0,0.002891082874669257
878.0,0.003089703328044334
877.0,0.003239571703914222
876.0,0.003335404605895362
875.0,0.003376199597190148
874.0,0.0033586526285459117
873.0,0.003279943637426175
872.0,0.0031417305720766384
871.0,0.002953959531045297
870.0,0.002739575304160002
869.0,0.002532581676948446
868.0,0.002364893827218599
867.0,0.0022505077311230515
866.0,0.002181955105287103
865.0,0.0021446773589991128
864.0,0.0021330605028217382
863.0,0.0021475087032610234
862.0,0.0021784833203334387
861.0,0.0022038157103854115
860.0,0.002207096531492236
859.0,0.002194153392822631
858.0,0.002186366842063865
857.0,0.002198647827609663
856.0,0.002227466501799509
855.0,0.002259909948615489
854.0,0.002290211361147326
853.0,0.0023251591864618514
852.0,0.002374478226508686
851.0,0.002438908839851095
850.0,0.002510445078088258
849.0,0.0025843329284883348
848.0,0.0026699319242381586
847.0,0.002793925485012153
846.0,0.003000005994879344
845.0,0.0033398569186366706
844.0,0.0038365455657836077
843.0,0.004425555681097263
842.0,0.00493486113123575
841.0,0.00516462731887872
840.0,0.005024104144103012
839.0,0.004601448961589823
838.0,0.004093530397533917
837.0,0.003662276615121406
836.0,0.003359880554551893
835.0,0.0031660183353058504
834.0,0.003050009122716354
833.0,0.0029878371991705586
832.0,0.002954204148596472
831.0,0.0029296142576065286
830.0,0.002911662156470502
829.0,0.002904487296234933
828.0,0.0029041042680357926
827.0,0.0029070928252874634
826.0,0.002922044000844313
825.0,0.0029538438106607046
824.0,0.0029885834156087674
823.0,0.0030154116652303838
822.0,0.0030498124857086095
821.0,0.003112941224469005
820.0,0.00320247220629743
819.0,0.003303643602155893
818.0,0.00341465442912995
817.0,0.0035432486587563677
816.0,0.003691045372010853
815.0,0.003860870370416665
814.0,0.0040690850618814965
813.0,0.0043266152813959055
812.0,0.004611155258777363
811.0,0.00487855504592111
810.0,0.005097830249522751
809.0,0.005253366590844848
808.0,0.005321037002866926
807.0,0.005278476061930569
806.0,0.005142668358821052
805.0,0.004964518004475459
804.0,0.004782904620547437
803.0,0.004612097270742056
802.0,0.004468354944533265
801.0,0.004372499326727071
800.0,0.004323654552157573
799.0,0.004300101077488461
798.0,0.004288961366169221
797.0,0.004288514488623545
796.0,0.004283473453280135
795.0,0.004254289873947194
794.0,0.004214701167789818
793.0,0.0042009405813324095
792.0,0.004215686599449417
791.0,0.0042221908141212745
790.0,0.004204344437988981
789.0,0.004190941276322722
788.0,0.004204768519968597
787.0,0.004228835718298685
786.0,0.00424469074099678
785.0,0.004265890401490672
784.0,0.0043048145034302425
783.0,0.004339946607990641
782.0,0.004349426797885338
781.0,0.0043506119084600475
780.0,0.00437295462600772
779.0,0.0044125089437970985
778.0,0.004444910767361004
777.0,0.00446615982478047
776.0,0.004491625445926926
775.0,0.004529418960803642
774.0,0.004579201542284906
773.0,0.00464163325185913
772.0,0.004705487784300778
771.0,0.00474206871616099
770.0,0.00473840847022303
769.0,0.004722420653813619
768.0,0.004731536341421847
767.0,0.004769867203559888
766.0,0.00481714986573414
765.0,0.004863993079496771
764.0,0.004914403780981874
763.0,0.0049675842315420535
762.0,0.00502178476370236
761.0,0.005084873235565737
760.0,0.0051595749476453685
759.0,0.005229194049511755
758.0,0.005277096475033778
757.0,0.00530870807323499
756.0,0.005337586146837443
755.0,0.0053647141519831375
754.0,0.005387532608050437
753.0,0.00541058738280286
752.0,0.005428968844064668
751.0,0.005423205011673472
750.0,0.005393839763509378
749.0,0.00538077869603534
748.0,0.005421981056283099
747.0,0.005504534711567172
746.0,0.005576593041346112
745.0,0.0055980467604561275
744.0,0.005565578162571118
743.0,0.005505537529357948
742.0,0.005460051951792371
741.0,0.005461658977422387
740.0,0.005503226467874434
739.0,0.005547097361640784
738.0,0.005574932689630104
737.0,0.005608020620544361
736.0,0.005669560717839993
735.0,0.005759478785191341
734.0,0.00588227818223816
733.0,0.006059833745332074
732.0,0.006283358450421377
731.0,0.0064818495874477446
730.0,0.006580717024181431
729.0,0.006578208831550018
728.0,0.006530454151074654
727.0,0.006482962762725999
726.0,0.00645529765197481
725.0,0.00647174549353767
724.0,0.006560813294136193
723.0,0.006725740543458796
722.0,0.006939954373037984
721.0,0.00716036352373613
720.0,0.007325138718734924
719.0,0.007366916585972487
718.0,0.007265732363256706
717.0,0.007072684558641112
716.0,0.006861891123872699
715.0,0.006674551088370052
714.0,0.006514730937613008
713.0,0.006378027995718193
712.0,0.006265019826361212
711.0,0.0061775995200718595
710.0,0.006122983025489619
709.0,0.00611563078115477
708.0,0.0061616060818599425
707.0,0.006247873047848875
706.0,0.006356705768110597
705.0,0.0064811805181193664
704.0,0.006619301106634664
703.0,0.006768847459573107
702.0,0.0069340169526650175
701.0,0.007112227503602953
700.0,0.007262893252069996
699.0,0.00731815267461083
698.0,0.007245402691088792
697.0,0.007073850008324813
696.0,0.006844416978773891
695.0,0.006573297032529981
694.0,0.0062847244292811195
693.0,0.0060324901852688365
692.0,0.0058515297680703585
691.0,0.005717233118060525
690.0,0.00558702070229021
689.0,0.005460822151655498
688.0,0.005365971942969467
687.0,0.005302865839125051
686.0,0.005252275985115181
685.0,0.0052181320862924666
684.0,0.00521666923342054
683.0,0.00523838118839233
682.0,0.005252186227346252
681.0,0.005234367080288443
680.0,0.005177501608773661
679.0,0.00509126171094558
678.0,0.0050138590731858244
677.0,0.004994028677180535
676.0,0.005038391757217771
675.0,0.0050995278595624
674.0,0.005121689278530291
673.0,0.005088520778859611
672.0,0.005016860678062233
671.0,0.004931784293329088
670.0,0.0048493257063406785
669.0,0.004804686040984045
668.0,0.004838120978685703
667.0,0.004870199313983203
666.0,0.004824330631041512
665.0,0.004754895467234163
664.0,0.00470632199054279
663.0,0.0046666381699885864
662.0,0.004621794185554983
661.0,0.0045880450912556235
660.0,0.004570333542321663
659.0,0.004535160702503104
658.0,0.004461153935443312
657.0,0.004373039346984221
656.0,0.004302304068563807
655.0,0.004261975645938335
654.0,0.00426498078199937
653.0,0.004317078616115671
652.0,0.004376499123489929
651.0,0.004369524749429952
650.0,0.004276567776423629
649.0,0.004156593112432626
648.0,0.004059942173822259
647.0,0.003979594902674265
646.0,0.003911403787150408
645.0,0.0038886175566920575
644.0,0.003918720749292292
643.0,0.00394678560160135
642.0,0.003923736605549878
641.0,0.0038619585151740167
640.0,0.0037836379605665008
639.0,0.003672002384910056
638.0,0.003522513130688916
637.0,0.0033855255846055865
636.0,0.003306131355512547
635.0,0.003263229927256469
634.0,0.003213400884271876
633.0,0.0031582956989649746
632.0,0.0031172633272152014
631.0,0.003075470546880732
630.0,0.0030114098690692537
629.0,0.002939093602338943
628.0,0.0028800806877597104
627.0,0.002826405318423559
626.0,0.002769803092160461
625.0,0.0027322955754476783
624.0,0.002724876815167459
623.0,0.0027134021210923134
622.0,0.002669013922103447
621.0,0.0026147341689704735
620.0,0.002579531403613177
619.0,0.0025444720141763813
618.0,0.002484976433659195
617.0,0.002432051788588626
616.0,0.0024331481882476913
615.0,0.0024812871034230258
614.0,0.002527144958913208
613.0,0.0025313906784752323
612.0,0.002478797949689752
611.0,0.0023837667488676648
610.0,0.002305489890073925
609.0,0.002303448833048713
608.0,0.0023565643451129506
607.0,0.002382217544912902
606.0,0.0023533808646265184
605.0,0.002319399347238956
604.0,0.00228738552437684
603.0,0.002197399074976583
602.0,0.002055152824589717
601.0,0.0019690392425230525
600.0,0.0019978840384939495
