cm-1,A
4000.0,0.001855612968799436
3999.0,0.0018384847266127114
3998.0,0.0018473859894816728
3997.0,0.0018843060636661727
3996.0,0.0019282166479359913
3995.0,0.0019467421549820814
3994.0,0.0019278874871505106
3993.0,0.0019044025657211396
3992.0,0.001930213705781599
3991.0,0.0020259024256233616
3990.0,0.002154669881583118
3989.0,0.0022515898616028403
3988.0,0.0022768593682907365
3987.0,0.002229077787805003
3986.0,0.0021330656853066673
3985.0,0.0020360992970148047
3984.0,0.0019944480343295923
3983.0,0.0020421628800870225
3982.0,0.0021515071239083423
3981.0,0.0022449315602080053
3980.0,0.0022522221805647905
3979.0,0.0021621220390732705
3978.0,0.0020241616406497104
3977.0,0.0019026659519804758
3976.0,0.0018399269601369183
3975.0,0.0018348162763467445
3974.0,0.0018592615410587014
3973.0,0.0018954363895403413
3972.0,0.001951588403666383
3971.0,0.0020385912166415755
3970.0,0.0021317044430456764
3969.0,0.0021863257010153996
3968.0,0.002188105824361062
3967.0,0.002170094002947891
3966.0,0.0021719752101995657
3965.0,0.0021998327933841913
3964.0,0.0022366929999443957
3963.0,0.002269714512170593
3962.0,0.002293423787204126
3961.0,0.0022913583791436863
3960.0,0.002250656134287085
3959.0,0.002196846259492487
3958.0,0.0021712019742169946
3957.0,0.002190657860878729
3956.0,0.0022362549782072505
3955.0,0.0022663307720949292
3954.0,0.0022463159482017433
3953.0,0.0021660630634325762
3952.0,0.0020500617208598507
3951.0,0.001954899193462899
3950.0,0.0019412205995370194
3949.0,0.002016735385027929
3948.0,0.0020998662914409136
3947.0,0.0020987787984510222
3946.0,0.0020348381283413755
3945.0,0.002011605261533907
3944.0,0.0021017458428972922
3943.0,0.0022718416387924696
3942.0,0.002377921062976091
3941.0,0.0023439214477694774
3940.0,0.002283695618889421
3939.0,0.002325587134840064
3938.0,0.0024345646465338093
3937.0,0.002498007304044922
3936.0,0.002485926553997861
3935.0,0.0024576433424523276
3934.0,0.002467482770489444
3933.0,0.0025092756471449913
3932.0,0.0025413685918682103
3931.0,0.002510090454079932
3930.0,0.002405943265427912
3929.0,0.002280189288314684
3928.0,0.002170048176519005
3927.0,0.0020937260995374128
3926.0,0.0020659660791001594
3925.0,0.002072196991877273
3924.0,0.0020355696717713756
3923.0,0.001916544866070194
3922.0,0.0018233129509467629
3921.0,0.0018279910474310558
3920.0,0.0018863786164045283
3919.0,0.00202525964962098
3918.0,0.00232170894674048
3917.0,0.0026981210660775414
3916.0,0.0029457468912069996
3915.0,0.0029981870357514515
3914.0,0.0030039176931609835
3913.0,0.0030733210960468254
3912.0,0.003145148057178548
3911.0,0.0031235148639458697
3910.0,0.002974916316983223
3909.0,0.0027202026494469412
3908.0,0.0023899495707917964
3907.0,0.0020320427842324207
3906.0,0.0017564578158841514
3905.0,0.001686422591288361
3904.0,0.0017940851997748607
3903.0,0.0018718893503472372
3902.0,0.0018943297469087121
3901.0,0.0020479356133703257
3900.0,0.0023231247554858087
3899.0,0.0024757672262472816
3898.0,0.002423678440976725
3897.0,0.002372813069361753
3896.0,0.002459016133520393
3895.0,0.002527894932675066
3894.0,0.002406153382755285
3893.0,0.002219769991655412
3892.0,0.002223491260790322
3891.0,0.002293588347284342
3890.0,0.0021160444837063077
3889.0,0.0019155578267221977
3888.0,0.002089571573223573
3887.0,0.0025258466058746647
3886.0,0.0028986151722943786
3885.0,0.002927661528346742
3884.0,0.0025373483906016127
3883.0,0.002188210321786425
3882.0,0.002263830086945617
3881.0,0.0025802664766470407
3880.0,0.002765060161943219
3879.0,0.00259240277145469
3878.0,0.002350626633126079
3877.0,0.0024419184197859364
3876.0,0.002679582264452256
3875.0,0.002666999084770777
3874.0,0.0023083062606401687
3873.0,0.0017527290425251394
3872.0,0.0013736357774953214
3871.0,0.0015140208865132313
3870.0,0.001998754017523953
3869.0,0.0021850959014380056
3868.0,0.001932201958437487
3867.0,0.001900065565651068
3866.0,0.002250312135104162
3865.0,0.002485853875284426
3864.0,0.002472416134482491
3863.0,0.002385011989106697
3862.0,0.0023649829546157283
3861.0,0.0024598058443764167
3860.0,0.0025183633572415922
3859.0,0.002395522591176454
3858.0,0.0020871122628515508
3857.0,0.0016404501844981814
3856.0,0.0011986066605962063
3855.0,0.001071786388332028
3854.0,0.0018242735942822514
3853.0,0.0029132877406721934
3852.0,0.002807451518422697
3851.0,0.002278659093008186
3850.0,0.0027127283450809284
3849.0,0.0034536914659752966
3848.0,0.003610165766778161
3847.0,0.003273577782376927
3846.0,0.002876690544558117
3845.0,0.00264683900581786
3844.0,0.0025447746329356384
3843.0,0.0023718774024850528
3842.0,0.0019770390632580766
3841.0,0.0015130618706839568
3840.0,0.0013352398861706128
3839.0,0.0015975721733197325
3838.0,0.0019487858771144312
3837.0,0.001950398668838298
3836.0,0.001735818013813813
3835.0,0.001738250107712217
3834.0,0.002073589029158332
3833.0,0.00252021364910455
3832.0,0.0028354790893336604
3831.0,0.002910627934014992
3830.0,0.0028400397523126453
3829.0,0.0028184316600660606
3828.0,0.002884242957219089
3827.0,0.002862758665024598
3826.0,0.002562408637962839
3825.0,0.0020202397711648386
3824.0,0.0015870077091987163
3823.0,0.00155255826382962
3822.0,0.001987690929793456
3821.0,0.0026205133792963145
3820.0,0.0025757857279931377
3819.0,0.0019591307017745264
3818.0,0.0019455313085237859
3817.0,0.002643282629301783
3816.0,0.003270998409595139
3815.0,0.0032737358111863705
3814.0,0.0029281629177727595
3813.0,0.0030364776392040344
3812.0,0.003570450214208396
3811.0,0.003818208924132158
3810.0,0.0035913397480048367
3809.0,0.0033006664622635025
3808.0,0.0033057578197399577
3807.0,0.0034443294645853263
3806.0,0.003177626267574874
3805.0,0.0025383870279164665
3804.0,0.002189456141257642
3803.0,0.002345207120023631
3802.0,0.0027924178248270436
3801.0,0.0030115409657168026
3800.0,0.002481138586278811
3799.0,0.0019475406146773587
3798.0,0.002229282888265062
3797.0,0.002873347193198256
3796.0,0.0032353563192967305
3795.0,0.003236022082532892
3794.0,0.0032212669479106523
3793.0,0.0034439125288281153
3792.0,0.003733216652637446
3791.0,0.0038563001537517396
3790.0,0.0038300718997873262
3789.0,0.003760084042940386
3788.0,0.00365679030676496
3787.0,0.003510816141229738
3786.0,0.00337353496601949
3785.0,0.0032810154762288983
3784.0,0.0031636206163763907
3783.0,0.0029889695284337093
3782.0,0.0028814173120321708
3781.0,0.002934789469923956
3780.0,0.003097891259039437
3779.0,0.003229608810622716
3778.0,0.003210943191995069
3777.0,0.003199019622945347
3776.0,0.0034057629703365113
3775.0,0.0036750247513517714
3774.0,0.0037146986813966646
3773.0,0.0035111809747937336
3772.0,0.0033017938916006517
3771.0,0.0032538090470569294
3770.0,0.003277581000343954
3769.0,0.003176123878782239
3768.0,0.00304276731153198
3767.0,0.0031834005482662764
3766.0,0.0035545165239280327
3765.0,0.00375553168515551
3764.0,0.0035739550960568233
3763.0,0.0032503701207565374
3762.0,0.0030871665753396333
3761.0,0.0030294023996246724
3760.0,0.002925760219236767
3759.0,0.0027921468636346626
3758.0,0.0026391858286039776
3757.0,0.0024396544853811245
3756.0,0.0022277889270670877
3755.0,0.0020129500082000686
3754.0,0.00173311840964049
3753.0,0.0013303588518612372
3752.0,0.001129044773453186
3751.0,0.0016118624126869982
3750.0,0.0022734743378019506
3749.0,0.002376910864760405
3748.0,0.00225776975592682
3747.0,0.00248181740398339
3746.0,0.0030838528464625257
3745.0,0.0038213493910781507
3744.0,0.004091250488578949
3743.0,0.003455154204845874
3742.0,0.0028732754159601854
3741.0,0.0031175851707106166
3740.0,0.003336451280969829
3739.0,0.0028734241671353406
3738.0,0.0021395875397811712
3737.0,0.0017490487372613388
3736.0,0.0018642774289112582
3735.0,0.002061948467753585
3734.0,0.002031167450823386
3733.0,0.0021315903680875466
3732.0,0.00259623911784877
3731.0,0.0030901753473578236
3730.0,0.003415267556974186
3729.0,0.0036872334501191805
3728.0,0.003916412311256451
3727.0,0.00397338826649149
3726.0,0.003816702814716297
3725.0,0.003552825468509062
3724.0,0.0033848569508850975
3723.0,0.0033962173559266085
3722.0,0.0034678942055943454
3721.0,0.0035068199766326883
3720.0,0.00356610530855115
3719.0,0.00373225665504586
3718.0,0.003951065716699142
3717.0,0.004067271652027273
3716.0,0.004009479646936919
3715.0,0.0038287615940391616
3714.0,0.0035794735625546614
3713.0,0.0033427071217425903
3712.0,0.0034068868092863667
3711.0,0.0037670092011029502
3710.0,0.003962733540779452
3709.0,0.00403085775180271
3708.0,0.004324552379324622
3707.0,0.004790161874674173
3706.0,0.005183277035106728
3705.0,0.0054152497148922864
3704.0,0.005557953630022148
3703.0,0.0056862944392688216
3702.0,0.005798028960087171
3701.0,0.005803247865300483
3700.0,0.005714053675930209
3699.0,0.0057492898502672345
3698.0,0.005997830738026276
3697.0,0.006230734430500604
3696.0,0.006199854278856229
3695.0,0.005916810613379125
3694.0,0.005550493990587153
3693.0,0.005165794626885635
3692.0,0.004767726384500261
3691.0,0.00460656251965744
3690.0,0.005032275364945205
3689.0,0.0057270949098186955
3688.0,0.005982234288946805
3687.0,0.005933364589967445
3686.0,0.006214116290152597
3685.0,0.006872965523113278
3684.0,0.007445815390099321
3683.0,0.007623972782751429
3682.0,0.007504344040913937
3681.0,0.007317022644280262
3680.0,0.0070983797403406865
3679.0,0.006722678458865483
3678.0,0.006278891168616435
3677.0,0.006122163544606676
3676.0,0.006584787258560697
3675.0,0.00706268178658207
3674.0,0.006762895781332819
3673.0,0.006608653552638446
3672.0,0.007370358335570586
3671.0,0.008414171239491142
3670.0,0.00926481347430705
3669.0,0.009601668699411342
3668.0,0.009518290832421814
3667.0,0.009814419897266743
3666.0,0.010583228714964086
3665.0,0.011263969905401275
3664.0,0.011639795716407367
3663.0,0.01184392786079934
3662.0,0.012024238277983065
3661.0,0.012187406260789808
3660.0,0.012310690185199298
3659.0,0.01245989431819242
3658.0,0.012767038006457553
3657.0,0.013260897580355476
3656.0,0.013681294859826797
3655.0,0.0136867185639253
3654.0,0.013445163199280906
3653.0,0.013243873817054021
3652.0,0.012924627870632989
3651.0,0.01240393468547686
3650.0,0.0125427353598105
3649.0,0.01369345173408464
3648.0,0.014544865208086954
3647.0,0.01478233429766728
3646.0,0.01520544039010115
3645.0,0.016000415529737067
3644.0,0.016943823785301446
3643.0,0.0177736432097472
3642.0,0.018377223836260215
3641.0,0.018794759186529206
3640.0,0.019159173200743545
3639.0,0.01955092578818751
3638.0,0.019891209400935386
3637.0,0.020092071651162047
3636.0,0.02025694032175714
3635.0,0.020536094204691983
3634.0,0.02089921138304579
3633.0,0.021177071590808696
3632.0,0.021372939632451654
3631.0,0.02165854904834598
3630.0,0.022223005066881067
3629.0,0.02310590956895397
3628.0,0.02357908599072001
3627.0,0.02344641134370773
3626.0,0.023771908161619733
3625.0,0.024681863123440208
3624.0,0.025359280114194603
3623.0,0.025518542552734922
3622.0,0.025448362046653242
3621.0,0.0255480098078268
3620.0,0.02602467185679323
3619.0,0.026672595768951004
3618.0,0.027014188122361955
3617.0,0.02707793663923531
3616.0,0.02731174817017286
3615.0,0.02785178579743882
3614.0,0.02852205768266214
3613.0,0.029101949044091278
3612.0,0.029501240558754194
3611.0,0.029881744490429844
3610.0,0.030428649486409942
3609.0,0.031105456821297256
3608.0,0.031750209278426124
3607.0,0.03222702300318047
3606.0,0.03258083559025264
3605.0,0.03296841121680184
3604.0,0.033379925613430506
3603.0,0.03372097338977222
3602.0,0.03402857942557216
3601.0,0.034391529061495646
3600.0,0.034776491239927945
3599.0,0.03510098621546308
3598.0,0.03538441595207834
3597.0,0.03568200944178443
3596.0,0.03603171454914497
3595.0,0.03646687426579481
3594.0,0.03694072658714128
3593.0,0.03733842100595586
3592.0,0.03762492844741548
3591.0,0.03784723256123268
3590.0,0.038078554701114424
3589.0,0.038504170751770816
3588.0,0.03935116069304588
3587.0,0.04030158162146131
3586.0,0.040791632686307984
3585.0,0.04104438900433867
3584.0,0.04151053130731974
3583.0,0.04212533088740808
3582.0,0.04266914457144627
3581.0,0.04308750348597951
3580.0,0.04345041105117077
3579.0,0.04382721277729435
3578.0,0.04426118158004196
3577.0,0.044760721916936905
3576.0,0.04528771096027061
3575.0,0.04577990822829347
3574.0,0.04619382472956555
3573.0,0.046525283587955255
3572.0,0.04678464458173013
3571.0,0.04695954637662653
3570.0,0.047034419475428295
3569.0,0.047054157354529905
3568.0,0.0472017659178363
3567.0,0.047576317433949515
3566.0,0.047906023964017844
3565.0,0.048116957413714224
3564.0,0.0485582201568203
3563.0,0.04932579120387945
3562.0,0.0502056023569637
3561.0,0.05102835407216643
3560.0,0.05173507633308018
3559.0,0.052319679401731864
3558.0,0.052804382946367835
3557.0,0.05321952321614594
3556.0,0.053573350205916116
3555.0,0.05388024759005228
3554.0,0.054195952311106
3553.0,0.05457722077246106
3552.0,0.05498024371646486
3551.0,0.055305966136914415
3550.0,0.05556290598336736
3549.0,0.055847046876747276
3548.0,0.05622751954577305
3547.0,0.056747410103912085
3546.0,0.05740084830832771
3545.0,0.05807170587173279
3544.0,0.058651879613238214
3543.0,0.05916464627749341
3542.0,0.05968179195730295
3541.0,0.06022801653482695
3540.0,0.060776102363719345
3539.0,0.06128559010651065
3538.0,0.06174441013580109
3537.0,0.06218157801865669
3536.0,0.0626298658318211
3535.0,0.06307984851015083
3534.0,0.06350088410808424
3533.0,0.0638763065159507
3532.0,0.06421173439031316
3531.0,0.06453882171027146
3530.0,0.06490578324140595
3529.0,0.06532608442265461
3528.0,0.06575526172381357
3527.0,0.06615510438585794
3526.0,0.06656852959872407
3525.0,0.06709494697137659
3524.0,0.06777623182755442
3523.0,0.06852364852652401
3522.0,0.06919053485290544
3521.0,0.06972695367320977
3520.0,0.07019708273870913
3519.0,0.07066234654074884
3518.0,0.07112205366388603
3517.0,0.07155763267032596
3516.0,0.07198165682332767
3515.0,0.0724085999132561
3514.0,0.07280407002320172
3513.0,0.0731153410688881
3512.0,0.07336418375389148
3511.0,0.07366250340338193
3510.0,0.07410050759689008
3509.0,0.07463269648115334
3508.0,0.07514097707225433
3507.0,0.07560149756909236
3506.0,0.07609236803019379
3505.0,0.0766698860588411
3504.0,0.07729536988412057
3503.0,0.0778418215582812
3502.0,0.07821804540360949
3501.0,0.0785063455714189
3500.0,0.07887110498806033
3499.0,0.07937636782456606
3498.0,0.07995904767830282
3497.0,0.08051517164777951
3496.0,0.08098975335900928
3495.0,0.08140878823630451
3494.0,0.08183441253636863
3493.0,0.082301116640321
3492.0,0.08280562682506311
3491.0,0.08334366736515467
3490.0,0.08392272370052482
3489.0,0.0845238061816054
3488.0,0.08507655690799795
3487.0,0.08551114535696355
3486.0,0.08583655793595947
3485.0,0.08614243951026664
3484.0,0.08652800197269454
3483.0,0.08703932358105858
3482.0,0.08764442813873004
3481.0,0.08824808556893492
3480.0,0.08877141922104274
3479.0,0.08922397541005807
3478.0,0.08966722145337011
3477.0,0.09013427001201998
3476.0,0.0906122726022552
3475.0,0.09108114371931675
3474.0,0.09154571162138023
3473.0,0.09202495089091994
3472.0,0.09251844793594821
3471.0,0.09300583660838227
3470.0,0.09348309494840568
3469.0,0.0939722621499107
3468.0,0.09447798681330623
3467.0,0.0949583294912648
3466.0,0.09536787613983695
3465.0,0.09571844633065785
3464.0,0.09606935798027556
3463.0,0.09646522267360325
3462.0,0.09690561150272063
3461.0,0.09737012395879867
3460.0,0.09784842840014897
3459.0,0.09833655693158705
3458.0,0.09882198112534925
3457.0,0.09928964861343155
3456.0,0.09973398515284126
3455.0,0.10015511321003912
3454.0,0.10055316263675979
3453.0,0.10093334271849963
3452.0,0.10131675509656958
3451.0,0.10173900427486827
3450.0,0.10222675764004004
3449.0,0.10275451319969169
3448.0,0.10322815257464986
3447.0,0.10355375263315762
3446.0,0.10375511840572152
3445.0,0.10398449570785097
3444.0,0.10437209294819562
3443.0,0.10490561124699044
3442.0,0.10547621777153765
3441.0,0.10599719688627239
3440.0,0.10645573639073774
3439.0,0.10687519421462652
3438.0,0.10727351755356707
3437.0,0.10767192321638763
3436.0,0.10809733780402117
3435.0,0.10854794777670501
3434.0,0.1089829219523699
3433.0,0.10936318114356183
3432.0,0.10969559735576372
3431.0,0.1100259330690623
3430.0,0.11039188415983832
3429.0,0.11078897354326254
3428.0,0.11118220928295473
3427.0,0.11153943418949633
3426.0,0.11184748559472933
3425.0,0.11211230094551172
3424.0,0.11235532781729597
3423.0,0.11260932938507456
3422.0,0.1129060155697577
3421.0,0.11325794708719551
3420.0,0.1136513817179667
3419.0,0.11406130745202521
3418.0,0.1144698388895367
3417.0,0.1148681285852436
3416.0,0.11525226136585683
3415.0,0.11561909803033522
3414.0,0.11596242994689764
3413.0,0.11627920405277808
3412.0,0.11658075519537282
3411.0,0.11688361824986923
3410.0,0.11718343455397494
3409.0,0.11745769191008924
3408.0,0.1177082130349097
3407.0,0.11798131612922035
3406.0,0.11831815075381245
3405.0,0.11869257007434067
3404.0,0.11902332489237115
3403.0,0.1192526536373381
3402.0,0.11940085000180166
3401.0,0.11954151124120738
3400.0,0.11973624311068275
3399.0,0.11999035878272284
3398.0,0.12025563600240655
3397.0,0.12047654585994431
3396.0,0.12064583486836829
3395.0,0.12080733981654433
3394.0,0.12099668425866712
3393.0,0.12119687326886658
3392.0,0.12136594819572125
3391.0,0.12149460438425971
3390.0,0.1216116487141316
3389.0,0.1217374769948662
3388.0,0.12186074264587217
3387.0,0.12196242231487468
3386.0,0.1220384263138486
3385.0,0.12209920827955381
3384.0,0.12217224966135012
3383.0,0.12230336386723739
3382.0,0.12252202931332073
3381.0,0.12279016488482988
3380.0,0.12301194100439955
3379.0,0.12312197688231975
3378.0,0.12315676721130732
3377.0,0.12321181050910576
3376.0,0.12333129719171058
3375.0,0.12346843563282459
3374.0,0.1235577150516743
3373.0,0.12359780854620647
3372.0,0.12364217488617764
3371.0,0.12372361767125595
3370.0,0.12381521128283252
3369.0,0.12386739092209906
3368.0,0.12386169789658419
3367.0,0.1238182829842877
3366.0,0.12376465894817927
3365.0,0.12371020113119369
3364.0,0.1236489623352862
3363.0,0.12358174520500871
3362.0,0.12353143553908497
3361.0,0.12352426995186001
3360.0,0.1235462263012027
3359.0,0.1235344220532569
3358.0,0.12343702554193016
3357.0,0.12327708720918049
3356.0,0.1231304367867732
3355.0,0.1230342930842852
3354.0,0.12294942422677323
3353.0,0.12283029626989864
3352.0,0.1227003533354001
3351.0,0.12262680442369307
3350.0,0.12263140241965649
3349.0,0.12265694916966419
3348.0,0.1226241857305896
3347.0,0.12250110930218618
3346.0,0.12231773022857362
3345.0,0.12213338724020814
3344.0,0.12199024137561981
3343.0,0.12187930829908722
3342.0,0.12174867930054743
3341.0,0.12155778330564049
3340.0,0.1213228305927365
3339.0,0.1210928954873379
3338.0,0.12088484535842885
3337.0,0.12066572288139973
3336.0,0.12040707750891866
3335.0,0.12013485201861691
3334.0,0.11990552412685082
3333.0,0.11974360566358921
3332.0,0.11961906176297604
3331.0,0.11948163408922488
3330.0,0.11930622856865067
3329.0,0.11910443999653082
3328.0,0.11889831744368241
3327.0,0.11868916524777692
3326.0,0.11845629648884066
3325.0,0.118186867272367
3324.0,0.11790046830375984
3323.0,0.11763653025298647
3322.0,0.1174196279620908
3321.0,0.11723991219116334
3320.0,0.11705875786466499
3319.0,0.11682787997351733
3318.0,0.11651941801594075
3317.0,0.1161566404455339
3316.0,0.11580844734938506
3315.0,0.1155337852861426
3314.0,0.11533114666566342
3313.0,0.11515554697174363
3312.0,0.11497889044634763
3311.0,0.11480714169973658
3310.0,0.1146348118264553
3309.0,0.11441915202348506
3308.0,0.11412854223597639
3307.0,0.1137979146241122
3306.0,0.11350230769786145
3305.0,0.11327910545091803
3304.0,0.11309812570915963
3303.0,0.11290528172717766
3302.0,0.11267599575033009
3301.0,0.11242222712193888
3300.0,0.11216574721704556
3299.0,0.11192112283367207
3298.0,0.11169941878991695
3297.0,0.11150913873271892
3296.0,0.1113440836202862
3295.0,0.11117587924042448
3294.0,0.11096957206103585
3293.0,0.11071364480611916
3292.0,0.11043278415694067
3291.0,0.1101640657703761
3290.0,0.10992257777281515
3289.0,0.1096970696649021
3288.0,0.10947524883012003
3287.0,0.10926074032893496
3286.0,0.10905845353505822
3285.0,0.10885198905638156
3284.0,0.10861247134674236
3283.0,0.10833513876766873
3282.0,0.10805513672054687
3281.0,0.1078157310266559
3280.0,0.1076224644217015
3279.0,0.10743624621036671
3278.0,0.10721025523039684
3277.0,0.10692361612872012
3276.0,0.1065786031138044
3275.0,0.10618709179309921
3274.0,0.10578135760295108
3273.0,0.10542384265024068
3272.0,0.10516969047372064
3271.0,0.10500961685226858
3270.0,0.10487176327201414
3269.0,0.10469037092402178
3268.0,0.10445889050960441
3267.0,0.1042107712027151
3266.0,0.10397103403420872
3265.0,0.10374598456699918
3264.0,0.10354383501898469
3263.0,0.10337259488768277
3262.0,0.10321562036176575
3261.0,0.10303575908406959
3260.0,0.1028109256862044
3259.0,0.10255013827903993
3258.0,0.10227098278668639
3257.0,0.10197590178896349
3256.0,0.1016568444154841
3255.0,0.10131980843139825
3254.0,0.10100084277872616
3253.0,0.1007497083061822
3252.0,0.10058529568711957
3251.0,0.10046368976106539
3250.0,0.1003053138858466
3249.0,0.10006650942250726
3248.0,0.09977446893973037
3247.0,0.09947787159661341
3246.0,0.09918029821548
3245.0,0.09885011452588068
3244.0,0.09848868682168939
3243.0,0.0981503941312879
3242.0,0.09788396480004308
3241.0,0.09768092620081671
3240.0,0.0974889284363916
3239.0,0.09725601945388224
3238.0,0.09696054452668464
3237.0,0.0966202020250955
3236.0,0.09627902927343114
3235.0,0.09596849464959491
3234.0,0.09567223723244046
3233.0,0.0953429649218074
3232.0,0.09496351649664932
3231.0,0.09457665949710041
3230.0,0.09424158506380942
3229.0,0.09397022652626844
3228.0,0.09371712174123117
3227.0,0.09342459170694235
3226.0,0.0930696965355526
3225.0,0.09267398082252783
3224.0,0.09228075309377554
3223.0,0.0919222869005613
3222.0,0.09159626745690855
3221.0,0.09126901974008636
3220.0,0.09090630091467945
3219.0,0.09050383821496219
3218.0,0.09008749619855401
3217.0,0.08968685236222014
3216.0,0.08931409902574877
3215.0,0.0889708298665388
3214.0,0.08866480729545682
3213.0,0.08840023884324959
3212.0,0.0881444932645862
3211.0,0.08782409301564519
3210.0,0.08738327933843155
3209.0,0.0868532425716515
3208.0,0.08633864550419133
3207.0,0.08592013068744624
3206.0,0.08558472841803091
3205.0,0.08525744656567531
3204.0,0.08488032395384276
3203.0,0.08444826114940981
3202.0,0.08398597941131516
3201.0,0.08351704132979142
3200.0,0.08305563383035225
3199.0,0.0826111759902789
3198.0,0.08219317431125303
3197.0,0.08181197819211707
3196.0,0.08146743230045309
3195.0,0.08113433271697998
3194.0,0.08077115679698292
3193.0,0.08035205335677055
3192.0,0.07988240265936569
3191.0,0.07937811940533057
3190.0,0.07884818736287742
3189.0,0.07831242523225271
3188.0,0.07781603827703412
3187.0,0.07739586891133624
3186.0,0.07703614896422385
3185.0,0.07668140040460213
3184.0,0.07629062702515729
3183.0,0.0758596711569889
3182.0,0.07539812985586768
3181.0,0.0749153089483106
3180.0,0.07443068520893287
3179.0,0.07396814611342015
3178.0,0.07352781682888535
3177.0,0.07308964120997825
3176.0,0.07265978125818259
3175.0,0.07228514825605126
3174.0,0.07199727487409827
3173.0,0.07175605296774959
3172.0,0.07147189519679256
3171.0,0.07108379004354139
3170.0,0.07060466864031156
3169.0,0.07009567322093242
3168.0,0.06961092335394822
3167.0,0.06916522364916823
3166.0,0.06873933083390157
3165.0,0.06830732309314923
3164.0,0.06786062533606445
3163.0,0.067410446402409
3162.0,0.06697211955997992
3161.0,0.06655362446836503
3160.0,0.0661589542488921
3159.0,0.06579108913833129
3158.0,0.06544081665263254
3157.0,0.06507894332039417
3156.0,0.06467562393319788
3155.0,0.06423090749492318
3154.0,0.06377691853936178
3153.0,0.06334826671818829
3152.0,0.06295632173345907
3151.0,0.06258757643052751
3150.0,0.06221383874428052
3149.0,0.06180458165334976
3148.0,0.06134764099155807
3147.0,0.06086848888769387
3146.0,0.06041767121673292
3145.0,0.06002583992784636
3144.0,0.05967542446785778
3143.0,0.05932588072252966
3142.0,0.05895898678542003
3141.0,0.05858698974994257
3140.0,0.05822303965676169
3139.0,0.057860879508277306
3138.0,0.05748886406701816
3137.0,0.05711111327093195
3136.0,0.056741405934769326
3135.0,0.056379051593787796
3134.0,0.056004640522277695
3133.0,0.055606658889301656
3132.0,0.05520548338327087
3131.0,0.054838581221658626
3130.0,0.0545204646720301
3129.0,0.05422572592995429
3128.0,0.053916136702316556
3127.0,0.053578721842057433
3126.0,0.05322759133360116
3125.0,0.05287102441681216
3124.0,0.05249577892694744
3123.0,0.052094909054235077
3122.0,0.051693604885117414
3121.0,0.0513260237126431
3120.0,0.05099470136005615
3119.0,0.05067099467565172
3118.0,0.050330810638563726
3117.0,0.04997567352866304
3116.0,0.049621896834893986
3115.0,0.049284529758411605
3114.0,0.048974090609148355
3113.0,0.04869332452308674
3112.0,0.048429242047373436
3111.0,0.04815813986792689
3110.0,0.04786413488520055
3109.0,0.04754917145989313
3108.0,0.047229063024771846
3107.0,0.04692729181364194
3106.0,0.04666439647843787
3105.0,0.04643322677967805
3104.0,0.046187554003723534
3103.0,0.04588000706457279
3102.0,0.0455153117825651
3101.0,0.04514961396896172
3100.0,0.044833721260229616
3099.0,0.04457251038971213
3098.0,0.04434332498406579
3097.0,0.04413019214394369
3096.0,0.04392789366679551
3095.0,0.04372745666136861
3094.0,0.04351310893591074
3093.0,0.043273742765477574
3092.0,0.04301176354490858
3091.0,0.04274316840426066
3090.0,0.042486459855867915
3089.0,0.04224294684738542
3088.0,0.04199165078331351
3087.0,0.041714501286992514
3086.0,0.041424708972090024
3085.0,0.041153810496524314
3084.0,0.040911485531159114
3083.0,0.04067579743877671
3082.0,0.04042409496821627
3081.0,0.04015736087615969
3080.0,0.03988706152152748
3079.0,0.039614414930224905
3078.0,0.03933634383339891
3077.0,0.03906030501262355
3076.0,0.03879839630272498
3075.0,0.03855197010651434
3074.0,0.03831247071548032
3073.0,0.03807239983063291
3072.0,0.037827815333150376
3071.0,0.03757606663122687
3070.0,0.037318061925721485
3069.0,0.03705982574792082
3068.0,0.0368068308758474
3067.0,0.03655834715729072
3066.0,0.03631019239399139
3065.0,0.03606152333330698
3064.0,0.03581783022587
3063.0,0.035588307682341516
3062.0,0.03537806415525766
3061.0,0.035179949116547704
3060.0,0.03497677686735988
3059.0,0.03475491009703218
3058.0,0.03451444355497241
3057.0,0.03426459293290265
3056.0,0.03401526844499173
3055.0,0.03377767800411843
3054.0,0.0335641034843628
3053.0,0.03337418702629152
3052.0,0.03318509150107751
3051.0,0.03296990894684495
3050.0,0.03272547414771312
3049.0,0.03247249861073425
3048.0,0.03222897443009744
3047.0,0.031994521620431295
3046.0,0.031761986558426714
3045.0,0.0315301444625735
3044.0,0.03130273514554425
3043.0,0.031084633826486484
3042.0,0.03088263966956615
3041.0,0.030700397160846327
3040.0,0.03052814485304576
3039.0,0.03034696048737042
3038.0,0.030148965100935177
3037.0,0.02994538572300238
3036.0,0.02974976423346374
3035.0,0.02956103018226572
3034.0,0.029365758063156607
3033.0,0.029153074550740263
3032.0,0.028924162785946853
3031.0,0.02869518236028009
3030.0,0.02849320205762791
3029.0,0.02833716700934895
3028.0,0.028215634916080534
3027.0,0.02809227246410932
3026.0,0.027941139146332786
3025.0,0.0277701906546576
3024.0,0.027602462951881186
3023.0,0.027443704620422532
3022.0,0.0272788075576006
3021.0,0.027093236677160945
3020.0,0.026888188411698585
3019.0,0.026678036366186778
3018.0,0.02648229754077356
3017.0,0.02631864042437359
3016.0,0.026194209853666047
3015.0,0.026099774094830868
3014.0,0.026013575315368263
3013.0,0.02591478449787818
3012.0,0.025798720563718847
3011.0,0.025681939755259946
3010.0,0.02558780794986799
3009.0,0.025520766258393033
3008.0,0.02545482048344339
3007.0,0.025355971686064946
3006.0,0.025217474275224368
3005.0,0.0250706646540538
3004.0,0.024958532331982457
3003.0,0.02489911935414105
3002.0,0.024875074580073136
3001.0,0.024852383421528283
3000.0,0.024812030379169306
2999.0,0.024766306740058912
2998.0,0.024741429860261448
2997.0,0.02474334731795231
2996.0,0.024750264441683746
2995.0,0.024749672933385862
2994.0,0.024766349932873886
2993.0,0.024834901247697695
2992.0,0.024946554442094853
2991.0,0.025055469708831483
2990.0,0.02513873488943938
2989.0,0.025229616599652303
2988.0,0.025375684938431807
2987.0,0.025586129927428234
2986.0,0.025836743503217463
2985.0,0.02611629142388168
2984.0,0.026444450119941582
2983.0,0.026848778351052628
2982.0,0.027344278860002725
2981.0,0.027936104607314726
2980.0,0.028625874858579228
2979.0,0.029409514666502247
2978.0,0.030281337149170022
2977.0,0.031250538298696125
2976.0,0.032349463139856934
2975.0,0.03362473879704624
2974.0,0.03512162585725318
2973.0,0.036874736958075
2972.0,0.03890243215114628
2971.0,0.04120391504264303
2970.0,0.04376595542593919
2969.0,0.046582058745995455
2968.0,0.04966633709520078
2967.0,0.05303762246238619
2966.0,0.05668030913894399
2965.0,0.060518836092845474
2964.0,0.064419482509386
2963.0,0.06820400172937781
2962.0,0.07166254623574507
2961.0,0.07458914203472826
2960.0,0.07684336105554859
2959.0,0.07840452516729382
2958.0,0.07939771016491055
2957.0,0.08008075741964085
2956.0,0.0807696103114898
2955.0,0.08171877023702083
2954.0,0.08300439776058505
2953.0,0.08448586785779721
2952.0,0.08585219048512992
2951.0,0.08670272936290839
2950.0,0.08663861286799081
2949.0,0.08535059717439537
2948.0,0.08271757315431782
2947.0,0.07886697559227565
2946.0,0.07416316116767006
2945.0,0.06912036629850551
2944.0,0.06425124166514375
2943.0,0.05993509415516636
2942.0,0.05637636486766432
2941.0,0.05364852446447989
2940.0,0.05175528456499399
2939.0,0.05066872978613646
2938.0,0.05033792772236041
2937.0,0.05068484421679052
2936.0,0.05160889097350628
2935.0,0.053016233560213365
2934.0,0.05484751330814687
2933.0,0.05707720906369615
2932.0,0.05968099911930433
2931.0,0.06260451120738608
2930.0,0.06575446391857274
2929.0,0.06900449176015093
2928.0,0.07222046408616437
2927.0,0.07529620716151089
2926.0,0.0781892923984083
2925.0,0.08092881349631088
2924.0,0.08358197042282504
2923.0,0.08618993492341927
2922.0,0.08873957812503006
2921.0,0.0911644461095147
2920.0,0.09333928026467408
2919.0,0.09505827788079924
2918.0,0.096047030751338
2917.0,0.0960617086454963
2916.0,0.09501262577473095
2915.0,0.09302457606950872
2914.0,0.09039194608307817
2913.0,0.08748554634112037
2912.0,0.08463818677608631
2911.0,0.08204986548519624
2910.0,0.0797752556379664
2909.0,0.077765916454062
2908.0,0.07592596364110128
2907.0,0.07414087722765851
2906.0,0.07230714512444457
2905.0,0.07035711898244165
2904.0,0.06826396840310726
2903.0,0.06603404440840152
2902.0,0.06370877637050192
2901.0,0.061365253777180016
2900.0,0.05908575105190258
2899.0,0.05692302437211967
2898.0,0.054907148621488475
2897.0,0.05306962939550952
2896.0,0.051441022009313137
2895.0,0.0500284508521509
2894.0,0.048822881897091615
2893.0,0.04783038163388752
2892.0,0.04707025029860235
2891.0,0.04653965308705401
2890.0,0.04620181869876346
2889.0,0.04601914612738453
2888.0,0.04597719952697434
2887.0,0.04607015880100798
2886.0,0.046282246318722804
2885.0,0.04659494886171482
2884.0,0.04700095942086992
2883.0,0.04749807976418642
2882.0,0.04807610789255969
2881.0,0.048708371830515955
2880.0,0.049336097582336515
2879.0,0.04985347971362965
2878.0,0.0501362068195936
2877.0,0.05012088801678961
2876.0,0.04985716525855293
2875.0,0.04948454972684134
2874.0,0.049156889510542964
2873.0,0.04900327293842449
2872.0,0.049104974688115505
2871.0,0.04947319053850763
2870.0,0.05002398110532262
2869.0,0.05058905589289058
2868.0,0.050933141011405246
2867.0,0.05078340110158172
2866.0,0.04988175746421048
2865.0,0.04810002823049889
2864.0,0.045525708532923544
2863.0,0.042444885698200985
2862.0,0.03920711336339991
2861.0,0.0361254777757291
2860.0,0.033425658222573665
2859.0,0.031236216739436357
2858.0,0.02958495690719494
2857.0,0.028426077748659795
2856.0,0.027682697912351815
2855.0,0.027289165927672623
2854.0,0.027193997924871025
2853.0,0.027347363959273004
2852.0,0.027704008178181472
2851.0,0.028239082883082085
2850.0,0.028957576590612585
2849.0,0.02989060359559204
2848.0,0.031077908806766176
2847.0,0.03255095101369803
2846.0,0.03431878551233477
2845.0,0.03636801856980855
2844.0,0.03866313882445441
2843.0,0.04113231360088072
2842.0,0.043636553726486206
2841.0,0.04597015793624428
2840.0,0.047888443224913396
2839.0,0.04914548864113269
2838.0,0.04951381184972875
2837.0,0.048831127459793615
2836.0,0.047071885177405716
2835.0,0.04439813144637719
2834.0,0.04111392226403897
2833.0,0.037587299448856484
2832.0,0.034152640031553674
2831.0,0.031064976899350352
2830.0,0.02846113804391463
2829.0,0.02635137083067955
2828.0,0.024651463314176805
2827.0,0.023252480571276744
2826.0,0.02207844714999785
2825.0,0.021091854360818743
2824.0,0.02026716366273266
2823.0,0.019577803897551028
2822.0,0.019001174146599385
2821.0,0.01851702824659001
2820.0,0.01810068757103589
2819.0,0.017724683951246416
2818.0,0.017370335063563398
2817.0,0.017032327244511265
2816.0,0.016713525549057247
2815.0,0.016416828420310968
2814.0,0.016139452286327387
2813.0,0.015871321142915736
2812.0,0.015606150723166439
2811.0,0.015356411110032553
2810.0,0.015145220212441222
2809.0,0.01497276017481071
2808.0,0.014801570385184638
2807.0,0.01458883317786494
2806.0,0.01432869870626997
2805.0,0.014052864133621399
2804.0,0.013794706366377711
2803.0,0.013566821274654351
2802.0,0.013367715433002879
2801.0,0.01318926924111067
2800.0,0.013016886942516182
2799.0,0.012840586140966294
2798.0,0.01267234822909664
2797.0,0.012541008256002687
2796.0,0.012460861465212454
2795.0,0.012410409559616609
2794.0,0.012346973944251008
2793.0,0.012237205587465135
2792.0,0.01207578330353417
2791.0,0.011885612604471763
2790.0,0.011702128297980669
2789.0,0.011550778275890145
2788.0,0.011434187395664371
2787.0,0.01133877486418295
2786.0,0.011248975303035227
2785.0,0.011150661279770293
2784.0,0.011030241335622139
2783.0,0.010887691355741715
2782.0,0.010748355984282748
2781.0,0.010644008837417354
2780.0,0.010577389029711204
2779.0,0.01051702474458794
2778.0,0.01043149672398261
2777.0,0.010321261382083054
2776.0,0.010210624107448253
2775.0,0.010119352006648395
2774.0,0.01005184842398951
2773.0,0.010003458963174623
2772.0,0.009966414261043634
2771.0,0.009931062115956707
2770.0,0.009886711087714035
2769.0,0.009824950487000578
2768.0,0.009745859799270609
2767.0,0.00966335019159685
2766.0,0.009600736985097273
2765.0,0.009571564832107504
2764.0,0.009563015142643145
2763.0,0.009545700017013338
2762.0,0.00950344765598376
2761.0,0.00944581509218357
2760.0,0.009391239615049288
2759.0,0.009346440460037964
2758.0,0.009304905465804762
2757.0,0.009259094870697378
2756.0,0.009208423480223021
2755.0,0.009157498329527829
2754.0,0.00911103300100146
2753.0,0.00906947291243314
2752.0,0.009028097284834098
2751.0,0.008981726734360205
2750.0,0.008931129739426238
2749.0,0.008885486365794379
2748.0,0.008859585425503481
2747.0,0.00886618292954018
2746.0,0.008902869002608975
2745.0,0.00894453712390021
2744.0,0.008959721294695081
2743.0,0.008942212357181498
2742.0,0.008918559161230554
2741.0,0.008916082227947618
2740.0,0.008931008625470135
2739.0,0.00894279339345855
2738.0,0.008950367355382913
2737.0,0.008972637530684977
2736.0,0.00901514564947094
2735.0,0.009057185805238968
2734.0,0.009079497627822352
2733.0,0.009086701869710912
2732.0,0.009093827994836852
2731.0,0.009106357888841298
2730.0,0.009125596515875384
2729.0,0.00916209121278234
2728.0,0.009227882567801176
2727.0,0.009318100283301888
2726.0,0.009411263837927883
2725.0,0.009486268988799066
2724.0,0.009531070947089765
2723.0,0.009539968747618041
2722.0,0.009512320715813405
2721.0,0.009452249144644053
2720.0,0.00936181182349827
2719.0,0.009236991992546479
2718.0,0.0090800788407332
2717.0,0.008914880592014509
2716.0,0.00877693192026254
2715.0,0.008681383997868442
2714.0,0.008608835570054128
2713.0,0.008530862937060265
2712.0,0.008442695533069845
2711.0,0.008362207735796462
2710.0,0.008299258186520426
2709.0,0.008241390612390022
2708.0,0.008174850861784662
2707.0,0.008107987894895455
2706.0,0.008061551779350081
2705.0,0.008040177399609822
2704.0,0.008027160216990525
2703.0,0.00800585824389934
2702.0,0.00797259257933753
2701.0,0.007926857469190899
2700.0,0.007863913691648794
2699.0,0.00778685385721414
2698.0,0.0077149023794092185
2697.0,0.007668228562379245
2696.0,0.007649737930566844
2695.0,0.0076482502400003986
2694.0,0.007652534405805893
2693.0,0.007653560472432076
2692.0,0.007641656255651098
2691.0,0.007614098023716938
2690.0,0.007581698928298557
2689.0,0.007558196096536679
2688.0,0.007545475466318995
2687.0,0.0075366943866114425
2686.0,0.007528397444059965
2685.0,0.007519461324679413
2684.0,0.007503654835282219
2683.0,0.007476677525903714
2682.0,0.007447309543851845
2681.0,0.007428710181829688
2680.0,0.007418579538889997
2679.0,0.007401511673362806
2678.0,0.007371392148916894
2677.0,0.007338641792259614
2676.0,0.007312620459312432
2675.0,0.007289401346083571
2674.0,0.007263141052394076
2673.0,0.007239189254571621
2672.0,0.007227946673596693
2671.0,0.007231004707472503
2670.0,0.007240007021775472
2669.0,0.0072465664763808595
2668.0,0.007250033691435393
2667.0,0.00725802822189054
2666.0,0.0072809503851609635
2665.0,0.007321875128340252
2664.0,0.007369580376461451
2663.0,0.007404524395674484
2662.0,0.007413993195384392
2661.0,0.007400928475118175
2660.0,0.007378309302224653
2659.0,0.007357864443317909
2658.0,0.007342816211415949
2657.0,0.007328488238217983
2656.0,0.007309157231784333
2655.0,0.007285441815041279
2654.0,0.007262613529840711
2653.0,0.007239880692398885
2652.0,0.0072063679572913295
2651.0,0.0071527894017255
2650.0,0.007084581601665821
2649.0,0.007018440979854644
2648.0,0.006967277132449486
2647.0,0.006931783218349734
2646.0,0.006902032570364261
2645.0,0.006862928747151678
2644.0,0.006803336422731324
2643.0,0.006727892032766555
2642.0,0.006656169401239327
2641.0,0.0066032350491171754
2640.0,0.006562671322801673
2639.0,0.0065152057835321815
2638.0,0.006452068201202831
2637.0,0.006385389323255176
2636.0,0.006338453272209445
2635.0,0.0063273323619634034
2634.0,0.006344073027831727
2633.0,0.006354594116980889
2632.0,0.0063257098772442075
2631.0,0.006264280651888257
2630.0,0.006217646053290237
2629.0,0.006221666194084711
2628.0,0.006257463938158551
2627.0,0.006275106477385895
2626.0,0.006250604240012097
2625.0,0.006202380063620241
2624.0,0.006158777640473402
2623.0,0.006130943471792491
2622.0,0.006117507974195103
2621.0,0.006112603745588783
2620.0,0.006104033793085968
2619.0,0.006078761272128675
2618.0,0.00603800739075458
2617.0,0.005997878737130921
2616.0,0.0059724865084053525
2615.0,0.005964227927305907
2614.0,0.00596799962623527
2613.0,0.005972612914636232
2612.0,0.005959134375214654
2611.0,0.005911148950525313
2610.0,0.005830945663225289
2609.0,0.0057387449848738245
2608.0,0.005655626195363258
2607.0,0.005592295216282209
2606.0,0.005547940417328006
2605.0,0.005509119653966969
2604.0,0.005456700716980002
2603.0,0.00538675297668785
2602.0,0.00532038543161021
2601.0,0.005279860935763483
2600.0,0.00526071306665315
2599.0,0.005241964480408782
2598.0,0.005217925336047209
2597.0,0.005202960412280897
2596.0,0.005207594086121743
2595.0,0.005225639465249995
2594.0,0.005244435648944382
2593.0,0.005254251688432617
2592.0,0.005251115430451425
2591.0,0.005242829611018393
2590.0,0.005247018253764843
2589.0,0.005270220729317242
2588.0,0.005294886861935963
2587.0,0.0053017604787766
2586.0,0.005296955468026438
2585.0,0.005301795937462467
2584.0,0.005325197293717693
2583.0,0.005362500948230483
2582.0,0.00540842338691294
2581.0,0.005448399699657194
2580.0,0.005449277649373507
2579.0,0.005390021674379743
2578.0,0.005299292026403549
2577.0,0.005233412636369167
2576.0,0.005214085678483204
2575.0,0.005212262345202549
2574.0,0.005193308427320781
2573.0,0.0051512308137260186
2572.0,0.005094503798447211
2571.0,0.005027578001855858
2570.0,0.004960215064487159
2569.0,0.004914129556726496
2568.0,0.00490358647604787
2567.0,0.004918078975530862
2566.0,0.00493144650791573
2565.0,0.004921273935329599
2564.0,0.004880542197847369
2563.0,0.0048228631138726935
2562.0,0.004775098599316614
2561.0,0.004751213381739344
2560.0,0.004735962636860661
2559.0,0.004708379911021015
2558.0,0.004675399382165272
2557.0,0.004663098669837834
2556.0,0.004677332122570996
2555.0,0.004693896670943148
2554.0,0.004689260562055042
2553.0,0.004662689443264641
2552.0,0.004627379662933936
2551.0,0.004597136644473382
2550.0,0.004580999249573256
2549.0,0.004573622584770511
2548.0,0.004553370089125444
2547.0,0.004509367843582976
2546.0,0.004467944189667376
2545.0,0.004469485387713003
2544.0,0.004515857758660612
2543.0,0.004561661204624515
2542.0,0.004563386048332432
2541.0,0.004520911622180352
2540.0,0.004467695172726957
2539.0,0.004437754731735693
2538.0,0.004446381684946241
2537.0,0.004485722545930219
2536.0,0.004531183212326873
2535.0,0.00456054186856171
2534.0,0.004567233356924223
2533.0,0.0045499239643604856
2532.0,0.004502571369090962
2531.0,0.0044342243601817825
2530.0,0.004388642527653101
2529.0,0.0044139465426775645
2528.0,0.004506202817484993
2527.0,0.004603679364334055
2526.0,0.004644650229967383
2525.0,0.004619080890187541
2524.0,0.004564619862413963
2523.0,0.00452789991855723
2522.0,0.0045300904051523375
2521.0,0.004553056709599441
2520.0,0.004555254060122141
2519.0,0.004513122314162313
2518.0,0.004446699633451791
2517.0,0.004394427496218767
2516.0,0.004369643389863351
2515.0,0.0043580312958613875
2514.0,0.00435043390417943
2513.0,0.0043545712942548494
2512.0,0.004373611864874193
2511.0,0.004394781423491935
2510.0,0.004405961534313922
2509.0,0.004409418566226383
2508.0,0.004413488068207688
2507.0,0.004420394580092203
2506.0,0.0044255777144960535
2505.0,0.004422775286842129
2504.0,0.004409529581668566
2503.0,0.004390764449963129
2502.0,0.004372431657031424
2501.0,0.0043511691919781515
2500.0,0.00432276123915562
2499.0,0.004302601131722875
2498.0,0.004315957468466567
2497.0,0.0043576793722925064
2496.0,0.00438622784670278
2495.0,0.004376128050959971
2494.0,0.004352252400430605
2493.0,0.004348353709851452
2492.0,0.0043558746811928365
2491.0,0.0043455362878655245
2490.0,0.004318848481077972
2489.0,0.004299995079631207
2488.0,0.004290501988422463
2487.0,0.004273095776127377
2486.0,0.004254073560502152
2485.0,0.0042602740766420006
2484.0,0.004292278214015785
2483.0,0.004317408819595918
2482.0,0.0043138307537720876
2481.0,0.0042892199055202815
2480.0,0.004252487367815694
2479.0,0.004202235454697782
2478.0,0.004152322693169104
2477.0,0.004134244311499647
2476.0,0.004155864813456844
2475.0,0.00418224332938172
2474.0,0.004174878429438971
2473.0,0.004133995204211559
2472.0,0.00409112546265433
2471.0,0.004074747759235268
2470.0,0.004091212700991195
2469.0,0.004124000420338408
2468.0,0.004144164857820934
2467.0,0.004135685298097541
2466.0,0.004116997903812163
2465.0,0.004124632075799223
2464.0,0.004170096785227883
2463.0,0.004225717254605482
2462.0,0.0042586315841161996
2461.0,0.004267015525489076
2460.0,0.004276236714654441
2459.0,0.00430714847731578
2458.0,0.004353927534337625
2457.0,0.00439015483255479
2456.0,0.00439539024713394
2455.0,0.004375461253057262
2454.0,0.00435202299303779
2453.0,0.004335008153391257
2452.0,0.0043194298920613845
2451.0,0.004309809460692752
2450.0,0.004324205942929177
2449.0,0.004362688354236692
2448.0,0.0043955121583084495
2447.0,0.004400839103692124
2446.0,0.004392427624418965
2445.0,0.004388995715073282
2444.0,0.004379485804357665
2443.0,0.004347194110137424
2442.0,0.004308633540387206
2441.0,0.004292959946406631
2440.0,0.00429381886564937
2439.0,0.0042782410252581475
2438.0,0.004240429753636558
2437.0,0.004213737266254671
2436.0,0.0042266208796357275
2435.0,0.004272270684168102
2434.0,0.0043235792122315155
2433.0,0.004356818854269307
2432.0,0.004361278286747036
2431.0,0.004344580389302312
2430.0,0.004327367451549868
2429.0,0.004319678941611112
2428.0,0.004310522740759591
2427.0,0.0042922031830548565
2426.0,0.004276379339769965
2425.0,0.0042669902457897575
2424.0,0.0042402745438600165
2423.0,0.00418113469219223
2422.0,0.004119855488676795
2421.0,0.004097767619342765
2420.0,0.004111114195583012
2419.0,0.0041257460683502625
2418.0,0.0041347736794410785
2417.0,0.004160709452045704
2416.0,0.004205881367484859
2415.0,0.004240639122201531
2414.0,0.004243040885855923
2413.0,0.0042170617963916725
2412.0,0.004171250497242605
2411.0,0.0041139810360051165
2410.0,0.004073347044414893
2409.0,0.0040863792804798705
2408.0,0.004155266598335498
2407.0,0.0042365223309609144
2406.0,0.0042805148840697905
2405.0,0.004267057457969677
2404.0,0.00420955562336599
2403.0,0.004147105269741526
2402.0,0.004124851727428728
2401.0,0.004154744106392112
2400.0,0.0041993927138928525
2399.0,0.004218061858263043
2398.0,0.004217116215577199
2397.0,0.004225823828195283
2396.0,0.004238794225378474
2395.0,0.004225656303546236
2394.0,0.004190816185576156
2393.0,0.004176119546838611
2392.0,0.004199137072985128
2391.0,0.004229950223139742
2390.0,0.004239761010819089
2389.0,0.004238146491034358
2388.0,0.004249492019804206
2387.0,0.004282629589275967
2386.0,0.004335067772044983
2385.0,0.004397853941651472
2384.0,0.004444936160486521
2383.0,0.004447022483632325
2382.0,0.0044121270089677285
2381.0,0.004385392017223033
2380.0,0.004386397668356973
2379.0,0.004373902943414754
2378.0,0.0043064674579987175
2377.0,0.004215487674348972
2376.0,0.004176666070082207
2375.0,0.004220361071892151
2374.0,0.004303946429373606
2373.0,0.0043603678642783516
2372.0,0.004345550402145678
2371.0,0.004261564059051701
2370.0,0.004176400873241341
2369.0,0.004186923217140225
2368.0,0.004299785371069369
2367.0,0.004391383945528893
2366.0,0.004359757483795761
2365.0,0.004261890349184633
2364.0,0.004212541973608704
2363.0,0.004230663526180926
2362.0,0.004292067411848244
2361.0,0.004415390456743096
2360.0,0.004583489503341392
2359.0,0.004696243858702851
2358.0,0.004681613605992113
2357.0,0.004596675841985523
2356.0,0.00454166811239744
2355.0,0.0045410358733869146
2354.0,0.0045857753422119275
2353.0,0.004643686277993789
2352.0,0.004639831011538623
2351.0,0.004533591847595292
2350.0,0.0043971134771655625
2349.0,0.004363046496584181
2348.0,0.004472020479256016
2347.0,0.004683936725555523
2346.0,0.004936943498752589
2345.0,0.005125620264696196
2344.0,0.005146382189295171
2343.0,0.005009326105154518
2342.0,0.004853400987345614
2341.0,0.004759977930177844
2340.0,0.004715143522254218
2339.0,0.004706767629142298
2338.0,0.0047332334149065925
2337.0,0.004801906402385059
2336.0,0.0048851436448717105
2335.0,0.004958029674079565
2334.0,0.005030939696134972
2333.0,0.0051238211891308965
2332.0,0.0052038891111158584
2331.0,0.005209388623913599
2330.0,0.005155627048250551
2329.0,0.005175442289828226
2328.0,0.005379072835444957
2327.0,0.005747586831680901
2326.0,0.006151376353191326
2325.0,0.0064214294035148545
2324.0,0.006474468569036968
2323.0,0.006334884962226328
2322.0,0.006136427119449284
2321.0,0.0059607934757802605
2320.0,0.0057885597781014665
2319.0,0.005585681353675707
2318.0,0.0054071111399622285
2317.0,0.005363089252388157
2316.0,0.005465493313860701
2315.0,0.00560445598691888
2314.0,0.005641227286712549
2313.0,0.005536495161589009
2312.0,0.005356624584982237
2311.0,0.005196209734094539
2310.0,0.005109389165711277
2309.0,0.005090453947560105
2308.0,0.005109720229866039
2307.0,0.005135317740122917
2306.0,0.0051558356199250515
2305.0,0.005156627574847969
2304.0,0.005130476222655446
2303.0,0.005089518843636133
2302.0,0.0050783000567041605
2301.0,0.005123450687433087
2300.0,0.005203150939840378
2299.0,0.0052723023814469075
2298.0,0.005319996816598861
2297.0,0.005364297956547119
2296.0,0.005414855095442379
2295.0,0.005460810913175376
2294.0,0.005500748504276974
2293.0,0.005539809162508162
2292.0,0.005572366864750335
2291.0,0.005581464760063937
2290.0,0.005573193726208033
2289.0,0.005568476880845016
2288.0,0.0055725971705638255
2287.0,0.005566976673659107
2286.0,0.005543064689497633
2285.0,0.005509469839939124
2284.0,0.00547029038160167
2283.0,0.0054199191695567
2282.0,0.005362194345899309
2281.0,0.005307100065011824
2280.0,0.005249440134991744
2279.0,0.00518122742724895
2278.0,0.005121547117367188
2277.0,0.0051009118862772275
2276.0,0.005115477146127545
2275.0,0.005136897715120872
2274.0,0.005162443416845193
2273.0,0.005212884954780894
2272.0,0.005278503275329268
2271.0,0.00531724513847156
2270.0,0.005310370524865883
2269.0,0.0052721060354802085
2268.0,0.005197092020397878
2267.0,0.005050924425267492
2266.0,0.004835843434451946
2265.0,0.004620803190666995
2264.0,0.004483419500120955
2263.0,0.004453250301380768
2262.0,0.004521785188942786
2261.0,0.004658069527442375
2260.0,0.004797095112360963
2259.0,0.004861351105225184
2258.0,0.004826588161055397
2257.0,0.004743046344476344
2256.0,0.004675715254273296
2255.0,0.004646532007301665
2254.0,0.004639615773695343
2253.0,0.004630580677494148
2252.0,0.004597227651078421
2251.0,0.0045358229266103875
2250.0,0.004477521808577162
2249.0,0.004461613363123469
2248.0,0.00448505096788038
2247.0,0.004507697637937055
2246.0,0.004508965800934788
2245.0,0.004505151917941983
2244.0,0.004510539688031876
2243.0,0.004516197621177293
2242.0,0.004513039890839381
2241.0,0.004505097383269388
2240.0,0.004500519733478716
2239.0,0.004513120615165913
2238.0,0.004561131038358111
2237.0,0.004630930987277038
2236.0,0.004661576299074448
2235.0,0.00461306479086249
2234.0,0.004532593893484084
2233.0,0.004501809167480455
2232.0,0.004525957177718639
2231.0,0.00453174371924299
2230.0,0.004470939715843228
2229.0,0.004371811812039086
2228.0,0.004293642311185898
2227.0,0.004278511787937218
2226.0,0.004342071630632103
2225.0,0.004453246883633802
2224.0,0.004530703873353675
2223.0,0.004521402574663168
2222.0,0.004473772151527156
2221.0,0.0044768575201135875
2220.0,0.004531041423749242
2219.0,0.004545630958144184
2218.0,0.004467155105361092
2217.0,0.004345138346585136
2216.0,0.0042632793945795505
2215.0,0.004255320553474279
2214.0,0.004297438367280124
2213.0,0.004337642871773552
2212.0,0.004329852513466879
2211.0,0.004278740529280928
2210.0,0.004241989095531978
2209.0,0.004256237885118931
2208.0,0.004288006564806831
2207.0,0.004295010095361127
2206.0,0.004291353305625724
2205.0,0.0042967414080230925
2204.0,0.004273190630054227
2203.0,0.0041877090607418885
2202.0,0.004091740734922496
2201.0,0.004052961380628037
2200.0,0.004049626611262622
2199.0,0.004026268431722675
2198.0,0.004012181342674447
2197.0,0.0040753938665301385
2196.0,0.004184649149213023
2195.0,0.00423257332573533
2194.0,0.004183573446240409
2193.0,0.004096596990753976
2192.0,0.004024086512671748
2191.0,0.003986898736874098
2190.0,0.004026004082755447
2189.0,0.004166653845500216
2188.0,0.004345223768126905
2187.0,0.004481432333143466
2186.0,0.004586611938717907
2185.0,0.004676760826802224
2184.0,0.004637139398475166
2183.0,0.0043496701565712255
2182.0,0.003946037583956729
2181.0,0.00372916491008879
2180.0,0.003796976040075186
2179.0,0.003931316978615613
2178.0,0.003898525579230116
2177.0,0.0037066680109948324
2176.0,0.0035191708315147445
2175.0,0.0034449931147777697
2174.0,0.00349745003588094
2173.0,0.0036460072765461702
2172.0,0.0038244365436842856
2171.0,0.003967672844196632
2170.0,0.004086824556532626
2169.0,0.004247526017880796
2168.0,0.004445269370247058
2167.0,0.004568967552993056
2166.0,0.004532229572709756
2165.0,0.004398179855307686
2164.0,0.004333027370991892
2163.0,0.004423906780502226
2162.0,0.004516376297852019
2161.0,0.0042353774307231275
2160.0,0.0033411717242818706
2159.0,0.0021575966613579843
2158.0,0.0013735304310449929
2157.0,0.0012996708272388284
2156.0,0.0015961078540041203
2155.0,0.0018112256813711965
2154.0,0.0018953522238367242
2153.0,0.002056778626459565
2152.0,0.0023408916117847976
2151.0,0.0025692155633687233
2150.0,0.0026166373276754334
2149.0,0.0025338167058766327
2148.0,0.002415151693039436
2147.0,0.0023170254671469872
2146.0,0.0023046706826088726
2145.0,0.0024218939452220535
2144.0,0.002595084638919611
2143.0,0.002692835250661026
2142.0,0.0026867319074492385
2141.0,0.0026579209201282616
2140.0,0.0026611649571118383
2139.0,0.0026721436045714646
2138.0,0.0026492141302470844
2137.0,0.0025626139976090414
2136.0,0.0023930230320505373
2135.0,0.002191127886367863
2134.0,0.0020921507771948867
2133.0,0.0021720633229915325
2132.0,0.0023337910777588
2131.0,0.002434252242587561
2130.0,0.002475973021324609
2129.0,0.002565616960927447
2128.0,0.002724569862104966
2127.0,0.0028615155670801036
2126.0,0.0029266071414019226
2125.0,0.002974964273958894
2124.0,0.0030568624085797295
2123.0,0.0031457415608714396
2122.0,0.003210469244380929
2121.0,0.003285408119726187
2120.0,0.003426465601836652
2119.0,0.003644139659389335
2118.0,0.0038989865716225766
2117.0,0.004122387968839283
2116.0,0.004238563939752028
2115.0,0.004216877577018975
2114.0,0.004116608231194322
2113.0,0.004039098096501857
2112.0,0.004027942321322508
2111.0,0.0040500259121453285
2110.0,0.004066655725758016
2109.0,0.004075812449326401
2108.0,0.004092526145006046
2107.0,0.004132020898756975
2106.0,0.004199094892014148
2105.0,0.004255178965001569
2104.0,0.004225723744289046
2103.0,0.0040967392668791215
2102.0,0.003971031412127225
2101.0,0.003956419644478774
2100.0,0.0040214050027205465
2099.0,0.0040400059274665265
2098.0,0.003960585015545333
2097.0,0.0038424097458549062
2096.0,0.003737589170044305
2095.0,0.0036351046467315096
2094.0,0.003535151074404513
2093.0,0.0034910526503270233
2092.0,0.0035528032060104004
2091.0,0.003723606865287496
2090.0,0.003965627238103307
2089.0,0.004197563349265894
2088.0,0.004311052872623819
2087.0,0.004254231167188464
2086.0,0.004093529474787165
2085.0,0.003945391141103664
2084.0,0.0038616183228395076
2083.0,0.003827155706750857
2082.0,0.0038380473635791883
2081.0,0.003906409899317536
2080.0,0.0040076148386839075
2079.0,0.004102836009698908
2078.0,0.004190340728307968
2077.0,0.004260762840580238
2076.0,0.004241154123955781
2075.0,0.0040860743624222375
2074.0,0.003895156982098244
2073.0,0.003826800027404923
2072.0,0.003906958538158811
2071.0,0.004023153072594882
2070.0,0.004093394201040563
2069.0,0.004120029124194355
2068.0,0.004095083713953329
2067.0,0.003985111579610747
2066.0,0.0038237128867180123
2065.0,0.0037122021809480195
2064.0,0.003693574374050121
2063.0,0.0037252389613708966
2062.0,0.0037845557325124016
2061.0,0.0038849800587213122
2060.0,0.003997107078112086
2059.0,0.0040607894431927164
2058.0,0.0040606167732322365
2057.0,0.004001394079283363
2056.0,0.003860069284672591
2055.0,0.0036809516158918744
2054.0,0.003652071390204609
2053.0,0.003905131649238067
2052.0,0.004269233011840929
2051.0,0.004408818524860972
2050.0,0.004223985809992603
2049.0,0.003963656381108068
2048.0,0.003861466984128999
2047.0,0.003860954562932844
2046.0,0.0038236169305203172
2045.0,0.0037603745322791686
2044.0,0.0037408996920498296
2043.0,0.0037654693490844684
2042.0,0.0038314247187289444
2041.0,0.003961394226896966
2040.0,0.0040749707511500075
2039.0,0.0040146221276423
2038.0,0.0037719360759969887
2037.0,0.003532057454042919
2036.0,0.003427950465531144
2035.0,0.003399799450044873
2034.0,0.0033679361127415793
2033.0,0.0033599057166361817
2032.0,0.0033775424593903472
2031.0,0.00332537909103819
2030.0,0.0031576086984814885
2029.0,0.002942587985838815
2028.0,0.002731787413272039
2027.0,0.0025102262704091963
2026.0,0.002306437692008236
2025.0,0.0021861822994468107
2024.0,0.0021187794906776585
2023.0,0.0020246386523419878
2022.0,0.001958542484999623
2021.0,0.0020474488446973484
2020.0,0.0022517284038717196
2019.0,0.0023953153457966594
2018.0,0.002434828651975961
2017.0,0.0024908751796296853
2016.0,0.00259161391244738
2015.0,0.0026416007688671193
2014.0,0.0026567765073518906
2013.0,0.0027658334210340454
2012.0,0.0029589244187446114
2011.0,0.00303401107520052
2010.0,0.0028355875474978093
2009.0,0.002405801635304813
2008.0,0.001891455396539762
2007.0,0.0014624393729114258
2006.0,0.001323747593506299
2005.0,0.001586281057572336
2004.0,0.002091592912268802
2003.0,0.002539584026860991
2002.0,0.002774968879190923
2001.0,0.00282152560031452
2000.0,0.00271775211460111
1999.0,0.0025025564893232325
1998.0,0.002315132069121166
1997.0,0.0023055414543454293
1996.0,0.0024273911081432904
1995.0,0.0025016936563464877
1994.0,0.002481119132761141
1993.0,0.002489867320692991
1992.0,0.0025869074609741866
1991.0,0.0026831768641927384
1990.0,0.002757529080906589
1989.0,0.002891103842728852
1988.0,0.0030607982182360043
1987.0,0.0031417655145513494
1986.0,0.003131566934844945
1985.0,0.0031736433713756133
1984.0,0.003332200605294265
1983.0,0.003532567888427347
1982.0,0.003731397620088488
1981.0,0.003927123796940862
1980.0,0.003977036304870324
1979.0,0.0036671881869942036
1978.0,0.003057398163110727
1977.0,0.0025036256178493903
1976.0,0.0022103355147248542
1975.0,0.002058410687878076
1974.0,0.0019492680840824269
1973.0,0.001966124882013809
1972.0,0.0021194207609692792
1971.0,0.0022466579225950294
1970.0,0.002267164469452682
1969.0,0.00228906361939055
1968.0,0.002364928528617299
1967.0,0.002354838011566629
1966.0,0.0021867640612210338
1965.0,0.00201540504968439
1964.0,0.0019689753170850665
1963.0,0.001994754084790228
1962.0,0.0020195871183652835
1961.0,0.0020559363147606177
1960.0,0.002096903060925764
1959.0,0.0020700290514600525
1958.0,0.0019680562803346966
1957.0,0.001881319020329836
1956.0,0.0018469993806313626
1955.0,0.001802230360681
1954.0,0.0017275572453658641
1953.0,0.001699604882575611
1952.0,0.0017573988468909446
1951.0,0.0018440945491012505
1950.0,0.001922634402118567
1949.0,0.002015659127087227
1948.0,0.0021070645438742634
1947.0,0.002133638926213602
1946.0,0.0020982909958178076
1945.0,0.002076740576266139
1944.0,0.0020835302433216264
1943.0,0.0020491286358578394
1942.0,0.0019699633056148875
1941.0,0.0019365338756124834
1940.0,0.001972827842174842
1939.0,0.002008544513751495
1938.0,0.002013257368029888
1937.0,0.0020244246216003254
1936.0,0.002041506383506598
1935.0,0.0020127501969438156
1934.0,0.0019511257657231053
1933.0,0.0019459129024303988
1932.0,0.0020228621928149826
1931.0,0.002105947790053926
1930.0,0.002161643098725001
1929.0,0.0022332764980136106
1928.0,0.0023141405878973724
1927.0,0.0023224633639629816
1926.0,0.00222870035347023
1925.0,0.002120749287144319
1924.0,0.002082987261742326
1923.0,0.002102055975520874
1922.0,0.002130165732262435
1921.0,0.002173246400221537
1920.0,0.0022413509294446337
1919.0,0.002294266288307813
1918.0,0.002310209149552755
1917.0,0.002312809897127706
1916.0,0.002311657453407288
1915.0,0.002289880789721818
1914.0,0.0022514377298392062
1913.0,0.00223773391463552
1912.0,0.0022612803253791807
1911.0,0.0022717814396178305
1910.0,0.0022351114861821264
1909.0,0.00217185798225474
1908.0,0.0021055851606841154
1907.0,0.0020398533190418384
1906.0,0.0019930383833721465
1905.0,0.0020005648656759335
1904.0,0.0020419804939166043
1903.0,0.002061005191756994
1902.0,0.002058733742607088
1901.0,0.0020729410036763756
1900.0,0.002091421313743777
1899.0,0.0020673180861742876
1898.0,0.0020101880905494186
1897.0,0.0019903505344745095
1896.0,0.002022802538168797
1895.0,0.0020360600975501152
1894.0,0.001998649560092124
1893.0,0.0019694003603700568
1892.0,0.001988720102551145
1891.0,0.002026810456781119
1890.0,0.00206115904557854
1889.0,0.00210069204142333
1888.0,0.00213158929337447
1887.0,0.0021258431886112274
1886.0,0.0020875227639984245
1885.0,0.0020556907772704795
1884.0,0.0020520167133797327
1883.0,0.0020568427424336078
1882.0,0.0020611897788038775
1881.0,0.0020753093821508904
1880.0,0.0020911805100544884
1879.0,0.002091937280625139
1878.0,0.0020864969882789007
1877.0,0.0020957964745387607
1876.0,0.0020967490856928124
1875.0,0.002040629542010862
1874.0,0.0019461307085634739
1873.0,0.0018881762352040868
1872.0,0.001884909127177104
1871.0,0.0018763557698649948
1870.0,0.0018400020840187103
1869.0,0.001854798914076959
1868.0,0.0019277903010555832
1867.0,0.0019636586287278914
1866.0,0.0019666438895546874
1865.0,0.0019955507394367284
1864.0,0.0020441342774348103
1863.0,0.0020700178540533315
1862.0,0.0020683775856662014
1861.0,0.0020765670643894045
1860.0,0.0020963152222008897
1859.0,0.002085651642798064
1858.0,0.002040027202271696
1857.0,0.0020038602438942573
1856.0,0.0019913777789866624
1855.0,0.001967380297408163
1854.0,0.0019241245204341738
1853.0,0.0018976819058663308
1852.0,0.001899468869564002
1851.0,0.0019084872472241608
1850.0,0.0019081829601677925
1849.0,0.0019250042172952449
1848.0,0.001979941681210817
1847.0,0.0020430271264141268
1846.0,0.0020737670988058244
1845.0,0.0020845889587217843
1844.0,0.0020956036023227704
1843.0,0.0020712241148321347
1842.0,0.0020325000811975036
1841.0,0.0020180231117775337
1840.0,0.0019952785899410895
1839.0,0.001934926611167002
1838.0,0.001870043075151213
1837.0,0.0018670092004985234
1836.0,0.0019162032799319964
1835.0,0.001943490708507066
1834.0,0.0019272555632213815
1833.0,0.001907835055953053
1832.0,0.0019045942440361662
1831.0,0.0018926068797322079
1830.0,0.0018579748921830042
1829.0,0.001829346423149838
1828.0,0.0018446898957747604
1827.0,0.0018918396498896202
1826.0,0.0019239829583375116
1825.0,0.0019497126878699087
1824.0,0.001983164646176761
1823.0,0.0019983472229793404
1822.0,0.001987874941777725
1821.0,0.0019587478040370174
1820.0,0.0019093503503067916
1819.0,0.0018315316829405183
1818.0,0.0017554527222646502
1817.0,0.0017499465624447492
1816.0,0.0018112855602915785
1815.0,0.0018648323943384545
1814.0,0.0018788086366299402
1813.0,0.0018913034250533103
1812.0,0.0019418610941247228
1811.0,0.001994269642764614
1810.0,0.0020148442612289846
1809.0,0.0020445793936001806
1808.0,0.00210508200452714
1807.0,0.0021597836104953177
1806.0,0.0021871468612279983
1805.0,0.0022112737028217827
1804.0,0.002249186889671808
1803.0,0.002290662693643621
1802.0,0.0023393167784551065
1801.0,0.002409377730315609
1800.0,0.0024724462064225792
1799.0,0.002469565523353268
1798.0,0.0024215942302465935
1797.0,0.002400114166745575
1796.0,0.002422899969924977
1795.0,0.00244962431984476
1794.0,0.0024472124613508332
1793.0,0.00245152287891672
1792.0,0.002491544740123805
1791.0,0.0024893189551364707
1790.0,0.0024404930097709316
1789.0,0.0024185903425034544
1788.0,0.002429471453930819
1787.0,0.0024451209152241
1786.0,0.002455591298516308
1785.0,0.002466476200992662
1784.0,0.002462873533421334
1783.0,0.002434489252840697
1782.0,0.002404601543579781
1781.0,0.0024011502309408623
1780.0,0.002431619852694162
1779.0,0.0024475684758669463
1778.0,0.0024346738525173276
1777.0,0.002420739740627901
1776.0,0.0024210545531534395
1775.0,0.0024311711686496387
1774.0,0.002422311869970829
1773.0,0.002439205407538174
1772.0,0.002532892677853854
1771.0,0.002600132422711848
1770.0,0.0026257822946193794
1769.0,0.002685092768168632
1768.0,0.0027568981580410584
1767.0,0.0027815007119572728
1766.0,0.0027627013261828023
1765.0,0.002764727855970892
1764.0,0.0028094115735313218
1763.0,0.0028648517070736642
1762.0,0.002910951492154378
1761.0,0.0029562090150882393
1760.0,0.0030315553958623334
1759.0,0.0031249935465055417
1758.0,0.003210976231115925
1757.0,0.00328378535000256
1756.0,0.003329840348685207
1755.0,0.0033428245033906246
1754.0,0.0033539333543772167
1753.0,0.0033966733398063326
1752.0,0.0034996569428866102
1751.0,0.0036323565754262993
1750.0,0.0037002789483773085
1749.0,0.0037299343838395737
1748.0,0.0037831137481777848
1747.0,0.003824066965952509
1746.0,0.0038308363848283903
1745.0,0.0038665639945077244
1744.0,0.003992787744447767
1743.0,0.004155073685264193
1742.0,0.004272967674397201
1741.0,0.004366780926948561
1740.0,0.00447656786137981
1739.0,0.004553472514461307
1738.0,0.0045883071614586214
1737.0,0.004675078263648404
1736.0,0.004821145999280813
1735.0,0.005002922520312511
1734.0,0.0052115668818578246
1733.0,0.005314482035722504
1732.0,0.00537202063233952
1731.0,0.0054631434334215245
1730.0,0.00552751049514155
1729.0,0.005574896211029273
1728.0,0.005635817057940907
1727.0,0.005706837720586035
1726.0,0.005768238579956508
1725.0,0.00585011207731217
1724.0,0.005997202485158882
1723.0,0.006153030342965134
1722.0,0.006266951358638313
1721.0,0.006377339985538225
1720.0,0.006519316523940447
1719.0,0.0066657598669867795
1718.0,0.006842664748539465
1717.0,0.0071286649158033705
1716.0,0.007445797501544256
1715.0,0.007695714869662251
1714.0,0.007881355096158102
1713.0,0.008063566781656172
1712.0,0.008267548282919554
1711.0,0.008457718019588048
1710.0,0.00861381326595332
1709.0,0.008768269333685932
1708.0,0.008970734825041536
1707.0,0.009228032885140893
1706.0,0.009530715408827762
1705.0,0.009879141280495003
1704.0,0.010241885584024831
1703.0,0.010617088827708603
1702.0,0.010972040223808337
1701.0,0.011400923786032548
1700.0,0.01197406863378346
1699.0,0.012398243466905025
1698.0,0.01271303910212122
1697.0,0.013210909505357787
1696.0,0.013916964287547701
1695.0,0.014451316876016494
1694.0,0.014743182681995416
1693.0,0.015044157278799031
1692.0,0.0154007188083388
1691.0,0.015793961962416225
1690.0,0.016243125375935825
1689.0,0.016756162070823394
1688.0,0.01728113237082634
1687.0,0.017766959907455693
1686.0,0.018179217243272434
1685.0,0.018782701561477308
1684.0,0.019733179068719048
1683.0,0.020344976895689218
1682.0,0.020678544464505424
1681.0,0.02109312743083734
1680.0,0.021561754828393342
1679.0,0.022009446821268007
1678.0,0.022414277446152958
1677.0,0.022859074822418172
1676.0,0.023442464112056784
1675.0,0.024078438239160102
1674.0,0.024526197166096695
1673.0,0.024830597831990667
1672.0,0.02518032538040552
1671.0,0.025647707554143306
1670.0,0.026247668644433918
1669.0,0.026831105583644488
1668.0,0.027266766372998054
1667.0,0.02760547030403092
1666.0,0.027896277188011173
1665.0,0.028191087567902205
1664.0,0.028564524925909607
1663.0,0.029019183216318918
1662.0,0.029429047172167412
1661.0,0.02974000952196043
1660.0,0.03004591331917117
1659.0,0.030339983820805876
1658.0,0.030570827243164074
1657.0,0.030767084787380952
1656.0,0.031032899766742977
1655.0,0.031359694930955515
1654.0,0.03176701657917344
1653.0,0.03218810232739834
1652.0,0.03217599826719375
1651.0,0.03216389844363597
1650.0,0.03224410625766384
1649.0,0.03224230556592526
1648.0,0.03225979115224183
1647.0,0.032399770192354606
1646.0,0.0324812725272797
1645.0,0.032493677119805414
1644.0,0.0325751572586586
1643.0,0.03265121574935789
1642.0,0.03266065525548153
1641.0,0.032620940856361025
1640.0,0.03260230149551848
1639.0,0.03263890901697811
1638.0,0.0326669346568152
1637.0,0.032570995686735646
1636.0,0.032267847985824924
1635.0,0.03181499220786865
1634.0,0.03144404554777616
1633.0,0.03127765393948381
1632.0,0.03117857755884068
1631.0,0.031032418409393275
1630.0,0.030771253214135055
1629.0,0.030376718147617193
1628.0,0.029863063975844435
1627.0,0.02949850907031252
1626.0,0.029077972068968137
1625.0,0.02860548914192261
1624.0,0.02810725807640288
1623.0,0.027581644942606315
1622.0,0.027084981718845144
1621.0,0.02663841830025849
1620.0,0.026223941057331807
1619.0,0.025797821981105157
1618.0,0.025307550652198568
1617.0,0.02474537295362595
1616.0,0.02420826035738393
1615.0,0.023746111382144202
1614.0,0.023300955047340415
1613.0,0.022839859475397788
1612.0,0.02236816820685109
1611.0,0.021905578912789474
1610.0,0.02144654615255205
1609.0,0.021011184485478257
1608.0,0.020495944811696663
1607.0,0.02008243264993164
1606.0,0.01972990887812753
1605.0,0.019369776992854904
1604.0,0.018995523468542382
1603.0,0.018619950781796506
1602.0,0.018267459371949808
1601.0,0.017939718399835002
1600.0,0.017633085148311887
1599.0,0.017351330025920736
1598.0,0.017091497984170846
1597.0,0.016834740047631573
1596.0,0.016561634257822686
1595.0,0.016275801905733883
1594.0,0.016003967328270013
1593.0,0.015760869091453182
1592.0,0.015538471358759482
1591.0,0.015325309743935065
1590.0,0.015117663206251013
1589.0,0.014911700656744211
1588.0,0.014710649635277583
1587.0,0.01453017928847241
1586.0,0.014384756799670925
1585.0,0.014261784400964837
1584.0,0.014140977064134919
1583.0,0.0140295715420077
1582.0,0.013922048247032831
1581.0,0.013806548884313211
1580.0,0.013697223744900747
1579.0,0.01362042891483746
1578.0,0.01355402174868853
1577.0,0.013462482337429964
1576.0,0.01332656142692975
1575.0,0.01317563014096361
1574.0,0.0131263126120219
1573.0,0.01316230970710227
1572.0,0.01317339387789817
1571.0,0.013105484912952822
1570.0,0.013005227700242334
1569.0,0.01293187654154182
1568.0,0.012900027113571716
1567.0,0.012918492249322035
1566.0,0.012925379980232913
1565.0,0.012881810633680085
1564.0,0.012824382735131826
1563.0,0.012836986587836802
1562.0,0.012944255287558083
1561.0,0.013033708812500381
1560.0,0.012976819348470059
1559.0,0.01299721188403026
1558.0,0.013033471190191843
1557.0,0.01309764336156016
1556.0,0.013298362404705836
1555.0,0.013425518519280599
1554.0,0.013456537311052643
1553.0,0.01343900580285911
1552.0,0.013431571804501007
1551.0,0.01343292827665801
1550.0,0.013435126180075356
1549.0,0.013448354735014077
1548.0,0.013465549586603683
1547.0,0.013477647105880883
1546.0,0.013458202198269854
1545.0,0.013428673992799442
1544.0,0.013439182372217456
1543.0,0.013474293346955688
1542.0,0.013496965744114901
1541.0,0.013574893223708556
1540.0,0.013618867984072601
1539.0,0.01339867225071023
1538.0,0.013246261394349555
1537.0,0.013279410995725223
1536.0,0.01332746591461038
1535.0,0.01329593574163752
1534.0,0.01320348888913168
1533.0,0.013129984019833705
1532.0,0.013100074917275089
1531.0,0.013104322324587341
1530.0,0.013110845511748664
1529.0,0.01311818360418019
1528.0,0.01313401885636845
1527.0,0.013127822015859228
1526.0,0.01307233356737636
1525.0,0.01300693281010068
1524.0,0.012978061454430898
1523.0,0.012966131373842268
1522.0,0.012982556016505668
1521.0,0.013042021758710408
1520.0,0.013056778823402282
1519.0,0.0130448979752049
1518.0,0.013016279484929377
1517.0,0.013011860763672833
1516.0,0.013039994363265556
1515.0,0.01306463912940456
1514.0,0.013101102636179422
1513.0,0.013131078657627505
1512.0,0.013129009286239678
1511.0,0.01307699876715708
1510.0,0.0129973369927853
1509.0,0.012902578121861106
1508.0,0.012818864145620414
1507.0,0.012860585471066471
1506.0,0.012868292483655085
1505.0,0.01288139412142731
1504.0,0.012986812526322413
1503.0,0.013056974349593096
1502.0,0.013082223997205173
1501.0,0.013116178998949998
1500.0,0.01318196767908375
1499.0,0.013252451097079364
1498.0,0.0133212751382338
1497.0,0.013449903524872135
1496.0,0.013592790566547951
1495.0,0.013645150497498683
1494.0,0.013669956763833643
1493.0,0.013742652210031674
1492.0,0.013849853766656792
1491.0,0.013941610140075136
1490.0,0.014038453691062693
1489.0,0.01418930838027669
1488.0,0.014334957699241951
1487.0,0.01442248392457841
1486.0,0.014510308069668978
1485.0,0.014645164829140678
1484.0,0.014800381207359561
1483.0,0.014953341515152745
1482.0,0.015126775236541788
1481.0,0.015370213746598374
1480.0,0.015649999620188027
1479.0,0.015916708408054737
1478.0,0.016203929699374942
1477.0,0.016603309285430773
1476.0,0.017123707137356465
1475.0,0.017698305365734582
1474.0,0.018489305434636116
1473.0,0.019875568885112632
1472.0,0.021553928452965082
1471.0,0.022833371301452726
1470.0,0.023890942832455898
1469.0,0.02502644009869873
1468.0,0.02629415606753461
1467.0,0.02772223597039601
1466.0,0.02951135742698674
1465.0,0.03174245808623478
1464.0,0.03380773720834903
1463.0,0.03514438141028105
1462.0,0.035967782873734734
1461.0,0.036612063048305096
1460.0,0.03716780348068024
1459.0,0.03764360626776684
1458.0,0.03826622174577286
1457.0,0.03921554058815285
1456.0,0.039731514210303874
1455.0,0.039769431480440806
1454.0,0.03976252285854565
1453.0,0.03974494547162817
1452.0,0.03958791417778179
1451.0,0.03920626834735642
1450.0,0.038549375299901066
1449.0,0.037418081806525734
1448.0,0.035642949508426794
1447.0,0.033575315499750076
1446.0,0.03176423476505237
1445.0,0.03028509206023864
1444.0,0.028985468847846592
1443.0,0.02783348838003831
1442.0,0.02691761542160903
1441.0,0.026277998365130367
1440.0,0.025884155331481553
1439.0,0.025713493815031827
1438.0,0.025752601445419156
1437.0,0.025877627117625365
1436.0,0.025750896826312302
1435.0,0.025261620804252934
1434.0,0.024606386570825332
1433.0,0.02386549765080458
1432.0,0.02305983443797197
1431.0,0.02229269121508174
1430.0,0.021676823867251463
1429.0,0.02122798423176196
1428.0,0.020915241267552277
1427.0,0.020732461996771274
1426.0,0.020636408099329442
1425.0,0.020523334507950908
1424.0,0.020360490425462348
1423.0,0.020235441741138453
1422.0,0.02021986705940773
1421.0,0.020245046837631935
1420.0,0.020183385374350545
1419.0,0.019996590267274746
1418.0,0.01976515991728067
1417.0,0.01956536832348298
1416.0,0.019395968103072394
1415.0,0.019237608363102073
1414.0,0.019073959976647424
1413.0,0.018871016169124625
1412.0,0.018610640994634102
1411.0,0.01831938466827487
1410.0,0.018027301567078803
1409.0,0.017728716774692097
1408.0,0.01740946119563442
1407.0,0.01707559920408987
1406.0,0.01671930081377528
1405.0,0.016300821677457833
1404.0,0.01586950381199367
1403.0,0.015547466054559318
1402.0,0.015344505088013508
1401.0,0.01514416508486411
1400.0,0.014851565587627742
1399.0,0.014513173990834433
1398.0,0.014229734259136463
1397.0,0.013987214962049039
1396.0,0.013722234544192444
1395.0,0.0134558728840709
1394.0,0.013221685273617764
1393.0,0.013003519461436502
1392.0,0.012826997678311466
1391.0,0.012737511271083007
1390.0,0.01273565653513221
1389.0,0.012792498491204528
1388.0,0.012965239580151482
1387.0,0.01340305498435209
1386.0,0.01413243126466037
1385.0,0.01511595084863119
1384.0,0.016504169539582364
1383.0,0.018533356975643643
1382.0,0.02131031945017757
1381.0,0.024854595220066958
1380.0,0.02923505341998686
1379.0,0.03428436247048641
1378.0,0.039193503030791624
1377.0,0.042841481508236384
1376.0,0.044268663284554484
1375.0,0.04265456120129396
1374.0,0.03812791301899782
1373.0,0.03263654317995747
1372.0,0.02790794288278336
1371.0,0.024095457753232494
1370.0,0.02085542146476507
1369.0,0.018129777152034135
1368.0,0.016093554935766752
1367.0,0.014787582754902169
1366.0,0.01403906751500883
1365.0,0.013652128844879704
1364.0,0.013525580457321187
1363.0,0.013646700665245738
1362.0,0.013976066146537989
1361.0,0.01435286799089059
1360.0,0.014602394801421482
1359.0,0.014622830338157276
1358.0,0.01436997690112692
1357.0,0.013841721437441699
1356.0,0.013083285561091517
1355.0,0.012199021361908296
1354.0,0.011335492936912168
1353.0,0.010601385395600502
1352.0,0.010005352311783334
1351.0,0.009504314816172825
1350.0,0.009075682645874467
1349.0,0.008711824679000182
1348.0,0.008402895065752852
1347.0,0.008136207555446617
1346.0,0.00790793324997955
1345.0,0.0077092747475295265
1344.0,0.007524634369337955
1343.0,0.007349771412059001
1342.0,0.007196383605109557
1341.0,0.007074354992531942
1340.0,0.006983209506139711
1339.0,0.006916845647999995
1338.0,0.0068659884835722
1337.0,0.006817186290665845
1336.0,0.006762136873499958
1335.0,0.006713501052915736
1334.0,0.0066945473083228
1333.0,0.006710489235612861
1332.0,0.006743292402270264
1331.0,0.006772487130371875
1330.0,0.006784732180638343
1329.0,0.006765574371775914
1328.0,0.006703837492265817
1327.0,0.006605832110718444
1326.0,0.006489237529093547
1325.0,0.006360981536731711
1324.0,0.006221987977941667
1323.0,0.006082391164420801
1322.0,0.005957328064837286
1321.0,0.005848759480001698
1320.0,0.005748689928617741
1319.0,0.005656081694403304
1318.0,0.005574179821070077
1317.0,0.005497058109550925
1316.0,0.005419371306076254
1315.0,0.005351951417658481
1314.0,0.005308755837499813
1313.0,0.005283667390918463
1312.0,0.005260431152695965
1311.0,0.00524619204697099
1310.0,0.005272728522777343
1309.0,0.005369702868890406
1308.0,0.005547673187014757
1307.0,0.0057896435368640295
1306.0,0.006041338220174379
1305.0,0.006219737968554169
1304.0,0.006260580282101745
1303.0,0.0061655914010986575
1302.0,0.005999113140017581
1301.0,0.005833132471133115
1300.0,0.00570656861311096
1299.0,0.005628011205297658
1298.0,0.005589343633783793
1297.0,0.005567661720615348
1296.0,0.005533848051851425
1295.0,0.005472430904904759
1294.0,0.005387162646271839
1293.0,0.005288880649630897
1292.0,0.005188257769459264
1291.0,0.0050974406210477375
1290.0,0.0050247609716696905
1289.0,0.004967494416594859
1288.0,0.004919056697886474
1287.0,0.004879541380042924
1286.0,0.004848962768981335
1285.0,0.00481786163001276
1284.0,0.0047784886307790896
1283.0,0.004739460679324986
1282.0,0.0047165568519340634
1281.0,0.004711182626549057
1280.0,0.004710523720630775
1279.0,0.004707012012823248
1278.0,0.004704426933692062
1277.0,0.004708102413949301
1276.0,0.00472007447392285
1275.0,0.004742890340026205
1274.0,0.004777039184183009
1273.0,0.004817165750144714
1272.0,0.00485985622430379
1271.0,0.004913028609875811
1270.0,0.004987951813374461
1269.0,0.005084323850566211
1268.0,0.005193281628955675
1267.0,0.0053105434543533996
1266.0,0.005436825999930273
1265.0,0.005569173472611169
1264.0,0.005700157157564405
1263.0,0.005825537446340335
1262.0,0.005947932247231946
1261.0,0.0060755354509885295
1260.0,0.0062216693103805554
1259.0,0.006398596279203073
1258.0,0.00659876719107331
1257.0,0.006783079816655666
1256.0,0.00689490365334775
1255.0,0.006894414572668921
1254.0,0.006785997370616078
1253.0,0.006614091495673786
1252.0,0.006434656687378006
1251.0,0.006289978355572266
1250.0,0.00619657737055071
1249.0,0.006147160179899962
1248.0,0.0061258166051907596
1247.0,0.006122838562850664
1246.0,0.00613591889246776
1245.0,0.006163520423320159
1244.0,0.006200674515957306
1243.0,0.006239287812099495
1242.0,0.006271072475523403
1241.0,0.006293936345579371
1240.0,0.006316453183508925
1239.0,0.006350823024641222
1238.0,0.006398573774610986
1237.0,0.00644849133026433
1236.0,0.006490963660098199
1235.0,0.006527014024811302
1234.0,0.006560090887724525
1233.0,0.0065877015456151
1232.0,0.006607906852928454
1231.0,0.0066270673304282615
1230.0,0.006653054913094564
1229.0,0.006685250496493536
1228.0,0.0067183067542167605
1227.0,0.006752300334981129
1226.0,0.0067933736877666545
1225.0,0.00684780179123194
1224.0,0.006919708575357775
1223.0,0.0070083200338262545
1222.0,0.007101029070996965
1221.0,0.007175653943682686
1220.0,0.007218351099986121
1219.0,0.007236360218666214
1218.0,0.007245737529412422
1217.0,0.007250208403521105
1216.0,0.007241302689059911
1215.0,0.007215503789435709
1214.0,0.00718004073521338
1213.0,0.007143658665637919
1212.0,0.007112701055482897
1211.0,0.007094884725021828
1210.0,0.007094678396345505
1209.0,0.007104016768310375
1208.0,0.007109295915093667
1207.0,0.007109703951892038
1206.0,0.007118794196214735
1205.0,0.007144600757604577
1204.0,0.007178235816962674
1203.0,0.0072067067564708966
1202.0,0.00722842899762286
1201.0,0.007250656753054901
1200.0,0.0072784601934232605
1199.0,0.007312859616780996
1198.0,0.007355366566325405
1197.0,0.007408316530767305
1196.0,0.007471738775385919
1195.0,0.007543185564779594
1194.0,0.007619735391452437
1193.0,0.007698641250127793
1192.0,0.007777925313041422
1191.0,0.007857524329762994
1190.0,0.007938522134391796
1189.0,0.008021482527214185
1188.0,0.008108605681515047
1187.0,0.008207101192991277
1186.0,0.008324656470321937
1185.0,0.008459126538791335
1184.0,0.00859843425815644
1183.0,0.008734934969004151
1182.0,0.008876086124829222
1181.0,0.009035521396903171
1180.0,0.009217363315261174
1179.0,0.009417632195693873
1178.0,0.009641137612961242
1177.0,0.00990874661912984
1176.0,0.010246317443538041
1175.0,0.010673770688669548
1174.0,0.011206700775743848
1173.0,0.01185792535538525
1172.0,0.012623235455174572
1171.0,0.013460555040519143
1170.0,0.014287007107687929
1169.0,0.014998613743063462
1168.0,0.015497478174055522
1167.0,0.015724193127975683
1166.0,0.01569050198387664
1165.0,0.015474939195102955
1164.0,0.015173017774524494
1163.0,0.014855750849502764
1162.0,0.014568488514146612
1161.0,0.014338842937243811
1160.0,0.01417284995507
1159.0,0.014057541528723187
1158.0,0.013979433540935185
1157.0,0.013935897258889468
1156.0,0.013925678685046645
1155.0,0.013938060623024415
1154.0,0.013956755452225637
1153.0,0.013966525847607957
1152.0,0.013952823192282311
1151.0,0.013905050771777044
1150.0,0.013825642124119162
1149.0,0.01372717684167124
1148.0,0.013618643003589385
1147.0,0.013504617271862699
1146.0,0.01339599957277653
1145.0,0.013306264998926245
1144.0,0.013235427280437702
1143.0,0.0131722114928998
1142.0,0.0131150009490404
1141.0,0.01307653079875963
1140.0,0.01306333679438898
1139.0,0.013064512285462213
1138.0,0.013067373156449846
1137.0,0.013072359043746411
1136.0,0.013084983058468173
1135.0,0.013103911169794456
1134.0,0.013125072696628562
1133.0,0.013148615397365716
1132.0,0.013174715323316575
1131.0,0.013200510398547902
1130.0,0.013226664177866745
1129.0,0.013259089985512802
1128.0,0.013300557792489558
1127.0,0.013349448221732878
1126.0,0.013408953157326146
1125.0,0.013485645508120231
1124.0,0.013575331108427506
1123.0,0.013663562183520796
1122.0,0.013745629029069506
1121.0,0.013831752009617084
1120.0,0.013924837372621075
1119.0,0.014008790373998197
1118.0,0.014070330525532315
1117.0,0.014120045799361963
1116.0,0.014181003347262067
1115.0,0.014267222067061741
1114.0,0.014381596302468363
1113.0,0.01452218843151256
1112.0,0.01467856505409532
1111.0,0.014831771202754536
1110.0,0.01497110689658316
1109.0,0.015105804459950845
1108.0,0.015252509696064277
1107.0,0.015419466744373639
1106.0,0.015608608711696628
1105.0,0.01581707041711789
1104.0,0.016025770124691523
1103.0,0.01619902843835857
1102.0,0.016309072243146108
1101.0,0.01635439558936225
1100.0,0.01634960487056845
1099.0,0.016312290408886387
1098.0,0.016264509155354386
1097.0,0.016226194997857248
1096.0,0.01619777388494634
1095.0,0.016164497270614052
1094.0,0.0161242469967219
1093.0,0.01609390291189885
1092.0,0.016082590611772873
1091.0,0.016078488823307906
1090.0,0.016070671850778286
1089.0,0.016065968079389543
1088.0,0.0160745585016807
1087.0,0.016094534878074572
1086.0,0.01611836588790708
1085.0,0.016138716848343664
1084.0,0.016141379461560267
1083.0,0.016111542323615394
1082.0,0.01605630543533705
1081.0,0.016001457010283028
1080.0,0.01595612953569451
1079.0,0.01590017790367284
1078.0,0.01581696294209
1077.0,0.01571976798731993
1076.0,0.01563398994928981
1075.0,0.01556947814111911
1074.0,0.015520037153617355
1073.0,0.015475208982324299
1072.0,0.015423695292383317
1071.0,0.015359330666741885
1070.0,0.015292120044547927
1069.0,0.015239906694400143
1068.0,0.015203560097186396
1067.0,0.015165561613179428
1066.0,0.015118716562491853
1065.0,0.01507919398071669
1064.0,0.015062577805848201
1063.0,0.01506274561965195
1062.0,0.01506266416163727
1061.0,0.015052312131215235
1060.0,0.01502809697675091
1059.0,0.014988328521353102
1058.0,0.01493878120607807
1057.0,0.014891472835584948
1056.0,0.014850491135629293
1055.0,0.0148092060441069
1054.0,0.01476634821884689
1053.0,0.01473292561649429
1052.0,0.014718230110602502
1051.0,0.0147231878802047
1050.0,0.014753750704631328
1049.0,0.014821772580319543
1048.0,0.014920745162708703
1047.0,0.015017707023491113
1046.0,0.01508015459148316
1045.0,0.015097687644948798
1044.0,0.015072817165867013
1043.0,0.015008909841279089
1042.0,0.014915902513784201
1041.0,0.014814149936728992
1040.0,0.01472279444139087
1039.0,0.01464988775082551
1038.0,0.01459451842523253
1037.0,0.014549107109670216
1036.0,0.014499398545780817
1035.0,0.014433035804728291
1034.0,0.014350362177873732
1033.0,0.014258384432511435
1032.0,0.014156830350793445
1031.0,0.014042907746940277
1030.0,0.013926551142012567
1029.0,0.01382344344516824
1028.0,0.01373211017715717
1027.0,0.013634255202785005
1026.0,0.013520319784571792
1025.0,0.013400432438263062
1024.0,0.013288130765772496
1023.0,0.013187448816894234
1022.0,0.013097333116925562
1021.0,0.01301336986514759
1020.0,0.012922060345926193
1019.0,0.012808671632109421
1018.0,0.012677406033280606
1017.0,0.012551720233472834
1016.0,0.012449175895918235
1015.0,0.012366973415047559
1014.0,0.012295375094657914
1013.0,0.012232025145934133
1012.0,0.012176232537275084
1011.0,0.012121295822941105
1010.0,0.012063025741155423
1009.0,0.012010031132530713
1008.0,0.011978928108153979
1007.0,0.011983773252569933
1006.0,0.0120343607704168
1005.0,0.01214182924522023
1004.0,0.012326251522274713
1003.0,0.012624612570981422
1002.0,0.013085075407725518
1001.0,0.013726360690427465
1000.0,0.014475186664238457
999.0,0.015141775709836797
998.0,0.015486086364703895
997.0,0.01534357927610324
996.0,0.014713543993867897
995.0,0.013754040248154919
994.0,0.012696447921380544
993.0,0.011731553776726564
992.0,0.010943314951963119
991.0,0.010325899998853107
990.0,0.009839945783094016
989.0,0.009449703385375569
988.0,0.009129860556299052
987.0,0.008864174326891176
986.0,0.008647824305732184
985.0,0.008486193464909288
984.0,0.008386811227864877
983.0,0.008353132600521392
982.0,0.008387938255950043
981.0,0.00850401083320122
980.0,0.008730667567973527
979.0,0.009104769185995166
978.0,0.00964777123921564
977.0,0.010344368360133475
976.0,0.011132691376748487
975.0,0.0119007835112389
974.0,0.012489207797168646
973.0,0.012716711396492567
972.0,0.01244683565212757
971.0,0.011679270026834273
970.0,0.010585318036312387
969.0,0.00941906891787735
968.0,0.008375824942552065
967.0,0.007530478078118082
966.0,0.006875344198708781
965.0,0.00637878557419427
964.0,0.006006745385760522
963.0,0.005717398404650981
962.0,0.005465008247646617
961.0,0.005219464476017489
960.0,0.004978342935403373
959.0,0.004756625263868268
958.0,0.004565595310911165
957.0,0.004402156886786312
956.0,0.004255289701696802
955.0,0.0041167779179726565
954.0,0.003983311704044626
953.0,0.0038532499961066377
952.0,0.0037273862448529704
951.0,0.003612016603890154
950.0,0.003515502726768458
949.0,0.00343991509564422
948.0,0.0033790795166217143
947.0,0.003325674866039024
946.0,0.003278231347603364
945.0,0.0032413417182743896
944.0,0.003220752993299268
943.0,0.0032167184109121467
942.0,0.0032185032670321648
941.0,0.0032056684372813553
940.0,0.003159059059450577
939.0,0.003074193968979488
938.0,0.002964198382390216
937.0,0.0028484602109866124
936.0,0.002738610853660369
935.0,0.0026347765096908435
934.0,0.0025323002795508837
933.0,0.002430725847093255
932.0,0.0023375688781952075
931.0,0.002264088200553573
930.0,0.0022161707779863836
929.0,0.002188566742121969
928.0,0.0021680142550237237
927.0,0.002141849082434911
926.0,0.002105331699338974
925.0,0.002063244140308196
924.0,0.00202462125629585
923.0,0.001994099398849654
922.0,0.0019679523026352747
921.0,0.001940354130637631
920.0,0.001913185369620379
919.0,0.0018968431264890489
918.0,0.0019007113369611996
917.0,0.0019240596650479062
916.0,0.001954966609784635
915.0,0.001975593078884813
914.0,0.0019717763421608237
913.0,0.0019438574194128207
912.0,0.0019081448935332236
911.0,0.0018836070762639073
910.0,0.0018773704547522165
909.0,0.0018866578132573676
908.0,0.0019115766149283321
907.0,0.001958354968334101
906.0,0.0020332459665272466
905.0,0.002144802310450767
904.0,0.002310515596477769
903.0,0.002543212643924259
902.0,0.0028204866690310585
901.0,0.003076905093655888
900.0,0.0032370309739474194
899.0,0.0032578842595260508
898.0,0.0031433903959961536
897.0,0.0029286489825178282
896.0,0.0026599128969578747
895.0,0.002385093269567602
894.0,0.002145621236633824
893.0,0.0019652140315091875
892.0,0.0018463130921204697
891.0,0.0017761418011665552
890.0,0.001735331104933159
889.0,0.0017096889382941672
888.0,0.0017023332363798153
887.0,0.001730935332207053
886.0,0.0018073874894222082
885.0,0.001925316087650817
884.0,0.002073869343697344
883.0,0.002257456668951033
882.0,0.0024935575821760213
881.0,0.002794355492692805
880.0,0.0031554224598525204
879.0,0.003553986004911157
878.0,0.003947525913605754
877.0,0.004279804147516433
876.0,0.004503855307871025
875.0,0.0046061933341097205
874.0,0.0046009410819266745
873.0,0.004493642562494855
872.0,0.0042650995353945426
871.0,0.003909947890872912
870.0,0.0034821437120273087
869.0,0.00307720681249936
868.0,0.002765991597481617
867.0,0.0025553532859138445
866.0,0.0024087021940390665
865.0,0.00229277942946186
864.0,0.002201028295185311
863.0,0.0021399538649501566
862.0,0.0021063034792891348
861.0,0.002085395047680065
860.0,0.002068290448174694
859.0,0.0020614588341918236
858.0,0.002076500284718277
857.0,0.002114476457443327
856.0,0.0021626023649347816
855.0,0.0022029723788712773
854.0,0.0022243199188666015
853.0,0.002231203532551511
852.0,0.0022436492360761503
851.0,0.002283012949594135
850.0,0.002354967790018323
849.0,0.0024500295194144917
848.0,0.00256530057000102
847.0,0.0027274185175415588
846.0,0.002999647645156745
845.0,0.0034667458293634445
844.0,0.004183743351782475
843.0,0.005086421348817979
842.0,0.005933231165983356
841.0,0.006389555825664767
840.0,0.0062464316060397256
839.0,0.005589907279371309
838.0,0.004738555571471317
837.0,0.004000456990425647
836.0,0.00350022835006116
835.0,0.0032057064731937056
834.0,0.003040689077882382
833.0,0.00294291438555022
832.0,0.0028630971819759918
831.0,0.0027715259162237656
830.0,0.0026772851876128
829.0,0.0026131485479808265
828.0,0.0025931125195517313
827.0,0.002600119528449756
826.0,0.0026152189438316265
825.0,0.002639703206195644
824.0,0.0026843711646408128
823.0,0.0027521863435802253
822.0,0.002834908105200023
821.0,0.0029169524126504177
820.0,0.002984884222714014
819.0,0.0030423557179504596
818.0,0.003111922201844572
817.0,0.0032153599710921035
816.0,0.0033594612652261407
815.0,0.003546630285041808
814.0,0.0037851198828697183
813.0,0.004073583568617305
812.0,0.004382892797884633
811.0,0.004668416897019568
810.0,0.004895645665352541
809.0,0.005040483546356545
808.0,0.005076890668246285
807.0,0.004995341028411395
806.0,0.004834805624226782
805.0,0.004666548860648108
804.0,0.004538590847863157
803.0,0.004451613627360719
802.0,0.0043834317306480665
801.0,0.004315826839538298
800.0,0.004240271941725323
799.0,0.0041608459966982515
798.0,0.004094664794334738
797.0,0.0040514007257512336
796.0,0.004013930792058005
795.0,0.003959394162208182
794.0,0.0038975920413550913
793.0,0.0038644081370626387
792.0,0.0038744167961065057
791.0,0.003902097798403722
790.0,0.003913795930859665
789.0,0.0038987330113723975
788.0,0.003865241164924947
787.0,0.0038274522418159374
786.0,0.0038018188814648857
785.0,0.0037983662028465356
784.0,0.0038092277380835024
783.0,0.0038193861869950246
782.0,0.003828506100265229
781.0,0.003844966297317079
780.0,0.0038601587804866985
779.0,0.0038523266056113767
778.0,0.003819592732663843
777.0,0.0037858741788044867
776.0,0.0037691638876070424
775.0,0.00376713880893308
774.0,0.0037791557727899876
773.0,0.003816408433554984
772.0,0.003878523795161952
771.0,0.003941609392250672
770.0,0.003982654642591545
769.0,0.003999530052532032
768.0,0.003998115225726146
767.0,0.003980836612574135
766.0,0.003959898226876441
765.0,0.003959096876735187
764.0,0.003986182283471865
763.0,0.004020169800108046
762.0,0.004040942084339201
761.0,0.004056369407418325
760.0,0.0040851116204968264
759.0,0.004127602362429771
758.0,0.004170360231637554
757.0,0.004207247749923867
756.0,0.004240216341351168
755.0,0.004267743483314011
754.0,0.004288771653465306
753.0,0.004312437232939809
752.0,0.0043487685178037715
751.0,0.004390156066700325
750.0,0.004411414441904488
749.0,0.004391282472285818
748.0,0.004335981858610487
747.0,0.004286017771265374
746.0,0.004292895290042932
745.0,0.004373495272817558
744.0,0.004486502846700012
743.0,0.004565641942118202
742.0,0.004577877747688235
741.0,0.004542229001905564
740.0,0.004499179975785347
739.0,0.0044791843576705015
738.0,0.0044939737316563
737.0,0.00453378178576451
736.0,0.004571445260815134
735.0,0.004588386358423194
734.0,0.004597528988795951
733.0,0.004623093763575555
732.0,0.004661882102695972
731.0,0.0046878427622424786
730.0,0.004690920000637647
729.0,0.004683414197081324
728.0,0.0046686977104406086
727.0,0.004636300738185394
726.0,0.0045961624594953
725.0,0.004584241612222848
724.0,0.004618575589618746
723.0,0.004674689889107873
722.0,0.004714537387083988
721.0,0.004719928582285891
720.0,0.0046941185250266755
719.0,0.004655607357597069
718.0,0.004637529715380343
717.0,0.004671020037859904
716.0,0.004759660197021381
715.0,0.004877473885069358
714.0,0.004990364982235439
713.0,0.005068071696517799
712.0,0.005081952247291847
711.0,0.005021877053386123
710.0,0.004918898848152442
709.0,0.004820807065886109
708.0,0.004744275259545707
707.0,0.004679892228933075
706.0,0.004640212060410622
705.0,0.004659515710528004
704.0,0.004732766692127712
703.0,0.004797406651335375
702.0,0.0047999017986050455
701.0,0.004748256222259797
700.0,0.004683036380163742
699.0,0.004629781781384547
698.0,0.004594903169600765
697.0,0.0045770402371037855
696.0,0.004561153413037172
695.0,0.004526844381951535
694.0,0.004477260802658586
693.0,0.004433849257488506
692.0,0.0043990845400720575
691.0,0.004356621187876098
690.0,0.0043127605774559395
689.0,0.004295381738163281
688.0,0.004293564908414319
687.0,0.0042556654662928295
686.0,0.004176398238331876
685.0,0.0041151228375581606
684.0,0.004099331159769137
683.0,0.004079743264110081
682.0,0.00401267164405477
681.0,0.003931955758239562
680.0,0.0038979324726027033
679.0,0.003913882915471376
678.0,0.003934831947616114
677.0,0.0039303948525544405
676.0,0.0038990258570626643
675.0,0.003846673050494718
674.0,0.003792290349890079
673.0,0.003764674595301106
672.0,0.0037661360733059965
671.0,0.0037756726910173483
670.0,0.003782512887001637
669.0,0.003804780631857147
668.0,0.0038194223097344146
667.0,0.003839378352009523
666.0,0.0038670808292850974
665.0,0.0038320611617377043
664.0,0.0037694108437067823
663.0,0.003733528796718233
662.0,0.00372354750390836
661.0,0.0037331992032606474
660.0,0.003745321523938361
659.0,0.003731259033403888
658.0,0.003681333751652336
657.0,0.0036299681320889725
656.0,0.003610120873024602
655.0,0.003613706482639867
654.0,0.0036173176164978928
653.0,0.003610624528775183
652.0,0.003580033431269069
651.0,0.003503669353691747
650.0,0.003392628201389712
649.0,0.003299626724431605
648.0,0.0032571195510856382
647.0,0.0032393445129588784
646.0,0.0032060870466083004
645.0,0.0031476759214931448
644.0,0.0030705567973562838
643.0,0.0029823521844390584
642.0,0.0029064538872661007
641.0,0.0028706572235410142
640.0,0.0028681930362407446
639.0,0.002861209143169296
638.0,0.0028331829185603424
637.0,0.0028038327602948783
636.0,0.002782209738706687
635.0,0.00275236609642451
634.0,0.002719212797395079
633.0,0.0027128890772183667
632.0,0.002730910414425688
631.0,0.0027303362699248566
630.0,0.0026923052499051373
629.0,0.0026387389668851118
628.0,0.0025720361932814635
627.0,0.0024624296053470454
626.0,0.0023229505386056434
625.0,0.00223120706360367
624.0,0.0022306886098819034
623.0,0.0022701089930787163
622.0,0.002282302952689299
621.0,0.0022634167449719217
620.0,0.002234639380927196
619.0,0.0021890320355236956
618.0,0.0021275052467211245
617.0,0.0020927867036089377
616.0,0.0021091631635717298
615.0,0.0021329911066266527
614.0,0.0021107593105435633
613.0,0.002037985504312785
612.0,0.0019331096169698456
611.0,0.0018158478962441368
610.0,0.0017325664999981762
609.0,0.0017369868175309486
608.0,0.0018150393502726417
607.0,0.0018775341176611796
606.0,0.0018677754409581401
605.0,0.001825669637640106
604.0,0.0018034567964569162
603.0,0.0017978983806312444
602.0,0.001805459396381999
601.0,0.0018559855629254156
600.0,0.001941912298304052
