cm-1,A
4000.0,-0.0005890363104687144
3999.0,-0.0005063517559524494
3998.0,-0.0004591547969180522
3997.0,-0.00047248489747949395
3996.0,-0.0005343248440654253
3995.0,-0.00061390976401154
3994.0,-0.0006839337903774452
3993.0,-0.0007204321098942491
3992.0,-0.0007007042979178492
3991.0,-0.0006164167195251641
3990.0,-0.0004945189780150103
3989.0,-0.00038805762320287974
3988.0,-0.0003347038168452082
3987.0,-0.0003320573767953243
3986.0,-0.0003438090284559447
3985.0,-0.0003235905364278721
3984.0,-0.00024735118253171526
3983.0,-0.00012922226968659165
3982.0,-1.9712020240261578e-05
3981.0,2.706700406374281e-05
3980.0,-1.1567003424880692e-05
3979.0,-0.00012032598216425803
3978.0,-0.00026130304414204684
3977.0,-0.00039377284011059104
3976.0,-0.0004742264634160021
3975.0,-0.0004685423060753549
3974.0,-0.00037903176154904274
3973.0,-0.0002550964622006248
3972.0,-0.00016036364256333258
3971.0,-0.0001250191532342279
3970.0,-0.0001340794714807976
3969.0,-0.00014919234034574316
3968.0,-0.00014506198247274307
3967.0,-0.00011764254956973634
3966.0,-7.179495414006212e-05
3965.0,-1.0835273758720392e-05
3964.0,6.556558509582169e-05
3963.0,0.0001419977634907945
3962.0,0.0001830260810528903
3961.0,0.00015837880834657092
3960.0,8.650112526084261e-05
3959.0,3.949131000765844e-05
3958.0,6.830372791040776e-05
3957.0,0.0001498440838456046
3956.0,0.00021900443177829028
3955.0,0.0002289332448451387
3954.0,0.00018386966809940796
3953.0,0.00011471844335584486
3952.0,4.957923600870575e-05
3951.0,4.0826116419982045e-06
3950.0,-1.5924079651672036e-05
3949.0,-2.2002383842509993e-05
3948.0,-5.718941194868656e-05
3947.0,-0.00015142426893397344
3946.0,-0.00025264534881370504
3945.0,-0.0002733606675720591
3944.0,-0.0001834823102759538
3943.0,-4.570458843207318e-05
3942.0,3.4332756164157097e-06
3941.0,-7.667595250467887e-05
3940.0,-0.0001145314500727297
3939.0,6.048597265968401e-05
3938.0,0.00036571757973635505
3937.0,0.0005664214289339215
3936.0,0.0005433168087971693
3935.0,0.0003653981002984842
3934.0,0.00017777378101063333
3933.0,6.564219011786446e-05
3932.0,2.4518153873599475e-05
3931.0,-2.49879804905327e-05
3930.0,-0.00012604961925879446
3929.0,-0.00021548728435556892
3928.0,-0.00024523783120669954
3927.0,-0.00021888081752539056
3926.0,-0.00014147325777938164
3925.0,-2.3840962825490142e-05
3924.0,3.692037670108717e-05
3923.0,-4.408573333634274e-05
3922.0,-0.00013290263210400874
3921.0,-8.926746416738256e-05
3920.0,2.6985974734730633e-05
3919.0,0.00014234988755532215
3918.0,0.0002827617717627764
3917.0,0.00044638291752685175
3916.0,0.0005435127352274305
3915.0,0.0005647443953912786
3914.0,0.0006610545899348422
3913.0,0.0009316382796147851
3912.0,0.0012809137440399172
3911.0,0.001543008082084526
3910.0,0.0016160080541488967
3909.0,0.001468139100667446
3908.0,0.0010993945779902104
3907.0,0.0005375339949109585
3906.0,-7.650955912326353e-05
3905.0,-0.0005157675854581072
3904.0,-0.0007107272918797113
3903.0,-0.0009079073809735486
3902.0,-0.0011814457606957355
3901.0,-0.0011937955195634622
3900.0,-0.000769904435521801
3899.0,-0.00023952565010523568
3898.0,2.3793925879953687e-05
3897.0,8.807558823605184e-05
3896.0,0.00019781852477809793
3895.0,0.0003477957379327732
3894.0,0.0004282917821451112
3893.0,0.0005521088910009188
3892.0,0.0008656121052635995
3891.0,0.0010516215439996955
3890.0,0.0007339818273089508
3889.0,0.00029170778931905715
3888.0,0.0003505487567871811
3887.0,0.0008468015117381596
3886.0,0.0012806611347491738
3885.0,0.0011835615309921084
3884.0,0.0004526851132754706
3883.0,-0.00026222609798043795
3882.0,-0.00029545530391991053
3881.0,0.00021539337844193223
3880.0,0.000654124939859614
3879.0,0.0005431183435813005
3878.0,0.00017042181781937431
3877.0,0.00016007967248147592
3876.0,0.0004611113725117655
3875.0,0.0005981171767522053
3874.0,0.0003443189359966176
3873.0,-0.00026952556867786354
3872.0,-0.000883225515362236
3871.0,-0.0009688608199960934
3870.0,-0.0005521464584498257
3869.0,-0.00039889432367327384
3868.0,-0.0008457614340256047
3867.0,-0.001104391310736491
3866.0,-0.0006798118347336106
3865.0,-2.9030493825596068e-05
3864.0,0.00041131800754116857
3863.0,0.0005047316482716673
3862.0,0.00039780419766837676
3861.0,0.00039292954983993983
3860.0,0.000489042786670483
3859.0,0.0004737800110856676
3858.0,0.0002255579635969964
3857.0,-0.00032067212724245587
3856.0,-0.0010673226667645102
3855.0,-0.0016173859372327491
3854.0,-0.0010570008379314298
3853.0,0.00027497345742126577
3852.0,0.00030938077363015706
3851.0,-0.00047139443965164623
3850.0,-0.00010631663437122023
3849.0,0.0010366290957683644
3848.0,0.001710647071140413
3847.0,0.001697283099634446
3846.0,0.0013656574941412745
3845.0,0.0010014458189894927
3844.0,0.000666652905333701
3843.0,0.00026913535711014526
3842.0,-0.000305676232393201
3841.0,-0.000939763750815781
3840.0,-0.001279279352443656
3839.0,-0.0011239044701772522
3838.0,-0.0007547799899147916
3837.0,-0.0006001406304701603
3836.0,-0.0005822927486909691
3835.0,-0.00033356609053971113
3834.0,0.00021312501258163733
3833.0,0.000804975090608475
3832.0,0.0012065234826716116
3831.0,0.0013197537930437825
3830.0,0.0012316596220644715
3829.0,0.001173407696793681
3828.0,0.0012724725947457828
3827.0,0.0013895543450498388
3826.0,0.001233598620846437
3825.0,0.0006663070397582918
3824.0,-1.231288975439863e-05
3823.0,-0.0003794560425221731
3822.0,-0.00015424359925274734
3821.0,0.0005366278255773834
3820.0,0.000614455910105849
3819.0,-0.0001485381511975479
3818.0,-0.0003707003792803546
3817.0,0.00044894783469764227
3816.0,0.0015024812510028005
3815.0,0.0019082095730355336
3814.0,0.0016525736347305937
3813.0,0.0016373371064540504
3812.0,0.0021150747398654976
3811.0,0.0023784217843227417
3810.0,0.002088564977037552
3809.0,0.0016506527753239594
3808.0,0.0015673780400356444
3807.0,0.001797727314757701
3806.0,0.0016970461652859804
3805.0,0.001070684144500476
3804.0,0.000592982251282135
3803.0,0.000679404336171802
3802.0,0.0012092710719356727
3801.0,0.0015834477625159531
3800.0,0.0010311039745357158
3799.0,0.00023138211213479605
3798.0,0.00034774971758829527
3797.0,0.0011080705256988023
3796.0,0.0016763786646847843
3795.0,0.0017783704662879323
3794.0,0.0017636178614207506
3793.0,0.002043027661288018
3792.0,0.0025189973259257545
3791.0,0.0028549496522975795
3790.0,0.0029364615116785615
3789.0,0.0028523922253900396
3788.0,0.002687482603132248
3787.0,0.0025134280775778945
3786.0,0.002407879956718117
3785.0,0.002359446464178769
3784.0,0.0022121206292254796
3783.0,0.001899523135532725
3782.0,0.0016204869782788993
3781.0,0.001603585125851644
3780.0,0.0018686528443416601
3779.0,0.00218342563034868
3778.0,0.0022298281061259467
3777.0,0.0020967421596241246
3776.0,0.002152392191949992
3775.0,0.002387752727837568
3774.0,0.002483497084205487
3773.0,0.0023018914667300317
3772.0,0.0020279098213215312
3771.0,0.0019126701548824098
3770.0,0.0019849660632884148
3769.0,0.0020037563834544633
3768.0,0.0018901934595657874
3767.0,0.0019201653724647194
3766.0,0.0021911202982969
3765.0,0.002398785723734333
3764.0,0.0022796431510524883
3763.0,0.0019789948752611227
3762.0,0.0017977856232347053
3761.0,0.0017331364189327194
3760.0,0.0016465066143173624
3759.0,0.001522348857397373
3758.0,0.0013184562680068044
3757.0,0.0010092856811183915
3756.0,0.0007142468591746984
3755.0,0.00048258174225372793
3754.0,0.00019876558187588282
3753.0,-0.00031409657076078166
3752.0,-0.0008226000543519024
3751.0,-0.0007004114462655331
3750.0,-0.00021892900760927397
3749.0,-0.0001525049128220689
3748.0,-0.00027120878489209516
3747.0,2.033681364663431e-05
3746.0,0.0008289666379890403
3745.0,0.0019293976838924377
3744.0,0.0025288807596107197
3743.0,0.0018606982892938194
3742.0,0.0009130659375359224
3741.0,0.0009465777864374489
3740.0,0.0012278125233161608
3739.0,0.0007075351351484337
3738.0,-0.00041768023755591984
3737.0,-0.0013721824193969861
3736.0,-0.0015506806631827362
3735.0,-0.0011745371473279192
3734.0,-0.0009836390556878395
3733.0,-0.0008927881273958104
3732.0,-0.0003750223442917255
3731.0,0.000415710046895395
3730.0,0.0011147526305381533
3729.0,0.001656865817607559
3728.0,0.002018826592005017
3727.0,0.0021035727986948457
3726.0,0.001875227902885928
3725.0,0.0014281767482393112
3724.0,0.001034767653437639
3723.0,0.0009322121084129806
3722.0,0.0010402814324218885
3721.0,0.0011555444359262184
3720.0,0.0012457144767413029
3719.0,0.0014263840686321093
3718.0,0.00169783434839127
3717.0,0.001889721314732798
3716.0,0.0018748201958461268
3715.0,0.0016857656915764648
3714.0,0.0014144365054067078
3713.0,0.0011572006264416565
3712.0,0.0011675368291992321
3711.0,0.0014062762788239146
3710.0,0.0014166190342685225
3709.0,0.001308974158233099
3708.0,0.001537927541900086
3707.0,0.00205617603504503
3706.0,0.0025268760710984634
3705.0,0.0027763430331521842
3704.0,0.00286613160071989
3703.0,0.00293620686842284
3702.0,0.003072663997591429
3701.0,0.0031729949170390325
3700.0,0.0031228356668182773
3699.0,0.0030890168781931705
3698.0,0.003248947433033959
3697.0,0.0034561989286078
3696.0,0.003454636734608937
3695.0,0.0031940478222533004
3694.0,0.002815381329995727
3693.0,0.0024051872413664425
3692.0,0.001961429628546753
3691.0,0.0016794679596869233
3690.0,0.0018779349358014172
3689.0,0.0023240697365822915
3688.0,0.0024323482180427475
3687.0,0.0023597712958825026
3686.0,0.0027347536292278017
3685.0,0.003592739392956996
3684.0,0.004372591831998444
3683.0,0.004646778915755445
3682.0,0.004466764870477145
3681.0,0.004096840421613998
3680.0,0.003627387749086671
3679.0,0.002928832693430655
3678.0,0.00207173343242431
3677.0,0.0015241248825633197
3676.0,0.0018617366612506039
3675.0,0.002451336276307445
3674.0,0.0020407071300837386
3673.0,0.0014582083874178158
3672.0,0.0019111180488580854
3671.0,0.002936147648902317
3670.0,0.003918479209430122
3669.0,0.0043234399395954025
3668.0,0.004049596568956142
3667.0,0.004087477411010863
3666.0,0.004813980177284669
3665.0,0.0055954173002555506
3664.0,0.006023725613000295
3663.0,0.006163258292764794
3662.0,0.006194028734564061
3661.0,0.006166383545232177
3660.0,0.006073971572432564
3659.0,0.005984001859467254
3658.0,0.006056612941371781
3657.0,0.006377885423072405
3656.0,0.006698035355263875
3655.0,0.006563907092062141
3654.0,0.006049144199092624
3653.0,0.005512171989130633
3652.0,0.00487948969423233
3651.0,0.0040915093725995095
3650.0,0.004091352465895792
3649.0,0.00507142921862804
3648.0,0.005397174099202893
3647.0,0.0049863145139401885
3646.0,0.005032542085329594
3645.0,0.005738928289731024
3644.0,0.006726164960565517
3643.0,0.007611953468633702
3642.0,0.008232911327850648
3641.0,0.008567876916682976
3640.0,0.008722685971662522
3639.0,0.008861235486239417
3638.0,0.009034324082592112
3637.0,0.009153848108239528
3636.0,0.009192615434632852
3635.0,0.009180511995978165
3634.0,0.009066320707889087
3633.0,0.008698606201449239
3632.0,0.00810977390079472
3631.0,0.007598299000311369
3630.0,0.0077273741354145446
3629.0,0.008988528220551947
3628.0,0.010181684884169189
3627.0,0.010188659603467749
3626.0,0.010245000856274333
3625.0,0.011018074990594921
3624.0,0.011646458487742803
3623.0,0.01159374747991087
3622.0,0.011054982325517099
3621.0,0.010510012375041993
3620.0,0.010362006166287652
3619.0,0.010597530011684366
3618.0,0.0106665127085961
3617.0,0.01039684456393768
3616.0,0.010235089683459231
3615.0,0.010444636366654573
3614.0,0.010950953626169565
3613.0,0.011507069875268386
3612.0,0.0118145653451896
3611.0,0.011899255375854371
3610.0,0.012089372242358985
3609.0,0.012591567829438077
3608.0,0.01327614538440696
3607.0,0.013754206685000653
3606.0,0.013881402918030361
3605.0,0.013923106987348994
3604.0,0.014030328327281131
3603.0,0.014126899608470066
3602.0,0.014210537177163448
3601.0,0.014365582488963519
3600.0,0.014556927172449465
3599.0,0.014646446439596467
3598.0,0.014614192205114037
3597.0,0.01455194033855445
3596.0,0.01457293302001727
3595.0,0.014769155554338073
3594.0,0.015089160020102708
3593.0,0.015362890193939906
3592.0,0.015514035487281204
3591.0,0.015549747643906098
3590.0,0.015461147683030559
3589.0,0.015395145423240686
3588.0,0.015754337775318643
3587.0,0.016427042575189805
3586.0,0.01672901178362702
3585.0,0.016759354067211366
3584.0,0.017077613524661434
3583.0,0.01765052474530357
3582.0,0.018152377226401988
3581.0,0.018448651511664447
3580.0,0.018612815917672908
3579.0,0.018753762766820566
3578.0,0.01894132723117445
3577.0,0.019187708540939267
3576.0,0.019448058965800277
3575.0,0.019657859631925557
3574.0,0.01976711406065186
3573.0,0.01974584311618993
3572.0,0.01957121819695848
3571.0,0.019207420846453705
3570.0,0.01865746649018536
3569.0,0.018081389691825756
3568.0,0.017940166931005797
3567.0,0.018497389654107597
3566.0,0.01908601945957048
3565.0,0.019191064665549106
3564.0,0.019284265029988555
3563.0,0.0197298234291687
3562.0,0.02037798480195933
3561.0,0.021028422264285987
3560.0,0.021586252336363104
3559.0,0.022010869399841544
3558.0,0.022306086974266736
3557.0,0.022513500827111902
3556.0,0.022651012245195536
3555.0,0.022733077869897016
3554.0,0.022826124235415215
3553.0,0.02300172232719823
3552.0,0.023189201056686367
3551.0,0.02323187484396456
3550.0,0.023133824992161666
3549.0,0.023048464407830697
3548.0,0.02308748744494339
3547.0,0.023280257369102296
3546.0,0.0235822909598041
3545.0,0.023885470439038117
3544.0,0.02416747400621336
3543.0,0.024530451534954027
3542.0,0.02500322252482921
3541.0,0.025463251011317623
3540.0,0.025764250758374557
3539.0,0.025876108840126377
3538.0,0.025919094802658967
3537.0,0.02605709703030525
3536.0,0.02632551525384846
3535.0,0.02659615860737005
3534.0,0.02675155024771671
3533.0,0.02679099925766709
3532.0,0.026774851527004137
3531.0,0.02676082940744245
3530.0,0.02680197895298546
3529.0,0.02693310180107058
3528.0,0.02712528359725492
3527.0,0.027296993478689618
3526.0,0.027398102622876456
3525.0,0.027476697576223813
3524.0,0.027633112336187145
3523.0,0.0279055055914786
3522.0,0.02822540250361591
3521.0,0.028522882138465377
3520.0,0.028809519252054477
3519.0,0.02912305277196636
3518.0,0.029459805191042368
3517.0,0.029775078694843166
3516.0,0.03003076407894331
3515.0,0.03021760453072579
3514.0,0.03033588553469676
3513.0,0.03039144211161433
3512.0,0.03043166298787633
3511.0,0.03054828782166313
3510.0,0.030797145469839447
3509.0,0.031099407694133194
3508.0,0.03128521260171782
3507.0,0.03127451581891702
3506.0,0.031147612978648785
3505.0,0.031079266777647156
3504.0,0.03125808757324031
3503.0,0.03170941648014795
3502.0,0.032201833989196765
3501.0,0.03251955861634497
3500.0,0.03267246930810206
3499.0,0.032768480037248277
3498.0,0.03288894331112995
3497.0,0.033078774310205686
3496.0,0.03334330422174023
3495.0,0.033638725105988136
3494.0,0.033898756782773466
3493.0,0.03408622763277242
3492.0,0.034205305002065804
3491.0,0.03428246182565925
3490.0,0.03436012415518
3489.0,0.034487820205516974
3488.0,0.03467887704303174
3487.0,0.034873428264347466
3486.0,0.03498334632237566
3485.0,0.03499023164367318
3484.0,0.03498356287876161
3483.0,0.035098001197998885
3482.0,0.03539666893269774
3481.0,0.03579546148870384
3480.0,0.036136531291341964
3479.0,0.036336856409690935
3478.0,0.03642884025196095
3477.0,0.036502606224153605
3476.0,0.036647548046979304
3475.0,0.036892708025286554
3474.0,0.03717111007053957
3473.0,0.037388196353512815
3472.0,0.03752286220040131
3471.0,0.037626645025632816
3470.0,0.03775072136330546
3469.0,0.03790906204545194
3468.0,0.03809875900011873
3467.0,0.03831508688373546
3466.0,0.038527884210363295
3465.0,0.038677076310933846
3464.0,0.03872707161752674
3463.0,0.03872407340477923
3462.0,0.038781005601613294
3461.0,0.038982758293861
3460.0,0.03930515521050493
3459.0,0.03963520746332293
3458.0,0.03986816117401449
3457.0,0.03998616411782221
3456.0,0.04005023784555992
3455.0,0.040125376950836025
3454.0,0.04022771868474144
3453.0,0.040333409772198375
3452.0,0.040416250191424564
3451.0,0.04046510605672829
3450.0,0.04048859535837625
3449.0,0.04052140158644616
3448.0,0.04061443389318095
3447.0,0.04078084387061344
3446.0,0.04096174552049645
3445.0,0.04111376859345826
3444.0,0.041275394778139525
3443.0,0.041494351071287475
3442.0,0.0417467344454177
3441.0,0.04194703749552584
3440.0,0.04204054421342314
3439.0,0.042075989513126494
3438.0,0.04215950185345682
3437.0,0.042350789650681696
3436.0,0.042610514912105685
3435.0,0.042838112087489846
3434.0,0.042961359284014615
3433.0,0.04298458325590534
3432.0,0.04296634101020884
3431.0,0.042964754655440196
3430.0,0.04300321706826427
3429.0,0.04307956435093423
3428.0,0.04319453015474604
3427.0,0.04335205284451326
3426.0,0.04352588625673138
3425.0,0.04365847046786261
3424.0,0.04371646836256385
3423.0,0.04373693676451368
3422.0,0.04378934616462187
3421.0,0.04389149458097614
3420.0,0.04400119709821944
3419.0,0.044097572649610416
3418.0,0.044215620695337673
3417.0,0.04438399419267214
3416.0,0.04458063579369168
3415.0,0.04476476451726237
3414.0,0.044913519366029046
3413.0,0.045013309010144095
3412.0,0.04505392317646242
3411.0,0.0450569777140001
3410.0,0.04508075390082678
3409.0,0.04516498055894305
3408.0,0.04528189478804894
3407.0,0.04536550893756884
3406.0,0.045380644353138294
3405.0,0.04535333096773337
3404.0,0.04534813774358357
3403.0,0.045418969088088096
3402.0,0.04556315304220649
3401.0,0.045720696413940734
3400.0,0.04583679003754985
3399.0,0.045917045943607265
3398.0,0.045999806475875635
3397.0,0.04608218189936545
3396.0,0.046117213336039055
3395.0,0.04609730923714306
3394.0,0.04609140043193345
3393.0,0.0461663681355397
3392.0,0.04629520449649281
3391.0,0.04638462218551251
3390.0,0.04638448297419906
3389.0,0.046328150101399956
3388.0,0.04628190089610393
3387.0,0.04629369653160255
3386.0,0.046374201792895774
3385.0,0.0464916747569803
3384.0,0.0465851774476742
3383.0,0.0466079210004354
3382.0,0.04656915254322012
3381.0,0.0465249678744352
3380.0,0.046530570662768
3379.0,0.04660107286000721
3378.0,0.04670745132625252
3377.0,0.046799522249865506
3376.0,0.04683603063868026
3375.0,0.046808756257787375
3374.0,0.046744988680496424
3373.0,0.04668306657563748
3372.0,0.046639373490360965
3371.0,0.04660060872254083
3370.0,0.046548357382978515
3369.0,0.04648878738407944
3368.0,0.046453741193343584
3367.0,0.04647017867903305
3366.0,0.04652750697726733
3365.0,0.04657810296121398
3364.0,0.04657700137008049
3363.0,0.04652134413049201
3362.0,0.04644568370751281
3361.0,0.04637848632959125
3360.0,0.046316943251397874
3359.0,0.04625571306045608
3358.0,0.046223410088167424
3357.0,0.04626091981723158
3356.0,0.04636155608552506
3355.0,0.046459191381236574
3354.0,0.04649141281498772
3353.0,0.04645793337367419
3352.0,0.04640328120856785
3351.0,0.04636009565427345
3350.0,0.04632801222893932
3349.0,0.04629940686033412
3348.0,0.046278339523755284
3347.0,0.046265093983093176
3346.0,0.04623894475595069
3345.0,0.04617041291833419
3344.0,0.0460501991884269
3343.0,0.045899557393800916
3342.0,0.045752253504407474
3341.0,0.04562722153217425
3340.0,0.04551956224662757
3339.0,0.045418175215580364
3338.0,0.04532942117970397
3337.0,0.04527442767198809
3336.0,0.04525432627051111
3335.0,0.04522943970525372
3334.0,0.04515374328540886
3333.0,0.04502788934979978
3332.0,0.04489983601952935
3331.0,0.044809846114019974
3330.0,0.0447488351493595
3329.0,0.04468006006212773
3328.0,0.04458915610444244
3327.0,0.044493912242879276
3326.0,0.04440827606475831
3325.0,0.04432025490628354
3324.0,0.04421637700079025
3323.0,0.04410814174042117
3322.0,0.04401802362865828
3321.0,0.04395033430713172
3320.0,0.043890225109873955
3319.0,0.04382216852533078
3318.0,0.04373548768816328
3317.0,0.04361869847410053
3316.0,0.043466450633184904
3315.0,0.043293154336857605
3314.0,0.04312536708318277
3313.0,0.042975881496520624
3312.0,0.04283588711572829
3311.0,0.04269721109508918
3310.0,0.04256954794983738
3309.0,0.04246586049228393
3308.0,0.042381011013213184
3307.0,0.04230058806587134
3306.0,0.042226887970237256
3305.0,0.042179927071823664
3304.0,0.042169742585321995
3303.0,0.042175313934682025
3302.0,0.0421560561580818
3301.0,0.042087798520131156
3300.0,0.04198851799250114
3299.0,0.041903216071518416
3298.0,0.04185608371313496
3297.0,0.0418166781523063
3296.0,0.04172545517135706
3295.0,0.04155683740262139
3294.0,0.041348071044893055
3293.0,0.041164027498609625
3292.0,0.04104280752949779
3291.0,0.04098049088585223
3290.0,0.04095610621393222
3289.0,0.04095018200763547
3288.0,0.04093923020149186
3287.0,0.04089583630136296
3286.0,0.040807403641783084
3285.0,0.04068804174996646
3284.0,0.04056737023130363
3283.0,0.040470178684022876
3282.0,0.04040091637980624
3281.0,0.0403366859263971
3280.0,0.04023414539197145
3279.0,0.04005811373001797
3278.0,0.039818302851515795
3277.0,0.03957609799307465
3276.0,0.03940300180044241
3275.0,0.03932684059213479
3274.0,0.039318746012660805
3273.0,0.039325472406883166
3272.0,0.03930683132052934
3271.0,0.039250261214498636
3270.0,0.03917050536469749
3269.0,0.039102584166118254
3268.0,0.03908020980945735
3267.0,0.03910435501073682
3266.0,0.039130557700761244
3265.0,0.03909489682061856
3264.0,0.0389625175298942
3263.0,0.03875782362697627
3262.0,0.03854916192722739
3261.0,0.0384005556617457
3260.0,0.0383236769449852
3259.0,0.03827047234902041
3258.0,0.03818573980152469
3257.0,0.03807586467664286
3256.0,0.0380089336297868
3255.0,0.03803155175144654
3254.0,0.03810015813543119
3253.0,0.038120471662299774
3252.0,0.03805035594763959
3251.0,0.03793038296780612
3250.0,0.03781331547976477
3249.0,0.03770075462266633
3248.0,0.037566677848090486
3247.0,0.03741609015583569
3246.0,0.037286784927061056
3245.0,0.03719535171842709
3244.0,0.037111770444743786
3243.0,0.03700101945074021
3242.0,0.036867162681064436
3241.0,0.036743152736247744
3240.0,0.03665294260203089
3239.0,0.03659144094146477
3238.0,0.03653144163428466
3237.0,0.03644424190407271
3236.0,0.03631978615148289
3235.0,0.036175841028332184
3234.0,0.0360437608273364
3233.0,0.03593548950470131
3232.0,0.035828256916445554
3231.0,0.035691525245850085
3230.0,0.03552732864466666
3229.0,0.035371237619899944
3228.0,0.0352509432154623
3227.0,0.03515690783387665
3226.0,0.03506257344954263
3225.0,0.03496128030213659
3224.0,0.03486764035237558
3223.0,0.034787819640715215
3222.0,0.03470481613853113
3221.0,0.034598194785920126
3220.0,0.0344675410463108
3219.0,0.03432753033086777
3218.0,0.034187041803978045
3217.0,0.034044589657423775
3216.0,0.03389807485526466
3215.0,0.03374915766549286
3214.0,0.033598770199891735
3213.0,0.033444857300281045
3212.0,0.03328757641256534
3211.0,0.03313441192068184
3210.0,0.032999351243149164
3209.0,0.03289641351021201
3208.0,0.03282945316856347
3207.0,0.03278627594425633
3206.0,0.03274336631487582
3205.0,0.03267867425879295
3204.0,0.03258216571440644
3203.0,0.032455377389136966
3202.0,0.0323023952874276
3201.0,0.03212506535493509
3200.0,0.03192573427806367
3199.0,0.03171154313155914
3198.0,0.03149377423411454
3197.0,0.03128410652703269
3196.0,0.031094019653355873
3195.0,0.030940191066433947
3194.0,0.03084443643814816
3193.0,0.030815405988708133
3192.0,0.030823345615625438
3191.0,0.03080089116606016
3190.0,0.03068580801620727
3189.0,0.03046945964102773
3188.0,0.03019907913618166
3187.0,0.029934325500521608
3186.0,0.029709983739886113
3185.0,0.02953756049827035
3184.0,0.029418866220005776
3183.0,0.02934213660941552
3182.0,0.02927553863451722
3181.0,0.029183458270568206
3180.0,0.029050904550169853
3179.0,0.028886045074656735
3178.0,0.028701156689702162
3177.0,0.028502628498340316
3176.0,0.028302512459109284
3175.0,0.028124552443155856
3174.0,0.0279861931133653
3173.0,0.027879101015804555
3172.0,0.027775662269163223
3171.0,0.02765395830641727
3170.0,0.02751193651630622
3169.0,0.027359615022480844
3168.0,0.027206516619200177
3167.0,0.0270597241118194
3166.0,0.026926233796225177
3165.0,0.026808330110685237
3164.0,0.026694949347261753
3163.0,0.026563842103410295
3162.0,0.02639870079171611
3161.0,0.026206512517283745
3160.0,0.026015945860977968
3159.0,0.025854529303937612
3158.0,0.025722178636339386
3157.0,0.02558792272548858
3156.0,0.025422145788590596
3155.0,0.02523634137475266
3154.0,0.025080635052283695
3153.0,0.024993355807130916
3152.0,0.024960230739945112
3151.0,0.024930741665479317
3150.0,0.024865662027043742
3149.0,0.02475708564317915
3148.0,0.024613653565415113
3147.0,0.02444883841585388
3146.0,0.02428141448925591
3145.0,0.024123331900313783
3144.0,0.023961104446027618
3143.0,0.023770253321422283
3142.0,0.02355685224214434
3141.0,0.02336508723003464
3140.0,0.023231038136546898
3139.0,0.02314116783302303
3138.0,0.02305173459524108
3137.0,0.02294075258578186
3136.0,0.02282354516034176
3135.0,0.022720944047428693
3134.0,0.022629675558773116
3133.0,0.022525201307767195
3132.0,0.02238497024482395
3131.0,0.022210360724171367
3130.0,0.022033184369169463
3129.0,0.02189767945123206
3128.0,0.02182317503521982
3127.0,0.02177948620355884
3126.0,0.021712089785593296
3125.0,0.02159669482488761
3124.0,0.0214597201118518
3123.0,0.021344927885441116
3122.0,0.021265270918251283
3121.0,0.02119075870124695
3120.0,0.021086697125451147
3119.0,0.020961605393034863
3118.0,0.020868290266685036
3117.0,0.020847568632415856
3116.0,0.02087598688360398
3115.0,0.02088739715188436
3114.0,0.02084886906871514
3113.0,0.02079317182909471
3112.0,0.020766348793802968
3111.0,0.020770896466062033
3110.0,0.020781415756418602
3109.0,0.02079118816100167
3108.0,0.020811938679326254
3107.0,0.020835625320094645
3106.0,0.020830148915953854
3105.0,0.020776023924863135
3104.0,0.020681759699675343
3103.0,0.020559345907137688
3102.0,0.020407588569465625
3101.0,0.02023029493564663
3100.0,0.020055355364871384
3099.0,0.019918122956834674
3098.0,0.01982801032085861
3097.0,0.0197662823219998
3096.0,0.019714844584236238
3095.0,0.01967752387383814
3094.0,0.0196739284120345
3093.0,0.01972119380080417
3092.0,0.01982431339552542
3091.0,0.019979616227978975
3090.0,0.020185496275813203
3089.0,0.020447853403436668
3088.0,0.02076947635937867
3087.0,0.021127792989531356
3086.0,0.021465836048803463
3085.0,0.021718810621431273
3084.0,0.021856537123242523
3083.0,0.021893042661246566
3082.0,0.021848960623713783
3081.0,0.021712598539658026
3080.0,0.021455174647409068
3079.0,0.02108632707029263
3078.0,0.020674656831304303
3077.0,0.020303944550902696
3076.0,0.020020909633120757
3075.0,0.019829754357351244
3074.0,0.019720661203947314
3073.0,0.019682796896134468
3072.0,0.019698364289820407
3071.0,0.019748555351743257
3070.0,0.019829037977456714
3069.0,0.01994725387388232
3068.0,0.02010704723681727
3067.0,0.02031270587241916
3066.0,0.02058241547673109
3065.0,0.020931216618484207
3064.0,0.021331564145834172
3063.0,0.021708607238968797
3062.0,0.021986047383254697
3061.0,0.02212431115852505
3060.0,0.022114708321221088
3059.0,0.021958269658289085
3058.0,0.02166391137798396
3057.0,0.02126003272407021
3056.0,0.02078981786522264
3055.0,0.02029227596655777
3054.0,0.019793726376084345
3053.0,0.019312058203136487
3052.0,0.018857701634701636
3051.0,0.01843436996811472
3050.0,0.018049912907710002
3049.0,0.017722901935806758
3048.0,0.01746908265731637
3047.0,0.017282455038873986
3046.0,0.017142367748555876
3045.0,0.017038707719783348
3044.0,0.016982651475390406
3043.0,0.016992983303056507
3042.0,0.017080730056584385
3041.0,0.017246930215766003
3040.0,0.01748119496373405
3039.0,0.017761268446344756
3038.0,0.01806808428118299
3037.0,0.018411427842721744
3036.0,0.01883229152274613
3035.0,0.01937630831514726
3034.0,0.02006688769249096
3033.0,0.02090253948806831
3032.0,0.021862966286739
3031.0,0.022907048878176163
3030.0,0.023976670330327052
3029.0,0.025007254728988067
3028.0,0.0259163919836785
3027.0,0.02658145370231286
3026.0,0.026861818508617432
3025.0,0.02667155555600473
3024.0,0.026030358635811865
3023.0,0.025037001533024055
3022.0,0.02381185021718839
3021.0,0.022469689088198862
3020.0,0.021115049877783575
3019.0,0.019833003437289276
3018.0,0.01868154300556885
3017.0,0.017694936883179906
3016.0,0.016884825090365315
3015.0,0.016235181188422383
3014.0,0.01571013127066326
3013.0,0.015280890471503255
3012.0,0.01494302454857219
3011.0,0.014700856148502854
3010.0,0.01454362419854197
3009.0,0.01444596612938185
3008.0,0.014387605634961725
3007.0,0.014362450967167619
3006.0,0.014370775341720939
3005.0,0.01441219535638817
3004.0,0.014482656139845373
3003.0,0.014564827406586578
3002.0,0.01461570397352748
3001.0,0.014574313310773386
3000.0,0.01439705872103346
2999.0,0.014090164005187276
2998.0,0.013706492346043896
2997.0,0.013312617291072155
2996.0,0.012957291634965073
2995.0,0.012661809759008701
2994.0,0.012429430803252369
2993.0,0.012258105573776807
2992.0,0.012143269763169514
2991.0,0.01206967309034692
2990.0,0.01201008094937961
2989.0,0.011942662526351004
2988.0,0.011870402716820357
2987.0,0.011812419722718376
2986.0,0.011774115299687013
2985.0,0.011735234433314477
2984.0,0.011674645909988493
2983.0,0.011594978331734514
2982.0,0.011517302134970613
2981.0,0.011457826406481847
2980.0,0.011420802859177188
2979.0,0.011406023973430499
2978.0,0.01140944803847024
2977.0,0.011417492082325243
2976.0,0.011416712100256616
2975.0,0.011414701931546556
2974.0,0.01144094652470422
2973.0,0.011516728759834227
2972.0,0.01162947274356043
2971.0,0.011741050880308662
2970.0,0.011819729614195716
2969.0,0.011860204931613112
2968.0,0.011882628482212106
2967.0,0.011918913490610488
2966.0,0.011995452768362894
2965.0,0.012117391857955673
2964.0,0.01226165141461521
2963.0,0.012391845005578947
2962.0,0.012486318685681322
2961.0,0.0125583635277335
2960.0,0.012646441113299886
2959.0,0.012781983925295658
2958.0,0.012961988150288753
2957.0,0.013149557332278825
2956.0,0.013303887687726484
2955.0,0.013413636107205903
2954.0,0.013509366914222009
2953.0,0.013640175150684091
2952.0,0.013834481478372003
2951.0,0.01407463915643008
2950.0,0.014313509326844427
2949.0,0.014517526195751435
2948.0,0.014697286921541389
2947.0,0.014894418242597244
2946.0,0.015144432588719536
2945.0,0.015457963903766721
2944.0,0.01583413212525175
2943.0,0.016274552756055154
2942.0,0.016775627369770466
2941.0,0.01731617739319547
2940.0,0.01787009752489966
2939.0,0.018430111454447985
2938.0,0.019012850057492474
2937.0,0.019637509104166312
2936.0,0.020308447274722388
2935.0,0.0210141995975915
2934.0,0.021733201662245932
2933.0,0.02243810655442782
2932.0,0.02310620768951301
2931.0,0.023732076466263134
2930.0,0.024326363286314445
2929.0,0.024898068088421287
2928.0,0.025441893175731155
2927.0,0.02594265130005478
2926.0,0.026383645394881767
2925.0,0.02674497341160419
2924.0,0.026998755443828494
2923.0,0.027116568811679703
2922.0,0.027087502255440675
2921.0,0.026930672811095215
2920.0,0.026688599036160172
2919.0,0.02640707390999594
2918.0,0.02611308011112413
2917.0,0.02580230671889745
2916.0,0.02544654274848778
2915.0,0.025020775779272687
2914.0,0.0245334617713763
2913.0,0.024024651392894572
2912.0,0.023529431252766728
2911.0,0.023043386152801798
2910.0,0.022534459684134946
2909.0,0.021987827107514357
2908.0,0.021428990247931108
2907.0,0.020899294716518642
2906.0,0.020412918818423307
2905.0,0.019947405736159256
2904.0,0.019466689598700116
2903.0,0.018950467263136435
2902.0,0.0184044408730556
2901.0,0.01785550265726738
2900.0,0.017336537171198808
2899.0,0.01686302635860732
2898.0,0.016428550236219613
2897.0,0.016013863221089122
2896.0,0.015612565403071772
2895.0,0.015241528946951466
2894.0,0.014920495040600331
2893.0,0.014645571047123792
2892.0,0.014391436404655298
2891.0,0.014137907259230222
2890.0,0.013888663226193258
2889.0,0.01365783010884061
2888.0,0.0134467500520021
2887.0,0.01324034806831522
2886.0,0.013025486255750689
2885.0,0.012808341200403835
2884.0,0.012610167324177012
2883.0,0.012449144293229153
2882.0,0.01232157598249307
2881.0,0.012199878060968896
2880.0,0.012052232456654753
2879.0,0.011870967949904833
2878.0,0.011683662466845955
2877.0,0.01152935893618715
2876.0,0.01142445004028496
2875.0,0.011350570690602371
2874.0,0.011278386709349804
2873.0,0.011193439955826676
2872.0,0.011102633009802425
2871.0,0.011022426816955469
2870.0,0.010969892011714267
2869.0,0.010961235294991123
2868.0,0.011007622011497194
2867.0,0.01110543869820956
2866.0,0.011233252599054014
2865.0,0.01136497604373118
2864.0,0.01148966381564767
2863.0,0.011621066137429024
2862.0,0.011785765546709747
2861.0,0.012005528197424892
2860.0,0.012285877977881282
2859.0,0.012617079777302111
2858.0,0.012976113425800738
2857.0,0.013329022238419875
2856.0,0.013638655303413547
2855.0,0.013883828936538002
2854.0,0.014070694154780579
2853.0,0.014221757127022007
2852.0,0.014348884164277122
2851.0,0.014436847894429648
2850.0,0.014456007318140573
2849.0,0.014387155164283254
2848.0,0.014231060034950078
2847.0,0.01399518091861337
2846.0,0.01367916546435077
2845.0,0.013279893547049247
2844.0,0.012805516555923834
2843.0,0.012278508962576862
2842.0,0.011727742967940928
2841.0,0.01117953198192094
2840.0,0.010654240437869413
2839.0,0.010162565761356664
2838.0,0.009702506991374834
2837.0,0.009266390896636743
2836.0,0.008855427747108315
2835.0,0.008488261383225452
2834.0,0.008190698809598164
2833.0,0.007975671084823718
2832.0,0.007830347717885633
2831.0,0.007720237099595333
2830.0,0.007610529060661975
2829.0,0.00748623674811522
2828.0,0.007359738436121791
2827.0,0.007255928904680775
2826.0,0.007186650633034239
2825.0,0.007142446434178842
2824.0,0.007107345448991355
2823.0,0.007074087270260919
2822.0,0.007039869401629239
2821.0,0.006994611128156202
2820.0,0.006927781153646179
2819.0,0.006846701869676017
2818.0,0.0067778001394651335
2817.0,0.006742962120594222
2816.0,0.006740801036389027
2815.0,0.006749415275568789
2814.0,0.006740831906691853
2813.0,0.006696958991597707
2812.0,0.0066222982551960895
2811.0,0.006546517546209409
2810.0,0.006504460095847531
2809.0,0.0065024198935402545
2808.0,0.006510974360995193
2807.0,0.006496984446331332
2806.0,0.006457361943067794
2805.0,0.0064154926783223315
2804.0,0.006388156882421226
2803.0,0.006366170134207078
2802.0,0.006329419696164079
2801.0,0.006273788731902147
2800.0,0.0062184608820242985
2799.0,0.00618666434611562
2798.0,0.006180277684162823
2797.0,0.00617619983128496
2796.0,0.0061517136406209144
2795.0,0.006108964313605746
2794.0,0.006068437168617922
2793.0,0.006042503979014588
2792.0,0.006023602112992557
2791.0,0.005997649086261126
2790.0,0.0059583424128977205
2789.0,0.005907412394910837
2788.0,0.005854084111544199
2787.0,0.005817740252087443
2786.0,0.005816050143571337
2785.0,0.005840901007203281
2784.0,0.005860391970227715
2783.0,0.005855471671861123
2782.0,0.0058415557446073775
2781.0,0.00584088273315068
2780.0,0.005846374843447299
2779.0,0.005833295639872155
2778.0,0.005798716701250833
2777.0,0.005765459797182608
2776.0,0.005746263209236217
2775.0,0.005727379069732634
2774.0,0.005696692293545501
2773.0,0.0056682545582518425
2772.0,0.0056635360943133786
2771.0,0.005679385105129051
2770.0,0.005689352216227674
2769.0,0.005673496089188329
2768.0,0.005636288654406895
2767.0,0.005597208809694004
2766.0,0.005572703966241738
2765.0,0.005566026442486996
2764.0,0.005566261505416064
2763.0,0.005554680274571591
2762.0,0.005518800945399114
2761.0,0.005463542092215851
2760.0,0.0054088836009993264
2759.0,0.005375622579391446
2758.0,0.00537195115712688
2757.0,0.005391314838474816
2756.0,0.005419143502125308
2755.0,0.005438528637470168
2754.0,0.005434561091765201
2753.0,0.0054018176001561025
2752.0,0.005350990461208962
2751.0,0.005303014686185909
2750.0,0.0052730955442916935
2749.0,0.005261646396469307
2748.0,0.00526403964931877
2747.0,0.00528257036845885
2746.0,0.005318592487376776
2745.0,0.0053571619597750555
2744.0,0.005373838391507345
2743.0,0.00535928964908496
2742.0,0.0053259863118656
2741.0,0.005288441423795143
2740.0,0.005249165588672953
2739.0,0.00521092153097599
2738.0,0.005188394648135827
2737.0,0.005193260594359846
2736.0,0.005216754477113665
2735.0,0.005238722004429032
2734.0,0.005247431528291455
2733.0,0.005239146670358336
2732.0,0.005207342403289834
2731.0,0.005149057397309761
2730.0,0.005079768943483224
2729.0,0.005025900843041493
2728.0,0.0050006955974295905
2727.0,0.004998463994687281
2726.0,0.00501146794308953
2725.0,0.005036336952313732
2724.0,0.005062916342785986
2723.0,0.005074821215068831
2722.0,0.005069556589914805
2721.0,0.00506484048653612
2720.0,0.005074973263350056
2719.0,0.005091229887045818
2718.0,0.005094666834458079
2717.0,0.0050807871721845225
2716.0,0.005061385617673999
2715.0,0.0050472361331147676
2714.0,0.005039886656614267
2713.0,0.005038069167185161
2712.0,0.0050412104120868065
2711.0,0.005045348038366535
2710.0,0.005042768793637148
2709.0,0.005029045913472712
2708.0,0.005007323356919439
2707.0,0.004984411639741885
2706.0,0.004965639659685971
2705.0,0.004953572754596996
2704.0,0.004947797723473318
2703.0,0.004943561611804963
2702.0,0.004932700833114758
2701.0,0.004910419845505683
2700.0,0.0048830394321172504
2699.0,0.004866755756177472
2698.0,0.004874317074201881
2697.0,0.004900302366047635
2696.0,0.004922906821262204
2695.0,0.004923278631742538
2694.0,0.004903132166903199
2693.0,0.004880206081157404
2692.0,0.004868402056341604
2691.0,0.004866855721860711
2690.0,0.004867478175364998
2689.0,0.004866164480301788
2688.0,0.004862477619490311
2687.0,0.004854072878257453
2686.0,0.004839010299368202
2685.0,0.004822679572017768
2684.0,0.004814896342306389
2683.0,0.004816498011269425
2682.0,0.0048157486276057685
2681.0,0.004803901205345534
2680.0,0.004790524169895518
2679.0,0.0047932907215522975
2678.0,0.004812967246567089
2677.0,0.00482976413123599
2676.0,0.004828965318304742
2675.0,0.004819491468217571
2674.0,0.004818159604568656
2673.0,0.00482488472411306
2672.0,0.004826320139761248
2671.0,0.004817848310983145
2670.0,0.004806267324210107
2669.0,0.004793071768670937
2668.0,0.0047735153882065735
2667.0,0.004754971141706901
2666.0,0.004759798410899154
2665.0,0.004800800051318396
2664.0,0.004866644006055067
2663.0,0.004938063324424849
2662.0,0.005005471267612698
2661.0,0.005062867938527876
2660.0,0.005098279777295308
2659.0,0.005105419305294499
2658.0,0.005095005880315989
2657.0,0.0050821084354376
2656.0,0.00506950040493705
2655.0,0.0050559989933779475
2654.0,0.005049881229247521
2653.0,0.0050557332957587315
2652.0,0.005055850398946666
2651.0,0.005027207253152457
2650.0,0.004976349136870224
2649.0,0.004935625091428727
2648.0,0.0049203262344621424
2647.0,0.004909735917966812
2646.0,0.004879078710506989
2645.0,0.004832839458327585
2644.0,0.0047927994917721555
2643.0,0.004764010793118992
2642.0,0.004728867660403855
2641.0,0.00467232408099594
2640.0,0.004603181783086848
2639.0,0.004548820173296228
2638.0,0.004532771913395179
2637.0,0.004556205128723146
2636.0,0.004597012584961727
2635.0,0.004626002677715573
2634.0,0.004625317823268825
2633.0,0.0045937655952289136
2632.0,0.004542229004043933
2631.0,0.004486241374051538
2630.0,0.004436823265494322
2629.0,0.004391714023640269
2628.0,0.004340834858696221
2627.0,0.004285460510896236
2626.0,0.004243302243815587
2625.0,0.004224282605616789
2624.0,0.004210980236577717
2623.0,0.0041792123827054575
2622.0,0.004132543436672637
2621.0,0.0040981242269299
2620.0,0.0040888950338724105
2619.0,0.004088557335613509
2618.0,0.004077848338208872
2617.0,0.004058614194920919
2616.0,0.004044818889804664
2615.0,0.004042697056410673
2614.0,0.0040468978504043
2613.0,0.004045847533065723
2612.0,0.004025592422727175
2611.0,0.003978789698014657
2610.0,0.003917298837579778
2609.0,0.0038678864718314273
2608.0,0.0038481038639251097
2607.0,0.003850692701325225
2606.0,0.003853288763243861
2605.0,0.00383698657590829
2604.0,0.003796471946050863
2603.0,0.0037420226662989884
2602.0,0.0036949645744508
2601.0,0.0036719432942065367
2600.0,0.0036712143437504425
2599.0,0.003681075005209979
2598.0,0.003697773539790274
2597.0,0.003720553412381602
2596.0,0.0037299170779453846
2595.0,0.003692358075373312
2594.0,0.0035993341074416845
2593.0,0.0034898208562779477
2592.0,0.0034207281114529385
2591.0,0.003416656128785569
2590.0,0.0034551039183535782
2589.0,0.0034932114214064544
2588.0,0.0035012546467145913
2587.0,0.0034761531953755695
2586.0,0.0034340696519679537
2585.0,0.003395482002099447
2584.0,0.003375068381570406
2583.0,0.0033787310883445507
2582.0,0.003401364899884045
2581.0,0.0034249142112836254
2580.0,0.003427362809245694
2579.0,0.0034015998402621185
2578.0,0.0033602426637944077
2577.0,0.003315299789373667
2576.0,0.0032622846839543314
2575.0,0.003195827906771856
2574.0,0.003132297954008657
2573.0,0.0030994542583850913
2572.0,0.0031044759439404555
2571.0,0.0031260391707346284
2570.0,0.0031366914866424738
2569.0,0.003122123099794833
2568.0,0.0030852486768150884
2567.0,0.0030468731735501394
2566.0,0.003036237767947418
2565.0,0.003061748234497567
2564.0,0.003093325170156895
2563.0,0.0030929930567189195
2562.0,0.003061841137192618
2561.0,0.003036140895254426
2560.0,0.003038324498269623
2559.0,0.0030566763869659314
2558.0,0.003075479733812902
2557.0,0.003095881558643948
2556.0,0.0031155314430855053
2555.0,0.0031136622838924973
2554.0,0.00307617855817421
2553.0,0.0030197638002302943
2552.0,0.002973053862950117
2551.0,0.0029448416930106143
2550.0,0.0029249704313846145
2549.0,0.0029068926628442672
2548.0,0.002895565493868443
2547.0,0.002899601502451585
2546.0,0.0029245666273260734
2545.0,0.002964549278529749
2544.0,0.002992147055076814
2543.0,0.0029718277176536876
2542.0,0.002900141411589361
2541.0,0.002824128727239592
2540.0,0.0028007430360250346
2539.0,0.0028376394342914564
2538.0,0.002886285029720903
2537.0,0.0028940221337839006
2536.0,0.002854946590946182
2535.0,0.002808917458747022
2534.0,0.002797636228208871
2533.0,0.002825313425187566
2532.0,0.002860427738229907
2531.0,0.002872487378423102
2530.0,0.002861678128505471
2529.0,0.002848700636908869
2528.0,0.0028428979530133692
2527.0,0.0028340488334793186
2526.0,0.0028159258907451703
2525.0,0.002801917528007944
2524.0,0.0028086016805754293
2523.0,0.00283328721108478
2522.0,0.002856346957139092
2521.0,0.002860130558814325
2520.0,0.002840467458618259
2519.0,0.0028067956776825155
2518.0,0.0027780320369204907
2517.0,0.002772245187629856
2516.0,0.002791931733206816
2515.0,0.0028211616649662266
2514.0,0.0028408702818569966
2513.0,0.0028435436994299758
2512.0,0.0028310965555363543
2511.0,0.0028054233184636244
2510.0,0.0027675457097038453
2509.0,0.0027228175967493147
2508.0,0.0026814168234614317
2507.0,0.0026544699744059986
2506.0,0.0026503869819512658
2505.0,0.0026695633631582077
2504.0,0.002699870672503507
2503.0,0.0027236383151492756
2502.0,0.0027343402334548896
2501.0,0.002742158436716962
2500.0,0.0027577477128343034
2499.0,0.0027745234879321557
2498.0,0.0027750785597388684
2497.0,0.002754975447713893
2496.0,0.002731559301945054
2495.0,0.002722691793918376
2494.0,0.0027201185652860503
2493.0,0.002693498388244405
2492.0,0.0026265639348469227
2491.0,0.0025444625054607812
2490.0,0.002496516660766016
2489.0,0.0025107353748204013
2488.0,0.0025702683546736252
2487.0,0.0026337960497134576
2486.0,0.002669645670715192
2485.0,0.0026685844131898997
2484.0,0.0026378277031198763
2483.0,0.0025948070355365487
2482.0,0.0025612119712836454
2481.0,0.0025500939765528328
2480.0,0.002555325649396568
2479.0,0.002557419811653359
2478.0,0.0025404253893050828
2477.0,0.0025047673486522123
2476.0,0.0024702178036711295
2475.0,0.0024662737226878633
2474.0,0.0025078209010467377
2473.0,0.0025739690379162567
2472.0,0.0026213600157273622
2471.0,0.0026267395609283857
2470.0,0.002607015618376692
2469.0,0.0025900593982894874
2468.0,0.0025788525091024043
2467.0,0.0025576661750792667
2466.0,0.002522152303749388
2465.0,0.0024853935213043025
2464.0,0.002460885856125061
2463.0,0.0024575380261944524
2462.0,0.002486277428423387
2461.0,0.0025499564709024055
2460.0,0.0026251707943240376
2459.0,0.0026734386115637066
2458.0,0.0026770074503665244
2457.0,0.002651844464810201
2456.0,0.002622579728733925
2455.0,0.002598063824261097
2454.0,0.0025764816985948324
2453.0,0.002560371371842083
2452.0,0.002555780393148893
2451.0,0.002563219071447017
2450.0,0.002577522539536545
2449.0,0.002593150195685906
2448.0,0.0026050428338533676
2447.0,0.0026079369444910287
2446.0,0.002599235223854891
2445.0,0.0025815247848696783
2444.0,0.0025608520397894068
2443.0,0.002543124205811286
2442.0,0.002530606630913054
2441.0,0.0025192862221740616
2440.0,0.0025014189307552446
2439.0,0.002474027994499301
2438.0,0.002443908943351566
2437.0,0.0024223124423178046
2436.0,0.0024157979864659605
2435.0,0.0024212497286728507
2434.0,0.0024247372582676917
2433.0,0.0024062672384503477
2432.0,0.0023557117742480853
2431.0,0.002287914314284697
2430.0,0.0022338974399995467
2429.0,0.002212824680420472
2428.0,0.0022186248982635805
2427.0,0.002233848560615615
2426.0,0.0022445992131902865
2425.0,0.0022417792373753075
2424.0,0.002226648120585349
2423.0,0.002220765983646215
2422.0,0.0022487047937926946
2421.0,0.002298943229861235
2420.0,0.002323965220253006
2419.0,0.0022976021283935386
2418.0,0.0022529773710913753
2417.0,0.0022417267081094286
2416.0,0.0022715466822500895
2415.0,0.00230955538795633
2414.0,0.0023345394326673694
2413.0,0.0023532351295408507
2412.0,0.002368359513802142
2411.0,0.002363467049314541
2410.0,0.002327096642808643
2409.0,0.002269172606225759
2408.0,0.0022073053867588226
2407.0,0.002156622547771647
2406.0,0.0021365340915120838
2405.0,0.0021627540850006934
2404.0,0.002220778550540034
2403.0,0.002264985153265106
2402.0,0.0022579054079794646
2401.0,0.0022032679812403304
2400.0,0.002134833822249027
2399.0,0.002083364348943078
2398.0,0.0020617119800900026
2397.0,0.0020703771394110625
2396.0,0.002103635160451176
2395.0,0.0021507806949624315
2394.0,0.0021971818997399777
2393.0,0.002225975253161444
2392.0,0.0022232731497958728
2391.0,0.0021884784386168865
2390.0,0.002139198555808702
2389.0,0.0020999405015618565
2388.0,0.0020838331801861635
2387.0,0.002086588226312764
2386.0,0.0020935436144562873
2385.0,0.002088413913012323
2384.0,0.0020630196676833103
2383.0,0.0020274164894489837
2382.0,0.0020032293600925934
2381.0,0.001993446470971079
2380.0,0.0019644685516198683
2379.0,0.0018795818425866298
2378.0,0.0017510137398431794
2377.0,0.0016317551174029224
2376.0,0.0015492564323880717
2375.0,0.0014810691066137055
2374.0,0.0014138734168562676
2373.0,0.0013961859262003066
2372.0,0.0014884150090714453
2371.0,0.001670099994876055
2370.0,0.0018330487006056335
2369.0,0.0018543854294161104
2368.0,0.001671187289227213
2367.0,0.0013344839143438884
2366.0,0.0010246065072118042
2365.0,0.000942887714476463
2364.0,0.0011213176939638377
2363.0,0.0014077631583828305
2362.0,0.0016721219851841176
2361.0,0.0019250946144897117
2360.0,0.0022175134342058605
2359.0,0.0024744108251422542
2358.0,0.002545024199841474
2357.0,0.0023993670118815
2356.0,0.002141419563322653
2355.0,0.001932440527990531
2354.0,0.0018837222804694237
2353.0,0.001971786501364449
2352.0,0.0020807456363378194
2351.0,0.0021224673681805367
2350.0,0.002137322338528072
2349.0,0.002141387571819052
2348.0,0.0020616676444709173
2347.0,0.0018582627606734089
2346.0,0.001593180542753398
2345.0,0.0014296335707257124
2344.0,0.0014490383342438192
2343.0,0.0016228216970264572
2342.0,0.0018766761259778615
2341.0,0.0021243643686574775
2340.0,0.0023451858535702636
2339.0,0.0025118345176636434
2338.0,0.002627712813620267
2337.0,0.002705470046923418
2336.0,0.002769601798198578
2335.0,0.0028469065611221368
2334.0,0.0029505682509541917
2333.0,0.0030450976360204573
2332.0,0.003051521345893632
2331.0,0.002944137868750777
2330.0,0.002843921935278046
2329.0,0.002936004930559215
2328.0,0.0032826014312123913
2327.0,0.0038127441481889787
2326.0,0.004332557347517662
2325.0,0.004694145333471292
2324.0,0.0047794734323781075
2323.0,0.004608540800464057
2322.0,0.004309187323901106
2321.0,0.004040269430239696
2320.0,0.003895215010027376
2319.0,0.003836031353241113
2318.0,0.0037923171395606763
2317.0,0.00371547790486927
2316.0,0.003618394263165955
2315.0,0.0035289664853511283
2314.0,0.0034508976223655103
2313.0,0.0033697503618275856
2312.0,0.0032722558475363804
2311.0,0.0031927077463997137
2310.0,0.0031583385455030318
2309.0,0.003171342068178041
2308.0,0.003184813589234076
2307.0,0.0031855495522994997
2306.0,0.003186342261378198
2305.0,0.0032135058321325423
2304.0,0.0032504014225168383
2303.0,0.003273779775115527
2302.0,0.0032682074557869507
2301.0,0.0032371628376509707
2300.0,0.003183674794881555
2299.0,0.0031320695714289596
2298.0,0.0031179633753432067
2297.0,0.003166413178001547
2296.0,0.003256318333054136
2295.0,0.0033615659107943245
2294.0,0.003472493638832133
2293.0,0.003591768967017659
2292.0,0.0036920209373052827
2291.0,0.003752621207744151
2290.0,0.0037918807963567475
2289.0,0.0038468860328768318
2288.0,0.003897247002298817
2287.0,0.003872668891429459
2286.0,0.003741445752763747
2285.0,0.0035612150408226477
2284.0,0.003413654008394526
2283.0,0.003318581837053397
2282.0,0.003242642729229827
2281.0,0.003166230063619261
2280.0,0.0031117175994342786
2279.0,0.003105291143484674
2278.0,0.0031447004331996093
2277.0,0.0032012631778028087
2276.0,0.0032393457592990826
2275.0,0.003228392183491362
2274.0,0.0031586970806393604
2273.0,0.003054707310791549
2272.0,0.0029654946153733564
2271.0,0.002928861977782414
2270.0,0.0029371275472800614
2269.0,0.002941872786921275
2268.0,0.0028983905455585096
2267.0,0.002809740424460599
2266.0,0.0027188943152956003
2265.0,0.002655695651556474
2264.0,0.002608302488983711
2263.0,0.0025599675101673973
2262.0,0.00253642022060065
2261.0,0.0025926185471120936
2260.0,0.002743332228720412
2259.0,0.0029201612337449523
2258.0,0.0030010250747488885
2257.0,0.002896812656758314
2256.0,0.002640403694232281
2255.0,0.0023870918975378184
2254.0,0.0022967156272840636
2253.0,0.0023923788630852284
2252.0,0.0025537362911437714
2251.0,0.0026563515392176774
2250.0,0.0026796717491398073
2249.0,0.0026643396774898866
2248.0,0.002620211634282359
2247.0,0.00253410278599819
2246.0,0.002435629621812534
2245.0,0.0023870332461126327
2244.0,0.0024043839545639014
2243.0,0.002440276005414021
2242.0,0.002446916106497698
2241.0,0.0024144809165379377
2240.0,0.002349226625074239
2239.0,0.002259657014492051
2238.0,0.0021744102664482687
2237.0,0.0021364951301654986
2236.0,0.002162184171426763
2235.0,0.002225803454817609
2234.0,0.0022856142297600123
2233.0,0.0023047287329091733
2232.0,0.0022651027125768796
2231.0,0.0021940389444564975
2230.0,0.0021627380035462453
2229.0,0.00221902098172765
2228.0,0.002326079048076513
2227.0,0.0024038916382147935
2226.0,0.0024182793921425053
2225.0,0.0023997335512283445
2224.0,0.002397539512147677
2223.0,0.002452253321362581
2222.0,0.0025814409155491703
2221.0,0.0027313349839172907
2220.0,0.002774118325517522
2219.0,0.0026315078231917356
2218.0,0.002395925228493825
2217.0,0.0022522385405816885
2216.0,0.0022678064380241307
2215.0,0.0023320553687507743
2214.0,0.0023140176442189267
2213.0,0.0022054794928990356
2212.0,0.0020837445452379783
2211.0,0.0020045278727832344
2210.0,0.0019769054541929278
2209.0,0.001990314307258621
2208.0,0.0020194859223456344
2207.0,0.002033039172408795
2206.0,0.002027120384102195
2205.0,0.0020275301032253983
2204.0,0.0020441250599813605
2203.0,0.0020540809822713556
2202.0,0.0020402668117252506
2201.0,0.0020131532732975267
2200.0,0.001989493716182593
2199.0,0.001986178360697325
2198.0,0.002036563075062301
2197.0,0.0021615700301616113
2196.0,0.0023086675155545955
2195.0,0.0023745606676111304
2194.0,0.0023162296515626974
2193.0,0.002202839467289531
2192.0,0.0021360954981851474
2191.0,0.002142026340500636
2190.0,0.002163575230939972
2189.0,0.0021362714990013206
2188.0,0.002050737752256685
2187.0,0.0019563633622725865
2186.0,0.0019082996520820913
2185.0,0.0018997915447989111
2184.0,0.0018634973809594042
2183.0,0.0017700120254540675
2182.0,0.0016988245761486286
2181.0,0.0017472398545307838
2180.0,0.0018770278105672822
2179.0,0.001930736058991152
2178.0,0.0018112032893445082
2177.0,0.0015953640775632555
2176.0,0.0014533500049071528
2175.0,0.001482899432932526
2174.0,0.0016513101230435474
2173.0,0.0018658117263907195
2172.0,0.002065717656766253
2171.0,0.002257714200319958
2170.0,0.00246599835730452
2169.0,0.0026512904347434215
2168.0,0.0027155319136367454
2167.0,0.002619014286607197
2166.0,0.0024767665322982264
2165.0,0.0024913395335778295
2164.0,0.0027529426317838158
2163.0,0.0030928825745066392
2162.0,0.003118834888857706
2161.0,0.0024520686594094554
2160.0,0.0011119256656539408
2159.0,-0.00032600786417006045
2158.0,-0.0011793205346817812
2157.0,-0.0012856707703360578
2156.0,-0.0010383704951304083
2155.0,-0.000848030243381464
2154.0,-0.0007585152335469855
2153.0,-0.0006015825097122157
2152.0,-0.0003297688642194084
2151.0,-7.112488936566403e-05
2150.0,7.319095185950031e-05
2149.0,0.00013170087153239863
2148.0,0.00016318719393154763
2147.0,0.00017201058446081257
2146.0,0.00015329997535627055
2145.0,0.00014843285981082312
2144.0,0.0002062614340044562
2143.0,0.00032126505495230366
2142.0,0.00043302989532306886
2141.0,0.0004771942509422425
2140.0,0.00043818824574791524
2139.0,0.00034986003768788435
2138.0,0.0002325703108515889
2137.0,4.8173372775957795e-05
2136.0,-0.0002334693402739776
2135.0,-0.0005277418391320698
2134.0,-0.0006734012394244383
2133.0,-0.0006033903630985596
2132.0,-0.00040789809078427985
2131.0,-0.00019954699200629283
2130.0,7.324712398182044e-06
2129.0,0.00023577938860424414
2128.0,0.0004452987055189716
2127.0,0.0005698430020879818
2126.0,0.0006158558332332954
2125.0,0.0006507606931394003
2124.0,0.0007125935058533064
2123.0,0.0007932289309273189
2122.0,0.0008945617556613654
2121.0,0.0010346989703917775
2120.0,0.0011991560468043669
2119.0,0.0013428275765700562
2118.0,0.0014449618632011703
2117.0,0.0015221778844824241
2116.0,0.0015886214764012753
2115.0,0.0016418181591479732
2114.0,0.001684392870042095
2113.0,0.0017180658926831587
2112.0,0.0017172076029472448
2111.0,0.0016502377967232793
2110.0,0.001531554108390085
2109.0,0.0014182534817741696
2108.0,0.001352181786896145
2107.0,0.001337923341826526
2106.0,0.0013729735800406472
2105.0,0.0014530363578103569
2104.0,0.0015412524792848303
2103.0,0.001576526434288989
2102.0,0.0015338391489790376
2101.0,0.0014536514625867216
2100.0,0.0014017750443575546
2099.0,0.0014081408183947725
2098.0,0.0014395012133251225
2097.0,0.0014185031693631585
2096.0,0.0012873045655747565
2095.0,0.0010787721801744656
2094.0,0.000906647912565493
2093.0,0.0008578711555471458
2092.0,0.0009111373948676494
2091.0,0.0009849766756839509
2090.0,0.0010350134587787134
2089.0,0.0010716118077839358
2088.0,0.0011073784477579414
2087.0,0.0011387126241163721
2086.0,0.0011736348356733532
2085.0,0.0012331054179779066
2084.0,0.0013241859236806776
2083.0,0.001434915216867184
2082.0,0.0015453889957010064
2081.0,0.0016217969836746409
2080.0,0.0016237902019444785
2079.0,0.0015509225617929855
2078.0,0.0014607956463666026
2077.0,0.0014125335804933896
2076.0,0.001408955165577161
2075.0,0.0014202684853220043
2074.0,0.0014293796813237129
2073.0,0.0014129618150417582
2072.0,0.0013304963937646936
2071.0,0.0011851643866205891
2070.0,0.001059611826086369
2069.0,0.0010329720000826182
2068.0,0.0010856124008044772
2067.0,0.0011418319187571238
2066.0,0.0011687623113121885
2065.0,0.0011650209857388273
2064.0,0.0010966405764686416
2063.0,0.0009396970027113561
2062.0,0.0007642278044649629
2061.0,0.0006917480184955571
2060.0,0.0007732731953539673
2059.0,0.0009527993541565312
2058.0,0.0011275789266083798
2057.0,0.001200922738440268
2056.0,0.001137653043024475
2055.0,0.0010542513786899984
2054.0,0.0011851726027493359
2053.0,0.0016311899797320333
2052.0,0.002177914206744204
2051.0,0.002473676371120645
2050.0,0.002374607550365898
2049.0,0.0020407081662135763
2048.0,0.0016788795756914783
2047.0,0.0013296915484629851
2046.0,0.0009832500672287093
2045.0,0.0007184332127906628
2044.0,0.0006139353327014303
2043.0,0.0006444242028492075
2042.0,0.0007478115257799605
2041.0,0.0008997580308900473
2040.0,0.0010738101053541908
2039.0,0.0012243911037503445
2038.0,0.0013300516092992465
2037.0,0.001369276448208744
2036.0,0.0012618072187184682
2035.0,0.0009372817375271109
2034.0,0.0004641823383718382
2033.0,8.996377006593092e-06
2032.0,-0.0003318582793513729
2031.0,-0.0005369830328454421
2030.0,-0.0005326365982114412
2029.0,-0.0002635247035828567
2028.0,0.00011750998560581128
2027.0,0.00034384067146534295
2026.0,0.0003346788390704088
2025.0,0.00022757200848503851
2024.0,0.00012684610620647884
2023.0,6.364075900680728e-06
2022.0,-0.00011237160523666038
2021.0,-0.00010621113528876884
2020.0,4.3759850534329475e-05
2019.0,0.00017738185153411926
2018.0,0.00016940874791156234
2017.0,9.20386219589428e-05
2016.0,6.525727116448007e-05
2015.0,7.676233334036992e-05
2014.0,5.7001901035315795e-05
2013.0,-4.742189450691208e-06
2012.0,-8.924948058328303e-05
2011.0,-0.00019191829819652998
2010.0,-0.0002923525003361283
2009.0,-0.000358591022409881
2008.0,-0.00041430023544374435
2007.0,-0.0005020512371146068
2006.0,-0.0005663518731787367
2005.0,-0.0005087907784371351
2004.0,-0.00036090328485846677
2003.0,-0.0002681848920823494
2002.0,-0.00028410470668181493
2001.0,-0.000293353806977416
2000.0,-0.00018033367765692837
1999.0,3.1067450301587e-05
1998.0,0.00023173704679884245
1997.0,0.0003519950996089508
1996.0,0.00040064134338357914
1995.0,0.00042265921715197016
1994.0,0.00044938821921554437
1993.0,0.00046065923201862
1992.0,0.000390398157196388
1991.0,0.00023298540259069408
1990.0,0.0001126672699387828
1989.0,0.00015284518713936236
1988.0,0.00033231857017309067
1987.0,0.0005386714445762995
1986.0,0.000716222215185455
1985.0,0.0008752732809078722
1984.0,0.0009946246535094154
1983.0,0.001037774674209672
1982.0,0.0010412052199066293
1981.0,0.0010436253913476152
1980.0,0.0009338273771714756
1979.0,0.000559089139226787
1978.0,1.5243949059620242e-05
1977.0,-0.00038084635705757015
1976.0,-0.00050655674328152
1975.0,-0.0005727366100265613
1974.0,-0.0007511444177543468
1973.0,-0.0009191409629284364
1972.0,-0.0008887825586804221
1971.0,-0.0006933008781035532
1970.0,-0.0004927937142479086
1969.0,-0.00033669649059483704
1968.0,-0.00016876712705057482
1967.0,-1.3564700024483022e-05
1966.0,5.550218383719311e-06
1965.0,-0.00014375785408951266
1964.0,-0.00035151594636564085
1963.0,-0.0004893172149800843
1962.0,-0.0004903913301072134
1961.0,-0.00037489379559491943
1960.0,-0.0002356219065218862
1959.0,-0.00015966525205085872
1958.0,-0.0001618177276310113
1957.0,-0.00020937875513686696
1956.0,-0.0002868584183368677
1955.0,-0.0003823597621350741
1954.0,-0.0004265299409442309
1953.0,-0.0003291157865720494
1952.0,-9.069499950668499e-05
1951.0,0.000176942443748446
1950.0,0.0003698327241845351
1949.0,0.00046716119190843924
1948.0,0.0004821221188529455
1947.0,0.00042283216078163317
1946.0,0.00032868959204691134
1945.0,0.00028591202459477797
1944.0,0.00035535258502645477
1943.0,0.000498168888728702
1942.0,0.0005957799448891156
1941.0,0.0005805025106339768
1940.0,0.0005015150396455793
1939.0,0.00042342073510833757
1938.0,0.000357865916675904
1937.0,0.00028022410735848054
1936.0,0.00016138104997622535
1935.0,1.4941786778308822e-05
1934.0,-9.337530563904416e-05
1933.0,-0.00010910659132470782
1932.0,-5.7288075697051015e-05
1931.0,-1.8156857230869914e-05
1930.0,-2.4920991856537114e-05
1929.0,-6.161750996734822e-05
1928.0,-0.00012709532109493864
1927.0,-0.00022530381040668126
1926.0,-0.0003316722985126265
1925.0,-0.0003913595169012504
1924.0,-0.00038931892577411605
1923.0,-0.000360985309211224
1922.0,-0.0003392837954914751
1921.0,-0.0003271990999764373
1920.0,-0.000332762153722779
1919.0,-0.0003735048663757196
1918.0,-0.0004050680565745765
1917.0,-0.000375357211092912
1916.0,-0.00031456950863322083
1915.0,-0.0002732598571680662
1914.0,-0.0002603135126563465
1913.0,-0.0002489662817940321
1912.0,-0.00023208147334528406
1911.0,-0.00024380986952525648
1910.0,-0.0002866785490368176
1909.0,-0.00032174340955210554
1908.0,-0.0003355345839914422
1907.0,-0.0003475054858280086
1906.0,-0.00036280029837293046
1905.0,-0.00034731501334304407
1904.0,-0.000300119570540912
1903.0,-0.0002656471622577948
1902.0,-0.0002611657499610139
1901.0,-0.0002703941681299006
1900.0,-0.0002844022229090831
1899.0,-0.0003093733421552691
1898.0,-0.00033910443861635245
1897.0,-0.00033600010981114426
1896.0,-0.0002798012865962724
1895.0,-0.00019715549777046945
1894.0,-0.00011951072646528178
1893.0,-5.269980941404926e-05
1892.0,-1.8003568539831476e-06
1891.0,1.537687349898332e-05
1890.0,1.2827717562498547e-05
1889.0,2.316603677819857e-05
1888.0,4.9054529386528736e-05
1887.0,8.206772270761328e-05
1886.0,0.00011529052274949743
1885.0,0.00014180035585390958
1884.0,0.00015411219470147053
1883.0,0.00015062855172469467
1882.0,0.00015579003523817593
1881.0,0.000186910727967731
1880.0,0.00022313375543888932
1879.0,0.00023538604424172853
1878.0,0.00022458857766280492
1877.0,0.00023055924817389308
1876.0,0.00028126165690165947
1875.0,0.0003470942661002868
1874.0,0.00038553592494534536
1873.0,0.00039226902408474916
1872.0,0.00038447420867180953
1871.0,0.00036407714235091445
1870.0,0.0003379392491036125
1869.0,0.0003372759546088084
1868.0,0.0003378475297479591
1867.0,0.000305367543265994
1866.0,0.0002752884837193953
1865.0,0.0002508812421885662
1864.0,0.00019761314972944208
1863.0,0.00012348718108363813
1862.0,7.985030846187368e-05
1861.0,9.381074404598189e-05
1860.0,0.00012021048134957472
1859.0,9.831507109674359e-05
1858.0,2.4283501306410606e-05
1857.0,-6.800181933023326e-05
1856.0,-0.00016168703694435186
1855.0,-0.0002598095805954651
1854.0,-0.0003507092674816894
1853.0,-0.00041753946444578736
1852.0,-0.000467046922101773
1851.0,-0.000495813204695937
1850.0,-0.0005051857329104168
1849.0,-0.0004952702390702592
1848.0,-0.00046075565091351013
1847.0,-0.00039633402776360536
1846.0,-0.0003094707462599582
1845.0,-0.00023138839981416887
1844.0,-0.00023416467004179465
1843.0,-0.000358236047324311
1842.0,-0.0004751884927214267
1841.0,-0.0004863999419920692
1840.0,-0.00045152008948499966
1839.0,-0.0004348613793973143
1838.0,-0.0004316817068528594
1837.0,-0.0004032425055088111
1836.0,-0.0003644868645166189
1835.0,-0.0003567799075659681
1834.0,-0.0003726217586571042
1833.0,-0.0003817397176926417
1832.0,-0.00039103036117304145
1831.0,-0.00042222598319989696
1830.0,-0.0004608586728652858
1829.0,-0.0004807834972813214
1828.0,-0.0004535071214668556
1827.0,-0.0003721373948926995
1826.0,-0.00028532171328803416
1825.0,-0.00020661376796902433
1824.0,-0.00013065298622520869
1823.0,-6.337285870649601e-05
1822.0,2.4659920236287138e-06
1821.0,4.548167127936022e-05
1820.0,3.350656945778712e-05
1819.0,-3.573863464888163e-05
1818.0,-0.00010843585321421612
1817.0,-0.0001002367681203801
1816.0,-1.1250067531403622e-05
1815.0,9.18391885066424e-05
1814.0,0.00018090970779579066
1813.0,0.00026945355109753025
1812.0,0.00036320415852624487
1811.0,0.00041254962119991346
1810.0,0.00040644610245634894
1809.0,0.0004197953005514476
1808.0,0.0004862789563640259
1807.0,0.0005662149368424918
1806.0,0.0006291766615832846
1805.0,0.0006861063545420903
1804.0,0.0007443411574533463
1803.0,0.0007892154468729989
1802.0,0.0008126405736131261
1801.0,0.0008099416269932583
1800.0,0.0007804337087654739
1799.0,0.0007215293552747856
1798.0,0.0006661703520748543
1797.0,0.0006466976291298766
1796.0,0.0006484817735782429
1795.0,0.0006370524091945991
1794.0,0.0005869272463751955
1793.0,0.0005186760438529335
1792.0,0.0004721149502947739
1791.0,0.00041034279347817483
1790.0,0.0003444297388754368
1789.0,0.00031547841735884855
1788.0,0.00028986006956535073
1787.0,0.00024171083635756655
1786.0,0.00019821153420702302
1785.0,0.00019142311015174756
1784.0,0.00019599406035514808
1783.0,0.000180185563066944
1782.0,0.0001509978351692887
1781.0,0.00011326906609084204
1780.0,9.243465440209086e-05
1779.0,7.964015335819872e-05
1778.0,6.857299459220312e-05
1777.0,6.190777255759682e-05
1776.0,6.51888515561267e-05
1775.0,9.609827688441142e-05
1774.0,0.00011241493862752024
1773.0,9.479642450793951e-05
1772.0,8.99145524782272e-05
1771.0,0.00010364305944419311
1770.0,0.00018438469813587474
1769.0,0.0003323642023961115
1768.0,0.0004242261598041393
1767.0,0.00039079475983511353
1766.0,0.00030456445470880165
1765.0,0.0002744931206112135
1764.0,0.00030998371248199376
1763.0,0.00035644087284066386
1762.0,0.0003865846756365282
1761.0,0.0003917301428526974
1760.0,0.0004178735081264112
1759.0,0.0004847935694296461
1758.0,0.000564591084674766
1757.0,0.0006221838398715934
1756.0,0.0006392429881375019
1755.0,0.000647477083725144
1754.0,0.0006889600937611683
1753.0,0.0007467579519715964
1752.0,0.0008067800698721424
1751.0,0.0008660241162465219
1750.0,0.0008707517263180364
1749.0,0.0008467021260510823
1748.0,0.0008528685944186216
1747.0,0.0008807561985989597
1746.0,0.0008998011329824532
1745.0,0.0009138820421328948
1744.0,0.0009593463449613427
1743.0,0.0010219461285335386
1742.0,0.001065785998780597
1741.0,0.001085539080196007
1740.0,0.0010729117540345464
1739.0,0.0010114082191640793
1738.0,0.0009792809949366018
1737.0,0.0010836787962629738
1736.0,0.0012383967331682255
1735.0,0.0013268469222870133
1734.0,0.0013486089740150386
1733.0,0.0012266360412738872
1732.0,0.001123165426373295
1731.0,0.0011641911370984799
1730.0,0.0012083702317309875
1729.0,0.0011946259605074864
1728.0,0.0011658535608986167
1727.0,0.0011724624729997951
1726.0,0.001198181788979635
1725.0,0.0012217113386656293
1724.0,0.0012620223822775822
1723.0,0.001293261333287107
1722.0,0.0013226683046637035
1721.0,0.0013970653338945109
1720.0,0.0014958168750568435
1719.0,0.001523611572518453
1718.0,0.0014997598175837262
1717.0,0.0015545753507728985
1716.0,0.0016640194522902548
1715.0,0.0017888426716448393
1714.0,0.0019084073942155404
1713.0,0.0020062998110906786
1712.0,0.002083707410476
1711.0,0.002138932012452935
1710.0,0.0021826339681681383
1709.0,0.002229876406100795
1708.0,0.002295802941976851
1707.0,0.0023692137823262327
1706.0,0.002428935100801467
1705.0,0.002497013274657547
1704.0,0.0026210941066373526
1703.0,0.002866105799455028
1702.0,0.0031370454299030556
1701.0,0.003367261840716778
1700.0,0.0035419773010033724
1699.0,0.003548564544378063
1698.0,0.003606981585166879
1697.0,0.00384294122490451
1696.0,0.0040841849277664585
1695.0,0.004094725747333572
1694.0,0.0040347571215377555
1693.0,0.00414349927997124
1692.0,0.004305170137159749
1691.0,0.004399539851540993
1690.0,0.004477221241265124
1689.0,0.004629646294284827
1688.0,0.004853049032312393
1687.0,0.005084148462279458
1686.0,0.005194207232349535
1685.0,0.0053153049056496645
1684.0,0.005643384344432366
1683.0,0.0057989506521764125
1682.0,0.005927810906454955
1681.0,0.006184450272635556
1680.0,0.006409498275490009
1679.0,0.0065808671591923665
1678.0,0.006742780725966697
1677.0,0.0069279592230940944
1676.0,0.007149620255828196
1675.0,0.007369985452460282
1674.0,0.007478914616441873
1673.0,0.007521732629540137
1672.0,0.007597912091235611
1671.0,0.007716037645200737
1670.0,0.00793719697622382
1669.0,0.008169334157671324
1668.0,0.008280150587223421
1667.0,0.00834509066340635
1666.0,0.008405665753198253
1665.0,0.008453871342902276
1664.0,0.008520710112196956
1663.0,0.008653043563346575
1662.0,0.008806865094969576
1661.0,0.00889154757780837
1660.0,0.008950667811950575
1659.0,0.008987421777436229
1658.0,0.008982319230024138
1657.0,0.00895813223372599
1656.0,0.00898775333845574
1655.0,0.008996083705490357
1654.0,0.009124741159980835
1653.0,0.009543018326421973
1652.0,0.009389813148031929
1651.0,0.00916077254623267
1650.0,0.009166644303948392
1649.0,0.009113908595964193
1648.0,0.00904996497954557
1647.0,0.009233727121655703
1646.0,0.009453932611909783
1645.0,0.009469091732624694
1644.0,0.009458613444156595
1643.0,0.009451581197141894
1642.0,0.009425970297511098
1641.0,0.009366646879349662
1640.0,0.009287836171048306
1639.0,0.00922089190698229
1638.0,0.009154129540624537
1637.0,0.009124477323365956
1636.0,0.009231864297029158
1635.0,0.00926758921027229
1634.0,0.009117125107571981
1633.0,0.009024885800070343
1632.0,0.008971567921738529
1631.0,0.008882072046490467
1630.0,0.008764315409595849
1629.0,0.00864758079130567
1628.0,0.008551249029974813
1627.0,0.008465894523254976
1626.0,0.008379892110631119
1625.0,0.008266870483246008
1624.0,0.008140229384654094
1623.0,0.008044754265280882
1622.0,0.007962250879613105
1621.0,0.007890541813194188
1620.0,0.00785792302376427
1619.0,0.007812060151604919
1618.0,0.007699864046684565
1617.0,0.007558758428754047
1616.0,0.007410519587248256
1615.0,0.007302879184380757
1614.0,0.007309634065697205
1613.0,0.007351092352461069
1612.0,0.007350222710075554
1611.0,0.007356423627904774
1610.0,0.007474758297300144
1609.0,0.007775383772975222
1608.0,0.008281539143723414
1607.0,0.008955283212008315
1606.0,0.009704125516842918
1605.0,0.010448010866346053
1604.0,0.011186088339232094
1603.0,0.011869804716397847
1602.0,0.012317552533695458
1601.0,0.012372536790586664
1600.0,0.012039008733976616
1599.0,0.011412931013201637
1598.0,0.010599538417932073
1597.0,0.009717925653979078
1596.0,0.008889337286929666
1595.0,0.008195713553414894
1594.0,0.007656980222550855
1593.0,0.007237020108668677
1592.0,0.006893276032591048
1591.0,0.006614368433979691
1590.0,0.006417642932383913
1589.0,0.006317530907517344
1588.0,0.006318256484947686
1587.0,0.006416329976444054
1586.0,0.006589410686292221
1585.0,0.006775496533770565
1584.0,0.006896373680333174
1583.0,0.006895983715342745
1582.0,0.00671140517147014
1581.0,0.006360485453889734
1580.0,0.005972793078202093
1579.0,0.005664072428932309
1578.0,0.005410914453056515
1577.0,0.005163662646258593
1576.0,0.004911369064697588
1575.0,0.004650653241056216
1574.0,0.004519324753430868
1573.0,0.004524160182826774
1572.0,0.004518174964533718
1571.0,0.004428714600593041
1570.0,0.00432492285285972
1569.0,0.00424640690059275
1568.0,0.004174580883040764
1567.0,0.0041521879246058544
1566.0,0.0041295377585072665
1565.0,0.004072230773469133
1564.0,0.004025417342163784
1563.0,0.004060162824043117
1562.0,0.004152025126184636
1561.0,0.004120907778142451
1560.0,0.003851117746911139
1559.0,0.0038927275440551147
1558.0,0.004044018527755562
1557.0,0.004023906506906974
1556.0,0.0041746468500134465
1555.0,0.004286444442642538
1554.0,0.004295948662545819
1553.0,0.004237183634511608
1552.0,0.004209773079327478
1551.0,0.004235630469622169
1550.0,0.004277646227437976
1549.0,0.004307314436254833
1548.0,0.004312724506672124
1547.0,0.004311791535760973
1546.0,0.0042790935341142
1545.0,0.004241743020818863
1544.0,0.004257959453768739
1543.0,0.004268999310315922
1542.0,0.004153374829424077
1541.0,0.004041936825490453
1540.0,0.004132024758750085
1539.0,0.004041551211743265
1538.0,0.003907233611292528
1537.0,0.003951893232339884
1536.0,0.004025036102817033
1535.0,0.004000067936544585
1534.0,0.0039008407940447016
1533.0,0.003823648559781208
1532.0,0.0037821960269257375
1531.0,0.003769680210293654
1530.0,0.0037373957482585846
1529.0,0.0036698826625876637
1528.0,0.003603793227419703
1527.0,0.003570710736212168
1526.0,0.00356516657014452
1525.0,0.0035681063907814685
1524.0,0.00357515066860448
1523.0,0.0035550837415838574
1522.0,0.0035541783530442742
1521.0,0.003629251345034508
1520.0,0.0036616603545806745
1519.0,0.003679922821991719
1518.0,0.0036770772861912
1517.0,0.0036823819315352354
1516.0,0.0037342868670040856
1515.0,0.0037893317596828235
1514.0,0.00383858585971145
1513.0,0.0038438672342759944
1512.0,0.0038057795592749332
1511.0,0.003745240809770004
1510.0,0.0036800454471496375
1509.0,0.003575830111636165
1508.0,0.0035652619674171587
1507.0,0.004053762224263047
1506.0,0.004366170355677646
1505.0,0.004355592104487946
1504.0,0.004454515557748858
1503.0,0.004616590101348577
1502.0,0.0048118846484510175
1501.0,0.005097639664883451
1500.0,0.0055814253980118606
1499.0,0.006426752919715907
1498.0,0.008015506403771295
1497.0,0.010909688559135808
1496.0,0.0147066256156476
1495.0,0.017989375581308635
1494.0,0.020163212119356625
1493.0,0.02128445265013763
1492.0,0.021225681473806348
1491.0,0.01959629804335781
1490.0,0.01649039198738428
1489.0,0.013332357191543503
1488.0,0.011236078057168185
1487.0,0.009892515014374737
1486.0,0.008911126365076448
1485.0,0.00817353960421969
1484.0,0.007591366641489088
1483.0,0.007096466555361947
1482.0,0.006670948489716468
1481.0,0.006373254413952258
1480.0,0.006197955107724102
1479.0,0.006075408984914345
1478.0,0.005959492751207914
1477.0,0.00587587921135096
1476.0,0.005850395489674712
1475.0,0.005842064012174176
1474.0,0.005848180180434903
1473.0,0.005963228416817533
1472.0,0.006123159902089016
1471.0,0.006145403942686652
1470.0,0.006139486173031556
1469.0,0.006180140443668582
1468.0,0.006241120374136348
1467.0,0.006285235749036845
1466.0,0.006343403835596964
1465.0,0.006491484093330122
1464.0,0.006692559358343821
1463.0,0.006829047351385864
1462.0,0.006912879967093827
1461.0,0.007016656404793016
1460.0,0.007188733167251797
1459.0,0.007582781639877665
1458.0,0.009027714637255203
1457.0,0.012683813884644207
1456.0,0.01649598988647502
1455.0,0.0188606543851312
1454.0,0.020510478621263945
1453.0,0.021722837109555124
1452.0,0.022251865824639797
1451.0,0.021935494705558993
1450.0,0.020987405589327567
1449.0,0.019714620076376654
1448.0,0.018342340938446743
1447.0,0.017107988507424086
1446.0,0.016144258972779667
1445.0,0.015337344340718033
1444.0,0.014553502027926508
1443.0,0.013760017029315778
1442.0,0.013014582682543116
1441.0,0.012370836924363672
1440.0,0.011841176387052156
1439.0,0.011397034274429148
1438.0,0.010959364965378028
1437.0,0.010450832278518495
1436.0,0.009865786459569677
1435.0,0.009324519434445858
1434.0,0.008907508544085303
1433.0,0.008563675390991784
1432.0,0.008236159619387515
1431.0,0.00794446236307273
1430.0,0.007728088770764327
1429.0,0.007578853294455644
1428.0,0.007447164124643347
1427.0,0.007317832143914585
1426.0,0.00719919673113293
1425.0,0.007082207604053198
1424.0,0.007000139301797197
1423.0,0.006970752119560747
1422.0,0.006973090869671806
1421.0,0.0069547608315215035
1420.0,0.006881616528605146
1419.0,0.006806819868873406
1418.0,0.006743585503165447
1417.0,0.006665526487182475
1416.0,0.006572060327105543
1415.0,0.006448631436695655
1414.0,0.0062998120564781886
1413.0,0.006144861365289038
1412.0,0.006001896559703382
1411.0,0.005870331320958575
1410.0,0.00573087720632828
1409.0,0.005574885984725695
1408.0,0.005406266003399135
1407.0,0.005238104599705454
1406.0,0.005094604169152419
1405.0,0.004975569546723438
1404.0,0.004873370469460068
1403.0,0.004781537281329618
1402.0,0.0046951022117953135
1401.0,0.004593698122946993
1400.0,0.004468709351827856
1399.0,0.004355420196497865
1398.0,0.004279268355023343
1397.0,0.0042373086356449745
1396.0,0.004220436848308444
1395.0,0.004226371051069742
1394.0,0.004216617597397802
1393.0,0.004161994827648176
1392.0,0.004103573924885723
1391.0,0.004073297687099157
1390.0,0.0040753000498057745
1389.0,0.004103502760909955
1388.0,0.004163914687634029
1387.0,0.004251919068470564
1386.0,0.004321417976330028
1385.0,0.004349608933435641
1384.0,0.004362689117955704
1383.0,0.004384130583966455
1382.0,0.004419569054462691
1381.0,0.00446924572184762
1380.0,0.004532936568050261
1379.0,0.004610644292052178
1378.0,0.0046810359286307834
1377.0,0.004714508287738619
1376.0,0.004710516101694262
1375.0,0.004711427131544467
1374.0,0.004741112271350991
1373.0,0.004750511523437936
1372.0,0.004710303047399967
1371.0,0.0046397071882564814
1370.0,0.0045633415316106915
1369.0,0.004489842839108504
1368.0,0.004425846480415795
1367.0,0.0043723314407716
1366.0,0.004321117213484509
1365.0,0.004253387045480745
1364.0,0.004164320961614917
1363.0,0.0040847336683367
1362.0,0.004032291393474221
1361.0,0.003969468247619774
1360.0,0.00386997995499503
1359.0,0.003747601015343679
1358.0,0.003628557185243292
1357.0,0.003526840911644267
1356.0,0.0034469130043070038
1355.0,0.0033936809137286132
1354.0,0.0033641952541248084
1353.0,0.003338397618498492
1352.0,0.0032936136300913913
1351.0,0.0032288244166854283
1350.0,0.003165892211514346
1349.0,0.0031100996916211257
1348.0,0.0030553687730561045
1347.0,0.002993252119080603
1346.0,0.0029220611408694846
1345.0,0.0028402502609558306
1344.0,0.0027504939496546896
1343.0,0.0026609863383639763
1342.0,0.00258147913948279
1341.0,0.002525496927850154
1340.0,0.002515127505965783
1339.0,0.0025485612676631082
1338.0,0.002580650653522776
1337.0,0.00258177117683503
1336.0,0.002564985321406205
1335.0,0.0025573833828701304
1334.0,0.0025698925823419653
1333.0,0.002592168096254061
1332.0,0.0026140638467400936
1331.0,0.0026403778964937926
1330.0,0.0026757871871050266
1329.0,0.00270718600810758
1328.0,0.002715459315016892
1327.0,0.0026947036189000698
1326.0,0.002651869739248143
1325.0,0.002592722118930288
1324.0,0.0025255121188730743
1323.0,0.0024595521026430107
1322.0,0.002399487680517563
1321.0,0.0023467263785374075
1320.0,0.002311102672346136
1319.0,0.002306468718950061
1318.0,0.0023270349027482177
1317.0,0.0023479323210949567
1316.0,0.0023565868067453926
1315.0,0.0023637689836616474
1314.0,0.0023807899686164582
1313.0,0.002399271289052274
1312.0,0.0024007694815176544
1311.0,0.0023797313292292736
1310.0,0.002342320827743133
1309.0,0.002292789342730823
1308.0,0.002233159649618093
1307.0,0.0021687535211272297
1306.0,0.002105990528925513
1305.0,0.002044951915237018
1304.0,0.0019855274708047953
1303.0,0.001928250486934218
1302.0,0.001870552465718136
1301.0,0.0018074376331386859
1300.0,0.0017418744342489328
1299.0,0.0016856500514949033
1298.0,0.0016468232546734442
1297.0,0.00162223413511124
1296.0,0.0016047372300722939
1295.0,0.0015908358405430853
1294.0,0.0015767230856367064
1293.0,0.00155711181835655
1292.0,0.0015310951140569823
1291.0,0.0015021171207358639
1290.0,0.0014703688110891408
1289.0,0.0014339320498499087
1288.0,0.001399312591219502
1287.0,0.0013792250485054622
1286.0,0.0013753233114394527
1285.0,0.001375455552453701
1284.0,0.0013716813289961797
1283.0,0.0013683107521184571
1282.0,0.001368774194165888
1281.0,0.0013652017053181293
1280.0,0.0013480152746095783
1279.0,0.0013179807520006855
1278.0,0.0012800473453443923
1277.0,0.001235050588601857
1276.0,0.0011838159894370683
1275.0,0.0011339819327361306
1274.0,0.0010944901204487647
1273.0,0.0010688030104103992
1272.0,0.0010565061564884537
1271.0,0.0010541115028404498
1270.0,0.0010512119883932672
1269.0,0.001036289055757771
1268.0,0.0010113971021570248
1267.0,0.000992539768098515
1266.0,0.0009908216853206035
1265.0,0.0010012792571445685
1264.0,0.0010127320387864243
1263.0,0.0010202571367203721
1262.0,0.0010244964577078774
1261.0,0.0010275801710668718
1260.0,0.001034068244798624
1259.0,0.0010480156267691134
1258.0,0.001064180901069663
1257.0,0.0010732742314637734
1256.0,0.0010772205987091034
1255.0,0.0010899822501460052
1254.0,0.001118448388259555
1253.0,0.0011523636113326572
1252.0,0.0011787666354718639
1251.0,0.0011974268462864738
1250.0,0.0012150704738038143
1249.0,0.0012335434267521962
1248.0,0.0012517367231660147
1247.0,0.0012724226796728367
1246.0,0.0012982082975921553
1245.0,0.001325332084843635
1244.0,0.0013468972912723696
1243.0,0.0013607941286285282
1242.0,0.0013710588487016633
1241.0,0.0013840361022035867
1240.0,0.001405234446922263
1239.0,0.0014356776714525895
1238.0,0.0014683860605583321
1237.0,0.001492597373104
1236.0,0.0015039976167537826
1235.0,0.0015081368217751056
1234.0,0.0015141630119909792
1233.0,0.0015295985802642898
1232.0,0.0015601326091579139
1231.0,0.0016057455526422432
1230.0,0.0016547655016281955
1229.0,0.0016906683201051596
1228.0,0.001709264878428176
1227.0,0.0017239403919390066
1226.0,0.0017500211542934591
1225.0,0.0017873490737589561
1224.0,0.0018221129943742694
1223.0,0.0018428478844838038
1222.0,0.0018512946248370856
1221.0,0.0018602490957833435
1220.0,0.001883627948285567
1219.0,0.001925637658189639
1218.0,0.00197673262694962
1217.0,0.0020229779565937734
1216.0,0.002060057667613222
1215.0,0.0020953436756942154
1214.0,0.00213680555689052
1213.0,0.002184749135188486
1212.0,0.002236071356936529
1211.0,0.002292230287144385
1210.0,0.002359943502180715
1209.0,0.0024443755650675
1208.0,0.0025425943069201547
1207.0,0.0026433335274597975
1206.0,0.0027357862151208036
1205.0,0.0028209879370125757
1204.0,0.0029118720987461877
1203.0,0.00301940191794532
1202.0,0.0031397929992611675
1201.0,0.0032574427178540272
1200.0,0.0033577422627165815
1199.0,0.003434785833712227
1198.0,0.003491232436487293
1197.0,0.0035361442015359387
1196.0,0.0035815839386105705
1195.0,0.003637132762037981
1194.0,0.003705775561599487
1193.0,0.003785464418159445
1192.0,0.0038742654048099564
1191.0,0.003972332638233288
1190.0,0.004080440533766222
1189.0,0.00420002938715173
1188.0,0.004335960301523795
1187.0,0.004497777089251486
1186.0,0.004695544978124543
1185.0,0.004930203533897292
1184.0,0.0051844139146178456
1183.0,0.005424087880559468
1182.0,0.005614585852348296
1181.0,0.0057371829754152715
1180.0,0.005789608014652078
1179.0,0.005778932169030982
1178.0,0.00572198728680115
1177.0,0.005646868852044596
1176.0,0.0055834772033579744
1175.0,0.00554973969553489
1174.0,0.005545165488022176
1173.0,0.005554099856711318
1172.0,0.005554598779122488
1171.0,0.00552929794565931
1170.0,0.005476390589093192
1169.0,0.005412182267041845
1168.0,0.005360112141425998
1167.0,0.005335271530590293
1166.0,0.0053379617105983185
1165.0,0.0053587756339871315
1164.0,0.005388104173582828
1163.0,0.005423300023231239
1162.0,0.005471379985572648
1161.0,0.005546098832812372
1160.0,0.00566056103013305
1159.0,0.005820182934765964
1158.0,0.0060178952028589056
1157.0,0.006230553350119782
1156.0,0.006418532352982847
1155.0,0.006536493520240036
1154.0,0.00655620690508669
1153.0,0.0064808638451381954
1152.0,0.006337541418655243
1151.0,0.006162785778598497
1150.0,0.005995600398632431
1149.0,0.005870070027605959
1148.0,0.00580298708202771
1147.0,0.005787761046015069
1146.0,0.005803379757270608
1145.0,0.005829704406695094
1144.0,0.00585509682102495
1143.0,0.0058761802127801615
1142.0,0.00589791796850974
1141.0,0.005932637976648142
1140.0,0.0059912136468557135
1139.0,0.006071418458049238
1138.0,0.006155825239987105
1137.0,0.006222649683125931
1136.0,0.006260036246521524
1135.0,0.0062740080626431
1134.0,0.0062844533080270385
1133.0,0.006309010317490864
1132.0,0.006348454916294365
1131.0,0.0063900272227972385
1130.0,0.0064246838557343935
1129.0,0.006455488581239248
1128.0,0.006487365125351981
1127.0,0.006516177145187825
1126.0,0.006533831068440844
1125.0,0.006539622364769314
1124.0,0.006540621682262018
1123.0,0.006543766070729838
1122.0,0.006551656274184253
1121.0,0.0065634664887122465
1120.0,0.006576296685766245
1119.0,0.006587091194522769
1118.0,0.006595135972198794
1117.0,0.006601003890232715
1116.0,0.0066032751636295565
1115.0,0.006599997194866881
1114.0,0.0065924047421715756
1113.0,0.006581563599865819
1112.0,0.0065622612465631915
1111.0,0.006528702850858315
1110.0,0.006487720741778334
1109.0,0.006458188379783698
1108.0,0.006453437158197956
1107.0,0.00646825695824879
1106.0,0.0064861417465234255
1105.0,0.006493931663706409
1104.0,0.006489704352693238
1103.0,0.006483053532709343
1102.0,0.006488883620184412
1101.0,0.006513850752847317
1100.0,0.006547227433690777
1099.0,0.0065709317090683235
1098.0,0.006579254564238435
1097.0,0.006580759088843464
1096.0,0.006583434621683579
1095.0,0.00658952760948249
1094.0,0.0066043914332780205
1093.0,0.006634760739762021
1092.0,0.006673975821945087
1091.0,0.006703001536622196
1090.0,0.006713058771959761
1089.0,0.006715313339873859
1088.0,0.006721754564067839
1087.0,0.006729822375879135
1086.0,0.006734707849904284
1085.0,0.006744162192212416
1084.0,0.006768580185351295
1083.0,0.006805104677882118
1082.0,0.006843614106174628
1081.0,0.00688178020664193
1080.0,0.006923148673123757
1079.0,0.006967016979778222
1078.0,0.007012379024011896
1077.0,0.007067030888073811
1076.0,0.007139820191575025
1075.0,0.007224953704424839
1074.0,0.007304067609074179
1073.0,0.007364213234669055
1072.0,0.007406695287813162
1071.0,0.007438353244846563
1070.0,0.007458472356124662
1069.0,0.007452525225870858
1068.0,0.007397162125218383
1067.0,0.007277292501671915
1066.0,0.0071023246077570445
1065.0,0.006900792575695411
1064.0,0.006697911865258109
1063.0,0.006503246345258083
1062.0,0.006316171487101039
1061.0,0.006134234117559619
1060.0,0.005957432108663292
1059.0,0.005792138453373643
1058.0,0.005649790887276518
1057.0,0.005534136914765581
1056.0,0.005431240580440413
1055.0,0.005320686853654945
1054.0,0.005197826173380587
1053.0,0.005077436600912507
1052.0,0.004973024673137254
1051.0,0.00488178121710792
1050.0,0.004796980785812586
1049.0,0.004725644800197933
1048.0,0.0046801324807193255
1047.0,0.004655041653300867
1046.0,0.004624501243878859
1045.0,0.004565003199196858
1044.0,0.004476698186157119
1043.0,0.004383363644556602
1042.0,0.004315081500869452
1041.0,0.004290937986557455
1040.0,0.00431593663872583
1039.0,0.004389538755322697
1038.0,0.004514966183164758
1037.0,0.004704516361472389
1036.0,0.004979285005001657
1035.0,0.005358825125336095
1034.0,0.005842080325192263
1033.0,0.0063949128797675826
1032.0,0.006957665032920954
1031.0,0.007467430419451552
1030.0,0.007874568807786756
1029.0,0.008138716152389983
1028.0,0.008219664372486524
1027.0,0.008094580523414345
1026.0,0.00778874917332447
1025.0,0.007370949565019453
1024.0,0.006913492835738222
1023.0,0.006466016637604925
1022.0,0.006057402044707182
1021.0,0.005700060211308408
1020.0,0.005389951695830578
1019.0,0.0051156662145123485
1018.0,0.004871768000956638
1017.0,0.0046587907632752844
1016.0,0.004473861293265066
1015.0,0.0043108639693671975
1014.0,0.004167751687559932
1013.0,0.0040436803067938985
1012.0,0.003930509445496534
1011.0,0.0038192712587425057
1010.0,0.0037168400747355362
1009.0,0.0036445532052629993
1008.0,0.0036151744865635417
1007.0,0.0036185905602354775
1006.0,0.003633213186017505
1005.0,0.0036413270112796523
1004.0,0.0036256403267777085
1003.0,0.00356128817826362
1002.0,0.0034284480212744307
1001.0,0.003234830479055659
1000.0,0.0030165743860042435
999.0,0.002814219646061402
998.0,0.002649115816747913
997.0,0.002519691101958304
996.0,0.002413587719726138
995.0,0.0023201922183570065
994.0,0.0022360259325049335
993.0,0.002164128913245437
992.0,0.0021087352000823054
991.0,0.002068135583914143
990.0,0.00203363602190155
989.0,0.0019985705266174457
988.0,0.0019671071583540114
987.0,0.0019493672612489917
986.0,0.0019472821611821768
985.0,0.0019501825752574666
984.0,0.0019464293389149703
983.0,0.0019349393743003703
982.0,0.0019217948972945
981.0,0.0019086901122736567
980.0,0.0018890430104560457
979.0,0.001853267656109523
978.0,0.0017929477297639468
977.0,0.0017022674916812395
976.0,0.0015843780850070734
975.0,0.001459658921811588
974.0,0.0013597504581764393
973.0,0.001306058716092023
972.0,0.0012961145411490554
971.0,0.0013127959063745972
970.0,0.0013422577074372385
969.0,0.0013797512822030164
968.0,0.0014227356788077492
967.0,0.001465295614001728
966.0,0.0014988854126820276
965.0,0.0015129598394592447
964.0,0.0014944580431052509
963.0,0.0014332923418588859
962.0,0.0013321839762968617
961.0,0.0012073946060902375
960.0,0.0010772238553527665
959.0,0.0009519246924559127
958.0,0.0008342284948797173
957.0,0.0007251397704415869
956.0,0.000627277633060524
955.0,0.0005447404289720655
954.0,0.00048135555484568604
953.0,0.00043848194738274615
952.0,0.0004140866233098197
951.0,0.0004045952330559554
950.0,0.00040765072725600527
949.0,0.0004218341101288846
948.0,0.00044383596965970155
947.0,0.000468625706063275
946.0,0.0004936501543888186
945.0,0.0005193596333461659
944.0,0.0005419657828671194
943.0,0.0005485767375026564
942.0,0.0005257695864634279
941.0,0.0004737568091009118
940.0,0.0004078770179107242
939.0,0.0003450664434052923
938.0,0.00029120149049112736
937.0,0.00024139583459413354
936.0,0.000188921346234573
935.0,0.00013213779109677842
934.0,7.602376429850354e-05
933.0,2.8908291008493577e-05
932.0,-5.4698327708524105e-06
931.0,-3.449884676322984e-05
930.0,-7.059010546658917e-05
929.0,-0.00011444440193383865
928.0,-0.0001493354734350182
927.0,-0.0001585627280811545
926.0,-0.0001454694551790911
925.0,-0.0001283422792698677
924.0,-0.0001174623744375292
923.0,-0.00010627505701750646
922.0,-8.375178779705932e-05
921.0,-4.404243372952473e-05
920.0,1.7798799219830366e-05
919.0,0.0001066744355797157
918.0,0.0002173157015093836
917.0,0.0003340339719286158
916.0,0.000450420308311752
915.0,0.0005836227550814269
914.0,0.0007593631345101954
913.0,0.0009843278890740437
912.0,0.0012399318606148985
911.0,0.0015000506750766328
910.0,0.001746358929846814
909.0,0.001966296588595857
908.0,0.002144897035556004
907.0,0.002264820275359741
906.0,0.0023106225131292353
905.0,0.0022684368256313554
904.0,0.0021285653047681524
903.0,0.0018998360676257195
902.0,0.0016186147651399418
901.0,0.0013312985862910815
900.0,0.0010666274401468188
899.0,0.0008297809496042394
898.0,0.0006177923466218881
897.0,0.0004323055807672069
896.0,0.00027865225994691024
895.0,0.00015827830873969134
894.0,6.402304835009896e-05
893.0,-1.63788302926602e-05
892.0,-8.988803517855255e-05
891.0,-0.00015282333641937224
890.0,-0.00019959192435612186
889.0,-0.00023383262887100888
888.0,-0.0002627961860551687
887.0,-0.0002806534554598821
886.0,-0.0002681783203603372
885.0,-0.0002150059124303473
884.0,-0.0001349308626710042
883.0,-5.227551574545682e-05
882.0,2.2447360897717185e-05
881.0,9.672753041544899e-05
880.0,0.00018019024884825038
879.0,0.00027344557994087634
878.0,0.000369693289174286
877.0,0.0004563575468697753
876.0,0.0005149672919890604
875.0,0.0005298622882035156
874.0,0.0004991720469646899
873.0,0.00042878149471352756
872.0,0.00031768765080638067
871.0,0.0001645990049229983
870.0,-9.97397164348348e-06
869.0,-0.00016566390286802853
868.0,-0.0002739857981193996
867.0,-0.0003397686773072015
866.0,-0.00038709052730001407
865.0,-0.00043213165105188047
864.0,-0.00047611860159643953
863.0,-0.0005169998864892151
862.0,-0.0005552168982837086
861.0,-0.0005875017238561606
860.0,-0.0006058866657639873
859.0,-0.0006088087903967938
858.0,-0.0006071204475429411
857.0,-0.0006117020582054053
856.0,-0.0006173199038674
855.0,-0.0006064484418974656
854.0,-0.0005708844962380279
853.0,-0.000522672246980215
852.0,-0.00047765084838060495
851.0,-0.00043217614883410155
850.0,-0.00036494661023209456
849.0,-0.00026373872210977683
848.0,-0.0001434728332420608
847.0,-3.2270139740621893e-05
846.0,5.6491199517870634e-05
845.0,0.00012963763237576476
844.0,0.00019278128234880877
843.0,0.000234913828696468
842.0,0.0002400883928388416
841.0,0.00020755853910233053
840.0,0.0001531182856842955
839.0,9.327857757236713e-05
838.0,3.254390148365975e-05
837.0,-3.5250318298553004e-05
836.0,-0.00011557284050129225
835.0,-0.00020340588490721546
834.0,-0.00028568048760543256
833.0,-0.0003552406736840189
832.0,-0.000419952326153444
831.0,-0.0004928404139384942
830.0,-0.0005728700961593535
829.0,-0.0006397598064076951
828.0,-0.0006696473355626434
827.0,-0.0006549113044146508
826.0,-0.0006112583505095805
825.0,-0.0005697585412821043
824.0,-0.0005592740686022066
823.0,-0.0005855464693495776
822.0,-0.0006227686314313448
821.0,-0.0006354156533819886
820.0,-0.0006132039608347586
819.0,-0.0005781766007562899
818.0,-0.000555500224789245
817.0,-0.0005443322149890229
816.0,-0.0005244307362757741
815.0,-0.00048809340194615105
814.0,-0.0004545045486378692
813.0,-0.00044807197996989817
812.0,-0.00046998640877124985
811.0,-0.0004984076343760363
810.0,-0.0005129110059820972
809.0,-0.000510666657571825
808.0,-0.0004997508379278757
807.0,-0.00048707337097706263
806.0,-0.0004787009757919328
805.0,-0.0004838561235526789
804.0,-0.0005063424574173843
803.0,-0.0005322711375444732
802.0,-0.0005370588107188349
801.0,-0.0005094363378183465
800.0,-0.00046292653490813147
799.0,-0.00042100784771566
798.0,-0.00039522247192428587
797.0,-0.000379183113432921
796.0,-0.000357992771670302
795.0,-0.0003192068947000821
794.0,-0.0002617604763899316
793.0,-0.0002000292919656036
792.0,-0.00015228155388988425
791.0,-0.00011804033939214788
790.0,-7.243573832069021e-05
789.0,8.076095537662073e-06
788.0,0.00011835992149579304
787.0,0.00023117905992693644
786.0,0.00032670788249613246
785.0,0.00040586441359634524
784.0,0.00047947861197009285
783.0,0.0005604615710329049
782.0,0.0006677761622942823
781.0,0.0008220741189454411
780.0,0.0010295585041115093
779.0,0.0012771098873192895
778.0,0.0015472324826636945
777.0,0.0018323838996208586
776.0,0.0021341217007943072
775.0,0.002459578171029181
774.0,0.0028237251301817465
773.0,0.0032434624376532512
772.0,0.003722334354629096
771.0,0.004247575422462872
770.0,0.0048033289366824425
769.0,0.005375091016374225
768.0,0.005939485171338852
767.0,0.006471227611103789
766.0,0.00697184940537238
765.0,0.00747091525950631
764.0,0.007984621535181924
763.0,0.008493220095325698
762.0,0.008975078017772826
761.0,0.009441681475013657
760.0,0.009917989296604576
759.0,0.010402834391542031
758.0,0.010862605453210675
757.0,0.011247212399280178
756.0,0.011503154129116275
755.0,0.011601506815444099
754.0,0.011576063993154792
753.0,0.011508781722619616
752.0,0.011460495857156205
751.0,0.011438850820724412
750.0,0.011434242365151934
749.0,0.011441283358471839
748.0,0.011423403166489255
747.0,0.011294921705214706
746.0,0.010973649021935185
745.0,0.010437492309744622
744.0,0.009716545392898304
743.0,0.0088628424486927
742.0,0.007951319551465497
741.0,0.007074570673508057
740.0,0.006294878418165482
739.0,0.005603907408886992
738.0,0.004947904385752636
737.0,0.004290085894754658
736.0,0.0036402253480865288
735.0,0.0030339233976759035
734.0,0.0024957735451188387
733.0,0.002020690105712047
732.0,0.0015845153690604782
731.0,0.0011730961379384178
730.0,0.000802142050512324
729.0,0.0005030077077743614
728.0,0.00028721467301803805
727.0,0.0001315725317323508
726.0,9.581593268647576e-07
725.0,-0.00012237299849647207
724.0,-0.00023660184177045143
723.0,-0.00033593172058025804
722.0,-0.00041717179064968204
721.0,-0.00047773418852383766
720.0,-0.0005210636143509004
719.0,-0.0005611728396928365
718.0,-0.0006068667805914692
717.0,-0.0006427799808450662
716.0,-0.0006379600453921292
715.0,-0.0005751251914682138
714.0,-0.0004633839380441748
713.0,-0.00030989736355605327
712.0,-8.066735938705959e-05
711.0,0.0002964927632948377
710.0,0.0008880136498445254
709.0,0.001725344277888518
708.0,0.0028215229715168304
707.0,0.004198431907823487
706.0,0.0058833464160821854
705.0,0.007883728776873884
704.0,0.01017775778078911
703.0,0.012733576189971556
702.0,0.015527031609717738
701.0,0.01852607248021037
700.0,0.021660812209386454
699.0,0.024819572124618966
698.0,0.027848635033415677
697.0,0.0304967076528427
696.0,0.03236155930219399
695.0,0.03300186982692361
694.0,0.03219942786739876
693.0,0.030105881160632758
692.0,0.027130199996856924
691.0,0.023736568875026974
690.0,0.020333826350929264
689.0,0.017235643649422337
688.0,0.014619550262897987
687.0,0.012515444963696495
686.0,0.010860327556449122
685.0,0.00955785115546964
684.0,0.008499694969392062
683.0,0.007592433564102611
682.0,0.006794971751526137
681.0,0.006106731258036003
680.0,0.005513897996267624
679.0,0.004979741011304072
678.0,0.004493887250452324
677.0,0.004087419520923117
676.0,0.003781920133100058
675.0,0.003554941273956608
674.0,0.0033677358363903495
673.0,0.0031967210647866756
672.0,0.003020838169187518
671.0,0.0028222532632426
670.0,0.002591734852585955
669.0,0.002344434355049158
668.0,0.0021405194948597665
667.0,0.002023005063045402
666.0,0.001922510297240821
665.0,0.0017691528274009927
664.0,0.001600413163844041
663.0,0.0014529606548346254
662.0,0.0013190278372749494
661.0,0.0012008111509284446
660.0,0.001115102765870615
659.0,0.0010476326674008826
658.0,0.0009548430323745947
657.0,0.0008151951780156885
656.0,0.00065116734619413
655.0,0.0005014149501972667
654.0,0.00039511155273969784
653.0,0.00034265971723983213
652.0,0.00032938252103841513
651.0,0.0003180498791816484
650.0,0.00027118062200955605
649.0,0.00018149847660214533
648.0,7.750397115088674e-05
647.0,2.8165062564561305e-06
646.0,-1.5153205293820526e-05
645.0,4.8532752714436356e-06
644.0,2.924201431431933e-07
643.0,-7.969294413529178e-05
642.0,-0.00021251119689837464
641.0,-0.0003203302434262329
640.0,-0.0003535864332869145
639.0,-0.00033202453671938095
638.0,-0.0002996262029106734
637.0,-0.0002682488393422038
636.0,-0.00022703579331264864
635.0,-0.00017834346267753265
634.0,-0.00013896668412170451
633.0,-0.00012717611335713933
632.0,-0.00016635532093877727
631.0,-0.0002716261344931827
630.0,-0.0004107728199977661
629.0,-0.000515554139300621
628.0,-0.0005495347954244945
627.0,-0.0005339741379390573
626.0,-0.0004970054452141416
625.0,-0.00043176162112815164
624.0,-0.00033027358300398955
623.0,-0.00022248864599867628
622.0,-0.00014262445018380608
621.0,-8.828927885900541e-05
620.0,-5.3061873811991594e-05
619.0,-6.81376124324045e-05
618.0,-0.0001618268197282665
617.0,-0.00029781001138399175
616.0,-0.0004037148754517175
615.0,-0.0004502517011506762
614.0,-0.0004653141896470772
613.0,-0.0004869344681693623
612.0,-0.0005355966946650349
611.0,-0.0006099082632191888
610.0,-0.0006792494517272145
609.0,-0.0007044840227084237
608.0,-0.0006839666395937471
607.0,-0.0006563057826629616
606.0,-0.0006448058971876783
605.0,-0.0006306153904991393
604.0,-0.0006002651428122421
603.0,-0.0005726579177549908
602.0,-0.0005549327392211333
601.0,-0.0005285578598296491
600.0,-0.0005077982272710287
