cm-1,A
4000.0,-0.002186208932911743
3999.0,-0.0021899290733210335
3998.0,-0.0021769906840899667
3997.0,-0.0021464559569585014
3996.0,-0.0021083321396605887
3995.0,-0.002076140181217318
3994.0,-0.0020625770205444814
3993.0,-0.002076959517216039
3992.0,-0.0021186604036811402
3991.0,-0.0021667805143508662
3990.0,-0.0021856189750817734
3989.0,-0.002153453012872301
3988.0,-0.0020879615527785306
3987.0,-0.0020399100515895545
3986.0,-0.0020498179746136404
3985.0,-0.0021154273324109525
3984.0,-0.0021933041347287387
3983.0,-0.0022290219337992912
3982.0,-0.0021934328041097063
3981.0,-0.0020955612791207614
3980.0,-0.0019768710490220076
3979.0,-0.0018846523025542517
3978.0,-0.0018449386888194181
3977.0,-0.001845496012916914
3976.0,-0.001843943301269123
3975.0,-0.0018120786626091624
3974.0,-0.0017699657987581528
3973.0,-0.0017730507278017305
3972.0,-0.0018500791487641697
3971.0,-0.001964451740925959
3970.0,-0.0020424553416736324
3969.0,-0.002032404196853843
3968.0,-0.001949387272906344
3967.0,-0.0018516000870929998
3966.0,-0.0017841913246395222
3965.0,-0.0017503609369542118
3964.0,-0.0017265331411994104
3963.0,-0.001700829140256072
3962.0,-0.0016852283191037562
3961.0,-0.0016936829166984571
3960.0,-0.0017179151754161226
3959.0,-0.0017347085628197376
3958.0,-0.0017361207872381953
3957.0,-0.0017344564746696951
3956.0,-0.0017491092300108986
3955.0,-0.0017963852839165979
3954.0,-0.0018856771541732988
3953.0,-0.0020074952262451066
3952.0,-0.0021278498116280757
3951.0,-0.0021957395452998985
3950.0,-0.002171150608689526
3949.0,-0.002061914463724359
3948.0,-0.0019257205581880807
3947.0,-0.0018223736043682889
3946.0,-0.0017665346886425817
3945.0,-0.0017580419386948893
3944.0,-0.0018042566492711114
3943.0,-0.0018914581342779951
3942.0,-0.0019750002920224975
3941.0,-0.0019910477507999423
3940.0,-0.0018977462300963789
3939.0,-0.0017332469210491273
3938.0,-0.001599926929944119
3937.0,-0.0015670724408031545
3936.0,-0.0016246157139790044
3935.0,-0.0017202136210970403
3934.0,-0.0018119033716003923
3933.0,-0.0018727010278369665
3932.0,-0.0018792538911857701
3931.0,-0.001842018214335333
3930.0,-0.0018045698193161885
3929.0,-0.0018128419800921597
3928.0,-0.0018941659258740944
3927.0,-0.0020235845226473565
3926.0,-0.002124038721759331
3925.0,-0.0021126285373831793
3924.0,-0.001997882627104923
3923.0,-0.0018718571644860767
3922.0,-0.0017799820382212
3921.0,-0.0017237591087137418
3920.0,-0.0016782938336793484
3919.0,-0.0015812471285520271
3918.0,-0.0014343241862187208
3917.0,-0.0013421009943715943
3916.0,-0.0013758102734829243
3915.0,-0.001469076928366898
3914.0,-0.0015124854032431655
3913.0,-0.0014933312568105744
3912.0,-0.0014756809646684352
3911.0,-0.0014960725452476756
3910.0,-0.0015567406286126884
3909.0,-0.0016522186164979675
3908.0,-0.001791256738219912
3907.0,-0.0019596902255714465
3906.0,-0.0020962364753660187
3905.0,-0.002110195297152541
3904.0,-0.0020030798062484513
3903.0,-0.0019088768501112359
3902.0,-0.00189094762164916
3901.0,-0.0018804143586915356
3900.0,-0.0018295079295515327
3899.0,-0.001755630015368863
3898.0,-0.0016678988957206605
3897.0,-0.001554713505613984
3896.0,-0.0014718538854140656
3895.0,-0.0015246628088614643
3894.0,-0.0017092455885228824
3893.0,-0.001852216420457155
3892.0,-0.0018008492134179185
3891.0,-0.0016849913851599593
3890.0,-0.0016924251932673318
3889.0,-0.0016864372600408344
3888.0,-0.0015522064133727414
3887.0,-0.00141705030099299
3886.0,-0.001390269226826198
3885.0,-0.0014952731884339953
3884.0,-0.0016820231460125147
3883.0,-0.0017590616798404083
3882.0,-0.0016766023532672073
3881.0,-0.0015645777879234103
3880.0,-0.00156001802299626
3879.0,-0.0017112305523987964
3878.0,-0.0018390278675501975
3877.0,-0.00181636705044118
3876.0,-0.0017873132301981355
3875.0,-0.0018846452520857038
3874.0,-0.0020976638376714565
3873.0,-0.0023478062204168124
3872.0,-0.0024889765001809873
3871.0,-0.0024135312737815257
3870.0,-0.0022062695343456175
3869.0,-0.002105301868541368
3868.0,-0.0021011797438454834
3867.0,-0.0019463441184416612
3866.0,-0.0017172462680086693
3865.0,-0.0016126029351328035
3864.0,-0.001602418077229216
3863.0,-0.0016357726667571336
3862.0,-0.0016852282578503114
3861.0,-0.0017145824483400852
3860.0,-0.0017623518822850225
3859.0,-0.0018711084642032642
3858.0,-0.002058488983969716
3857.0,-0.002292872132292911
3856.0,-0.0024861334148141017
3855.0,-0.0024568479129154015
3854.0,-0.001990196807155522
3853.0,-0.001522826589798396
3852.0,-0.001691138776663175
3851.0,-0.001839839249147998
3850.0,-0.001531996929759849
3849.0,-0.0012500079553589886
3848.0,-0.0012683066624593648
3847.0,-0.0014542435092901591
3846.0,-0.001630259880527392
3845.0,-0.001725695852186685
3844.0,-0.0017592537176369704
3843.0,-0.0018410013702446098
3842.0,-0.0020516832681221346
3841.0,-0.0022973611132119233
3840.0,-0.0023977018426003006
3839.0,-0.002290861595792974
3838.0,-0.0021748980355750635
3837.0,-0.0022230797919814173
3836.0,-0.0023048836812067453
3835.0,-0.002218586004078197
3834.0,-0.001974526769951928
3833.0,-0.0017167851111953316
3832.0,-0.0015668313430854531
3831.0,-0.0015541087260015948
3830.0,-0.0016054507811872443
3829.0,-0.0016233883979870072
3828.0,-0.0015842489744265942
3827.0,-0.0015383259426692472
3826.0,-0.0015539947573571257
3825.0,-0.0016309308223263403
3824.0,-0.0016989937506399456
3823.0,-0.0017614451176446782
3822.0,-0.0018414163830846619
3821.0,-0.0019445769775660324
3820.0,-0.0022390109994523855
3819.0,-0.002489803068197229
3818.0,-0.002299909354361643
3817.0,-0.0018214913607205836
3816.0,-0.001395731746001442
3815.0,-0.0012470297344581748
3814.0,-0.0012292077194774242
3813.0,-0.0010623310188569205
3812.0,-0.0008776048795641416
3811.0,-0.0009235053066879248
3810.0,-0.001140595936215767
3809.0,-0.0013162939858777766
3808.0,-0.001335714445467853
3807.0,-0.0013078403584282805
3806.0,-0.0014603865250992928
3805.0,-0.0017249544175532712
3804.0,-0.0018502519295775098
3803.0,-0.001816234544834314
3802.0,-0.0016338909681213895
3801.0,-0.001496981475618426
3800.0,-0.0016490106051518572
3799.0,-0.0017200766374068567
3798.0,-0.00148962593196956
3797.0,-0.0012273682248752492
3796.0,-0.0011278881978637081
3795.0,-0.001150573529194242
3794.0,-0.0011249670660983546
3793.0,-0.0009932241126378051
3792.0,-0.0008579824401585039
3791.0,-0.0007859494109692021
3790.0,-0.0007465165576141852
3789.0,-0.0007278728050907532
3788.0,-0.0007615461550238569
3787.0,-0.0008470680111388336
3786.0,-0.0009270612332055823
3785.0,-0.000970194953179635
3784.0,-0.001025347267769098
3783.0,-0.0011343643473284858
3782.0,-0.0012602945029065208
3781.0,-0.0013510958392992484
3780.0,-0.001350651075989253
3779.0,-0.0012425527051368485
3778.0,-0.0010966911061364448
3777.0,-0.0009207481819020308
3776.0,-0.0007125975061208786
3775.0,-0.0005866710206496068
3774.0,-0.0006362543280284437
3773.0,-0.0008086208591355216
3772.0,-0.000973890167588438
3771.0,-0.0010285486454943563
3770.0,-0.0009721200167264177
3769.0,-0.0009220806435233
3768.0,-0.0009362335922591163
3767.0,-0.0009570107102460784
3766.0,-0.0009692766953874133
3765.0,-0.0009870979226860531
3764.0,-0.0009948617176364042
3763.0,-0.0009566594210773449
3762.0,-0.0009228608400451142
3761.0,-0.0010299648419794794
3760.0,-0.0012629716029143013
3759.0,-0.0014342378239409303
3758.0,-0.0014556565939466304
3757.0,-0.001394995774088243
3756.0,-0.0013280597028582793
3755.0,-0.0013068856690254883
3754.0,-0.001403254189524559
3753.0,-0.001656861301282594
3752.0,-0.0019129018119885086
3751.0,-0.0019518734831115948
3750.0,-0.0019380814831213566
3749.0,-0.002042534349747901
3748.0,-0.0020459875771288846
3747.0,-0.0017937892034892357
3746.0,-0.0013819138462906548
3745.0,-0.0009511605117934324
3744.0,-0.0008083746961992346
3743.0,-0.0010773838800959708
3742.0,-0.0012222217145078404
3741.0,-0.0010899649688458177
3740.0,-0.001105722701616234
3739.0,-0.0013540594466823405
3738.0,-0.0016171056180185452
3737.0,-0.0017855295774279667
3736.0,-0.0018895529896874148
3735.0,-0.0019186694405706455
3734.0,-0.0017906906138283744
3733.0,-0.0014489500177540702
3732.0,-0.0010352362846956609
3731.0,-0.0007515705061957623
3730.0,-0.0005982573085658815
3729.0,-0.000499744198888523
3728.0,-0.0004738671889964723
3727.0,-0.0005316536769315637
3726.0,-0.0006023839214037643
3725.0,-0.0006275406626727237
3724.0,-0.0006044642432647187
3723.0,-0.000578249634206866
3722.0,-0.0005740737875623363
3721.0,-0.0005596432755718513
3720.0,-0.0004937316812759396
3719.0,-0.0003883660262637011
3718.0,-0.0003209446731591947
3717.0,-0.00034848333648733
3716.0,-0.0004385770438393406
3715.0,-0.0005176597309590197
3714.0,-0.0005601820567343471
3713.0,-0.0005458660332814727
3712.0,-0.00042443214376584757
3711.0,-0.00030365098465186437
3710.0,-0.00031372369166835054
3709.0,-0.0002878384247950767
3708.0,-0.0001053060229061058
3707.0,0.00011413041062267483
3706.0,0.0002481659377302473
3705.0,0.00031129744579691613
3704.0,0.000401943809457002
3703.0,0.0005962214769497204
3702.0,0.0008579375322800088
3701.0,0.0010275697071212802
3700.0,0.0010527384610519053
3699.0,0.001079687935295924
3698.0,0.0012011889746221759
3697.0,0.001346023359807639
3696.0,0.001403537134930187
3695.0,0.0013286935152844119
3694.0,0.0011371699573701057
3693.0,0.0008753044625429538
3692.0,0.0006603680330284132
3691.0,0.0007131773302165325
3690.0,0.0011192458914848886
3689.0,0.00154906222544789
3688.0,0.0016837722573114266
3687.0,0.0017241624979803289
3686.0,0.0019429586389827069
3685.0,0.002258190890785818
3684.0,0.002455689152320125
3683.0,0.0024845829109004414
3682.0,0.002440049192287417
3681.0,0.002388147590234515
3680.0,0.0022712223721992665
3679.0,0.002026360844200148
3678.0,0.0017591704682325669
3677.0,0.0017383748805003736
3676.0,0.0021934635278899758
3675.0,0.00265363354931107
3674.0,0.002619989797525697
3673.0,0.0026334837708321237
3672.0,0.0029955999351408955
3671.0,0.0035041006269120444
3670.0,0.004086714946110879
3669.0,0.0044252646130591025
3668.0,0.0044649599809310735
3667.0,0.004615661333274875
3666.0,0.0049316666300828335
3665.0,0.005236748098309053
3664.0,0.005488630168860761
3663.0,0.005719272754209531
3662.0,0.005936616903701972
3661.0,0.00612023033563384
3660.0,0.006267844414159741
3659.0,0.006414654979874138
3658.0,0.006618334039209109
3657.0,0.006913016010840142
3656.0,0.007212477888055025
3655.0,0.007386935926638305
3654.0,0.007507519176015298
3653.0,0.007667965297768157
3652.0,0.007830702867587304
3651.0,0.00812199544193203
3650.0,0.00875528378138773
3649.0,0.009189478656664167
3648.0,0.008898855524960149
3647.0,0.008549280352160921
3646.0,0.008688064027559169
3645.0,0.00919733132309134
3644.0,0.009828759966821136
3643.0,0.01040776366214016
3642.0,0.01085878084574288
3641.0,0.011161537817918203
3640.0,0.011358813713248017
3639.0,0.011524929029446091
3638.0,0.01170311595775752
3637.0,0.011913883948907604
3636.0,0.012183384789213323
3635.0,0.012496333736307985
3634.0,0.012775682286370774
3633.0,0.012941275492042478
3632.0,0.013010799668303713
3631.0,0.013067054236289193
3630.0,0.0133122003977915
3629.0,0.013915911150226301
3628.0,0.014416058300708297
3627.0,0.014594528333236564
3626.0,0.014927975162292202
3625.0,0.015420370412372639
3624.0,0.015789237225825554
3623.0,0.015999167016733786
3622.0,0.01615362821500383
3621.0,0.0163483114689993
3620.0,0.016632845624222518
3619.0,0.016958070753190897
3618.0,0.017194930862851995
3617.0,0.017381072171125767
3616.0,0.017626708638098662
3615.0,0.017911908528660852
3614.0,0.018208457944959
3613.0,0.018538569064265036
3612.0,0.018903164540644234
3611.0,0.019299477346896805
3610.0,0.019727358274607157
3609.0,0.020175623087545714
3608.0,0.020619591371481383
3607.0,0.020992149656672877
3606.0,0.021287420253767605
3605.0,0.02157212294359737
3604.0,0.02184759346289442
3603.0,0.02206856078985008
3602.0,0.022220361837311315
3601.0,0.022326119737071853
3600.0,0.02243483444083847
3599.0,0.02260940600105493
3598.0,0.022889509090633677
3597.0,0.02326146480671823
3596.0,0.023691746559706416
3595.0,0.024133489172583053
3594.0,0.024517969694927262
3593.0,0.024808942607643197
3592.0,0.025046990425610247
3591.0,0.025275366749412238
3590.0,0.02550832730640933
3589.0,0.02578849868755099
3588.0,0.02616119440111683
3587.0,0.026480609876334705
3586.0,0.02662238346403714
3585.0,0.026787218653011886
3584.0,0.027131137120482648
3583.0,0.027561427593381208
3582.0,0.027954924865173304
3581.0,0.028275123361948405
3580.0,0.028557829263484494
3579.0,0.028857372168263062
3578.0,0.029200175437433414
3577.0,0.029562590828282782
3576.0,0.029910249388367963
3575.0,0.03023964197656881
3574.0,0.03056659349658914
3573.0,0.030876189851260737
3572.0,0.03111946498130724
3571.0,0.031268073916402885
3570.0,0.031373607948704044
3569.0,0.03158112096210611
3568.0,0.032059105175160446
3567.0,0.03270493534574639
3566.0,0.03313523288712274
3565.0,0.03331283437749358
3564.0,0.0335143835394179
3563.0,0.033819046605564916
3562.0,0.034150092183823935
3561.0,0.03446555794858507
3560.0,0.03477302996674741
3559.0,0.03508974884078111
3558.0,0.035428794520786434
3557.0,0.03578452004347834
3556.0,0.03612691893430735
3555.0,0.03643855547878071
3554.0,0.03674435175382576
3553.0,0.03707349871358494
3552.0,0.037373526290493446
3551.0,0.03755266002005286
3550.0,0.03761616637297311
3549.0,0.03767199961489707
3548.0,0.03784475784182719
3547.0,0.03821274076924054
3546.0,0.038732761287676595
3545.0,0.03925545094717105
3544.0,0.03968618500949381
3543.0,0.040044910226977926
3542.0,0.04037165662482164
3541.0,0.040681731100817325
3540.0,0.040985344728004296
3539.0,0.04129921842587037
3538.0,0.041632828632379874
3537.0,0.04197472124945998
3536.0,0.0422999683838643
3535.0,0.04259961194036567
3534.0,0.04288904240586657
3533.0,0.04317745816380655
3532.0,0.043451115633422285
3531.0,0.043697800542505875
3530.0,0.04393462538707326
3529.0,0.04418527231196564
3528.0,0.04444570837872218
3527.0,0.04470377036144496
3526.0,0.044992611103585954
3525.0,0.04537376755973209
3524.0,0.0458478873729692
3523.0,0.0463132918591885
3522.0,0.046662015381722204
3521.0,0.046900139850046374
3520.0,0.047119099912079666
3519.0,0.04738595196449796
3518.0,0.047701010433470734
3517.0,0.048030203431518564
3516.0,0.0483424856899974
3515.0,0.048616816524317756
3514.0,0.04884534372124845
3513.0,0.04905151050255974
3512.0,0.049293321501633625
3511.0,0.04962292157213365
3510.0,0.05003652686463174
3509.0,0.05046696836351641
3508.0,0.05084641007700264
3507.0,0.05116860520315149
3506.0,0.05147518088758734
3505.0,0.05181518929412135
3504.0,0.05222320770704874
3503.0,0.05268280004385487
3502.0,0.053131792894483346
3501.0,0.05352828801832457
3500.0,0.053858659118392965
3499.0,0.05411052136946679
3498.0,0.054304282718678105
3497.0,0.054515483293654375
3496.0,0.05480988940669824
3495.0,0.05515890692360931
3494.0,0.0554712873191081
3493.0,0.05571488193629789
3492.0,0.05595649175795341
3491.0,0.0562752874257214
3490.0,0.056671018105079685
3489.0,0.05707079539766688
3488.0,0.05741068709574608
3487.0,0.05769084145176079
3486.0,0.05795350814869051
3485.0,0.05823819192471823
3484.0,0.05856863710432101
3483.0,0.058954888518839
3482.0,0.0593817951380623
3481.0,0.05980192577458401
3480.0,0.06016801229326516
3479.0,0.06046877547190864
3478.0,0.0607226731644554
3477.0,0.06095632633374232
3476.0,0.06119478246085596
3475.0,0.0614511278465938
3474.0,0.061725357154970455
3473.0,0.06202490516203496
3472.0,0.062370316807819744
3471.0,0.06276401107458529
3470.0,0.06316632693345896
3469.0,0.0635234733749947
3468.0,0.06382219502881503
3467.0,0.06410216289263994
3466.0,0.06440729347695598
3465.0,0.06473977067230043
3464.0,0.06506957340978936
3463.0,0.06537827142105578
3462.0,0.06567990139072181
3461.0,0.06599776358229595
3460.0,0.06633346098287199
3459.0,0.06666665114290692
3458.0,0.06697705853523418
3457.0,0.06725765744608152
3456.0,0.06750628134351001
3455.0,0.06771799800287927
3454.0,0.06789632253526157
3453.0,0.06806561389400959
3452.0,0.06826106109566361
3451.0,0.06850234949147371
3450.0,0.06878178262079972
3449.0,0.06907480224731351
3448.0,0.0693615962019521
3447.0,0.06963533060482067
3446.0,0.06989767908215315
3445.0,0.07015612261561482
3444.0,0.07041564979263179
3443.0,0.07067661628940758
3442.0,0.07094925998290538
3441.0,0.07125065738993536
3440.0,0.07158157945837235
3439.0,0.07191709220139723
3438.0,0.0722239516660741
3437.0,0.07249034510429644
3436.0,0.07273353487789902
3435.0,0.07297809275077112
3434.0,0.07323397557728396
3433.0,0.07349626251143201
3432.0,0.07375921531374545
3431.0,0.07402256995279732
3430.0,0.0742854293074108
3429.0,0.0745377225027609
3428.0,0.07476167753030287
3427.0,0.0749375729540988
3426.0,0.075052190954981
3425.0,0.07511464361211825
3424.0,0.07516952619209208
3423.0,0.07528401661117654
3422.0,0.07550198517627865
3421.0,0.07580126190579792
3420.0,0.07611008743195131
3419.0,0.07637737909077895
3418.0,0.07661108953071633
3417.0,0.07684600932949104
3416.0,0.07709463116229158
3415.0,0.0773346550926675
3414.0,0.07753605979539674
3413.0,0.0776934500090134
3412.0,0.07782993536903818
3411.0,0.07797161962716449
3410.0,0.0781253013899712
3409.0,0.07828260257586665
3408.0,0.07843466395431954
3407.0,0.0785702127144618
3406.0,0.0786666183517257
3405.0,0.07870640525888292
3404.0,0.07870844870834127
3403.0,0.07872689931588987
3402.0,0.0788073081051528
3401.0,0.07895221296718374
3400.0,0.07913433267904134
3399.0,0.07932743130904311
3398.0,0.0795191445071116
3397.0,0.07971228668164482
3396.0,0.07992491351614386
3395.0,0.0801719267206136
3394.0,0.08043083398309317
3393.0,0.08063613236136803
3392.0,0.08072881250821148
3391.0,0.08071118089389412
3390.0,0.0806385207032451
3389.0,0.08056839536651246
3388.0,0.08053616058958175
3387.0,0.08056195994062684
3386.0,0.08064927216294739
3385.0,0.08077478023581168
3384.0,0.0808993848323879
3383.0,0.08099552559239517
3382.0,0.08105554873910924
3381.0,0.0810805759123425
3380.0,0.08108222934799805
3379.0,0.0810940988059172
3378.0,0.08115809370464352
3377.0,0.08128452877372917
3376.0,0.08143567141329215
3375.0,0.08155709189307386
3374.0,0.08161858626982035
3373.0,0.08162129268522324
3372.0,0.0815787482226923
3371.0,0.08150672310123722
3370.0,0.08142717565361667
3369.0,0.08136409243121721
3368.0,0.0813272845125884
3367.0,0.0813063434000494
3366.0,0.08128308543968682
3365.0,0.08124589433946522
3364.0,0.08119466239331023
3363.0,0.08114141486649365
3362.0,0.08110445178943701
3361.0,0.0810889017635984
3360.0,0.08107119025711167
3359.0,0.08101839289026443
3358.0,0.0809279032226239
3357.0,0.08083241717792825
3356.0,0.08075886537725477
3355.0,0.0806986210099288
3354.0,0.08063272279801592
3353.0,0.08056858945661423
3352.0,0.08052584170991398
3351.0,0.08049383839395818
3350.0,0.08043287409896593
3349.0,0.08032540048398844
3348.0,0.08020143644058565
3347.0,0.08009864865887062
3346.0,0.08001359129492852
3345.0,0.07990794246152544
3344.0,0.0797551188888445
3343.0,0.07957067358841434
3342.0,0.07940158874695004
3341.0,0.07928951075656791
3340.0,0.0792340977696127
3339.0,0.07918522723369849
3338.0,0.07908308932071954
3337.0,0.07891812881260803
3336.0,0.078742640379676
3335.0,0.07860926398775658
3334.0,0.07850909782081952
3333.0,0.07838493740770308
3332.0,0.07819200123277967
3331.0,0.07793162589553539
3330.0,0.07764030523707273
3329.0,0.07736731011993636
3328.0,0.07715580998997552
3327.0,0.07701808255035332
3326.0,0.07692015317597253
3325.0,0.07680957044102779
3324.0,0.07666883068505229
3323.0,0.07652716756280015
3322.0,0.07641386724330505
3321.0,0.07631728270117168
3320.0,0.07619868952207616
3319.0,0.07603204706362507
3318.0,0.07582036692704565
3317.0,0.0755870415339349
3316.0,0.0753668723740833
3315.0,0.07519594928787841
3314.0,0.07508702169509886
3313.0,0.07500767873325426
3312.0,0.07489666281749788
3311.0,0.07471274378591115
3310.0,0.07446704055570054
3309.0,0.07420896441606623
3308.0,0.0739860007137168
3307.0,0.07381522923425382
3306.0,0.07368143234959569
3305.0,0.07355040323325047
3304.0,0.07338735841149423
3303.0,0.07317888546753179
3302.0,0.0729483633310684
3301.0,0.07274692082145116
3300.0,0.07261639793136027
3299.0,0.0725500566485291
3298.0,0.07248785078378006
3297.0,0.0723591977029387
3296.0,0.07213952736227458
3295.0,0.07186534589767861
3294.0,0.07159699491895835
3293.0,0.07137354524127307
3292.0,0.07120067275625287
3291.0,0.07106757604837619
3290.0,0.07096187860779844
3289.0,0.07086831051131569
3288.0,0.07076828239871573
3287.0,0.07065073778467623
3286.0,0.07051626931833195
3285.0,0.07036349265596828
3284.0,0.07017992803873914
3283.0,0.0699569311869071
3282.0,0.06970927843882427
3281.0,0.06946813178799474
3280.0,0.06925510613765118
3279.0,0.06907266390276126
3278.0,0.06891572327516934
3277.0,0.06877623515707194
3276.0,0.06863470546086126
3275.0,0.0684681056473034
3274.0,0.06827743985333255
3273.0,0.06809104661963562
3272.0,0.06792774357087125
3271.0,0.06777404659898931
3270.0,0.06761379696755575
3269.0,0.06746085501936869
3268.0,0.06733652825312704
3267.0,0.06722422680571122
3266.0,0.06707656616720434
3265.0,0.06687062120812817
3264.0,0.06663202808527965
3263.0,0.06639914443502307
3262.0,0.06618948620479899
3261.0,0.06600707724825428
3260.0,0.06584929438323972
3259.0,0.06569135408967008
3258.0,0.06549706647883818
3257.0,0.06527000998776311
3256.0,0.0650672692329986
3255.0,0.06493272342703876
3254.0,0.06483598424666435
3253.0,0.06471363347583498
3252.0,0.06455385864526964
3251.0,0.06439440691078521
3250.0,0.06424665835951564
3249.0,0.06407235529753817
3248.0,0.06384474062566974
3247.0,0.06359016165279066
3246.0,0.06334526730506777
3245.0,0.06310487034866213
3244.0,0.0628505319953556
3243.0,0.06261257285397091
3242.0,0.062455478401410816
3241.0,0.06239524889626833
3240.0,0.06235778023899965
3239.0,0.06223369954168634
3238.0,0.061972273096592596
3237.0,0.061618454081704056
3236.0,0.06126626548012342
3235.0,0.06098348836185863
3234.0,0.060773244556686076
3233.0,0.06059290243681035
3232.0,0.06040053806729829
3231.0,0.060186101767371755
3230.0,0.059968288251432085
3229.0,0.05976893386499312
3228.0,0.05958927232638405
3227.0,0.05940550699583377
3226.0,0.05918703955596562
3225.0,0.05892266947807298
3224.0,0.058629970832277715
3223.0,0.058336399649205437
3222.0,0.05805307464016958
3221.0,0.057773266283971544
3220.0,0.057495030550254435
3219.0,0.0572308067085083
3218.0,0.056985774427466135
3217.0,0.056738763453373094
3216.0,0.05646190289237383
3215.0,0.05616050064909845
3214.0,0.05587676014546669
3213.0,0.05563981858215557
3212.0,0.05542357933111718
3211.0,0.05517298594115288
3210.0,0.054868321309084464
3209.0,0.05454742165550445
3208.0,0.054260534518561464
3207.0,0.054019686949436936
3206.0,0.0538034672452247
3205.0,0.05359315835063624
3204.0,0.05338273631032459
3203.0,0.053160610489054134
3202.0,0.0529068472949995
3201.0,0.052614657942377345
3200.0,0.05229657458274644
3199.0,0.05196199605376076
3198.0,0.0516062090593305
3197.0,0.05123469468989333
3196.0,0.05087911591142236
3195.0,0.05056464146087488
3194.0,0.050271272470218516
3193.0,0.04995493131540976
3192.0,0.04960847536126422
3191.0,0.04927860415814419
3190.0,0.04901003336950535
3189.0,0.04878975974115946
3188.0,0.048564313372611786
3187.0,0.04830049316583988
3186.0,0.048010220475042956
3185.0,0.04772025799676286
3184.0,0.04743808379978102
3183.0,0.0471526279533377
3182.0,0.046850714276479126
3181.0,0.04652111027325461
3180.0,0.046156175191474226
3179.0,0.04576645251954665
3178.0,0.04538697759685192
3177.0,0.04505279175917916
3176.0,0.044767576986733996
3175.0,0.044504906138743305
3174.0,0.044235797305622826
3173.0,0.04394745839422081
3172.0,0.04364247307250714
3171.0,0.043332370270750965
3170.0,0.043031296214135
3169.0,0.04274460570011318
3168.0,0.04246178240084472
3167.0,0.04216980884254227
3166.0,0.04187413316246249
3165.0,0.041594462337999266
3164.0,0.04133713929856018
3163.0,0.04108323033106043
3162.0,0.04080883186396656
3161.0,0.040508136432095714
3160.0,0.040192645712620795
3159.0,0.039877443941997465
3158.0,0.039572453088071544
3157.0,0.03927735454161756
3156.0,0.03897927956250123
3155.0,0.03866491908585222
3154.0,0.03834112973130774
3153.0,0.03803413037933348
3152.0,0.0377611695286986
3151.0,0.037510777059293225
3150.0,0.03725745507226497
3149.0,0.036987383516424645
3148.0,0.036702444708451624
3147.0,0.03641004111447342
3146.0,0.03612180170887956
3145.0,0.03585483604308169
3144.0,0.035617977047826745
3143.0,0.035396902651648895
3142.0,0.035164354370130706
3141.0,0.03490642189247754
3140.0,0.03463142408942968
3139.0,0.0343543518565543
3138.0,0.03408158334470222
3137.0,0.03381081745012732
3136.0,0.03353598899471548
3135.0,0.033251986611860136
3134.0,0.03296555728109107
3133.0,0.03270155010308865
3132.0,0.03248427112856165
3131.0,0.0323085365748656
3130.0,0.032139141148388846
3129.0,0.0319412484608141
3128.0,0.03170516747716601
3127.0,0.03144205058482949
3126.0,0.031167016818396738
3125.0,0.03089336789530367
3124.0,0.030634762586940027
3123.0,0.030400088217465423
3122.0,0.030183498115669283
3121.0,0.02996841417402208
3120.0,0.029745531382569003
3119.0,0.029519618832658495
3118.0,0.029296270468323875
3117.0,0.02907178012382692
3116.0,0.02884233677608333
3115.0,0.028615720645907658
3114.0,0.028403129477037378
3113.0,0.028201427833065933
3112.0,0.027996568015528793
3111.0,0.02778669308291333
3110.0,0.027586857669214444
3109.0,0.027403329628574447
3108.0,0.027217376398261977
3107.0,0.027010090167128166
3106.0,0.0267947362337889
3105.0,0.026603579959516035
3104.0,0.02644427727456291
3103.0,0.026289321185881273
3102.0,0.026112177733239962
3101.0,0.025917908265866263
3100.0,0.025729071644573887
3099.0,0.025551452651747405
3098.0,0.025370439890781686
3097.0,0.02517937683619559
3096.0,0.024996712890832253
3095.0,0.024848491661680107
3094.0,0.024736758162126983
3093.0,0.024631035323698484
3092.0,0.024491136552306607
3091.0,0.02429917176685355
3090.0,0.024072891948289352
3089.0,0.023849199850219733
3088.0,0.02365483798793326
3087.0,0.02349149189381778
3086.0,0.02334484943910487
3085.0,0.02320051119698812
3084.0,0.023048357050102462
3083.0,0.022880214554173283
3082.0,0.022694959571590224
3081.0,0.022507171865368276
3080.0,0.022339906235182134
3079.0,0.022198215332156965
3078.0,0.02205589652770181
3077.0,0.021881845941327572
3076.0,0.02167706962983244
3075.0,0.021475006256531277
3074.0,0.02130198021141123
3073.0,0.0211484121264594
3072.0,0.020986977882106666
3071.0,0.020805818221288654
3070.0,0.020611322164765754
3069.0,0.020407841318314156
3068.0,0.020197308735534807
3067.0,0.01999942792315089
3066.0,0.019847500886440238
3065.0,0.019752819830109618
3064.0,0.019685221609912484
3063.0,0.019598000128339465
3062.0,0.01946326831771964
3061.0,0.01928229558715884
3060.0,0.019080170627100646
3059.0,0.018895992951256855
3058.0,0.018758906245965875
3057.0,0.01865994735943275
3056.0,0.01855722506520441
3055.0,0.018418542925797483
3054.0,0.018249830362747226
3053.0,0.01807527196866142
3052.0,0.01790805649214372
3051.0,0.01775200474826713
3050.0,0.01761185529404443
3049.0,0.017483876326881653
3048.0,0.017346852597711192
3047.0,0.017182016294601463
3046.0,0.016996001712449717
3045.0,0.0168122799245469
3044.0,0.01665050102825505
3043.0,0.016525463337647813
3042.0,0.016451608256814517
3041.0,0.016423231513041082
3040.0,0.0163951474475135
3039.0,0.01630760905302418
3038.0,0.016138396457466318
3037.0,0.01591879861968233
3036.0,0.01570001990772708
3035.0,0.01551808059136401
3034.0,0.015384383327863821
3033.0,0.015288177787915457
3032.0,0.015201583483648947
3031.0,0.01509897678908806
3030.0,0.014981175311676951
3029.0,0.0148679513972255
3028.0,0.014765062866678528
3027.0,0.014656764416561406
3026.0,0.014532842909352665
3025.0,0.014406145297644002
3024.0,0.014294684019186685
3023.0,0.014197850743324915
3022.0,0.014098256838141004
3021.0,0.013977677053523823
3020.0,0.013829503868967289
3019.0,0.013665674596260245
3018.0,0.013514299128675748
3017.0,0.013398798731795147
3016.0,0.013315056833679397
3015.0,0.01324158096150137
3014.0,0.013171398513532474
3013.0,0.013117748303054266
3012.0,0.013081813445616696
3011.0,0.013034062770413966
3010.0,0.012942850314396546
3009.0,0.01281083442500314
3008.0,0.012674214591538165
3007.0,0.012570695580548085
3006.0,0.012513452397730745
3005.0,0.01248361898794249
3004.0,0.01244204516893917
3003.0,0.012361284672848897
3002.0,0.012251639339875857
3001.0,0.012150636832959931
3000.0,0.012082686817557364
2999.0,0.012038136514535606
2998.0,0.011994129138948158
2997.0,0.01194204503660953
2996.0,0.01188701722448921
2995.0,0.011832437793395989
2994.0,0.011780009155835052
2993.0,0.011736857914673313
2992.0,0.01170947329357265
2991.0,0.011695561454937706
2990.0,0.011692744595100455
2989.0,0.011708806645198386
2988.0,0.011748474356632139
2987.0,0.01179437438302419
2986.0,0.011817582510948043
2985.0,0.011810457128975868
2984.0,0.01179530396856385
2983.0,0.011797453723671473
2982.0,0.01182238634005994
2981.0,0.01186437294658793
2980.0,0.01192570215039624
2979.0,0.01201337947236015
2978.0,0.012121207269353852
2977.0,0.012229832383098008
2976.0,0.012329659680459818
2975.0,0.012436799830488867
2974.0,0.0125781750164608
2973.0,0.012762819300556262
2972.0,0.012974510579086542
2971.0,0.013193180701139682
2970.0,0.01341498845757238
2969.0,0.013645405221585697
2968.0,0.01387897682915709
2967.0,0.014097307431696881
2966.0,0.014291371537897692
2965.0,0.014478534871046035
2964.0,0.014689976144087234
2963.0,0.01494116946127194
2962.0,0.015219159250538749
2961.0,0.01549818254924463
2960.0,0.015764119705082593
2959.0,0.01602107431141225
2958.0,0.016274862693376566
2957.0,0.01651674496624201
2956.0,0.016731341821310638
2955.0,0.016923289947515276
2954.0,0.01712719098370194
2953.0,0.017379992724743765
2952.0,0.0176871437055025
2951.0,0.01802888948119007
2950.0,0.018403755319976154
2949.0,0.01885129305988432
2948.0,0.019426549242922503
2947.0,0.020163402214676326
2946.0,0.02107567841863238
2945.0,0.02218030514493362
2944.0,0.023493941745169323
2943.0,0.025003547797873865
2942.0,0.026668677143910642
2941.0,0.028472689210411423
2940.0,0.030456648214358777
2939.0,0.03268376273489267
2938.0,0.035175119875246366
2937.0,0.03790757723364172
2936.0,0.04086947540478419
2935.0,0.04408729765364663
2934.0,0.04758949975288394
2933.0,0.051380813838959476
2932.0,0.05547583293764229
2931.0,0.059935704899110404
2930.0,0.06484969479344131
2929.0,0.07029672639561033
2928.0,0.07634765007677875
2927.0,0.08307757722486839
2926.0,0.0905376336953995
2925.0,0.09871639206218727
2924.0,0.10754412457062593
2923.0,0.11691540016605194
2922.0,0.12667483066567506
2921.0,0.1365692266260787
2920.0,0.14621101642390397
2919.0,0.1550466642139762
2918.0,0.16235490012725373
2917.0,0.16739737668244187
2916.0,0.16969053954839866
2915.0,0.16918178172399065
2914.0,0.1662016593091679
2913.0,0.1613143933175852
2912.0,0.15515388739429548
2911.0,0.14827243788353273
2910.0,0.14107925873264057
2909.0,0.1338605506646398
2908.0,0.1268341874677533
2907.0,0.12015850940325375
2906.0,0.11392697088039644
2905.0,0.10818843392262284
2904.0,0.10295915700452171
2903.0,0.09822496551713777
2902.0,0.09393939722783552
2901.0,0.09004905303093061
2900.0,0.08651334602612494
2899.0,0.08328277519278114
2898.0,0.08028134109771169
2897.0,0.07743057064996868
2896.0,0.0746830298481908
2895.0,0.07201762356529014
2894.0,0.06940918268599719
2893.0,0.0668252107053521
2892.0,0.06425561266555847
2891.0,0.061720848867370136
2890.0,0.05924058209017566
2889.0,0.056805613434910716
2888.0,0.05439133966484165
2887.0,0.05199781928656736
2886.0,0.04966304239542041
2885.0,0.0474333522028209
2884.0,0.045320343903443173
2883.0,0.0432912480614283
2882.0,0.04130414565011287
2881.0,0.03934717202023305
2880.0,0.03744551632737221
2879.0,0.03563256050782161
2878.0,0.03392235357065526
2877.0,0.03231227211078705
2876.0,0.030809676981472887
2875.0,0.02945285189695146
2874.0,0.028298457304843278
2873.0,0.02738722342138552
2872.0,0.02671839846115706
2871.0,0.02625890249367273
2870.0,0.02597444314667122
2869.0,0.025853606225521072
2868.0,0.02591658082001006
2867.0,0.026211438720199477
2866.0,0.0268034426366287
2865.0,0.027754438208819596
2864.0,0.02911297413814748
2863.0,0.030930586634171354
2862.0,0.03328961721776877
2861.0,0.03631539297820967
2860.0,0.040156747902334866
2859.0,0.044965280170608135
2858.0,0.05089587882608955
2857.0,0.058125395355772526
2856.0,0.06685869250208962
2855.0,0.07726530945475012
2854.0,0.08934225809752137
2853.0,0.10275457594352518
2852.0,0.11668956989216385
2851.0,0.12976412640121862
2850.0,0.14009327199782806
2849.0,0.1457412584049058
2848.0,0.14552300523123635
2847.0,0.1395970366857888
2846.0,0.12930980839131315
2845.0,0.11651097441684631
2844.0,0.10290796061647313
2843.0,0.0897288703335231
2842.0,0.07770798023727436
2841.0,0.06719831897678344
2840.0,0.05828250493562746
2839.0,0.05087657358999275
2838.0,0.04479955280452581
2837.0,0.0398275520011465
2836.0,0.035734357310865106
2835.0,0.032326227065208886
2834.0,0.029464170373863955
2833.0,0.027052426539614587
2832.0,0.02500500081734592
2831.0,0.023239997464400766
2830.0,0.021701080163617718
2829.0,0.020362184294926023
2828.0,0.01920612233222351
2827.0,0.018201758407883822
2826.0,0.017310641082840514
2825.0,0.01650271691086068
2824.0,0.01576231133388128
2823.0,0.015082935554623781
2822.0,0.01446268913608646
2821.0,0.013899335049394999
2820.0,0.013386526984638637
2819.0,0.01291742868920153
2818.0,0.012489389684299626
2817.0,0.012100514275226985
2816.0,0.01174264734055753
2815.0,0.011404356056077994
2814.0,0.011079181006795176
2813.0,0.010765772630955177
2812.0,0.010462548460661544
2811.0,0.010169513491128837
2810.0,0.009893008976001726
2809.0,0.009639429058573443
2808.0,0.009405690279286349
2807.0,0.00918346048197665
2806.0,0.008970405843040274
2805.0,0.008768180731320293
2804.0,0.008571857469436107
2803.0,0.008372876844271423
2802.0,0.00817211560716594
2801.0,0.007979094834677975
2800.0,0.007796935403559963
2799.0,0.007618125728353155
2798.0,0.007436977492230993
2797.0,0.007256580246259086
2796.0,0.007081137971475784
2795.0,0.006910841681641559
2794.0,0.006747033540076797
2793.0,0.006593840212236463
2792.0,0.006451035923558659
2791.0,0.006312247647195029
2790.0,0.006173705615357194
2789.0,0.006038594512944049
2788.0,0.005909597282868104
2787.0,0.005782682286854947
2786.0,0.00565161294755242
2785.0,0.005515361805634149
2784.0,0.005379672331488161
2783.0,0.005253933422500765
2782.0,0.0051449571355570356
2781.0,0.005048860497943954
2780.0,0.00495119516924137
2779.0,0.0048418773227502905
2778.0,0.00472850577950746
2777.0,0.004628572496138123
2776.0,0.004549791587205935
2775.0,0.004483626382622841
2774.0,0.004418025775563722
2773.0,0.00435000515606465
2772.0,0.0042843988416698805
2771.0,0.004225913989710625
2770.0,0.004172445586601218
2769.0,0.004112218236886112
2768.0,0.004031805480219566
2767.0,0.0039344357880387055
2766.0,0.0038459616467991127
2765.0,0.0037916891718041412
2764.0,0.003766305200570373
2763.0,0.0037374399014624255
2762.0,0.0036824967986428506
2761.0,0.003611502713369324
2760.0,0.0035502310485871313
2759.0,0.0035081711681684653
2758.0,0.0034689465909590097
2757.0,0.0034111150492457205
2756.0,0.003333393091700925
2755.0,0.0032569943412759077
2754.0,0.003204139715899669
2753.0,0.003176252207430201
2752.0,0.003155827459293199
2751.0,0.003128135759030615
2750.0,0.003094328755416098
2749.0,0.003064069389343645
2748.0,0.0030432708590119478
2747.0,0.003031831089469815
2746.0,0.003026090615410502
2745.0,0.0030181418444474696
2744.0,0.002999170249771123
2743.0,0.002967992089269935
2742.0,0.002930645921946636
2741.0,0.002890279488580659
2740.0,0.0028476006416400714
2739.0,0.0028147318513123557
2738.0,0.002812340912040116
2737.0,0.0028391084357016886
2736.0,0.0028583793941089606
2735.0,0.002834565539433795
2734.0,0.0027758789803629816
2733.0,0.0027240808468495703
2732.0,0.002703701845959541
2731.0,0.002698048983301032
2730.0,0.002674546836407587
2729.0,0.002617634359966473
2728.0,0.0025352649488789643
2727.0,0.002447197743116093
2726.0,0.002373378013784417
2725.0,0.002325254041748473
2724.0,0.0023020427513082
2723.0,0.002297322176617831
2722.0,0.0023067725330900147
2721.0,0.002324609851319196
2720.0,0.0023374895893743253
2719.0,0.0023322082213143294
2718.0,0.002309223990181181
2717.0,0.002279747953416459
2716.0,0.0022500893860469477
2715.0,0.002217721063004999
2714.0,0.002181986412483739
2713.0,0.0021493543908045524
2712.0,0.0021257809621489697
2711.0,0.002109554550000184
2710.0,0.0020914320181560425
2709.0,0.0020584144539765054
2708.0,0.0020030220131548094
2707.0,0.0019356906434288778
2706.0,0.0018822222930242353
2705.0,0.0018584618580613677
2704.0,0.0018509754947689467
2703.0,0.0018318908505459888
2702.0,0.0017888629943346914
2701.0,0.0017320514789864988
2700.0,0.0016776363614608436
2699.0,0.001638521999329849
2698.0,0.0016257406430145115
2697.0,0.0016408896387718865
2696.0,0.0016647851051113539
2695.0,0.0016679736056190019
2694.0,0.001639947083315184
2693.0,0.001599564466970633
2692.0,0.0015747352941470714
2691.0,0.00157761520739456
2690.0,0.001598348631219263
2689.0,0.0016140682552282521
2688.0,0.0016042584367292928
2687.0,0.0015685072712107882
2686.0,0.0015308991131082659
2685.0,0.0015191972142056412
2684.0,0.0015380809902222816
2683.0,0.001568104271956748
2682.0,0.0015880919535037875
2681.0,0.001589809906202993
2680.0,0.0015755835067620128
2679.0,0.0015555432630758924
2678.0,0.0015478510355133957
2677.0,0.001567494131791948
2676.0,0.001609203720814423
2675.0,0.0016499904275922989
2674.0,0.001671836602036865
2673.0,0.0016750493897033445
2672.0,0.0016683892459160644
2671.0,0.0016571691742496386
2670.0,0.0016456395564655218
2669.0,0.0016423730342083952
2668.0,0.0016554456375319983
2667.0,0.0016864844230664172
2666.0,0.0017334502877814097
2665.0,0.0017949682990695292
2664.0,0.0018666883156476283
2663.0,0.001934108486439478
2662.0,0.0019738649278552
2661.0,0.0019675329733441584
2660.0,0.0019196208317804899
2659.0,0.0018620280303835958
2658.0,0.001832641582095979
2657.0,0.001844004389831596
2656.0,0.001875088924486059
2655.0,0.001896149223929144
2654.0,0.0018940382916255065
2653.0,0.001872093072348781
2652.0,0.001839366103060497
2651.0,0.001810157440952036
2650.0,0.001801657699053186
2649.0,0.0018138095021410553
2648.0,0.001818445692060233
2647.0,0.0017869590272992955
2646.0,0.0017271399848489222
2645.0,0.001675907159932521
2644.0,0.0016556155853164603
2643.0,0.0016544485707268564
2642.0,0.0016516754051340361
2641.0,0.0016432665080333933
2640.0,0.0016353987689052352
2639.0,0.001627482785527799
2638.0,0.0016126516247720625
2637.0,0.0015873428361183068
2636.0,0.0015522046809647082
2635.0,0.0015082556435381837
2634.0,0.0014573171434544476
2633.0,0.0014040825572839183
2632.0,0.0013553533527052412
2631.0,0.0013180727991794828
2630.0,0.0012944098490234673
2629.0,0.0012741872964045758
2628.0,0.001238152767995539
2627.0,0.0011765209383941533
2626.0,0.0011001577136597759
2625.0,0.001026196259162955
2624.0,0.0009589592790606267
2623.0,0.0008947677437925225
2622.0,0.0008374046250363731
2621.0,0.000794695405626816
2620.0,0.0007658921910953409
2619.0,0.0007470123385154256
2618.0,0.0007426914107550627
2617.0,0.0007551798888406947
2616.0,0.0007664427941943898
2615.0,0.0007505726909646293
2614.0,0.0007033256573941553
2613.0,0.0006410182341204568
2612.0,0.000571857585812561
2611.0,0.0004904100250465388
2610.0,0.00040357070210050915
2609.0,0.000337916745319763
2608.0,0.0003087795625467487
2607.0,0.00029711821455711646
2606.0,0.00027011979544166076
2605.0,0.00021700381214545176
2604.0,0.0001563963119954632
2603.0,0.00011368646131630221
2602.0,9.763941144013533e-05
2601.0,9.574814285631553e-05
2600.0,8.970945428928847e-05
2599.0,7.445678730911727e-05
2598.0,5.695437310895447e-05
2597.0,3.507890110195243e-05
2596.0,-9.722995886817903e-06
2595.0,-8.769322534516843e-05
2594.0,-0.00017834344341323915
2593.0,-0.0002465219797639665
2592.0,-0.0002751749207954375
2591.0,-0.0002720156936277062
2590.0,-0.00025439755901964347
2589.0,-0.00024454434494199995
2588.0,-0.0002684593691244106
2587.0,-0.00033458792427061123
2586.0,-0.0004145495479493162
2585.0,-0.000463323754369197
2584.0,-0.0004605510819125762
2583.0,-0.0004221524052092281
2582.0,-0.0003786285566178704
2581.0,-0.00035667030979899295
2580.0,-0.00037254147088745413
2579.0,-0.00042012517282279783
2578.0,-0.0004679617707785613
2577.0,-0.0004887355812894965
2576.0,-0.0004897340623614275
2575.0,-0.0004961925547695312
2574.0,-0.0005101292085840186
2573.0,-0.0005090897230325396
2572.0,-0.0004852866966606064
2571.0,-0.00046165500006422277
2570.0,-0.0004644818195047096
2569.0,-0.0004989318965806568
2568.0,-0.0005542903669976688
2567.0,-0.0006151772902477002
2566.0,-0.000663817024076724
2565.0,-0.0006885176998585007
2564.0,-0.0006971110943349057
2563.0,-0.0007101697022194922
2562.0,-0.0007363144442814822
2561.0,-0.0007628599444128505
2560.0,-0.0007714308886690124
2559.0,-0.0007548721415471407
2558.0,-0.0007218809172011382
2557.0,-0.0006944491480304868
2556.0,-0.0006947022751045305
2555.0,-0.0007220282104491377
2554.0,-0.0007483968332794054
2553.0,-0.000748272654826433
2552.0,-0.0007291311178331829
2551.0,-0.0007237341032503171
2550.0,-0.0007591725184368514
2549.0,-0.0008387558292720408
2548.0,-0.0009394766650687063
2547.0,-0.0010175569218089065
2546.0,-0.0010359850162936432
2545.0,-0.0010045163248199435
2544.0,-0.0009759420974308495
2543.0,-0.0009835796038532494
2542.0,-0.0010019796761349957
2541.0,-0.0009925676191018173
2540.0,-0.0009632439345262256
2539.0,-0.0009475030850319839
2538.0,-0.0009437852002681215
2537.0,-0.000919167967979628
2536.0,-0.0008677826132278847
2535.0,-0.0008237475486027479
2534.0,-0.0008118637813519139
2533.0,-0.0008211358364396307
2532.0,-0.0008337929232755918
2531.0,-0.0008483179252318222
2530.0,-0.0008639372070526074
2529.0,-0.0008699582665102398
2528.0,-0.00086304510386143
2527.0,-0.0008550732562726551
2526.0,-0.0008547977586859688
2525.0,-0.0008588744325396663
2524.0,-0.0008661590890226942
2523.0,-0.0008828633855461145
2522.0,-0.0009083789740789614
2521.0,-0.000932356674554538
2520.0,-0.0009500822145976462
2519.0,-0.0009651652891714559
2518.0,-0.0009733531361465528
2517.0,-0.0009587715791204739
2516.0,-0.0009112839300921613
2515.0,-0.0008381089449484935
2514.0,-0.0007599884745663718
2513.0,-0.0007070207202206089
2512.0,-0.0007112674885868453
2511.0,-0.0007828030571277263
2510.0,-0.0008891235361160521
2509.0,-0.0009721084560419037
2508.0,-0.0009932599669342506
2507.0,-0.0009610612030370145
2506.0,-0.0009196069999395456
2505.0,-0.0009158547012605517
2504.0,-0.000966497926407377
2503.0,-0.0010445012947888663
2502.0,-0.001103771667849912
2501.0,-0.0011231222092795757
2500.0,-0.0011162880486562665
2499.0,-0.0010980602114730393
2498.0,-0.0010656139375590833
2497.0,-0.0010245566169828208
2496.0,-0.0010027142082062648
2495.0,-0.0010136774652512437
2494.0,-0.0010311775906966436
2493.0,-0.001028140469270206
2492.0,-0.0010190926853933708
2491.0,-0.001030729914393368
2490.0,-0.001050740687888455
2489.0,-0.0010459315608212262
2488.0,-0.0010193766901824277
2487.0,-0.001007204647572562
2486.0,-0.0010200637321089753
2485.0,-0.001025269289841076
2484.0,-0.0009927683541282304
2483.0,-0.0009312667972780576
2482.0,-0.0008750939211623589
2481.0,-0.0008574807130165418
2480.0,-0.0008949324705179828
2479.0,-0.0009741399349920359
2478.0,-0.0010542166381639485
2477.0,-0.0011018461737907187
2476.0,-0.001123060087031142
2475.0,-0.0011452742514042242
2474.0,-0.001179101653242602
2473.0,-0.0012182817404856525
2472.0,-0.0012610979934044528
2471.0,-0.0013015768817607211
2470.0,-0.00131109748318737
2469.0,-0.0012643356385963803
2468.0,-0.0011809668587659588
2467.0,-0.0011102283960181915
2466.0,-0.0010746494448045925
2465.0,-0.0010560088911861876
2464.0,-0.001033996466458575
2463.0,-0.0010107823099163374
2462.0,-0.000998122863326591
2461.0,-0.001005529565726438
2460.0,-0.001039229506033763
2459.0,-0.0010893225450704178
2458.0,-0.0011233335472925785
2457.0,-0.0011182590054820024
2456.0,-0.0010934232680141502
2455.0,-0.001084172527651917
2454.0,-0.0010893234599714027
2453.0,-0.0010751262861208649
2452.0,-0.0010270579348689527
2451.0,-0.000966541698000489
2450.0,-0.0009195964645527966
2449.0,-0.0009002633638876242
2448.0,-0.0009200347319658014
2447.0,-0.0009767561361921544
2446.0,-0.0010328012857105315
2445.0,-0.0010403452247523498
2444.0,-0.0009963462579390915
2443.0,-0.0009450197962265158
2442.0,-0.0009233635465398233
2441.0,-0.0009326899402946238
2440.0,-0.0009628027128586469
2439.0,-0.0010078070267622351
2438.0,-0.0010497044091507346
2437.0,-0.0010598012453817288
2436.0,-0.0010318879964508441
2435.0,-0.0009925307570279346
2434.0,-0.0009701432800224816
2433.0,-0.0009725260270934467
2432.0,-0.0009951376437673273
2431.0,-0.0010265604308707496
2430.0,-0.0010429754824545123
2429.0,-0.0010232745971182275
2428.0,-0.0009766210661578396
2427.0,-0.0009359871669781545
2426.0,-0.0009242896685863251
2425.0,-0.0009459819228788662
2424.0,-0.001002849836133001
2423.0,-0.0010855515142573753
2422.0,-0.0011508679920831364
2421.0,-0.0011446619168903782
2420.0,-0.0010602404728379921
2419.0,-0.0009505347836709447
2418.0,-0.00087648706819712
2417.0,-0.0008633817984088951
2416.0,-0.0009032117411673008
2415.0,-0.0009679242184768616
2414.0,-0.0010148681583189328
2413.0,-0.0010110795290708032
2412.0,-0.0009676637734105145
2411.0,-0.0009303219776944005
2410.0,-0.0009278772855390749
2409.0,-0.000948992216973543
2408.0,-0.0009712060863915974
2407.0,-0.0009867152671094474
2406.0,-0.0009933192309641836
2405.0,-0.0009872719598312775
2404.0,-0.0009763821954282847
2403.0,-0.000978255604864594
2402.0,-0.0009946951210191549
2401.0,-0.0010058356265564745
2400.0,-0.0009987263696908
2399.0,-0.000983999485454062
2398.0,-0.0009753849757136776
2397.0,-0.0009707189133607426
2396.0,-0.0009636436453949114
2395.0,-0.0009584923985609156
2394.0,-0.0009620754186449532
2393.0,-0.0009716411649272697
2392.0,-0.0009800460713455966
2391.0,-0.000985564567460499
2390.0,-0.0009912626763919252
2389.0,-0.0010005321418501993
2388.0,-0.0010164598367389823
2387.0,-0.0010425560996731055
2386.0,-0.0010855411354132247
2385.0,-0.0011571435889716792
2384.0,-0.001259010842112982
2383.0,-0.0013544215950356665
2382.0,-0.0013707466582026694
2381.0,-0.001259446761693494
2380.0,-0.0010575907529161766
2379.0,-0.0008648077638439115
2378.0,-0.0007531821658827014
2377.0,-0.000725621704213993
2376.0,-0.000761207465911187
2375.0,-0.0008549139808372991
2374.0,-0.0009911599855963816
2373.0,-0.0011197710039010352
2372.0,-0.0011935570832481246
2371.0,-0.001197314858933008
2370.0,-0.0011189973844594413
2369.0,-0.0009530487877008085
2368.0,-0.0007617253202093107
2367.0,-0.0006454592665944769
2366.0,-0.0006041225391525435
2365.0,-0.0005337276161895282
2364.0,-0.0004154845178313591
2363.0,-0.00036399519232407885
2362.0,-0.00042371039400245067
2361.0,-0.00048266943943885745
2360.0,-0.00046778767356065007
2359.0,-0.0004483423938876321
2358.0,-0.00046955226246752745
2357.0,-0.0004645303319860117
2356.0,-0.00039562392704542713
2355.0,-0.00030622963180698513
2354.0,-0.0002073390423470347
2353.0,-8.272163725415167e-05
2352.0,1.633132499323308e-05
2351.0,1.6661376418427063e-05
2350.0,-5.65724584284999e-05
2349.0,-0.00010747184748818872
2348.0,-8.404244322039323e-05
2347.0,-1.9079100943250447e-05
2346.0,3.03600463157695e-05
2345.0,7.776482649796856e-05
2344.0,0.00012588149557708636
2343.0,9.458312055889736e-05
2342.0,6.528073772615894e-06
2341.0,1.6672172941257552e-05
2340.0,0.00018269876370745173
2339.0,0.00038113471131929425
2338.0,0.0004893900826745214
2337.0,0.0005034856286968292
2336.0,0.00046520958579062625
2335.0,0.0003914760635307874
2334.0,0.0003124179245884472
2333.0,0.0002750141884759629
2332.0,0.0002782605674664918
2331.0,0.0002654899017061055
2330.0,0.00021355901491632858
2329.0,0.00018143913912541825
2328.0,0.00023978926728690774
2327.0,0.00041384306042887675
2326.0,0.0006685444985562131
2325.0,0.0009125664936588118
2324.0,0.0010185090767700375
2323.0,0.0009195418225843117
2322.0,0.0006950918978330059
2321.0,0.0004938698147059178
2320.0,0.0003840049498149156
2319.0,0.000323451145273426
2318.0,0.0002650934799210921
2317.0,0.0002083104498166495
2316.0,0.00015123737357478453
2315.0,5.8981802375687156e-05
2314.0,-0.00010032325496231575
2313.0,-0.0003076158321836072
2312.0,-0.0005024283597403767
2311.0,-0.0006180222011953173
2310.0,-0.0006174605629806829
2309.0,-0.0005139087584498054
2308.0,-0.0003731089005223775
2307.0,-0.00027200496021046936
2306.0,-0.0002474829029897168
2305.0,-0.00028517843366491157
2304.0,-0.0003464463789220666
2303.0,-0.00039103797695149
2302.0,-0.00039159963458524597
2301.0,-0.000347593620198271
2300.0,-0.00028357099181358094
2299.0,-0.00021772380775225564
2298.0,-0.00014369944584658335
2297.0,-5.539409964269997e-05
2296.0,2.766102995123342e-05
2295.0,8.828800142665904e-05
2294.0,0.00014214223589941897
2293.0,0.0002117164535093494
2292.0,0.0002794985043288596
2291.0,0.00030987244437059803
2290.0,0.000311149752652829
2289.0,0.0003387767818111635
2288.0,0.00042582304011641895
2287.0,0.0005396913212064341
2286.0,0.0006160441985814743
2285.0,0.0006152830787777654
2284.0,0.0005492606349709481
2283.0,0.0004700797072532554
2282.0,0.0004324207480799541
2281.0,0.00043876387931373966
2280.0,0.00043103906964333865
2279.0,0.00036063316838478687
2278.0,0.0002587924969104679
2277.0,0.0001964561029607278
2276.0,0.0001881651710412484
2275.0,0.00018407037906988387
2274.0,0.00015411122842098657
2273.0,0.00011648409970866968
2272.0,7.5216263877234e-05
2271.0,-7.866242227861422e-06
2270.0,-0.00015064165154637986
2269.0,-0.00030482332289904324
2268.0,-0.00040402160338153003
2267.0,-0.00042537791023902435
2266.0,-0.00038726104814212393
2265.0,-0.00031646249175675266
2264.0,-0.0002370917591967978
2263.0,-0.00016370009480938375
2262.0,-9.47128949989442e-05
2261.0,-3.5344178447285925e-05
2260.0,-2.2435863644023604e-05
2259.0,-8.932583310392495e-05
2258.0,-0.00020616699391102255
2257.0,-0.00029798589287305464
2256.0,-0.00033533119117582855
2255.0,-0.0003619359286747781
2254.0,-0.0004161207385744858
2253.0,-0.000468222982326417
2252.0,-0.0004644477303444781
2251.0,-0.00040399851582740686
2250.0,-0.00034315800156928256
2249.0,-0.0003365159521284936
2248.0,-0.00038619908383895015
2247.0,-0.00044476748136835673
2246.0,-0.00046419759494367697
2245.0,-0.00044353824674265685
2244.0,-0.00041671028134926603
2243.0,-0.00039140507790967724
2242.0,-0.000334263617903773
2241.0,-0.00023607645810432996
2240.0,-0.00015041713513195832
2239.0,-0.00012867856813327682
2238.0,-0.00015155205507654568
2237.0,-0.0001737134354981434
2236.0,-0.00020351937198739888
2235.0,-0.00027874602057343376
2234.0,-0.0003833496901116691
2233.0,-0.00044929182691825944
2232.0,-0.0004386837612457213
2231.0,-0.0003771685288567538
2230.0,-0.00032081740631639377
2229.0,-0.00033325052813008404
2228.0,-0.0004604511412630765
2227.0,-0.0006690971178215162
2226.0,-0.0008296594137861453
2225.0,-0.0008301000863032481
2224.0,-0.0006934511407138395
2223.0,-0.0005266636752000602
2222.0,-0.0003834552156779918
2221.0,-0.0002561829953009723
2220.0,-0.00017083275310624148
2219.0,-0.0001850025481102887
2218.0,-0.00028887112575506316
2217.0,-0.0003955211794805782
2216.0,-0.00044543594922632113
2215.0,-0.0004521655639977301
2214.0,-0.00043546838401423485
2213.0,-0.00038153107322640774
2212.0,-0.000291470359651977
2211.0,-0.00020708812568650715
2210.0,-0.0001665155186492223
2209.0,-0.00017553273769648154
2208.0,-0.000230756447512525
2207.0,-0.00032994513659268166
2206.0,-0.00045716920804811
2205.0,-0.0005876788154425205
2204.0,-0.0006998554839158714
2203.0,-0.0007570083959172323
2202.0,-0.0007097681284616291
2201.0,-0.0005629001627581154
2200.0,-0.0004064552100037144
2199.0,-0.0003270871586145376
2198.0,-0.00032414145557844434
2197.0,-0.0003576169895647221
2196.0,-0.0004195027822287125
2195.0,-0.0004953815666151528
2194.0,-0.0005153584517681702
2193.0,-0.00042984572171045864
2192.0,-0.00029538260589568276
2191.0,-0.0001982701060618917
2190.0,-0.00014259499703524582
2189.0,-9.200502776956297e-05
2188.0,-5.722155042151234e-05
2187.0,-5.079237244406398e-05
2186.0,-2.504519239143876e-05
2185.0,2.5069871723488438e-05
2184.0,-3.307575867577374e-05
2183.0,-0.00030480337613351493
2182.0,-0.0006472675487628266
2181.0,-0.000791746990636387
2180.0,-0.0006954542128084795
2179.0,-0.0006039441945542393
2178.0,-0.0007605229024246083
2177.0,-0.0011652323620474788
2176.0,-0.0016054914450800968
2175.0,-0.001829968066938903
2174.0,-0.001687473434602689
2173.0,-0.001208480299483549
2172.0,-0.0005946511289642734
2171.0,-5.3727281766481995e-05
2170.0,0.0003330708754711631
2169.0,0.000552751195402258
2168.0,0.0005878743808290972
2167.0,0.0005005289197946278
2166.0,0.0004929241105746805
2165.0,0.0007090091815035646
2164.0,0.0010008640028968234
2163.0,0.001047920800003915
2162.0,0.0006714457800454044
2161.0,-8.355432589182883e-05
2160.0,-0.001077540094239603
2159.0,-0.0020897014672896174
2158.0,-0.0027820767919145622
2157.0,-0.0029348528118377016
2156.0,-0.0026929521671525225
2155.0,-0.0023817393543082476
2154.0,-0.0021511046494423346
2153.0,-0.001948119706525056
2152.0,-0.0017335369867954873
2151.0,-0.0015733544397410213
2150.0,-0.0015319806055606455
2149.0,-0.0016123870671130168
2148.0,-0.00178586407242756
2147.0,-0.001981057046227726
2146.0,-0.0020645595241151424
2145.0,-0.0019501874042238759
2144.0,-0.001710020012888734
2143.0,-0.0014885633485446433
2142.0,-0.0013427949070838657
2141.0,-0.0012562402268851069
2140.0,-0.0012371227828532328
2139.0,-0.0012993851733018947
2138.0,-0.0013883925631471745
2137.0,-0.001436747438524632
2136.0,-0.0014643144299665708
2135.0,-0.0015242013632700269
2134.0,-0.001589772849696765
2133.0,-0.001602335390406955
2132.0,-0.001583973787205134
2131.0,-0.001594208785374654
2130.0,-0.0016088832870349479
2129.0,-0.0015459039107983273
2128.0,-0.0013942133264395855
2127.0,-0.0012279204552788628
2126.0,-0.0011031211458457568
2125.0,-0.0010206823836448747
2124.0,-0.0009771231275501292
2123.0,-0.0009711996127828118
2122.0,-0.0009660173023543526
2121.0,-0.0009171162986555498
2120.0,-0.0008376909326132065
2119.0,-0.0007721338367158348
2118.0,-0.0007195367317089898
2117.0,-0.0006509789093485839
2116.0,-0.0005882896654732108
2115.0,-0.0005856578554285924
2114.0,-0.0006328154676701105
2113.0,-0.0006539089409350958
2112.0,-0.0006112864508725231
2111.0,-0.0005435191249263845
2110.0,-0.0004961333943721413
2109.0,-0.00048229734981366536
2108.0,-0.0005073231731002245
2107.0,-0.0005664127425821689
2106.0,-0.0006146546729729652
2105.0,-0.0006052566016544402
2104.0,-0.0005551517289490147
2103.0,-0.0005126085885388223
2102.0,-0.0004725422052075436
2101.0,-0.0003995495774686629
2100.0,-0.0003230634671751831
2099.0,-0.0003244225616407966
2098.0,-0.0004238121201832079
2097.0,-0.0005549285303826066
2096.0,-0.0006572300832880088
2095.0,-0.0007246019847782848
2094.0,-0.0007587436798858715
2093.0,-0.0007549817457639502
2092.0,-0.0007361449967553421
2091.0,-0.0007290248071080395
2090.0,-0.0007004636631958471
2089.0,-0.0005875964218021285
2088.0,-0.0004041711216484587
2087.0,-0.0002482956597191688
2086.0,-0.00019905550655461944
2085.0,-0.00025513142550211056
2084.0,-0.00037170970519347503
2083.0,-0.0004983159404907891
2082.0,-0.0005815494241052071
2081.0,-0.0005886207032801084
2080.0,-0.0005432402440272222
2079.0,-0.0004944012043954234
2078.0,-0.00045333806216236127
2077.0,-0.0004049379082697569
2076.0,-0.00035482920102234127
2075.0,-0.0003110820148950019
2074.0,-0.0002521998317930748
2073.0,-0.00018184770236728787
2072.0,-0.00017650929583123151
2071.0,-0.0002955408783718636
2070.0,-0.0004730028100533656
2069.0,-0.0005839611696910026
2068.0,-0.0005965886012630646
2067.0,-0.0005779431004282636
2066.0,-0.0005728896702439301
2065.0,-0.0005720806300828451
2064.0,-0.0005750942912827881
2063.0,-0.0005862553308150934
2062.0,-0.0005701481978077189
2061.0,-0.0005021624461287965
2060.0,-0.00042840722496087947
2059.0,-0.00039021451181841507
2058.0,-0.00034184326804702033
2057.0,-0.0002469858949816926
2056.0,-0.00018163320051708352
2055.0,-0.00019888710535189422
2054.0,-0.00016135969241988426
2053.0,0.0001050781609789771
2052.0,0.0005126172200613577
2051.0,0.0007519657897053708
2050.0,0.000643039772596768
2049.0,0.0003148498418034505
2048.0,-1.717189967632125e-05
2047.0,-0.0002904337912677228
2046.0,-0.0005043280410630496
2045.0,-0.0006043953521080342
2044.0,-0.0005740303664201969
2043.0,-0.0004894127784718182
2042.0,-0.00040682119937275054
2041.0,-0.00032872817064006146
2040.0,-0.0003101760036583012
2039.0,-0.0004348144526093075
2038.0,-0.0006528418898678101
2037.0,-0.0007995461953015002
2036.0,-0.0008154601783864992
2035.0,-0.0007985878782679612
2034.0,-0.0008084448586871975
2033.0,-0.0008054816467797696
2032.0,-0.0008140564132243619
2031.0,-0.0009330230768459193
2030.0,-0.001139160536285021
2029.0,-0.001278962637424453
2028.0,-0.0012973440357593347
2027.0,-0.0012934728694818844
2026.0,-0.0013126604159395183
2025.0,-0.001278712931486864
2024.0,-0.0011732113402973315
2023.0,-0.001094968897876047
2022.0,-0.0010950199369371776
2021.0,-0.0011207775970336104
2020.0,-0.0011464088715157006
2019.0,-0.0012048455604242421
2018.0,-0.0012790793093152746
2017.0,-0.0013184405566081382
2016.0,-0.0013670432791568626
2015.0,-0.0014867232084566813
2014.0,-0.001586100347847707
2013.0,-0.0015171987942853913
2012.0,-0.00130920993989272
2011.0,-0.0011394892140785251
2010.0,-0.0010918792296001555
2009.0,-0.0011271728822804014
2008.0,-0.0012612456152233
2007.0,-0.001544438439527843
2006.0,-0.0018636348801083535
2005.0,-0.002009701729388917
2004.0,-0.001954480694886899
2003.0,-0.0018502373846042768
2002.0,-0.0017662425831542297
2001.0,-0.0016273130238196815
2000.0,-0.0014198623149027922
1999.0,-0.0012611257942026742
1998.0,-0.0012224978651322821
1997.0,-0.001242493256665332
1996.0,-0.0012619819556313919
1995.0,-0.0013062720004883316
1994.0,-0.0013805227870232275
1993.0,-0.0014016202130137467
1992.0,-0.0013094026628022058
1991.0,-0.0011637999373093452
1990.0,-0.0010498478360983577
1989.0,-0.000997645896822752
1988.0,-0.0010048541200669274
1987.0,-0.0010186106156453213
1986.0,-0.000933184941100766
1985.0,-0.0007198725400375488
1984.0,-0.0005117346537920878
1983.0,-0.00044057466896274035
1982.0,-0.0004479066101363715
1981.0,-0.0004087635028568606
1980.0,-0.000394176377132226
1979.0,-0.000595346490353753
1978.0,-0.0009998160181811295
1977.0,-0.0013910990543856605
1976.0,-0.0016852726016162909
1975.0,-0.0019702497854589356
1974.0,-0.002220147766121533
1973.0,-0.0022875047739685387
1972.0,-0.0021886406858088016
1971.0,-0.00211582159799077
1970.0,-0.0021445852632121874
1969.0,-0.0021672901979920152
1968.0,-0.002134337691928903
1967.0,-0.0021451448925999227
1966.0,-0.0022273336133099625
1965.0,-0.002268023422631697
1964.0,-0.0022299335068002727
1963.0,-0.002188152593645988
1962.0,-0.002160187041694565
1961.0,-0.0020985088346988957
1960.0,-0.002051485488055365
1959.0,-0.0021295434871705654
1958.0,-0.002289461002998644
1957.0,-0.002345046943474066
1956.0,-0.0022223831102792654
1955.0,-0.0020449449531453417
1954.0,-0.0019348983214010815
1953.0,-0.001886025996306972
1952.0,-0.001868971253183008
1951.0,-0.0019046362058624871
1950.0,-0.001979344137519262
1949.0,-0.0020256539075641407
1948.0,-0.0020321762814310756
1947.0,-0.002060306725040973
1946.0,-0.0021239115494391383
1945.0,-0.0021585812890007215
1944.0,-0.002137779604494175
1943.0,-0.002113172892209866
1942.0,-0.002103218684739054
1941.0,-0.0020568987710575404
1940.0,-0.00197242997722485
1939.0,-0.0019180568648175657
1938.0,-0.0019268891388309606
1937.0,-0.0019660846609710608
1936.0,-0.0020089786860153216
1935.0,-0.002054834831239921
1934.0,-0.0020730153558954894
1933.0,-0.0020266218911376716
1932.0,-0.0019628625725872004
1931.0,-0.0019767941436872574
1930.0,-0.002067054444666424
1929.0,-0.002133734367716194
1928.0,-0.0021243026892204964
1927.0,-0.0020807897794345048
1926.0,-0.0020428648881815293
1925.0,-0.001993400375731738
1924.0,-0.0019254811570191678
1923.0,-0.0018673658504322708
1922.0,-0.0018138761670769069
1921.0,-0.0017230427354887265
1920.0,-0.001615194360462271
1919.0,-0.0015763621900697848
1918.0,-0.001637344905966712
1917.0,-0.0017173076950540822
1916.0,-0.0017481383810282161
1915.0,-0.001752729259241908
1914.0,-0.0017648059085186307
1913.0,-0.0017753768885318516
1912.0,-0.0017760858809341825
1911.0,-0.0017779007773808505
1910.0,-0.0017605697673824194
1909.0,-0.0016876795614947585
1908.0,-0.001593734413550616
1907.0,-0.0015612548916883343
1906.0,-0.0016163265442584573
1905.0,-0.0017132063733497865
1904.0,-0.0018179840953165434
1903.0,-0.0019262073569374515
1902.0,-0.0020018061244855777
1901.0,-0.0019915874605459806
1900.0,-0.0019163156147939619
1899.0,-0.0018629547262678204
1898.0,-0.0018704219796775697
1897.0,-0.001882677072738125
1896.0,-0.001840464833365086
1895.0,-0.0017660687091999416
1894.0,-0.001717989198708861
1893.0,-0.0017133817957891582
1892.0,-0.0017418319332997356
1891.0,-0.001794130428448627
1890.0,-0.0018402592907986526
1889.0,-0.0018494876634466383
1888.0,-0.0018452006267638712
1887.0,-0.0018652148185852224
1886.0,-0.001900068849216596
1885.0,-0.0019095441552198166
1884.0,-0.0018895835473700792
1883.0,-0.0018800882849147587
1882.0,-0.0018952854980513138
1881.0,-0.001910545920493407
1880.0,-0.0019173409120344209
1879.0,-0.001934700401455999
1878.0,-0.001965561383287078
1877.0,-0.001985941778248982
1876.0,-0.0019906729907674136
1875.0,-0.0020008588992167092
1874.0,-0.002015682307818029
1873.0,-0.0020146112131958563
1872.0,-0.002012129529470605
1871.0,-0.002052665045161669
1870.0,-0.002132079464503209
1869.0,-0.0021670083076599767
1868.0,-0.002127664222157026
1867.0,-0.0020871800582255738
1866.0,-0.0020736658060922612
1865.0,-0.002064559817708031
1864.0,-0.0020548832918437228
1863.0,-0.002053179426468209
1862.0,-0.0020502912003080996
1861.0,-0.0020304279478505728
1860.0,-0.002006867117179173
1859.0,-0.0020002037836858843
1858.0,-0.001991662750223044
1857.0,-0.0019525590358308981
1856.0,-0.0019038253531084876
1855.0,-0.001890350546582017
1854.0,-0.0019117540432165092
1853.0,-0.0019313110078238314
1852.0,-0.001938801402158654
1851.0,-0.0019442207556974343
1850.0,-0.0019407011430061295
1849.0,-0.0019111436010575233
1848.0,-0.0018827832568220689
1847.0,-0.0019119212647653273
1846.0,-0.0019966076790720664
1845.0,-0.0020540623967806467
1844.0,-0.0020359476513945865
1843.0,-0.0020151738659672158
1842.0,-0.0020237759553000173
1841.0,-0.002029460843656475
1840.0,-0.0020342593643223918
1839.0,-0.0020531641382697335
1838.0,-0.002066308534184716
1837.0,-0.0020346734876596044
1836.0,-0.001975104575892873
1835.0,-0.0019468874222722604
1834.0,-0.001964160728895302
1833.0,-0.0019905502233360127
1832.0,-0.0020047396696685187
1831.0,-0.002016489818898669
1830.0,-0.0020217957903176805
1829.0,-0.001990781983429284
1828.0,-0.001917876559698425
1827.0,-0.0018344358617734527
1826.0,-0.0017700334522909548
1825.0,-0.0017243355054253784
1824.0,-0.001702009896529327
1823.0,-0.0017047510159547015
1822.0,-0.0017070428667824847
1821.0,-0.001695746991924239
1820.0,-0.001695552204006877
1819.0,-0.0017419158172290758
1818.0,-0.0018200670638805886
1817.0,-0.0018687678159402005
1816.0,-0.0018708713665828646
1815.0,-0.001865063395343955
1814.0,-0.0018688878530122098
1813.0,-0.001857270419799697
1812.0,-0.0018112978526255354
1811.0,-0.001759832783648188
1810.0,-0.0017211958693078933
1809.0,-0.0016709730257684664
1808.0,-0.0016108363732853222
1807.0,-0.0015750198266585068
1806.0,-0.00156798008775772
1805.0,-0.00155935602769701
1804.0,-0.0015364310483127494
1803.0,-0.0015146785703900058
1802.0,-0.0014947599676996123
1801.0,-0.0014628352890770611
1800.0,-0.0014304219373821702
1799.0,-0.001421669662767959
1798.0,-0.0014146478746976886
1797.0,-0.0013753167385867652
1796.0,-0.001319641316838762
1795.0,-0.001293131012737514
1794.0,-0.0012982074547043146
1793.0,-0.0012753150997953525
1792.0,-0.001210155126949133
1791.0,-0.0011966501550378103
1790.0,-0.0012422797973585214
1789.0,-0.0012740228258813014
1788.0,-0.001279463633154249
1787.0,-0.0012851322562465297
1786.0,-0.0012972588155718825
1785.0,-0.0013017394010069864
1784.0,-0.0013054905937832826
1783.0,-0.001323697603959237
1782.0,-0.0013397445815171855
1781.0,-0.0013248428988591706
1780.0,-0.0012871038266371948
1779.0,-0.00128101495279661
1778.0,-0.0013104667181525166
1777.0,-0.0013336017580197134
1776.0,-0.0013322838045263094
1775.0,-0.0013243475603073956
1774.0,-0.0013237733872749457
1773.0,-0.001274573834577129
1772.0,-0.0011439235337137408
1771.0,-0.0010435131473807934
1770.0,-0.001005417159091122
1769.0,-0.0009611303581116676
1768.0,-0.0009015499494310019
1767.0,-0.0008677942373474369
1766.0,-0.0008616105891543556
1765.0,-0.0008448108113038562
1764.0,-0.000810932227964402
1763.0,-0.0007832723871765005
1762.0,-0.0007632301712406772
1761.0,-0.00072145278272856
1760.0,-0.0006384688911019753
1759.0,-0.0005437715984442015
1758.0,-0.00046107745316941763
1757.0,-0.0003825864811092014
1756.0,-0.00031291515532544953
1755.0,-0.00026593640695631027
1754.0,-0.00022736847692068907
1753.0,-0.00016741426328202623
1752.0,-6.0061795046132804e-05
1751.0,6.559308297510299e-05
1750.0,0.00015140644616162824
1749.0,0.00024024697548170838
1748.0,0.00036525983145373024
1747.0,0.00046262501296161955
1746.0,0.0005058613563255171
1745.0,0.0005456916430124888
1744.0,0.000615283776333552
1743.0,0.0006752098124560161
1742.0,0.0007035730061378787
1741.0,0.0007512018104830812
1740.0,0.0008460211910457358
1739.0,0.0009239162850823608
1738.0,0.0009533841920526761
1737.0,0.0009921337623190135
1736.0,0.0010611727245265464
1735.0,0.0011443521078512405
1734.0,0.0012146643596155108
1733.0,0.0012382933095432726
1732.0,0.001282300801789555
1731.0,0.001350040043611343
1730.0,0.00139874626516605
1729.0,0.001457152851018292
1728.0,0.0015456599706631545
1727.0,0.0016368156373634162
1726.0,0.001704151902369764
1725.0,0.001773241192522897
1724.0,0.0018793555716953275
1723.0,0.0019898884754773662
1722.0,0.0020697178237247104
1721.0,0.002137220135442654
1720.0,0.0022126719219573163
1719.0,0.0022954078860168772
1718.0,0.0024434302718233233
1717.0,0.0027341539097738574
1716.0,0.0030530219821659974
1715.0,0.0032608306759198524
1714.0,0.0033788741624027297
1713.0,0.0034977193367586295
1712.0,0.003651616634560947
1711.0,0.003810163829274252
1710.0,0.003954581918809283
1709.0,0.004108827001483616
1708.0,0.004300040205915806
1707.0,0.004521535677368238
1706.0,0.004763758666952866
1705.0,0.005027807970494147
1704.0,0.005281440009905965
1703.0,0.005509378214847824
1702.0,0.005736064492263486
1701.0,0.006111451486844822
1700.0,0.0066615020108315715
1699.0,0.0070493993024210305
1698.0,0.007271690192348785
1697.0,0.0076044049983954
1696.0,0.008100907502087947
1695.0,0.008489809358323391
1694.0,0.008715563192437867
1693.0,0.008945809020156091
1692.0,0.009220194147064962
1691.0,0.009523239855515371
1690.0,0.009854018406975782
1689.0,0.01021315526573978
1688.0,0.010555402320629407
1687.0,0.01083159418704012
1686.0,0.011038221120686604
1685.0,0.011428244124563523
1684.0,0.012181833308607375
1683.0,0.012753851264652456
1682.0,0.013054325677858296
1681.0,0.01336208973233086
1680.0,0.013712368035565643
1679.0,0.014046822282460545
1678.0,0.014340169878334124
1677.0,0.014663637594776142
1676.0,0.015105726939296325
1675.0,0.015588284310184192
1674.0,0.01591371933719007
1673.0,0.016107437882445765
1672.0,0.01630522519814843
1671.0,0.01656534522996039
1670.0,0.01692105645489932
1669.0,0.0173251875240819
1668.0,0.01767617568074219
1667.0,0.01793879776517068
1666.0,0.018133120113241998
1665.0,0.018319176728671855
1664.0,0.018572646440466037
1663.0,0.018895216429985685
1662.0,0.019175312658826913
1661.0,0.019366109341299828
1660.0,0.019534481237830158
1659.0,0.019690034002286826
1658.0,0.01981160977479086
1657.0,0.019918447908532793
1656.0,0.020066958020355415
1655.0,0.020272076855771946
1654.0,0.02057128619332144
1653.0,0.020829037916933878
1652.0,0.020808099665691075
1651.0,0.020780589233343038
1650.0,0.02078967197614755
1649.0,0.02076191825683665
1648.0,0.020772286065951568
1647.0,0.02083835589444686
1646.0,0.02084133797527542
1645.0,0.0208214986506531
1644.0,0.0208553476770274
1643.0,0.020872164361957376
1642.0,0.020823212511017878
1641.0,0.020724624800516657
1640.0,0.02061973311577178
1639.0,0.02051599135117303
1638.0,0.020377648087367212
1637.0,0.020200698567826334
1636.0,0.020038059441677237
1635.0,0.019876189038810076
1634.0,0.019702827506364342
1633.0,0.01956516498482807
1632.0,0.019430898193418287
1631.0,0.01925699508849268
1630.0,0.019029880468631008
1629.0,0.018757637117437033
1628.0,0.01846847956374209
1627.0,0.018187733063277693
1626.0,0.017922603209336786
1625.0,0.01765426030958387
1624.0,0.017350413352855636
1623.0,0.01699556083601108
1622.0,0.016642983727570497
1621.0,0.016364802000607102
1620.0,0.01615126421999968
1619.0,0.01592489690007403
1618.0,0.015596949360560004
1617.0,0.01513902506531183
1616.0,0.014669763789883942
1615.0,0.014327147975688393
1614.0,0.01409053328911562
1613.0,0.013869046881578334
1612.0,0.013614237362152167
1611.0,0.013328907799923968
1610.0,0.01303847956871464
1609.0,0.012758345168919136
1608.0,0.012485948159887121
1607.0,0.012216385336781495
1606.0,0.011954158353579006
1605.0,0.011699413598021412
1604.0,0.011450138646323105
1603.0,0.011206418820537665
1602.0,0.010975776088315528
1601.0,0.010767494910973213
1600.0,0.0105785221839308
1599.0,0.010398027110060255
1598.0,0.010217048874023214
1597.0,0.010029673087333615
1596.0,0.00983085111550489
1595.0,0.009626006765105796
1594.0,0.009436980632331692
1593.0,0.00927670504347818
1592.0,0.00913156564990111
1591.0,0.008981861795337009
1590.0,0.008826632810464497
1589.0,0.008677334443586437
1588.0,0.008541016005271122
1587.0,0.008419652471656323
1586.0,0.008316107499856893
1585.0,0.008222477412795918
1584.0,0.008121718162813825
1583.0,0.008011459038266411
1582.0,0.007903323974059491
1581.0,0.007813191827089807
1580.0,0.007748454414573478
1579.0,0.007705674799440551
1578.0,0.0076684235159385425
1577.0,0.007616394958543977
1576.0,0.007507845677930046
1575.0,0.007357565898413836
1574.0,0.007260297341832544
1573.0,0.007219423812966775
1572.0,0.007177811647443603
1571.0,0.007117422599910019
1570.0,0.0070727716071585425
1569.0,0.007050631050034487
1568.0,0.007019135189422465
1567.0,0.006981748774451733
1566.0,0.006948581931966603
1565.0,0.006926061249868701
1564.0,0.006919854948089013
1563.0,0.006916328880285545
1562.0,0.006919399445492488
1561.0,0.006903574092893437
1560.0,0.0069030358078705206
1559.0,0.006977155742229025
1558.0,0.006955843234528459
1557.0,0.006958797246148556
1556.0,0.007031552487276388
1555.0,0.007035995285517824
1554.0,0.006986379880847516
1553.0,0.006941985720882409
1552.0,0.0069242632169760465
1551.0,0.0069047913980724365
1550.0,0.006878401445331372
1549.0,0.006868945156403747
1548.0,0.006871676398367509
1547.0,0.006862344565888483
1546.0,0.00682937997711962
1545.0,0.006815872716043019
1544.0,0.006839596440511134
1543.0,0.006832318708000797
1542.0,0.00675180075483889
1541.0,0.006705295648536237
1540.0,0.006713751745173217
1539.0,0.006643202180337211
1538.0,0.00659137366902394
1537.0,0.006605677845682339
1536.0,0.006589486352325962
1535.0,0.006492828282278379
1534.0,0.006360032150792236
1533.0,0.006297464188144452
1532.0,0.006306102301065692
1531.0,0.0063204549600978325
1530.0,0.006316315458339236
1529.0,0.006302420783138663
1528.0,0.006276175972730771
1527.0,0.006216616834317469
1526.0,0.006154824980476949
1525.0,0.006152171724379022
1524.0,0.006188228355495141
1523.0,0.006168562509609947
1522.0,0.0061020949079330904
1521.0,0.006102733658132719
1520.0,0.006158378728944097
1519.0,0.006207747364798051
1518.0,0.0062541498529597415
1517.0,0.006321763977451891
1516.0,0.0063538121991151535
1515.0,0.006315589441694448
1514.0,0.006285229906766977
1513.0,0.0063051209326325346
1512.0,0.006343642419766385
1511.0,0.00634500818414685
1510.0,0.006316012798961667
1509.0,0.006326933543192288
1508.0,0.006416860282401571
1507.0,0.006404542685975147
1506.0,0.006281799529609685
1505.0,0.006339054893919378
1504.0,0.00648562747219268
1503.0,0.006553039257586768
1502.0,0.006566584973247067
1501.0,0.006596735684738312
1500.0,0.006661112076521425
1499.0,0.006698724569699601
1498.0,0.006725547031716975
1497.0,0.006853811630804162
1496.0,0.007017852127673294
1495.0,0.0070610418923432155
1494.0,0.007053387628751797
1493.0,0.007105287188874846
1492.0,0.007196080069269362
1491.0,0.007235580949964168
1490.0,0.007256784218239044
1489.0,0.007405854855154947
1488.0,0.00760864316006876
1487.0,0.007722224493799017
1486.0,0.007815988659818333
1485.0,0.007982414069677347
1484.0,0.008191693766452238
1483.0,0.008398909605718688
1482.0,0.008675463906516813
1481.0,0.00913083928564155
1480.0,0.009731434984797355
1479.0,0.010475543696492388
1478.0,0.011748375039875896
1477.0,0.014161806715302233
1476.0,0.018012573889234093
1475.0,0.023009512743231653
1474.0,0.029165516529101293
1473.0,0.03568626164144344
1472.0,0.039171995045715384
1471.0,0.038760370209206765
1470.0,0.03708762087803468
1469.0,0.03546770459412763
1468.0,0.03402083638057485
1467.0,0.03280580488656654
1466.0,0.03207377991046839
1465.0,0.031952880151253624
1464.0,0.03185407779572048
1463.0,0.031107101619709802
1462.0,0.029643630544186866
1461.0,0.02766022308305962
1460.0,0.025329401442116085
1459.0,0.022868255936468785
1458.0,0.02040368576014208
1457.0,0.018219959491662538
1456.0,0.01688404699741985
1455.0,0.016300183800656592
1454.0,0.015927766434266643
1453.0,0.015487382080205926
1452.0,0.014982505625116126
1451.0,0.014559282613078053
1450.0,0.014262155739560536
1449.0,0.014006236969595322
1448.0,0.013747382021535973
1447.0,0.013558065031035908
1446.0,0.013466688288440304
1445.0,0.013399325766087499
1444.0,0.013314536924059931
1443.0,0.013228532742819443
1442.0,0.013157361963178477
1441.0,0.013092977752606389
1440.0,0.013040170111202117
1439.0,0.01300953332457383
1438.0,0.012970447195255832
1437.0,0.012845747156000283
1436.0,0.012644067758022102
1435.0,0.012506111690996299
1434.0,0.012461795398476253
1433.0,0.012415288586829585
1432.0,0.012311592289520525
1431.0,0.01216674748628975
1430.0,0.01200629516031157
1429.0,0.01183439776519853
1428.0,0.011674617904003919
1427.0,0.011562950148130913
1426.0,0.01148248952725208
1425.0,0.011369394683001088
1424.0,0.01121033537552528
1423.0,0.01107657084169444
1422.0,0.011014623889043177
1421.0,0.010970244265652376
1420.0,0.010862715480097245
1419.0,0.010675434133440943
1418.0,0.010469550921778807
1417.0,0.01029831321596934
1416.0,0.010151596742272097
1415.0,0.010009177637061765
1414.0,0.009859527490148165
1413.0,0.009681629199540402
1412.0,0.009459949376264598
1411.0,0.009207796225694861
1410.0,0.008950388403158335
1409.0,0.008698281763877122
1408.0,0.00845209901082046
1407.0,0.008214000662816363
1406.0,0.00796734912553117
1405.0,0.0076780270651517595
1404.0,0.0073787453537558605
1403.0,0.007155916303682938
1402.0,0.007016739882344461
1401.0,0.006876962691139183
1400.0,0.00666275629809549
1399.0,0.006396225644053967
1398.0,0.006159341404636644
1397.0,0.005965273946712054
1396.0,0.005760124312174413
1395.0,0.005530219246533791
1394.0,0.0053143087840111045
1393.0,0.005142895561981118
1392.0,0.005020160753871924
1391.0,0.0049344417757493115
1390.0,0.004858796240825029
1389.0,0.0047525412138871015
1388.0,0.004595985079078843
1387.0,0.004429779802999349
1386.0,0.0043100946679583
1385.0,0.004240598499386737
1384.0,0.004203113921325798
1383.0,0.004195568262316212
1382.0,0.004214543140147907
1381.0,0.004239852599995261
1380.0,0.004252458759566306
1379.0,0.004248510596407174
1378.0,0.004217969787520041
1377.0,0.0041431207281142565
1376.0,0.0040257938448303825
1375.0,0.0039045634690336034
1374.0,0.0038230399152560466
1373.0,0.003788432816165895
1372.0,0.003789041565753713
1371.0,0.0038084231482789273
1370.0,0.0038116008488980543
1369.0,0.003760190683667534
1368.0,0.003658761232451317
1367.0,0.0035488920386610463
1366.0,0.0034448761541289
1365.0,0.0033183494374650797
1364.0,0.0031484249469371037
1363.0,0.002958548248250939
1362.0,0.0027900124317027427
1361.0,0.0026584977968725308
1360.0,0.0025626163665925412
1359.0,0.002497235575012422
1358.0,0.0024455143125609365
1357.0,0.00238740179238291
1356.0,0.002324547579956973
1355.0,0.0022777335736715205
1354.0,0.00224872518251259
1353.0,0.0022140782158997507
1352.0,0.0021598808244485037
1351.0,0.0020939068063453303
1350.0,0.0020188305772325006
1349.0,0.0019240654841758287
1348.0,0.001817151688933592
1347.0,0.0017221930277204426
1346.0,0.001645678049727376
1345.0,0.0015723613945145699
1344.0,0.001497413466247547
1343.0,0.0014306372438593114
1342.0,0.0013689842997469514
1341.0,0.0012943859411857304
1340.0,0.001208760499538379
1339.0,0.0011396910228209257
1338.0,0.0010912045410498353
1337.0,0.001037943816922765
1336.0,0.0009737946524602343
1335.0,0.0009174656753945425
1334.0,0.0008765377575349507
1333.0,0.0008369256462953207
1332.0,0.0007918875780477397
1331.0,0.0007573799045509045
1330.0,0.0007461169871330704
1329.0,0.0007500767911400386
1328.0,0.0007586878891897549
1327.0,0.0007710726023024113
1326.0,0.0007819525351829872
1325.0,0.0007797744722579329
1324.0,0.0007674380601222601
1323.0,0.0007598807654891045
1322.0,0.0007597719304678792
1321.0,0.0007569743816092664
1320.0,0.0007531759297951914
1319.0,0.0007610623304383224
1318.0,0.0007744947356901196
1317.0,0.0007724837797397953
1316.0,0.0007552231344422665
1315.0,0.0007423966371524551
1314.0,0.0007387990932342919
1313.0,0.0007299091312404507
1312.0,0.0007137525743113647
1311.0,0.0007081108828141565
1310.0,0.0007182682786332486
1309.0,0.0007282126148488366
1308.0,0.0007269348834440803
1307.0,0.0007193117365954732
1306.0,0.0007068569767027964
1305.0,0.0006817597837606706
1304.0,0.0006479413329521554
1303.0,0.0006224496627917761
1302.0,0.0006099712322077547
1301.0,0.0005962681313360597
1300.0,0.0005730895808893962
1299.0,0.0005481938833425066
1298.0,0.0005261845057991472
1297.0,0.0005004367169641356
1296.0,0.0004691981415422984
1295.0,0.00043923608417035555
1294.0,0.00040896707356340937
1293.0,0.0003698233672362822
1292.0,0.00032728121607065574
1291.0,0.0002989715979514187
1290.0,0.00028807298581972045
1289.0,0.000279015269655878
1288.0,0.0002635372456957514
1287.0,0.00024969784678790814
1286.0,0.0002416463546775112
1285.0,0.00023392733383680725
1284.0,0.00022854539057477578
1283.0,0.00023449332229167653
1282.0,0.00024859182064756666
1281.0,0.0002584115055187051
1280.0,0.0002659356667972313
1279.0,0.000284579620223142
1278.0,0.00031051614360371165
1277.0,0.000323521502821467
1276.0,0.000319980309924711
1275.0,0.0003197779416140231
1274.0,0.0003352291495637809
1273.0,0.0003577364216853923
1272.0,0.0003816113562748972
1271.0,0.00041623149742399217
1270.0,0.0004640626869045431
1269.0,0.0005109720606856372
1268.0,0.0005500915218226727
1267.0,0.0005925521119053232
1266.0,0.0006450142242539134
1265.0,0.0006965933395730213
1264.0,0.0007366249528712853
1263.0,0.0007676246934904783
1262.0,0.0007930293045811873
1261.0,0.0008088308205153952
1260.0,0.0008154009313043626
1259.0,0.0008218792853177982
1258.0,0.0008313064244408596
1257.0,0.0008373319922684811
1256.0,0.0008398772491675678
1255.0,0.0008477227856231312
1254.0,0.0008618658113071047
1253.0,0.0008732012386834312
1252.0,0.0008812692638551726
1251.0,0.0008979156609220905
1250.0,0.0009269121873218544
1249.0,0.000957362136282525
1248.0,0.0009831252988394372
1247.0,0.0010120552077099668
1246.0,0.001050105073801131
1245.0,0.0010918909998338736
1244.0,0.0011321989091566433
1243.0,0.0011721121225121978
1242.0,0.0012089471457883416
1241.0,0.0012349033336648881
1240.0,0.0012506008824731806
1239.0,0.0012674045622813532
1238.0,0.001292673514899664
1237.0,0.0013242026621885679
1236.0,0.0013605660185573142
1235.0,0.001402675712813219
1234.0,0.0014431985624487904
1233.0,0.0014698119741573517
1232.0,0.0014828148992365835
1231.0,0.0014966151197280588
1230.0,0.0015205966201805518
1229.0,0.0015497347536138004
1228.0,0.0015751061092274705
1227.0,0.0015919789483413976
1226.0,0.0015980994867435174
1225.0,0.0015968190091858007
1224.0,0.0016013245085517071
1223.0,0.0016224941108246866
1222.0,0.001653260808406061
1221.0,0.0016777764489186893
1220.0,0.001693629557416398
1219.0,0.0017111552637546594
1218.0,0.001734117022524139
1217.0,0.0017577466316695978
1216.0,0.0017831744645712307
1215.0,0.001814576649440536
1214.0,0.0018428864703389919
1213.0,0.0018529483226187998
1212.0,0.001849705942038326
1211.0,0.0018580169185899512
1210.0,0.0018911149200352122
1209.0,0.001936113447348323
1208.0,0.0019745761304386517
1207.0,0.002001128106039307
1206.0,0.002018979588866439
1205.0,0.002032687804513175
1204.0,0.0020497558807636308
1203.0,0.0020759616335145753
1202.0,0.0021056522630523676
1201.0,0.002128971566598947
1200.0,0.002149412844455389
1199.0,0.0021805446658826437
1198.0,0.0022250342619773867
1197.0,0.0022723535627598053
1196.0,0.002318286025469119
1195.0,0.00237070620612336
1194.0,0.0024333535154127638
1193.0,0.0024989300686180677
1192.0,0.002562298678213783
1191.0,0.0026272741169896183
1190.0,0.0026968648889920503
1189.0,0.002768670027974811
1188.0,0.00284250781865282
1187.0,0.002921657148963917
1186.0,0.0030061548579349406
1185.0,0.0030965827145930623
1184.0,0.0032033139757894156
1183.0,0.0033371970906471184
1182.0,0.0034897724175233565
1181.0,0.0036373743077022704
1180.0,0.0037684083142688445
1179.0,0.003894122121935552
1178.0,0.004028011856772498
1177.0,0.00416560634829103
1176.0,0.004289088819651201
1175.0,0.004384492746010427
1174.0,0.004452485424514624
1173.0,0.004507652678787694
1172.0,0.004568461220653906
1171.0,0.004644707065221534
1170.0,0.004733487681295848
1169.0,0.004826407078144983
1168.0,0.004915648749627672
1167.0,0.004991896978425109
1166.0,0.0050462788050586686
1165.0,0.005081820943870033
1164.0,0.005115698120154135
1163.0,0.005162237175108164
1162.0,0.005219314059420457
1161.0,0.005278127995342555
1160.0,0.005339155999387744
1159.0,0.0054090071225464595
1158.0,0.005486917011623528
1157.0,0.005563320738570932
1156.0,0.005627900931796128
1155.0,0.005674001000946279
1154.0,0.0057034011579564555
1153.0,0.005733146376601623
1152.0,0.005787621722357094
1151.0,0.0058733515510521524
1150.0,0.005968382108744013
1149.0,0.006046819947189084
1148.0,0.006106735215865647
1147.0,0.006164342553603087
1146.0,0.006229452329703086
1145.0,0.006298743792973254
1144.0,0.006367601247866766
1143.0,0.006436595957113763
1142.0,0.006508616277293764
1141.0,0.006587140534406941
1140.0,0.006672800628360665
1139.0,0.00675557247170349
1138.0,0.0068184129185395095
1137.0,0.006857052348156593
1136.0,0.006888446064961026
1135.0,0.006930681594432889
1134.0,0.00698237845389452
1133.0,0.0070322440536651175
1132.0,0.007080935023385037
1131.0,0.0071408515158499185
1130.0,0.007218944385819867
1129.0,0.007310650878255456
1128.0,0.0074067090225441515
1127.0,0.007495621060490145
1126.0,0.007564363654383122
1125.0,0.0076082876147182815
1124.0,0.007638981337744443
1123.0,0.007674764165915414
1122.0,0.007725122079525047
1121.0,0.007789273946201804
1120.0,0.007863611402317356
1119.0,0.007941025310318692
1118.0,0.008007448005600305
1117.0,0.008050724753562083
1116.0,0.00807434056816508
1115.0,0.008097176801887287
1114.0,0.008138220101034665
1113.0,0.008201675388064676
1112.0,0.008274157888972164
1111.0,0.00833543802317788
1110.0,0.008377191606094032
1109.0,0.008412968332295833
1108.0,0.008462921795220325
1107.0,0.008527680020546862
1106.0,0.00858641576605055
1105.0,0.008623157183322329
1104.0,0.008644565923070668
1103.0,0.008667193219522883
1102.0,0.008697777237269791
1101.0,0.008732891132933143
1100.0,0.008767976133777378
1099.0,0.008797709197666745
1098.0,0.00881299594642589
1097.0,0.008807093654427858
1096.0,0.008784240225406456
1095.0,0.008756865991169992
1094.0,0.00873577043464276
1093.0,0.00872452760808375
1092.0,0.008719799335917957
1091.0,0.00871437330193954
1090.0,0.008703771349462337
1089.0,0.008691883931072567
1088.0,0.008685319778447095
1087.0,0.008681216137095306
1086.0,0.008668497974864044
1085.0,0.008644277819124187
1084.0,0.008619495228447543
1083.0,0.008601643412904932
1082.0,0.00857980828368976
1081.0,0.008536107175536056
1080.0,0.008467213251684744
1079.0,0.00838546085709821
1078.0,0.00830145891238162
1077.0,0.008215086640105649
1076.0,0.008124070678283465
1075.0,0.00803294359360314
1074.0,0.007950450747135584
1073.0,0.007883285903357282
1072.0,0.007834355961909702
1071.0,0.007801282038699682
1070.0,0.0077731483251896084
1069.0,0.0077335087927911
1068.0,0.007670662967232025
1067.0,0.007584749410322163
1066.0,0.007486180676193659
1065.0,0.007390412369480365
1064.0,0.007313091242310291
1063.0,0.007262654085467404
1062.0,0.007232499750074065
1061.0,0.007204856357401597
1060.0,0.00716743993280599
1059.0,0.007124435168848548
1058.0,0.007088075995860258
1057.0,0.007062358388264876
1056.0,0.007040203571328098
1055.0,0.007014294649018232
1054.0,0.006983431595541892
1053.0,0.006946317328214532
1052.0,0.006896007140898448
1051.0,0.006829620106366396
1050.0,0.006762588532000114
1049.0,0.006721187471316423
1048.0,0.0067148922071547865
1047.0,0.006723471933637464
1046.0,0.006717069960034967
1045.0,0.006684403454196009
1044.0,0.006636005717427326
1043.0,0.006583963315680563
1042.0,0.006526887404183661
1041.0,0.006457320505416496
1040.0,0.006377495574232117
1039.0,0.006299084613089083
1038.0,0.006227277062783136
1037.0,0.00615430833141261
1036.0,0.006074933943791699
1035.0,0.006002140497483911
1034.0,0.005956787456182968
1033.0,0.005939912933409803
1032.0,0.005923908691658524
1031.0,0.005877492219530822
1030.0,0.005795691516126985
1029.0,0.0056990878766555245
1028.0,0.005606715001743888
1027.0,0.005519613804357254
1026.0,0.005431749956738058
1025.0,0.005345817441666163
1024.0,0.005269661842506223
1023.0,0.005201937863983331
1022.0,0.005131305003664282
1021.0,0.005050695037115829
1020.0,0.0049651710801453825
1019.0,0.004882990681341334
1018.0,0.00480497352302338
1017.0,0.004726779653870767
1016.0,0.0046463086962943954
1015.0,0.004562182290288179
1014.0,0.004468097160295514
1013.0,0.004356949298211796
1012.0,0.0042318311347245025
1011.0,0.004107737869305008
1010.0,0.003999886517538128
1009.0,0.003912786556935477
1008.0,0.0038410513360649153
1007.0,0.003775970994176604
1006.0,0.003708694314840043
1005.0,0.0036308866773209925
1004.0,0.0035364213963344666
1003.0,0.0034233340983364034
1002.0,0.0032949140561821556
1001.0,0.003160267367635458
1000.0,0.0030319419872234243
999.0,0.002917532893819911
998.0,0.002811558870712603
997.0,0.002700055701262945
996.0,0.002576254751827635
995.0,0.0024485956215402494
994.0,0.002330482443702993
993.0,0.0022246825816799928
992.0,0.002121034029430483
991.0,0.0020077308488183412
990.0,0.001881328255472707
989.0,0.001746471508029878
988.0,0.0016098041652194
987.0,0.0014765857461445531
986.0,0.001352485286054408
985.0,0.0012453389614481124
984.0,0.001160116820512978
983.0,0.0010895284419123984
982.0,0.0010143825939027493
981.0,0.0009198697298584101
980.0,0.0008101951980607099
979.0,0.0007019937043286125
978.0,0.000604989424067167
977.0,0.0005156361754083075
976.0,0.00042840927869922454
975.0,0.00034386859994491904
974.0,0.00026318083806364106
973.0,0.0001826366953222025
972.0,9.787410620535307e-05
971.0,8.717843061389896e-06
970.0,-8.279044911439423e-05
969.0,-0.00017481352762243815
968.0,-0.0002644007702020338
967.0,-0.0003480839300181518
966.0,-0.0004256499352683109
965.0,-0.0005002589497398405
964.0,-0.000574874066777073
963.0,-0.0006520767173428706
962.0,-0.0007349011046139838
961.0,-0.0008215391940720514
960.0,-0.0009017084712945028
959.0,-0.0009667275177291136
958.0,-0.0010219711997738468
957.0,-0.001080119575795532
956.0,-0.0011429858713335479
955.0,-0.0012005190810689837
954.0,-0.0012478625936732102
953.0,-0.001291720744900273
952.0,-0.0013377172071338296
951.0,-0.001383383866048922
950.0,-0.0014278781681364983
949.0,-0.0014773743315769135
948.0,-0.0015346094966745619
947.0,-0.0015917392382796755
946.0,-0.0016391484353693708
945.0,-0.0016742793008573745
944.0,-0.0016980287156831628
943.0,-0.0017106059289650217
942.0,-0.0017156382192921732
941.0,-0.0017211288658306474
940.0,-0.001731640796122107
939.0,-0.0017445317275532144
938.0,-0.0017559378526038893
937.0,-0.0017652551466533356
936.0,-0.0017736985800853554
935.0,-0.0017854710476615954
934.0,-0.0018091720578246664
933.0,-0.0018481841500013734
932.0,-0.001889746654597584
931.0,-0.0019147415022605294
930.0,-0.0019205573598830676
929.0,-0.0019236281351313021
928.0,-0.0019369422230647252
927.0,-0.00195648010613411
926.0,-0.0019728640960990675
925.0,-0.0019840884901942326
924.0,-0.001991259136637457
923.0,-0.001993024430755913
922.0,-0.001991465114138965
921.0,-0.001994477665429881
920.0,-0.002005648861956432
919.0,-0.002019121818962865
918.0,-0.0020291318408536367
917.0,-0.0020361829549891686
916.0,-0.0020391884948390906
915.0,-0.0020314976491679106
914.0,-0.0020122838808300826
913.0,-0.0019940894952615203
912.0,-0.001990900171586223
911.0,-0.002003481958131102
910.0,-0.002021717402373951
909.0,-0.0020363815787718745
908.0,-0.0020441763727437993
907.0,-0.0020470809394987806
906.0,-0.002051592627350057
905.0,-0.0020629744635644025
904.0,-0.0020773470123392063
903.0,-0.0020867632981980844
902.0,-0.0020946711214664057
901.0,-0.002116140417018403
900.0,-0.0021565845719843935
899.0,-0.0021991810284547417
898.0,-0.0022218620410376175
897.0,-0.0022207328361407708
896.0,-0.0022087272177633444
895.0,-0.002197024388076802
894.0,-0.002186573016153307
893.0,-0.0021745064962255655
892.0,-0.0021608171295210473
891.0,-0.0021483342214744794
890.0,-0.002139056419354912
889.0,-0.0021293472127632915
888.0,-0.002108318481966815
887.0,-0.002065022809362974
886.0,-0.0019984385206625217
885.0,-0.0019143402306998018
884.0,-0.001809905743188069
883.0,-0.0016680387867322108
882.0,-0.0014719041008638134
881.0,-0.0012227929674381265
880.0,-0.0009433444804258489
879.0,-0.0006686560552064662
878.0,-0.0004330145782817686
877.0,-0.0002567088034079526
876.0,-0.00014287292889074953
875.0,-8.925554843456501e-05
874.0,-0.0001023334838796755
873.0,-0.00019717526222433508
872.0,-0.0003816755036255264
871.0,-0.0006395018015434989
870.0,-0.0009281927836446505
869.0,-0.0011953937985858185
868.0,-0.0014006913672270725
867.0,-0.0015313602028233647
866.0,-0.0016050925305721771
865.0,-0.001654051408203655
864.0,-0.0017004218034556966
863.0,-0.0017471400683189888
862.0,-0.0017888705432521981
861.0,-0.0018222755408042763
860.0,-0.0018422148051660224
859.0,-0.001838026862500031
858.0,-0.0018047085826632774
857.0,-0.0017559946014413363
856.0,-0.0017184984262865466
855.0,-0.001710963777236332
854.0,-0.00173081232630138
853.0,-0.0017596723007019723
852.0,-0.0017786272699359864
851.0,-0.0017788575854372941
850.0,-0.0017635410145460991
849.0,-0.0017435060043632829
848.0,-0.0017299712696515965
847.0,-0.0017283856037394203
846.0,-0.0017366069892929565
845.0,-0.0017479266281093635
844.0,-0.0017558019431524133
843.0,-0.0017562577718146354
842.0,-0.001747216444845684
841.0,-0.001727201760454121
840.0,-0.0016957503959717287
839.0,-0.0016547444995409725
838.0,-0.0016082548550665557
837.0,-0.0015618163479477476
836.0,-0.0015237084293498685
835.0,-0.0015041822229091926
834.0,-0.0015067951428312226
833.0,-0.0015201813113306373
832.0,-0.0015255077824105883
831.0,-0.0015155147209753844
830.0,-0.0015009508047466261
829.0,-0.0014926505048900984
828.0,-0.0014820555505842738
827.0,-0.0014493494356992136
826.0,-0.0013905514543627543
825.0,-0.001325650465552896
824.0,-0.0012766145893186726
823.0,-0.0012475308382217075
822.0,-0.0012295110024282997
821.0,-0.0012125904357655117
820.0,-0.0011850137282122045
819.0,-0.0011316527726891422
818.0,-0.0010474848725783893
817.0,-0.0009517349489235397
816.0,-0.0008770273361039423
815.0,-0.00083761407883131
814.0,-0.0008133774131381319
813.0,-0.0007740929146770811
812.0,-0.0007158015921270872
811.0,-0.0006608515626142838
810.0,-0.0006227143531571579
809.0,-0.0005865354145008651
808.0,-0.0005316811998879508
807.0,-0.00046082422068132074
806.0,-0.0003950484897282565
805.0,-0.00034786739781478455
804.0,-0.0003162352562115136
803.0,-0.00029196585694636797
802.0,-0.0002694080197117657
801.0,-0.0002447840251170088
800.0,-0.00021941647753367932
799.0,-0.00020274585659802412
798.0,-0.0002025338817095209
797.0,-0.00021278582043593453
796.0,-0.00021995401444842647
795.0,-0.00021931786169449713
794.0,-0.0002168215023194732
793.0,-0.00021685527532498347
792.0,-0.00021798852889304797
791.0,-0.00021969749891952682
790.0,-0.00022301453411022014
789.0,-0.00022436502702391503
788.0,-0.0002173496398177547
787.0,-0.00020077474622196868
786.0,-0.00017715661901373733
785.0,-0.00014384400558970813
784.0,-9.625319207983915e-05
783.0,-4.185156557675804e-05
782.0,3.589766816459311e-07
781.0,1.947274732405982e-05
780.0,2.3569042728453782e-05
779.0,2.6677896140418073e-05
778.0,3.3132225703058626e-05
777.0,4.060337700451111e-05
776.0,5.173307362765257e-05
775.0,7.335426580980242e-05
774.0,0.00010456824563818967
773.0,0.00013278963439550089
772.0,0.00014468355446117277
771.0,0.00013943843621842637
770.0,0.00013128960048402506
769.0,0.0001395347140621256
768.0,0.00017501168633423346
767.0,0.0002337280241880256
766.0,0.00030003064149050976
765.0,0.0003539306821843894
764.0,0.0003778543084909016
763.0,0.0003651757205913042
762.0,0.00032933129042104353
761.0,0.0002999598563737677
760.0,0.0003002176147562114
759.0,0.00032478394467461147
758.0,0.0003453679046770703
757.0,0.0003426813834744927
756.0,0.00032834825908766366
755.0,0.0003275905763420149
754.0,0.00034322597901735585
753.0,0.0003508765834843181
752.0,0.0003371052945176419
751.0,0.00032844058772416203
750.0,0.00036485470410346776
749.0,0.0004505660967561685
748.0,0.0005506520092244619
747.0,0.0006337994311884764
746.0,0.000694810953015542
745.0,0.000731524325837684
744.0,0.0007296965852685109
743.0,0.0006882419794355821
742.0,0.0006358542321888636
741.0,0.0006014449607419405
740.0,0.000588895429537821
739.0,0.0006041677031448107
738.0,0.0006820680358608569
737.0,0.0008587862485063633
736.0,0.0011571946613317986
735.0,0.0016511965703933928
734.0,0.002504941662879484
733.0,0.003837097702767585
732.0,0.005485924514112034
731.0,0.006958298852754067
730.0,0.007727157899221189
729.0,0.007645860425141059
728.0,0.007039190147385646
727.0,0.006406674104405381
726.0,0.006103783773221922
725.0,0.0062603150710665925
724.0,0.006888155386476084
723.0,0.008013456031687075
722.0,0.009705530043573118
721.0,0.011966664879843738
720.0,0.014574889799234422
719.0,0.017086066015871072
718.0,0.019035894798344104
717.0,0.020056354558847626
716.0,0.019839448356385354
715.0,0.01827520643574529
714.0,0.015718917780627572
713.0,0.012885174603308208
712.0,0.01037806296506823
711.0,0.00841706569571685
710.0,0.006946137082872429
709.0,0.005848898631901148
708.0,0.005036282042857491
707.0,0.004428735877497203
706.0,0.003953853575546111
705.0,0.003572555566404026
704.0,0.003268991760621582
703.0,0.0030141540302668184
702.0,0.0027729472367985612
701.0,0.0025399916388873234
700.0,0.0023338820505151917
699.0,0.0021593425298925793
698.0,0.002000116028271593
697.0,0.0018480335763192864
696.0,0.0017110150317496547
695.0,0.0015894897253266906
694.0,0.0014742756509649908
693.0,0.0013682686887601936
692.0,0.0012866981793804438
691.0,0.0012345169360455724
690.0,0.0011981946294044206
689.0,0.0011614783101664972
688.0,0.001113290048384525
687.0,0.001044379620023999
686.0,0.0009608261830848126
685.0,0.0008917149789271009
684.0,0.000858285892133076
683.0,0.0008426090857842558
682.0,0.0008052100686108711
681.0,0.0007311892772084785
680.0,0.0006407527658981553
679.0,0.0005619455199735238
678.0,0.0005096598864508927
677.0,0.00048758579458266574
676.0,0.0004919919971248833
675.0,0.000503008210957924
674.0,0.0004967082024817174
673.0,0.0004756925684636093
672.0,0.00047177565156493115
671.0,0.0005293231674651025
670.0,0.0006657653949595534
669.0,0.000829703360969599
668.0,0.0008216495759807846
667.0,0.0005513839819713227
666.0,0.0002509961775692647
665.0,8.39048129228203e-05
664.0,2.054273224894737e-05
663.0,3.0444245130226144e-06
662.0,-6.132141745118086e-06
661.0,-1.1485738185918956e-05
660.0,-2.2654267250281357e-05
659.0,-6.73585257828218e-05
658.0,-0.0001487754580422225
657.0,-0.0002235881716143931
656.0,-0.00025064355882129137
655.0,-0.00024472699736221605
654.0,-0.00025061038721601453
653.0,-0.0002857850101071202
652.0,-0.00034123168242319694
651.0,-0.00041290113940995084
650.0,-0.0004887675264672268
649.0,-0.0005292691120244598
648.0,-0.0005102695487678201
647.0,-0.00047462544427561565
646.0,-0.0004944113714143404
645.0,-0.0005890292334717138
644.0,-0.0007247527129726327
643.0,-0.0008711262548822766
642.0,-0.0010117986929020495
641.0,-0.0011205432924586093
640.0,-0.0011786626542546665
639.0,-0.001216194110931974
638.0,-0.0012837917573955936
637.0,-0.001375595578446338
636.0,-0.0014321842876345268
635.0,-0.0014316351708238383
634.0,-0.0014228041508250796
633.0,-0.001442362513544673
632.0,-0.0014609167142030262
631.0,-0.0014476402385421513
630.0,-0.0014321734085922765
629.0,-0.001461563333987153
628.0,-0.0015323599714544538
627.0,-0.0016068292877153938
626.0,-0.001671119067810185
625.0,-0.0017362392059936393
624.0,-0.001792193885186021
623.0,-0.0018062493620096282
622.0,-0.0017758886131287212
621.0,-0.001746576958028951
620.0,-0.0017637199741870804
619.0,-0.0018223438453615817
618.0,-0.0018712806737827183
617.0,-0.0018716299392169764
616.0,-0.0018453514544958787
615.0,-0.0018509808775063388
614.0,-0.0019120103819040783
613.0,-0.001992383881278032
612.0,-0.0020422797145087067
611.0,-0.0020463404297898606
610.0,-0.002022370879755285
609.0,-0.0019850923988715824
608.0,-0.0019378473428019148
607.0,-0.001900066275417004
606.0,-0.0019047441013000776
605.0,-0.0019567823651185524
604.0,-0.002020926500816044
603.0,-0.0020613624515507557
602.0,-0.0020814814026449673
601.0,-0.0021217707360383885
600.0,-0.002225063084904156
