cm-1,A
4000.0,0.004612415404350478
3999.0,0.004615662995442201
3998.0,0.004619869566705977
3997.0,0.0046206607274472695
3996.0,0.004617074781620984
3995.0,0.004613238476221747
3994.0,0.004614935620711965
3993.0,0.004623072617846045
3992.0,0.004632106767764407
3991.0,0.004635473191218054
3990.0,0.004632151230029311
3989.0,0.004628316331575924
3988.0,0.0046306404639465375
3987.0,0.004639907423555418
3986.0,0.004651102630038742
3985.0,0.004658047450017721
3984.0,0.004658503327213191
3983.0,0.004654426086047344
3982.0,0.004650354228509613
3981.0,0.004650824599110142
3980.0,0.004658255031676918
3979.0,0.004671899439095482
3978.0,0.00468711873097668
3977.0,0.00469756517138745
3976.0,0.004698900346440922
3975.0,0.004692168232911522
3974.0,0.004682042040864973
3973.0,0.0046718491791252065
3972.0,0.004661837532986116
3971.0,0.004651181615886391
3970.0,0.004641303147688108
3969.0,0.004636093489187871
3968.0,0.004638352437990044
3967.0,0.004647385867131672
3966.0,0.004660002252126559
3965.0,0.0046721185619213144
3964.0,0.004679604271789871
3963.0,0.00467990497688785
3962.0,0.004672467377859006
3961.0,0.00465932271421066
3960.0,0.004645211973493993
3959.0,0.00463470263660782
3958.0,0.004630654177376236
3957.0,0.0046331495960940565
3956.0,0.004639164423322753
3955.0,0.004645753015633562
3954.0,0.004651765886032728
3953.0,0.00465741980130816
3952.0,0.004662957492161609
3951.0,0.004665898308892733
3950.0,0.0046648466128250046
3949.0,0.004661807243353296
3948.0,0.004661354622219631
3947.0,0.004666177544692594
3946.0,0.0046698016147274125
3945.0,0.004663935073746777
3944.0,0.004645893786249381
3943.0,0.00462182182383409
3942.0,0.004607257446351396
3941.0,0.0046104160970710205
3940.0,0.004626307963994814
3939.0,0.0046461548349254825
3938.0,0.004665136073376443
3937.0,0.00468414390902163
3936.0,0.004702321618488188
3935.0,0.004715564816806682
3934.0,0.004717952904911857
3933.0,0.004706558181542282
3932.0,0.004683273842413608
3931.0,0.004657180960508746
3930.0,0.004639433513827046
3929.0,0.004631394741231536
3928.0,0.004626596434979477
3927.0,0.004617525542984425
3926.0,0.004605350121888381
3925.0,0.004598678945719012
3924.0,0.004605646954951886
3923.0,0.004626601140445521
3922.0,0.004651775013764518
3921.0,0.004673757684714417
3920.0,0.004690387226144501
3919.0,0.004698268950268655
3918.0,0.004693374722081588
3917.0,0.004673681717200893
3916.0,0.004646041766848122
3915.0,0.00462292429697628
3914.0,0.00461095474075834
3913.0,0.004611825100172704
3912.0,0.0046235825853560945
3911.0,0.004641933113269071
3910.0,0.0046629513493598685
3909.0,0.00468240976270677
3908.0,0.004694561473168199
3907.0,0.004695092067007757
3906.0,0.004686041897404191
3905.0,0.004675581604761562
3904.0,0.004674018272687278
3903.0,0.00467967565133274
3902.0,0.0046758279532716504
3901.0,0.004652416351152995
3900.0,0.004618597752679764
3899.0,0.004597095796292615
3898.0,0.0046020008867421365
3897.0,0.004623599379173085
3896.0,0.004647595275190199
3895.0,0.004665573501372453
3894.0,0.004671272861963494
3893.0,0.0046630610472335726
3892.0,0.004649307165951283
3891.0,0.004654142214185383
3890.0,0.004688168667271954
3889.0,0.004729155962340632
3888.0,0.004750771057413882
3887.0,0.0047457820798372545
3886.0,0.004722409839749815
3885.0,0.004698617800133593
3884.0,0.004682866087749436
3883.0,0.004659359564050249
3882.0,0.004614977380022438
3881.0,0.004564011701125802
3880.0,0.004540591368833465
3879.0,0.00456394230281588
3878.0,0.004610849945515644
3877.0,0.004645765223139912
3876.0,0.004656606969309412
3875.0,0.0046537095082687385
3874.0,0.004656776346563021
3873.0,0.00467568130396532
3872.0,0.004696457822615855
3871.0,0.004694864137788298
3870.0,0.004671345273556248
3869.0,0.004656365471970028
3868.0,0.004663491326144224
3867.0,0.004674301447354231
3866.0,0.00467336562249768
3865.0,0.004655193238352207
3864.0,0.004625221370542408
3863.0,0.004600043811760646
3862.0,0.004594634631443738
3861.0,0.004611687452442043
3860.0,0.004639472652234957
3859.0,0.004667090139718091
3858.0,0.004690213532702977
3857.0,0.004710320036852759
3856.0,0.004730648580769547
3855.0,0.004740694881650898
3854.0,0.004728233015723266
3853.0,0.004709502884035111
3852.0,0.004705445082150823
3851.0,0.004696111821814893
3850.0,0.004669107139537473
3849.0,0.0046434732622769375
3848.0,0.004632037595690854
3847.0,0.004631653580398636
3846.0,0.004634445676978114
3845.0,0.004634026472333749
3844.0,0.0046332124680706875
3843.0,0.004639715585736166
3842.0,0.004656564757672329
3841.0,0.004675449695203221
3840.0,0.004679625978589622
3839.0,0.004663475539752566
3838.0,0.004641010053447561
3837.0,0.004627859690780486
3836.0,0.004623007091135674
3835.0,0.0046142014002302206
3834.0,0.004600178934501911
3833.0,0.004589587307148867
3832.0,0.004590083136011863
3831.0,0.004603879090518363
3830.0,0.004622958758803263
3829.0,0.004633452377037745
3828.0,0.004628599788678025
3827.0,0.004619225355636732
3826.0,0.004624877074282643
3825.0,0.004652866818531401
3824.0,0.004686789457900372
3823.0,0.004698335298495108
3822.0,0.004672449975944985
3821.0,0.004631060234382772
3820.0,0.00462094024746599
3819.0,0.00463977292330097
3818.0,0.004650538200514488
3817.0,0.0046402641053168185
3816.0,0.004626037452778532
3815.0,0.0046268426087560524
3814.0,0.004637648308573375
3813.0,0.004642474755632616
3812.0,0.004645548083132367
3811.0,0.004659919526553084
3810.0,0.004686849275669831
3809.0,0.004714293132875777
3808.0,0.004726938153005146
3807.0,0.004728005302903487
3806.0,0.004735114031310561
3805.0,0.004746030328489632
3804.0,0.0047426438441544785
3803.0,0.0047133263311709235
3802.0,0.0046660410776035235
3801.0,0.00463673002830344
3800.0,0.004641156935169737
3799.0,0.004646795324645544
3798.0,0.004628012143197654
3797.0,0.004599211232785134
3796.0,0.00458814887345509
3795.0,0.004602781068115501
3794.0,0.004627897483982166
3793.0,0.004645913974936239
3792.0,0.004653895464310421
3791.0,0.004656927212291679
3790.0,0.004660787048763772
3789.0,0.004668545139419032
3788.0,0.00467612345917413
3787.0,0.004675359215967175
3786.0,0.004663867238043256
3785.0,0.0046494958795842665
3784.0,0.0046435419662542755
3783.0,0.004648927297838069
3782.0,0.004655943820538307
3781.0,0.004655582891864482
3780.0,0.004647611246604607
3779.0,0.004644854145226936
3778.0,0.0046591898904681135
3777.0,0.0046849336192666576
3776.0,0.004710034890437322
3775.0,0.004731635015768804
3774.0,0.004753540433023225
3773.0,0.0047753889683208265
3772.0,0.004790265665961396
3771.0,0.004792909543642437
3770.0,0.0047911287207092115
3769.0,0.004796500090938449
3768.0,0.004802815199620242
3767.0,0.004796806714891216
3766.0,0.004781577279950262
3765.0,0.004774827193947699
3764.0,0.004786614922943298
3763.0,0.004806183639927574
3762.0,0.004817749346721137
3761.0,0.004816024460179262
3760.0,0.004803932058222833
3759.0,0.004795746542628456
3758.0,0.004809250731788508
3757.0,0.004850829748552276
3756.0,0.0049067766441906096
3755.0,0.004964424212188153
3754.0,0.005023452064263943
3753.0,0.005087934329197745
3752.0,0.00514228223996568
3751.0,0.005165091952763866
3750.0,0.005173589486779678
3749.0,0.005189688624240332
3748.0,0.005205967192408148
3747.0,0.005207138275118747
3746.0,0.005195491433133466
3745.0,0.005186298539714
3744.0,0.005206246033217787
3743.0,0.005243138256057064
3742.0,0.0052596641583837695
3741.0,0.0052574349212951
3740.0,0.005264094109507689
3739.0,0.005292967219870762
3738.0,0.00533302661433379
3737.0,0.005360772622796726
3736.0,0.005347393885314155
3735.0,0.0052923638333799115
3734.0,0.005244185823389524
3733.0,0.005245159416793332
3732.0,0.0052896419491666
3731.0,0.005347936796516741
3730.0,0.005398725097205806
3729.0,0.005437894026981356
3728.0,0.005467437568646398
3727.0,0.005482824758923645
3726.0,0.005481115230927557
3725.0,0.005468534252831268
3724.0,0.0054534729523115985
3723.0,0.005441305253336225
3722.0,0.005438034366546531
3721.0,0.0054477731854787066
3720.0,0.0054674648568846145
3719.0,0.0054948831460095915
3718.0,0.0055330490194833125
3717.0,0.005585791799528395
3716.0,0.005649080399100421
3715.0,0.00571875413732926
3714.0,0.005799581079796858
3713.0,0.0058930788311048355
3712.0,0.005978689972010416
3711.0,0.006032339597910709
3710.0,0.006062869428613412
3709.0,0.006093827831404211
3708.0,0.0061328812755448645
3707.0,0.006179290072525042
3706.0,0.006231512105255237
3705.0,0.006285276340610047
3704.0,0.00633386693435538
3703.0,0.006379393113393237
3702.0,0.006441137925953541
3701.0,0.006539096213677149
3700.0,0.006664145160669777
3699.0,0.006784601145895264
3698.0,0.006881504719515631
3697.0,0.006959889799634189
3696.0,0.007033257486945748
3695.0,0.007109569966085975
3694.0,0.007188027717591309
3693.0,0.007259554547128276
3692.0,0.007308679951924635
3691.0,0.007325077830002578
3690.0,0.007327505825801842
3689.0,0.007364471562948512
3688.0,0.007455890536913883
3687.0,0.007564162361441345
3686.0,0.007652274044771777
3685.0,0.00772398840463721
3684.0,0.007803714951166099
3683.0,0.007905303654540853
3682.0,0.0080249642988028
3681.0,0.008152451695566268
3680.0,0.008282087561755119
3679.0,0.008415509010448094
3678.0,0.00856179108573759
3677.0,0.008726827570814872
3676.0,0.008893146405056802
3675.0,0.009049032371527958
3674.0,0.00919952517414612
3673.0,0.009336192236479338
3672.0,0.009466273012264909
3671.0,0.009613010256954477
3670.0,0.00978413338332909
3669.0,0.009971243362202238
3668.0,0.010158254330115246
3667.0,0.010326145195639073
3666.0,0.010483106983119453
3665.0,0.010648217515600838
3664.0,0.010831200151703935
3663.0,0.011030106101382515
3662.0,0.011240950905454525
3661.0,0.011460535783772012
3660.0,0.011684884250057767
3659.0,0.011915083838322597
3658.0,0.01216455848946041
3657.0,0.012444106743611186
3656.0,0.012734958949330267
3655.0,0.012995312565710435
3654.0,0.013205593313787234
3653.0,0.013391456911486582
3652.0,0.013609042928616068
3651.0,0.013898775791737416
3650.0,0.014243037034958243
3649.0,0.014582444049469305
3648.0,0.014887345729725245
3647.0,0.015160988063900961
3646.0,0.01541475925033671
3645.0,0.0156567829653952
3644.0,0.015896584179209843
3643.0,0.016146074834465906
3642.0,0.016411753388230733
3641.0,0.016694216378542785
3640.0,0.016987146320013045
3639.0,0.017284208222390813
3638.0,0.017583817414317006
3637.0,0.017887404894729255
3636.0,0.018197415229709378
3635.0,0.01851258701807649
3634.0,0.01882364758030969
3633.0,0.019116875678505178
3632.0,0.019395514549053472
3631.0,0.019701465569550745
3630.0,0.020096986224181455
3629.0,0.02057822297897548
3628.0,0.02104562961026149
3627.0,0.021417221697898982
3626.0,0.02169592612946993
3625.0,0.021935480212471513
3624.0,0.022175033222459867
3623.0,0.022420340918915233
3622.0,0.02267293488106009
3621.0,0.02295106115181801
3620.0,0.023277545628164573
3619.0,0.02364998641590338
3618.0,0.024035949305329134
3617.0,0.024396638088588836
3616.0,0.024717780172762605
3615.0,0.025018247859851395
3614.0,0.025329345250705806
3613.0,0.025667175306167328
3612.0,0.026020440886534314
3611.0,0.026372788321164523
3610.0,0.026730216165059818
3609.0,0.027101323382834448
3608.0,0.027469047508683165
3607.0,0.027805407470938005
3606.0,0.028106936127362456
3605.0,0.028391900220730643
3604.0,0.028677845496280212
3603.0,0.0289760169932282
3602.0,0.029293746750831448
3601.0,0.029626944500438825
3600.0,0.029958050604240723
3599.0,0.030271552864350355
3598.0,0.03057368891169292
3597.0,0.030886520787244166
3596.0,0.031223732376538568
3595.0,0.03157752770517642
3594.0,0.03192903133360734
3593.0,0.03225803472746641
3592.0,0.03254965037044186
3591.0,0.032807562515491516
3590.0,0.033068775434487135
3589.0,0.03338765048543034
3588.0,0.03378374128782177
3587.0,0.034216973003654005
3586.0,0.0346311794787513
3585.0,0.03499579137383394
3584.0,0.03531267829455716
3583.0,0.035606826893757965
3582.0,0.0359097003105489
3581.0,0.03623710133436906
3580.0,0.036582055140499246
3579.0,0.03692778864457753
3578.0,0.03726875760631186
3577.0,0.0376112323565922
3576.0,0.037960033908747665
3575.0,0.03831387206020745
3574.0,0.03866876205037208
3573.0,0.03901673563812002
3572.0,0.039344098735768405
3571.0,0.03964821568815859
3570.0,0.03995667524146139
3569.0,0.040319288403476816
3568.0,0.0407555456076331
3567.0,0.041218982355995984
3566.0,0.04164857372002118
3565.0,0.042026069172124314
3564.0,0.04236525321072225
3563.0,0.04269011853754154
3562.0,0.043022805326310434
3561.0,0.043374883037933645
3560.0,0.04374036849162239
3559.0,0.04410640094585451
3558.0,0.04446701739080607
3557.0,0.04482175681346128
3556.0,0.04517022221808703
3555.0,0.04551852494940166
3554.0,0.04588241380586622
3553.0,0.046271215958344124
3552.0,0.04666982338530239
3551.0,0.047051789444838454
3550.0,0.04740897290751782
3549.0,0.04775981430618455
3548.0,0.04812875789860254
3547.0,0.04852358674449349
3546.0,0.048933303362088336
3545.0,0.04933884148938166
3544.0,0.04972436199045225
3543.0,0.050084854662598086
3542.0,0.05042850536815512
3541.0,0.05076888941484906
3540.0,0.0511137027891279
3539.0,0.05146716637876827
3538.0,0.05183641745445286
3537.0,0.05222343452731226
3536.0,0.052615120302668066
3535.0,0.052993393614584196
3534.0,0.05335445727541292
3533.0,0.053707702489106585
3532.0,0.054061888605493075
3531.0,0.05442014747544398
3530.0,0.05478849259110718
3529.0,0.055173630780919664
3528.0,0.05557019826377912
3527.0,0.05596290541409284
3526.0,0.05634461079533494
3525.0,0.056722442457692944
3524.0,0.05710386704443866
3523.0,0.057486464300034276
3522.0,0.05786320077462225
3521.0,0.05822997076402428
3520.0,0.058587648001646016
3519.0,0.058943449337912665
3518.0,0.05930711104451241
3517.0,0.05967991445992297
3516.0,0.060051205683153294
3515.0,0.06041092684550874
3514.0,0.06076204872835621
3513.0,0.061115194587397
3512.0,0.06147776275800662
3511.0,0.061853256807277414
3510.0,0.062242254854599166
3509.0,0.06263319640105716
3508.0,0.06300216757600421
3507.0,0.06333749098275375
3506.0,0.06366039689780624
3505.0,0.06400903853902705
3504.0,0.06440089201830128
3503.0,0.06481645883753907
3502.0,0.06522126741187945
3501.0,0.06559492334847768
3500.0,0.06593825543350493
3499.0,0.06626878885691977
3498.0,0.06660965585604807
3497.0,0.0669698493665048
3496.0,0.06733681387419335
3495.0,0.06769382125056088
3494.0,0.06803930046808561
3493.0,0.06838155956933888
3492.0,0.06872320392696439
3491.0,0.06906324622391469
3490.0,0.06940922320279495
3489.0,0.06977052912548277
3488.0,0.0701413941715657
3487.0,0.07050388673869
3486.0,0.07084798218389272
3485.0,0.07118050611008077
3484.0,0.07151711247997816
3483.0,0.07187138647931823
3482.0,0.07224624341592671
3481.0,0.07262633967926387
3480.0,0.07298456917111293
3479.0,0.07330707321255091
3478.0,0.07360770696176519
3477.0,0.07391100260756794
3476.0,0.07422796837117594
3475.0,0.07455590500285139
3474.0,0.07489237755296968
3473.0,0.07523668563362546
3472.0,0.07558226156078723
3471.0,0.07592039249839187
3470.0,0.07625031322256577
3469.0,0.07657614365385743
3468.0,0.076897474427845
3467.0,0.07721249258141966
3466.0,0.07752543439246361
3465.0,0.07784121396468555
3464.0,0.07815767877837465
3463.0,0.07847166350504454
3462.0,0.07878684407896269
3461.0,0.07910617162385339
3460.0,0.07942272303632537
3459.0,0.07972854887838478
3458.0,0.08002634106081798
3457.0,0.08032298481004174
3456.0,0.08061839397492239
3455.0,0.08091017162805023
3454.0,0.08120282542756398
3453.0,0.08149928495641891
3452.0,0.08179061835761174
3451.0,0.08206616624258986
3450.0,0.08233179601333611
3449.0,0.08260634438215819
3448.0,0.08289986354768505
3447.0,0.08320434395715927
3446.0,0.08350546040037367
3445.0,0.08379504040074826
3444.0,0.08407286418293052
3443.0,0.08434537955979778
3442.0,0.08462036951184605
3441.0,0.0848973348337393
3440.0,0.08516757584786606
3439.0,0.08542731988814906
3438.0,0.08568364662063442
3437.0,0.085942610187018
3436.0,0.08619959978970466
3435.0,0.08644872857135466
3434.0,0.08669469628379878
3433.0,0.0869451426736628
3432.0,0.08719867622303445
3431.0,0.08744871877268824
3430.0,0.08769397423841242
3429.0,0.08793592501611895
3428.0,0.08817093208106967
3427.0,0.08839440285903948
3426.0,0.08860843496774032
3425.0,0.08881775420828256
3424.0,0.08902354212600469
3423.0,0.08922866253140431
3422.0,0.08944236885597162
3421.0,0.08966980047690845
3420.0,0.08990142584700243
3419.0,0.09012229382530358
3418.0,0.09032777622538284
3417.0,0.0905228380319154
3416.0,0.09071180996601537
3415.0,0.09089726234018757
3414.0,0.0910833329149019
3413.0,0.09127099102543523
3412.0,0.09145420328551644
3411.0,0.09162832103221803
3410.0,0.0917975107828005
3409.0,0.09196658720777179
3408.0,0.09213130483572014
3407.0,0.09228516292591112
3406.0,0.09243052252923686
3405.0,0.09257531687292114
3404.0,0.09272352557746363
3403.0,0.09287508926104743
3402.0,0.09302927357403118
3401.0,0.09318069769517792
3400.0,0.09331935382034523
3399.0,0.09344209823819778
3398.0,0.09355796825071871
3397.0,0.09367542802750653
3396.0,0.09379225433296165
3395.0,0.09390522545529559
3394.0,0.09401928058500185
3393.0,0.09413683891875786
3392.0,0.09424716559742691
3391.0,0.09433907242761876
3390.0,0.09441697363128244
3389.0,0.09449353087612374
3388.0,0.09457261187133773
3387.0,0.09464966357097494
3386.0,0.09472343583999895
3385.0,0.09479671448988843
3384.0,0.09486914696261743
3383.0,0.09493891360575848
3382.0,0.09500822743789952
3381.0,0.09507847395411255
3380.0,0.09514455585182788
3379.0,0.09520112293411175
3378.0,0.09525003609778245
3377.0,0.09529483815731572
3376.0,0.0953337087357849
3375.0,0.09536536771037311
3374.0,0.09539519507022548
3373.0,0.09542804376398498
3372.0,0.09546073416708177
3371.0,0.09548826337342678
3370.0,0.0955107482624798
3369.0,0.09552843447955085
3368.0,0.09553772891572286
3367.0,0.0955395782113222
3366.0,0.09554341775132444
3365.0,0.09555426614002298
3364.0,0.09556394213822822
3363.0,0.09556270801129323
3362.0,0.09555140504638256
3361.0,0.09553454248158029
3360.0,0.09551061588502698
3359.0,0.09547894145988048
3358.0,0.09544773258787632
3357.0,0.09542450117627979
3356.0,0.09540452098240253
3355.0,0.09537874111686512
3354.0,0.09534661179053208
3353.0,0.09531228272651697
3352.0,0.09527500408121643
3351.0,0.0952326106290814
3350.0,0.09518839163302974
3349.0,0.09514512306328646
3348.0,0.0950977738857007
3347.0,0.09504162869219467
3346.0,0.09498268515079034
3345.0,0.09493037410737365
3344.0,0.09488479383793441
3343.0,0.09483875173410422
3342.0,0.09478753615370482
3341.0,0.0947292536724161
3340.0,0.09466173365263719
3339.0,0.09458751215669974
3338.0,0.09451663257942697
3337.0,0.09445586692450926
3336.0,0.09439913545627801
3335.0,0.09433604144537305
3334.0,0.09426506732656542
3333.0,0.0941914061162784
3332.0,0.09411802799390528
3331.0,0.09404657444277711
3330.0,0.09398113560695341
3329.0,0.0939228812925531
3328.0,0.09386546738714802
3327.0,0.09380256579955559
3326.0,0.09373585280776234
3325.0,0.09366942710648965
3324.0,0.09360252129808101
3323.0,0.09353450036022938
3322.0,0.09347085835140574
3321.0,0.09341564915689894
3320.0,0.09336255232996453
3319.0,0.09330170599967265
3318.0,0.0932320377060932
3317.0,0.09316046952655031
3316.0,0.09309309707205676
3315.0,0.0930328507414968
3314.0,0.09298077528139996
3313.0,0.09293345235766554
3312.0,0.09288347891212613
3311.0,0.09282813397216122
3310.0,0.09277356431999749
3309.0,0.09272541071218092
3308.0,0.09268041994298759
3307.0,0.09263193142647566
3306.0,0.09257834271610042
3305.0,0.092521592896474
3304.0,0.0924634582532135
3303.0,0.09240795675227603
3302.0,0.09236060277203008
3301.0,0.09231983946513286
3300.0,0.09227593411082755
3299.0,0.09222341852058459
3298.0,0.0921681229607655
3297.0,0.09211657553652969
3296.0,0.09206631612388745
3295.0,0.09201254179753399
3294.0,0.09195709862139013
3293.0,0.09190400449574229
3292.0,0.09185222999889987
3291.0,0.09179892883123188
3290.0,0.09174404868444502
3289.0,0.09168608387855126
3288.0,0.09161978913493253
3287.0,0.091543766406579
3286.0,0.09146428049001028
3285.0,0.09138622346735237
3284.0,0.09130685587146652
3283.0,0.0912235418085226
3282.0,0.09113971591543835
3281.0,0.09105691580283312
3280.0,0.09096829909121308
3279.0,0.09086754437255279
3278.0,0.09075812279381311
3277.0,0.09064708648375533
3276.0,0.09053595109903392
3275.0,0.09042331190906973
3274.0,0.09030935225602799
3273.0,0.0901916279871459
3272.0,0.09006398520884978
3271.0,0.08992651128137966
3270.0,0.08978904616878731
3269.0,0.08965800280237239
3268.0,0.08952684757633282
3267.0,0.08938685140387209
3266.0,0.08923991238240912
3265.0,0.08909287864625609
3264.0,0.08894594159819355
3263.0,0.08879525910809997
3262.0,0.08864088385911695
3261.0,0.08848393054923864
3260.0,0.08832052766511052
3259.0,0.0881469614532646
3258.0,0.08796704692524948
3257.0,0.08778830981392753
3256.0,0.08761500499680534
3255.0,0.08744927639864501
3254.0,0.08729256911282582
3253.0,0.08713965702738465
3252.0,0.08697812934429956
3251.0,0.08680046489978605
3250.0,0.08661217226801636
3249.0,0.08642342923625775
3248.0,0.0862391457019512
3247.0,0.08606175370063404
3246.0,0.0858945043087107
3245.0,0.08573430484230554
3244.0,0.08556927789139342
3243.0,0.08539229488965763
3242.0,0.08521037220188969
3241.0,0.08503271350845189
3240.0,0.08485624817343648
3239.0,0.08467152628688321
3238.0,0.0844769141404232
3237.0,0.08427812323609586
3236.0,0.08407886019952565
3235.0,0.08388090952469814
3234.0,0.08368921149272975
3233.0,0.08350736812409941
3232.0,0.08333100669372122
3231.0,0.08315249841500333
3230.0,0.08296995965774637
3229.0,0.08278557601573205
3228.0,0.08259923906829927
3227.0,0.08241032090804606
3226.0,0.08222154307686053
3225.0,0.08203430737918463
3224.0,0.08184388068456384
3223.0,0.08164541564821322
3222.0,0.08144092958156726
3221.0,0.08123492681360472
3220.0,0.08102747123655894
3219.0,0.08081813077225532
3218.0,0.08061158905877043
3217.0,0.08041230029260808
3216.0,0.08021661908165814
3215.0,0.08001664656534514
3214.0,0.07980907090155619
3213.0,0.0795954553749192
3212.0,0.07937756276477494
3211.0,0.07915805062907115
3210.0,0.07894187058791033
3209.0,0.07873069910068564
3208.0,0.0785185359121448
3207.0,0.07829836936621962
3206.0,0.07807083174954318
3205.0,0.07784207251579442
3204.0,0.07761590000220547
3203.0,0.07739241301026284
3202.0,0.07717071848282782
3201.0,0.07694898301279918
3200.0,0.07672477618036076
3199.0,0.07649940590946377
3198.0,0.07627820972795822
3197.0,0.07606311495864819
3196.0,0.07584877966542775
3195.0,0.07562929119766862
3194.0,0.07540400851490431
3193.0,0.07517402391378318
3192.0,0.07493866379727616
3191.0,0.07469954831144604
3190.0,0.0744627184692031
3189.0,0.07423163950313084
3188.0,0.07400244580921687
3187.0,0.07377063482863316
3186.0,0.07353749847024486
3185.0,0.07330537519061273
3184.0,0.0730711647415005
3183.0,0.07283057109218272
3182.0,0.07258500106668084
3181.0,0.07233964144073271
3180.0,0.07209785982084993
3179.0,0.07186090351890657
3178.0,0.07162881097462206
3177.0,0.07139815207763316
3176.0,0.07116302104900103
3175.0,0.07092211080273479
3174.0,0.07068101522503703
3173.0,0.07044418948124968
3172.0,0.07020877381858502
3171.0,0.06996951373753643
3170.0,0.06972536623455303
3169.0,0.06947780820165937
3168.0,0.0692277076075882
3167.0,0.06897777264142377
3166.0,0.06873309606539288
3165.0,0.06849574792330047
3164.0,0.06826271765753354
3163.0,0.0680316210264532
3162.0,0.06780308037925566
3161.0,0.06757502246485948
3160.0,0.06734115705233834
3159.0,0.06709982103394255
3158.0,0.0668582803432969
3157.0,0.06662327530477541
3156.0,0.06639243919496354
3155.0,0.06616026735913273
3154.0,0.06592720140776681
3153.0,0.06569739971857214
3152.0,0.06547168350133915
3151.0,0.06524775644932344
3150.0,0.06502410354715712
3149.0,0.0647992424370989
3148.0,0.06457047888045749
3147.0,0.06433819329099803
3146.0,0.06410778527010752
3145.0,0.06388334784104632
3144.0,0.06366290207779898
3143.0,0.06344338572778911
3142.0,0.06322603699336518
3141.0,0.0630126813070526
3140.0,0.06280087363097102
3139.0,0.06258715555574759
3138.0,0.06237208512872733
3137.0,0.062157886687054326
3136.0,0.06194513686873028
3135.0,0.0617353470833804
3134.0,0.06153216261525494
3133.0,0.061336182815646685
3132.0,0.061142819958672004
3131.0,0.06094882532356545
3130.0,0.06075648802736167
3129.0,0.060567715206809834
3128.0,0.06037925071431959
3127.0,0.060187940370448584
3126.0,0.05999554011963565
3125.0,0.05980415700026991
3124.0,0.059611737970965736
3123.0,0.05941649517916983
3122.0,0.05922202799214305
3121.0,0.05903300985001834
3120.0,0.0588496432244509
3119.0,0.05867043669542094
3118.0,0.05849596116845198
3117.0,0.058325927421372915
3116.0,0.05815732426964922
3115.0,0.05798983056581258
3114.0,0.057828327441290885
3113.0,0.057674621272914214
3112.0,0.05752180821514388
3111.0,0.057362688300551516
3110.0,0.05719964632041313
3109.0,0.05704118792646692
3108.0,0.0568917783178736
3107.0,0.05674986443388476
3106.0,0.05661295803828697
3105.0,0.056478736072332815
3104.0,0.05634345405681505
3103.0,0.05620508532314378
3102.0,0.05606644786146118
3101.0,0.055931638420775795
3100.0,0.0558004831479508
3099.0,0.05567064494600954
3098.0,0.0555423633736814
3097.0,0.05541645526491671
3096.0,0.05528998397773361
3095.0,0.055158803271712055
3094.0,0.05502401970724053
3093.0,0.05489143603152372
3092.0,0.05476527929383429
3091.0,0.05464544381612228
3090.0,0.05452907818524099
3089.0,0.05441173222386079
3088.0,0.054288570813388434
3087.0,0.05415789508325013
3086.0,0.054023446600410314
3085.0,0.053891043913651224
3084.0,0.05376371944495346
3083.0,0.053640934174164726
3082.0,0.0535200615785669
3081.0,0.05339772192082597
3080.0,0.05327252677913658
3079.0,0.053147869650567295
3078.0,0.05302850494892358
3077.0,0.05291325588904188
3076.0,0.05279532167381958
3075.0,0.05267123632319212
3074.0,0.05254468775783117
3073.0,0.05241881077089621
3072.0,0.052290903070326626
3071.0,0.05215787535049507
3070.0,0.0520228368931839
3069.0,0.05189130517696742
3068.0,0.05176436893925806
3067.0,0.05163978895724151
3066.0,0.05151604369025096
3065.0,0.05139136741569044
3064.0,0.05126168909882834
3063.0,0.05112468458288543
3062.0,0.05098300558922629
3061.0,0.05083955737345784
3060.0,0.05069209806752486
3059.0,0.05053653553499396
3058.0,0.05037344908922676
3057.0,0.05020675120532583
3056.0,0.05003839520456292
3055.0,0.049867708974597066
3054.0,0.049694871126268504
3053.0,0.049521471013272755
3052.0,0.0493495840996511
3051.0,0.049182341926199365
3050.0,0.04902221415862388
3049.0,0.048866173640913634
3048.0,0.04870595661073507
3047.0,0.048537299988680054
3046.0,0.048365093583337716
3045.0,0.04819643318293733
3044.0,0.048031440611474394
3043.0,0.04786604625552194
3042.0,0.047699988055070905
3041.0,0.047536891978475215
3040.0,0.04737795858919468
3039.0,0.04722012603167473
3038.0,0.04706004342102206
3037.0,0.04689654920608369
3036.0,0.04673071409806444
3035.0,0.04656574187115947
3034.0,0.04640497150288383
3033.0,0.04624743917416985
3032.0,0.04608804328266144
3031.0,0.045923550383386476
3030.0,0.04575586757793786
3029.0,0.0455866505544327
3028.0,0.045413562835448895
3027.0,0.04523441563699401
3026.0,0.04505095651871742
3025.0,0.04486563647178215
3024.0,0.04467850679296596
3023.0,0.04449072575447736
3022.0,0.04430671856499164
3021.0,0.04412871651691622
3020.0,0.04395266819709276
3019.0,0.043773995115041715
3018.0,0.04359393608671368
3017.0,0.0434167454143436
3016.0,0.04324373853025769
3015.0,0.04307472275329327
3014.0,0.042911482834324145
3013.0,0.04275557171837459
3012.0,0.04260529638500091
3011.0,0.042459013353674184
3010.0,0.042317825080513655
3009.0,0.042181506200981926
3008.0,0.04204521076641699
3007.0,0.041905257129576864
3006.0,0.0417647327807792
3005.0,0.04162966813489066
3004.0,0.041502072447064386
3003.0,0.04138093629092453
3002.0,0.041266232370537184
3001.0,0.04115742599839634
3000.0,0.04105111522906557
2999.0,0.04094583460664923
2998.0,0.0408463563999043
2997.0,0.040758545168056846
2996.0,0.04068153464442102
2995.0,0.04061042224244832
2994.0,0.04054407392336516
2993.0,0.040485514320953916
2992.0,0.0404356054683764
2991.0,0.04039179565578219
2990.0,0.04035242141601517
2989.0,0.04031838576484157
2988.0,0.04029103014119834
2987.0,0.040271296348971045
2986.0,0.040259933837072145
2985.0,0.04025576368208554
2984.0,0.04025576594232739
2983.0,0.040259145016617474
2982.0,0.040269376102002194
2981.0,0.04028951911748059
2980.0,0.04031867733825413
2979.0,0.04035515166279058
2978.0,0.04039983256867123
2977.0,0.040452942828402415
2976.0,0.04051139980098546
2975.0,0.04057320792172731
2974.0,0.04064186256270941
2973.0,0.0407223900810025
2972.0,0.04081567489775927
2971.0,0.040919632575891936
2970.0,0.04103257813742488
2969.0,0.04115144656321235
2968.0,0.041269911677182365
2967.0,0.04138293482073365
2966.0,0.04149070054065412
2965.0,0.04159533442715757
2964.0,0.04169707068883085
2963.0,0.041797304297004595
2962.0,0.041900772789986794
2961.0,0.042008928507169786
2960.0,0.04211407067159601
2959.0,0.04220418718789486
2958.0,0.04227265315748877
2957.0,0.042320149854858866
2956.0,0.042351365366044266
2955.0,0.04237369320367628
2954.0,0.0423959967269134
2953.0,0.04242475454186699
2952.0,0.04246429602196639
2951.0,0.04252450893105597
2950.0,0.0426244765091108
2949.0,0.042785345821671976
2948.0,0.043021202180991314
2947.0,0.04334040352558034
2946.0,0.04375070600553766
2945.0,0.04425932132136452
2944.0,0.04487098805969068
2943.0,0.045589044044250765
2942.0,0.04641576643436793
2941.0,0.047349443424806
2940.0,0.048385907850488845
2939.0,0.049526086972557594
2938.0,0.050777374259953795
2937.0,0.05214526085455352
2936.0,0.053630702096795144
2935.0,0.055240096064820984
2934.0,0.05699005648891046
2933.0,0.05889815833772385
2932.0,0.0609753491575368
2931.0,0.0632341656371412
2930.0,0.065698758686846
2929.0,0.06840224425135183
2928.0,0.07138329705023229
2927.0,0.07469225284500576
2926.0,0.07839199729476909
2925.0,0.08254381677097115
2924.0,0.08719202080357824
2923.0,0.09236057232124839
2922.0,0.09805573157598778
2921.0,0.10426237067437498
2920.0,0.11092786313245981
2919.0,0.11791925570985655
2918.0,0.12493067115458767
2917.0,0.13140098794121471
2916.0,0.1365466391002305
2915.0,0.13956946859665217
2914.0,0.13996500795957167
2913.0,0.13774764799297237
2912.0,0.133446894384387
2911.0,0.12787102022162347
2910.0,0.12182450514015288
2909.0,0.11589086417665481
2908.0,0.11040649594330477
2907.0,0.10551243357638425
2906.0,0.10123462517814728
2905.0,0.09753239306620916
2904.0,0.09433349749030297
2903.0,0.09155908426122421
2902.0,0.08913499741935611
2901.0,0.08699054974048254
2900.0,0.08506041421142813
2899.0,0.08328779780096268
2898.0,0.08162866408127074
2897.0,0.08004940090783504
2896.0,0.07852327328414752
2895.0,0.07702866893321902
2894.0,0.07554860934638007
2893.0,0.07406889228041366
2892.0,0.07257941261994943
2891.0,0.07107759821660391
2890.0,0.06956581065488196
2889.0,0.06804552923195391
2888.0,0.06651521654696892
2887.0,0.06497552258788279
2886.0,0.06343265487287196
2885.0,0.061894188801607034
2884.0,0.06036368717097971
2883.0,0.05883980311101338
2882.0,0.0573184873770729
2881.0,0.05579586338208279
2880.0,0.05427328093581713
2879.0,0.05276186910543263
2878.0,0.05128040471783115
2877.0,0.04984811128300825
2876.0,0.0484831823324437
2875.0,0.047206510727855526
2874.0,0.04603996382717631
2873.0,0.04499625760207186
2872.0,0.04407593424378295
2871.0,0.04327670467892603
2870.0,0.042603321577044134
2869.0,0.04206602844855745
2868.0,0.04167737849724565
2867.0,0.04145692309490834
2866.0,0.041433888786910865
2865.0,0.04163898249261346
2864.0,0.04209762522342308
2863.0,0.042837286561258674
2862.0,0.04389785443363886
2861.0,0.04533250706792822
2860.0,0.0472030152112454
2859.0,0.049585066542245544
2858.0,0.0525767805895943
2857.0,0.05630089447868946
2856.0,0.0609016819440899
2855.0,0.06653722683177002
2854.0,0.07334784133824053
2853.0,0.08139343993212837
2852.0,0.09052731194686903
2851.0,0.10023737936314435
2850.0,0.1094912099957815
2849.0,0.11682765904036764
2848.0,0.12082159830501538
2847.0,0.12075093918440379
2846.0,0.1169202813060184
2845.0,0.11044683995416474
2844.0,0.1026670241542922
2843.0,0.09468516429562539
2842.0,0.08718429592031018
2841.0,0.08049050614821572
2840.0,0.0746840069350186
2839.0,0.06972177781226593
2838.0,0.06549322358487475
2837.0,0.06187752489479783
2836.0,0.05876079656480174
2835.0,0.05605413574351245
2834.0,0.05369093774214671
2833.0,0.05161831881484628
2832.0,0.04978864506594779
2831.0,0.04815945728742266
2830.0,0.04669776276120385
2829.0,0.0453777600379442
2828.0,0.0441762288296884
2827.0,0.04307367188699784
2826.0,0.042058014743881905
2825.0,0.04112197283753055
2824.0,0.04025741309361925
2823.0,0.03945503802195521
2822.0,0.03870797399467104
2821.0,0.03801035806798523
2820.0,0.03735478273855562
2819.0,0.03673480893164064
2818.0,0.03614865296895714
2817.0,0.035595362400459095
2816.0,0.03506917966835199
2815.0,0.03456212115885538
2814.0,0.03407106469725403
2813.0,0.03359800805221249
2812.0,0.033145121707929485
2811.0,0.03271290953139276
2810.0,0.03230158827743084
2809.0,0.031909602599031056
2808.0,0.0315321631836188
2807.0,0.031164959237467635
2806.0,0.030807717302487964
2805.0,0.0304611419485043
2804.0,0.030123547857649247
2803.0,0.02979410390009923
2802.0,0.02947587583056603
2801.0,0.029170706318901035
2800.0,0.028874256050134033
2799.0,0.028581281785737295
2798.0,0.028292696363445443
2797.0,0.02801249242281454
2796.0,0.02774032510650189
2795.0,0.027472451553189822
2794.0,0.027207320810839552
2793.0,0.02694502044300006
2792.0,0.02668380165319897
2791.0,0.026423010856232977
2790.0,0.026167205059026487
2789.0,0.025921359452173404
2788.0,0.025683876859883575
2787.0,0.02544941080988384
2786.0,0.025216379949720577
2785.0,0.024986777483708998
2784.0,0.02476106126919193
2783.0,0.024538825048057846
2782.0,0.02432260962282354
2781.0,0.024115196672665717
2780.0,0.0239147778416802
2779.0,0.02371778309819614
2778.0,0.023524485696002136
2777.0,0.023337005522870654
2776.0,0.023154428891683763
2775.0,0.022975065636184795
2774.0,0.022800863231997003
2773.0,0.022633964509531285
2772.0,0.022471436552661258
2771.0,0.0223092930056646
2770.0,0.022149475273669447
2769.0,0.02199681697007798
2768.0,0.021851163527750964
2767.0,0.021708430585497047
2766.0,0.02156757780422895
2765.0,0.02143050171418424
2764.0,0.02129677944409084
2763.0,0.021164448935577063
2762.0,0.021034569684624808
2761.0,0.020909459688724374
2760.0,0.02078780759070794
2759.0,0.0206667203503375
2758.0,0.020546685408742205
2757.0,0.020429746218759016
2756.0,0.020315024047797753
2755.0,0.020201194428999942
2754.0,0.020090796905886676
2753.0,0.019986639701997634
2752.0,0.019886571202422924
2751.0,0.019787489786570432
2750.0,0.019691598405802035
2749.0,0.019602641404376436
2748.0,0.01951843837659532
2747.0,0.019433604698108887
2746.0,0.01934774550193182
2745.0,0.019264509093489625
2744.0,0.019184567794419148
2743.0,0.019105656540818697
2742.0,0.01902753459077444
2741.0,0.018950811809502647
2740.0,0.018872886494959457
2739.0,0.018791359177869848
2738.0,0.01870947107900603
2737.0,0.018631632461999576
2736.0,0.01855548231692679
2735.0,0.018474849447705697
2734.0,0.018389327937208117
2733.0,0.0183042418137205
2732.0,0.0182218742751266
2731.0,0.018139171434826917
2730.0,0.01805370021756796
2729.0,0.017966605995157734
2728.0,0.017880143958248215
2727.0,0.01779660077277295
2726.0,0.01771820832333544
2725.0,0.017643688069664033
2724.0,0.017566891282599723
2723.0,0.01748369113657424
2722.0,0.01739799918930322
2721.0,0.01731665586675856
2720.0,0.017240819184203574
2719.0,0.017167344731412005
2718.0,0.017094909965658434
2717.0,0.01702314045596848
2716.0,0.01694931639404512
2715.0,0.01687229237277254
2714.0,0.016796590418217513
2713.0,0.01672607805852869
2712.0,0.01665669068084347
2711.0,0.016582169287354023
2710.0,0.016504329758729945
2709.0,0.016430045504979902
2708.0,0.016360685471949164
2707.0,0.016291992555639585
2706.0,0.016222289437154938
2705.0,0.01615322699023728
2704.0,0.016083625701979735
2703.0,0.016010177012815617
2702.0,0.015933631494975724
2701.0,0.015857737078080778
2700.0,0.015783136222197514
2699.0,0.015708560382829227
2698.0,0.015636598196327255
2697.0,0.015571477770757739
2696.0,0.015512078897627353
2695.0,0.015453392481172203
2694.0,0.015393985001895517
2693.0,0.015335645070677582
2692.0,0.01527730060599218
2691.0,0.015216017001227235
2690.0,0.015153195426168754
2689.0,0.015093360865138116
2688.0,0.015037210215877804
2687.0,0.014981733614049392
2686.0,0.01492642949543297
2685.0,0.014873656628705184
2684.0,0.014823586455740742
2683.0,0.014774095923645593
2682.0,0.014724780827157499
2681.0,0.014676320925133974
2680.0,0.014627573185851962
2679.0,0.014578441808440963
2678.0,0.014533319275132581
2677.0,0.014496201707824105
2676.0,0.014464406481517656
2675.0,0.014432639586738776
2674.0,0.014400709542886508
2673.0,0.014371447811501592
2672.0,0.014343807353142194
2671.0,0.01431484925345033
2670.0,0.014286373393233761
2669.0,0.014262840498857843
2668.0,0.014244075917024262
2667.0,0.01422654072089685
2666.0,0.014210024061007237
2665.0,0.01419684321733183
2664.0,0.014186121664107872
2663.0,0.014175056360490181
2662.0,0.014164016422027376
2661.0,0.014154096406681378
2660.0,0.014141728432526831
2659.0,0.014122433026940747
2658.0,0.014098288976904808
2657.0,0.014074926943759815
2656.0,0.014052569617004539
2655.0,0.014027194276451141
2654.0,0.013998870415285865
2653.0,0.013971966772204846
2652.0,0.013947789064786767
2651.0,0.013924154046973539
2650.0,0.013901286052658068
2649.0,0.013881543355913245
2648.0,0.013864275432046892
2647.0,0.013847421350529895
2646.0,0.01383278464527865
2645.0,0.01382307322418485
2644.0,0.01381555613088164
2643.0,0.013805561151477448
2642.0,0.013794528179015756
2641.0,0.013787219929780716
2640.0,0.013782980508510735
2639.0,0.013777471690123184
2638.0,0.013770918495843084
2637.0,0.013766092379006015
2636.0,0.01375952404154488
2635.0,0.01374353482733822
2634.0,0.013716499172432641
2633.0,0.013682977532113772
2632.0,0.013644758926904345
2631.0,0.013600123586976825
2630.0,0.0135512281210693
2629.0,0.013503964757535467
2628.0,0.013460134997071401
2627.0,0.01341718367843156
2626.0,0.01337456919599524
2625.0,0.013333120362000517
2624.0,0.013289585558439855
2623.0,0.013240238928605774
2622.0,0.013188458025976634
2621.0,0.013140695527256632
2620.0,0.013095908503478304
2619.0,0.013047488284242126
2618.0,0.012994364595399169
2617.0,0.012941719614069544
2616.0,0.012891702801861856
2615.0,0.012841767083473182
2614.0,0.01279136285133367
2613.0,0.012742122378896534
2612.0,0.01269248667044266
2611.0,0.012639986351935457
2610.0,0.012587431076117876
2609.0,0.01253931065027297
2608.0,0.012493884234846852
2607.0,0.012446607966788986
2606.0,0.012398619272267831
2605.0,0.012353841410076631
2604.0,0.012310840778366259
2603.0,0.01226610634971464
2602.0,0.012221833065959533
2601.0,0.012180967008749379
2600.0,0.012138372794010805
2599.0,0.012087535408302071
2598.0,0.012032922840620757
2597.0,0.011984847013552381
2596.0,0.011944154633618325
2595.0,0.011902483966851762
2594.0,0.011855806385596603
2593.0,0.011807086966595768
2592.0,0.011757719798915154
2591.0,0.011706845657338504
2590.0,0.011657478244596543
2589.0,0.011613258623426177
2588.0,0.011570465435563906
2587.0,0.011522649306511625
2586.0,0.011471133044228796
2585.0,0.011422197346485809
2584.0,0.01137706993072389
2583.0,0.011333507343111853
2582.0,0.011292850681348925
2581.0,0.011255538867038083
2580.0,0.011214609445921285
2579.0,0.011164796149981851
2578.0,0.011113644357289206
2577.0,0.011071981136358574
2576.0,0.0110376504840006
2575.0,0.01100074567195864
2574.0,0.010960763278434033
2573.0,0.010925403488895286
2572.0,0.010895719871216042
2571.0,0.010865774111039003
2570.0,0.010834845211318807
2569.0,0.010807173411400913
2568.0,0.01078121777572717
2567.0,0.010751083894874953
2566.0,0.01071729642773105
2565.0,0.010685468003536482
2564.0,0.010656332483934269
2563.0,0.010627255397379248
2562.0,0.010600309548972136
2561.0,0.010578256458897005
2560.0,0.010556423682490193
2559.0,0.010529267841638998
2558.0,0.010500800937417296
2557.0,0.010477705817209573
2556.0,0.010457202453228408
2555.0,0.010433162434970182
2554.0,0.01040906524484054
2553.0,0.010392375633646747
2552.0,0.010381171539616263
2551.0,0.010368781286267859
2550.0,0.010355871481006227
2549.0,0.010344883226509925
2548.0,0.010328839170663455
2547.0,0.010300373878904177
2546.0,0.010266738595120208
2545.0,0.010240498908534063
2544.0,0.010219667762924132
2543.0,0.010192250263154795
2542.0,0.010156857548297907
2541.0,0.010123593638818477
2540.0,0.0100973629465661
2539.0,0.01007563604668349
2538.0,0.010059888824313195
2537.0,0.010053740126469037
2536.0,0.010051773291453651
2535.0,0.010045017560508475
2534.0,0.010036122269314702
2533.0,0.010035314374644968
2532.0,0.010042811493844986
2531.0,0.010048494738887167
2530.0,0.010046916429819001
2529.0,0.010039833641481168
2528.0,0.010027032955467745
2527.0,0.010008106779638324
2526.0,0.009990759715487962
2525.0,0.009983476305920407
2524.0,0.009981768507282019
2523.0,0.00997421701226004
2522.0,0.009959034181642946
2521.0,0.009941919669963401
2520.0,0.00992174649988461
2519.0,0.009892652609750044
2518.0,0.009857340201553513
2517.0,0.009823983347459644
2516.0,0.009792004054709666
2515.0,0.009754787439037772
2514.0,0.009714251754549158
2513.0,0.009678740944353512
2512.0,0.009648297994919671
2511.0,0.00961538622145487
2510.0,0.009578484680632472
2509.0,0.009542350026950384
2508.0,0.009506739169297566
2507.0,0.009467261456886464
2506.0,0.009425513808034391
2505.0,0.009386478882804396
2504.0,0.009348222224548806
2503.0,0.009305681305344198
2502.0,0.009261605903827016
2501.0,0.009222273558341924
2500.0,0.009186006605156394
2499.0,0.00914724141515027
2498.0,0.00910752316489745
2497.0,0.009070743885148424
2496.0,0.009032914589115763
2495.0,0.008989251378681203
2494.0,0.008946004721922949
2493.0,0.008911669885682403
2492.0,0.008881349143257696
2491.0,0.008843947426803311
2490.0,0.008800263789355047
2489.0,0.008759788035430514
2488.0,0.008724091646466283
2487.0,0.008687986664054173
2486.0,0.00865280364862565
2485.0,0.008623390538492553
2484.0,0.008595239960152894
2483.0,0.008559437446194074
2482.0,0.00851804069760844
2481.0,0.008481200781298291
2480.0,0.00845168384327172
2479.0,0.008424893353431648
2478.0,0.008400624359176663
2477.0,0.008381534771555265
2476.0,0.00836310081732364
2475.0,0.00833798840408212
2474.0,0.008307464799816696
2473.0,0.008277008878110058
2472.0,0.008245309107194159
2471.0,0.008209552740459758
2470.0,0.00817578613496172
2469.0,0.008150872152842168
2468.0,0.008129773559699153
2467.0,0.008104215197947495
2466.0,0.008078073316764769
2465.0,0.008059998020516067
2464.0,0.008046490204591111
2463.0,0.008027192213288386
2462.0,0.008002388652074205
2461.0,0.00798091469913772
2460.0,0.007965231519515061
2459.0,0.00795231792182661
2458.0,0.00794400533831906
2457.0,0.007942026089174553
2456.0,0.007937894047806131
2455.0,0.007922324531136508
2454.0,0.007900166123862143
2453.0,0.007882313098463248
2452.0,0.00786817923081361
2451.0,0.007850142952529922
2450.0,0.007829156981885393
2449.0,0.007810961143181191
2448.0,0.0077929326721239926
2447.0,0.007770266477455989
2446.0,0.007749150409540811
2445.0,0.007737665931560604
2444.0,0.007729339886124382
2443.0,0.00771190515635471
2442.0,0.007687081846663968
2441.0,0.00766592862711458
2440.0,0.007650300172934558
2439.0,0.00763478561339528
2438.0,0.007620737483186929
2437.0,0.007611614213960502
2436.0,0.007600474298842592
2435.0,0.007579496695890064
2434.0,0.007556352100580666
2433.0,0.007543841641946186
2432.0,0.00753859687430895
2431.0,0.007527715584016739
2430.0,0.00751104006124934
2429.0,0.007498430258684002
2428.0,0.007489843155470234
2427.0,0.00747717193391633
2426.0,0.007462180871757232
2425.0,0.0074538620010809195
2424.0,0.0074504316903146114
2423.0,0.007441660619972909
2422.0,0.007426903666207016
2421.0,0.0074141150612523936
2420.0,0.0074039179142283695
2419.0,0.00739107837266353
2418.0,0.007378176448502982
2417.0,0.00737115837695531
2416.0,0.00736495644357029
2415.0,0.0073499544177243505
2414.0,0.007329409401582077
2413.0,0.0073142602857978216
2412.0,0.007304135687436799
2411.0,0.007289528912733525
2410.0,0.0072689508495255364
2409.0,0.0072472941586696005
2408.0,0.007221181461484657
2407.0,0.0071841532352956905
2406.0,0.0071437052403345155
2405.0,0.007114942400900402
2404.0,0.007099230197266118
2403.0,0.007085890919454871
2402.0,0.0070720786392887884
2401.0,0.007063694564868483
2400.0,0.007058446620163094
2399.0,0.007045494119675492
2398.0,0.007022472239333913
2397.0,0.006997942356509715
2396.0,0.006976853949134259
2395.0,0.006957284301211316
2394.0,0.00694039162207977
2393.0,0.006929627339928033
2392.0,0.006921778921177228
2391.0,0.006912076369450407
2390.0,0.006906080963153375
2389.0,0.006913619280420094
2388.0,0.006933283916738311
2387.0,0.006955863610775237
2386.0,0.0069796407764871156
2385.0,0.007007556972990086
2384.0,0.007031236602159936
2383.0,0.007033023592356537
2382.0,0.007004461045484911
2381.0,0.006950359904213065
2380.0,0.006875867123610512
2379.0,0.0067860436447215134
2378.0,0.006699796657856579
2377.0,0.006643752102315392
2376.0,0.006626942294480594
2375.0,0.006639685349212471
2374.0,0.006678179222566763
2373.0,0.006744571970931076
2372.0,0.006818625241603198
2371.0,0.0068639347870266335
2370.0,0.006873630756799135
2369.0,0.006874670127122807
2368.0,0.00688022383763156
2367.0,0.006881136972423804
2366.0,0.006884894303750666
2365.0,0.006907190608201642
2364.0,0.006924047740553117
2363.0,0.006901505848958213
2362.0,0.006863631621393403
2361.0,0.006860900179731963
2360.0,0.006893275471845546
2359.0,0.006923902464788547
2358.0,0.0069391792693052545
2357.0,0.006938638313624506
2356.0,0.00690612353870262
2355.0,0.0068507518532946255
2354.0,0.00680868783985185
2353.0,0.006803118756754573
2352.0,0.006830000302434852
2351.0,0.00688313993477046
2350.0,0.006952161927294182
2349.0,0.007005348428187563
2348.0,0.007015639304013396
2347.0,0.006994161240979106
2346.0,0.006997971824663946
2345.0,0.00707196194207129
2344.0,0.007177462672096642
2343.0,0.00724223760239539
2342.0,0.007228241348486973
2341.0,0.007153986342741914
2340.0,0.007057059269686396
2339.0,0.006967154084667482
2338.0,0.006907481701204095
2337.0,0.0068843094225645015
2336.0,0.006883091819451415
2335.0,0.006880897220939387
2334.0,0.006876532443868022
2333.0,0.006878653089288818
2332.0,0.006896572469091512
2331.0,0.006930688643369021
2330.0,0.0069982051972575406
2329.0,0.007099413220008852
2328.0,0.007218072357420757
2327.0,0.007330222596018438
2326.0,0.00743558502359742
2325.0,0.00753021169773173
2324.0,0.007583730574003698
2323.0,0.007568570891985165
2322.0,0.007504589792137099
2321.0,0.007442081535748992
2320.0,0.00740402995909457
2319.0,0.007376348681982202
2318.0,0.0073518984875871
2317.0,0.007329545137280856
2316.0,0.0073060918608878365
2315.0,0.0072759526437090535
2314.0,0.0072596139764502755
2313.0,0.007273076321348911
2312.0,0.007307316315240432
2311.0,0.007332879937781631
2310.0,0.007346053939234322
2309.0,0.007355747595578683
2308.0,0.00735968854897825
2307.0,0.00734369923455832
2306.0,0.007316583081817147
2305.0,0.0073006484492585235
2304.0,0.007304621301836213
2303.0,0.007316497567813487
2302.0,0.007330495075772351
2301.0,0.007345777154543413
2300.0,0.007355434204403367
2299.0,0.007347997598277239
2298.0,0.007331651650134639
2297.0,0.007321125722422498
2296.0,0.007316936107030416
2295.0,0.007306698755656139
2294.0,0.007293273054176788
2293.0,0.007289525563285803
2292.0,0.007295687745459682
2291.0,0.007299519178339429
2290.0,0.007299856496951648
2289.0,0.007305804747605661
2288.0,0.007315165126305876
2287.0,0.007316036859019544
2286.0,0.007307179293214252
2285.0,0.007297180209836183
2284.0,0.007284612981577524
2283.0,0.007263474864238809
2282.0,0.007242426858089223
2281.0,0.007236331816560358
2280.0,0.007239598627243969
2279.0,0.007233593778634216
2278.0,0.0072159743644734375
2277.0,0.007198526674073451
2276.0,0.0071813238660302
2275.0,0.007156225662992776
2274.0,0.00713155022716204
2273.0,0.0071230098120507535
2272.0,0.007125814710183205
2271.0,0.007122574498217361
2270.0,0.007113793256691723
2269.0,0.007110397153506922
2268.0,0.00710526297907879
2267.0,0.007084607630216251
2266.0,0.007059761708838106
2265.0,0.007053077116246363
2264.0,0.0070592896296318534
2263.0,0.007055791332654649
2262.0,0.007043861175131636
2261.0,0.0070433085790578024
2260.0,0.00705294160263932
2259.0,0.007053932466935415
2258.0,0.007046414704639662
2257.0,0.007045680693606561
2256.0,0.007046585287114162
2255.0,0.007031000344412651
2254.0,0.007006112954798981
2253.0,0.0069966615954252164
2252.0,0.00700349955303804
2251.0,0.007006621183135538
2250.0,0.007004517082216
2249.0,0.007011425986959303
2248.0,0.007023124685620072
2247.0,0.007022401196376136
2246.0,0.007014994782655156
2245.0,0.00702033661238306
2244.0,0.007033302318295283
2243.0,0.007033709590482174
2242.0,0.007026691910130636
2241.0,0.007032516970009791
2240.0,0.007044473394920623
2239.0,0.007039380124964797
2238.0,0.0070220462590880025
2237.0,0.007016439946401467
2236.0,0.007019613519978031
2235.0,0.007009141699170393
2234.0,0.006989329351096165
2233.0,0.006984412964516586
2232.0,0.0069915085577613315
2231.0,0.006987072005186562
2230.0,0.006973690935182836
2229.0,0.006973331169991009
2228.0,0.00698158263658185
2227.0,0.006976658394831898
2226.0,0.0069672137267358
2225.0,0.006981149334797944
2224.0,0.0070120863876197
2223.0,0.007026410626812282
2222.0,0.007018488039493904
2221.0,0.007011099134161822
2220.0,0.007007848359361698
2219.0,0.0069941504131196845
2218.0,0.006977579603913294
2217.0,0.006976716666565649
2216.0,0.006978602670585239
2215.0,0.0069587987164232866
2214.0,0.006932328880224052
2213.0,0.006931617519212692
2212.0,0.00694557201884
2211.0,0.006938025412222949
2210.0,0.006915486467630514
2209.0,0.006916442840664502
2208.0,0.00694247006603504
2207.0,0.006960889842157831
2206.0,0.006968477039444245
2205.0,0.006989915643977419
2204.0,0.007019003271635124
2203.0,0.007024821185686085
2202.0,0.007013018271033733
2201.0,0.007019058030502306
2200.0,0.007043728315865022
2199.0,0.00705520144622112
2198.0,0.007050773656240238
2197.0,0.007057420408759927
2196.0,0.0070753027791365195
2195.0,0.007079982201047366
2194.0,0.007075326022814787
2193.0,0.007084780364676629
2192.0,0.007097757802760501
2191.0,0.007085981790053879
2190.0,0.00706346566239739
2189.0,0.007067090250051379
2188.0,0.007088263831739709
2187.0,0.007089202033065288
2186.0,0.007074593194393796
2185.0,0.007076409613764175
2184.0,0.0070787751052378434
2183.0,0.007036260411755172
2182.0,0.006962267395431184
2181.0,0.006920450222484934
2180.0,0.006929097079714313
2179.0,0.0069485369601596
2178.0,0.006956423253134613
2177.0,0.00696209865327055
2176.0,0.006957776771330452
2175.0,0.0069295613408134815
2174.0,0.006907320102337146
2173.0,0.006931206209730252
2172.0,0.00698138811646404
2171.0,0.007012775368258541
2170.0,0.007039102528376424
2169.0,0.007106096611027622
2168.0,0.007198208530209749
2167.0,0.007253523390849732
2166.0,0.007263439512440982
2165.0,0.0072777577334161795
2164.0,0.00731582554690814
2163.0,0.007349845508567247
2162.0,0.007359482814346415
2161.0,0.007315991173683218
2160.0,0.007140677392052204
2159.0,0.006801412513264881
2158.0,0.006434359256259479
2157.0,0.006225996434758196
2156.0,0.006199463010530361
2155.0,0.006248886059513539
2154.0,0.006315906292986762
2153.0,0.006406348361859726
2152.0,0.006493657253177449
2151.0,0.0065265279657734645
2150.0,0.006514722552528559
2149.0,0.0065129473936468415
2148.0,0.00652791879957442
2147.0,0.006522718572382566
2146.0,0.006497425327297912
2145.0,0.006485238411876179
2144.0,0.006483289686185748
2143.0,0.006465377781872145
2142.0,0.006448467116706503
2141.0,0.006470607192127304
2140.0,0.00651582506960899
2139.0,0.006531430818502639
2138.0,0.0065068694331802965
2137.0,0.00646971422689426
2136.0,0.00642147860722997
2135.0,0.0063464871623396405
2134.0,0.006270495883676882
2133.0,0.006239817880879982
2132.0,0.006252463479105394
2131.0,0.006270072274281718
2130.0,0.006284154813717975
2129.0,0.006312975886028687
2128.0,0.00635003267254828
2127.0,0.006370939397470833
2126.0,0.006380667936484643
2125.0,0.006402751797582963
2124.0,0.006431507379336058
2123.0,0.006443487403175512
2122.0,0.0064454839982648745
2121.0,0.00646324734671372
2120.0,0.006492730786363959
2119.0,0.0065111383798890045
2118.0,0.006524711880671755
2117.0,0.006556084382517094
2116.0,0.006593765119810674
2115.0,0.00660537517811129
2114.0,0.006594042686653595
2113.0,0.006591199914823142
2112.0,0.006599824568429477
2111.0,0.006596001970098817
2110.0,0.006581625359286689
2109.0,0.006582659300762656
2108.0,0.006597673526052881
2107.0,0.006600220244918603
2106.0,0.006589845084526629
2105.0,0.006589574377018521
2104.0,0.006596403311012789
2103.0,0.006586236408275589
2102.0,0.006565035074982443
2101.0,0.0065625561733049795
2100.0,0.006577740889215427
2099.0,0.006580212873968416
2098.0,0.006562353667476224
2097.0,0.006540469937659238
2096.0,0.0065116865555350885
2095.0,0.006463073589679891
2094.0,0.00641634711640414
2093.0,0.0064077451033823325
2092.0,0.0064301708236006476
2091.0,0.006447812980674621
2090.0,0.006457243877000807
2089.0,0.00648107670496177
2088.0,0.00651171988580934
2087.0,0.0065191379351131305
2086.0,0.00650823446475034
2085.0,0.006511603356504891
2084.0,0.006529202619130829
2083.0,0.006530454028361277
2082.0,0.006513482320666285
2081.0,0.006505765042573975
2080.0,0.006509028724599181
2079.0,0.0065005196696160065
2078.0,0.006487273773378083
2077.0,0.006498942681866909
2076.0,0.006528720583940998
2075.0,0.006540193022435459
2074.0,0.006531056006141802
2073.0,0.006529973602952344
2072.0,0.006534622387202019
2071.0,0.006516478413967962
2070.0,0.006483378858240318
2069.0,0.006471320746348179
2068.0,0.006475970803261663
2067.0,0.006459630783817906
2066.0,0.006424104882772314
2065.0,0.006407865509574542
2064.0,0.0064126363315191864
2063.0,0.006404029372654953
2062.0,0.006383604673816232
2061.0,0.006386010808698051
2060.0,0.0064087581184553025
2059.0,0.006415285937208767
2058.0,0.006404786985349219
2057.0,0.006406282223464768
2056.0,0.00641142794496863
2055.0,0.006391713970598802
2054.0,0.0063785367604380794
2053.0,0.006437035786174745
2052.0,0.006555609037793296
2051.0,0.006645631532745746
2050.0,0.0066584455837898765
2049.0,0.006627580362938604
2048.0,0.006585583919761559
2047.0,0.006524908432114924
2046.0,0.006460036255293786
2045.0,0.006434542854956939
2044.0,0.006443577962077085
2043.0,0.006437598882052824
2042.0,0.0064136490258619614
2041.0,0.00641636253169378
2040.0,0.0064449381259289165
2039.0,0.006453631094856225
2038.0,0.006445374861641613
2037.0,0.0064621732182393275
2036.0,0.006485949513251082
2035.0,0.006454935053013731
2034.0,0.006380041060658783
2033.0,0.006333398708358849
2032.0,0.006319779569182494
2031.0,0.006280801379238164
2030.0,0.006221612670953357
2029.0,0.006207664400928802
2028.0,0.006237982816568309
2027.0,0.006245585784700928
2026.0,0.006222847929700763
2025.0,0.006223556341189238
2024.0,0.006245744923076195
2023.0,0.006235816935521581
2022.0,0.006201792142771857
2021.0,0.0062011063586488125
2020.0,0.006222615069130751
2019.0,0.006200765247513015
2018.0,0.006141252982359147
2017.0,0.0061137334381745805
2016.0,0.006123261800515114
2015.0,0.006112972437629831
2014.0,0.006085162307989941
2013.0,0.006094190347568543
2012.0,0.006130256830572343
2011.0,0.006128068376357192
2010.0,0.006081033956887409
2009.0,0.006032178053218236
2008.0,0.005969253194482704
2007.0,0.00585300302241771
2006.0,0.005732760473052158
2005.0,0.005700446340749909
2004.0,0.0057426666377124146
2003.0,0.0057680722504415095
2002.0,0.005758702947974275
2001.0,0.005772043558681025
2000.0,0.005812497778277748
1999.0,0.005821740869205375
1998.0,0.005795270928967187
1997.0,0.0057916603741288404
1996.0,0.0058212150900182535
1995.0,0.00583319324056948
1994.0,0.005816704260693984
1993.0,0.005812783819557013
1992.0,0.005822165175699411
1991.0,0.005805403788487535
1990.0,0.00577901656136537
1989.0,0.005797960336874437
1988.0,0.005846766144899092
1987.0,0.005856272759911587
1986.0,0.0058255216451281455
1985.0,0.005821230790339321
1984.0,0.005859725520727391
1983.0,0.005899342364219362
1982.0,0.00594236478377932
1981.0,0.006023172576016525
1980.0,0.006092629420838677
1979.0,0.006040648295096619
1978.0,0.005862508266501365
1977.0,0.005681752024107935
1976.0,0.005573581777245723
1975.0,0.00550324618819039
1974.0,0.005454058851320059
1973.0,0.005457946079972096
1972.0,0.005492500233663313
1971.0,0.005491235082247994
1970.0,0.005459083161511496
1969.0,0.005454588181299482
1968.0,0.005465791875631315
1967.0,0.005429785061793794
1966.0,0.005369045351969209
1965.0,0.0053657455723949005
1964.0,0.005410763206924362
1963.0,0.0054169300407698176
1962.0,0.005363607819310163
1961.0,0.005308658183717857
1960.0,0.005268536470515783
1959.0,0.005208538998047294
1958.0,0.00514503477327307
1957.0,0.005133708106557009
1956.0,0.0051634821794594235
1955.0,0.00517334402184021
1954.0,0.005161968466269877
1953.0,0.005175565058905613
1952.0,0.005202620330813793
1951.0,0.005190313011801385
1950.0,0.005150046612296846
1949.0,0.005142151063899146
1948.0,0.005166556224353719
1947.0,0.005168554782453557
1946.0,0.005143394707858129
1945.0,0.005134234959314366
1944.0,0.005134010961494418
1943.0,0.0050928799606083045
1942.0,0.005026668875421878
1941.0,0.005005632048386649
1940.0,0.00503025952157651
1939.0,0.0050387870701810444
1938.0,0.005019339951831548
1937.0,0.005015102436274871
1936.0,0.005030859129927314
1935.0,0.005025500389152611
1934.0,0.004997082981534163
1933.0,0.004985784255467399
1932.0,0.004992180074191347
1931.0,0.004980253186358856
1930.0,0.0049536161917085085
1929.0,0.004949102496603586
1928.0,0.0049621572333892715
1927.0,0.004954076421214202
1926.0,0.004928573216102462
1925.0,0.004921718518883768
1924.0,0.004928479647163504
1923.0,0.004914693960885798
1922.0,0.004895991169028749
1921.0,0.0049155623595939805
1920.0,0.0049527229809788265
1919.0,0.004943615811258384
1918.0,0.004888606669968236
1917.0,0.004857920252195182
1916.0,0.004873811166226772
1915.0,0.00489102183104182
1914.0,0.0048918582178496045
1913.0,0.0049019911721903875
1912.0,0.004920183756725732
1911.0,0.004911334171158508
1910.0,0.004875999969927209
1909.0,0.004857806043544141
1908.0,0.0048687286217774925
1907.0,0.004875890050567268
1906.0,0.004873138817298411
1905.0,0.0048889142088809
1904.0,0.004922157775973228
1903.0,0.004938670514536038
1902.0,0.0049332930602641045
1901.0,0.004935745510886321
1900.0,0.004949964563477399
1899.0,0.004947880468558786
1898.0,0.0049295876640659125
1897.0,0.004923800670473616
1896.0,0.004929345025352493
1895.0,0.004917504919152178
1894.0,0.004895225573575052
1893.0,0.004896012254890801
1892.0,0.004908075573501672
1891.0,0.004882671762748848
1890.0,0.0048166605373648076
1889.0,0.004768066376568974
1888.0,0.0047653644384682775
1887.0,0.0047736236904348354
1886.0,0.00476857879124922
1885.0,0.004765678724180051
1884.0,0.0047696182682578315
1883.0,0.004760991465791268
1882.0,0.004740748684902587
1881.0,0.004734740115486173
1880.0,0.004742830929489064
1879.0,0.004736758042915769
1878.0,0.00471626659974402
1877.0,0.00471056719782188
1876.0,0.004719258908959238
1875.0,0.00471417050667617
1874.0,0.004700214660986355
1873.0,0.004711725506453866
1872.0,0.004744573592171525
1871.0,0.004749847212409876
1870.0,0.0047033043905292
1869.0,0.004639180964026687
1868.0,0.004595126621437611
1867.0,0.004571887267797008
1866.0,0.004567641145864666
1865.0,0.00459094907359789
1864.0,0.00462543831132264
1863.0,0.004637947733478959
1862.0,0.004629001488518942
1861.0,0.004629578444088273
1860.0,0.004642790426313875
1859.0,0.00464042761583151
1858.0,0.0046205675061462715
1857.0,0.004613368603118123
1856.0,0.0046255762949954414
1855.0,0.004630973002110206
1854.0,0.004623808151607842
1853.0,0.004627017068010263
1852.0,0.004643220111741547
1851.0,0.00464525310032244
1850.0,0.0046300892729869035
1849.0,0.004630059730493478
1848.0,0.004657704694255342
1847.0,0.00468555364887713
1846.0,0.004688878221556113
1845.0,0.00466964110208331
1844.0,0.004635572592565831
1843.0,0.004593945157341238
1842.0,0.004569104887088654
1841.0,0.004582686386114822
1840.0,0.004616017379340075
1839.0,0.004625473774398278
1838.0,0.004606852255348381
1837.0,0.004597744179891728
1836.0,0.004610020090738923
1835.0,0.004619804035930436
1834.0,0.004626175565836923
1833.0,0.004651809137550416
1832.0,0.004681016602922913
1831.0,0.00466008991474579
1830.0,0.004589709811408466
1829.0,0.004551838765727838
1828.0,0.0045786332068444464
1827.0,0.0046107162281359935
1826.0,0.004607617870336868
1825.0,0.004596959148498625
1824.0,0.004609183691557556
1823.0,0.004631629435513617
1822.0,0.004650323973733714
1821.0,0.00467319449852798
1820.0,0.004692707769707756
1819.0,0.00468267662898973
1818.0,0.004649045264163321
1817.0,0.004631491308051784
1816.0,0.004646703339751554
1815.0,0.0046750936652321246
1814.0,0.004704312118351414
1813.0,0.0047401231160971264
1812.0,0.004769794193759958
1811.0,0.0047732737262124545
1810.0,0.004770264937541301
1809.0,0.004796640920731241
1808.0,0.004846992619274385
1807.0,0.004890589485386594
1806.0,0.004927543251242848
1805.0,0.004983427248875971
1804.0,0.005057206914116903
1803.0,0.005118176318557953
1802.0,0.0051556633473836145
1801.0,0.005193858819232123
1800.0,0.005243099308851429
1799.0,0.005288734564021249
1798.0,0.005328708845690269
1797.0,0.005378789809247454
1796.0,0.0054387910559907954
1795.0,0.005484205830593452
1794.0,0.005493948700715471
1793.0,0.0054665004563754956
1792.0,0.005406549249252194
1791.0,0.005334191722268913
1790.0,0.005291464551583942
1789.0,0.005299926657783978
1788.0,0.0053334202237384784
1787.0,0.005345539838001349
1786.0,0.005325192006557983
1785.0,0.0053052120097223125
1784.0,0.005305122447285176
1783.0,0.005303355837263173
1782.0,0.005283053906217598
1781.0,0.005262997355274232
1780.0,0.005257546166313093
1779.0,0.005255792089418943
1778.0,0.005253346902990389
1777.0,0.005268923027311695
1776.0,0.005314864428464893
1775.0,0.005368922570079386
1774.0,0.005396690916081414
1773.0,0.005386832830747814
1772.0,0.005349876493515616
1771.0,0.005305937078020238
1770.0,0.0052902385664665074
1769.0,0.005321329290200048
1768.0,0.005370963887407671
1767.0,0.005399819378528732
1766.0,0.005420749203310788
1765.0,0.005472064308325641
1764.0,0.005543591821920197
1763.0,0.005579678817942522
1762.0,0.005569585682934621
1761.0,0.005582764143758014
1760.0,0.0056490627245509364
1759.0,0.0057226134318071106
1758.0,0.005774650677937815
1757.0,0.005832829743042153
1756.0,0.0059241064531133395
1755.0,0.006034210966076819
1754.0,0.00615720324904893
1753.0,0.006308291507398581
1752.0,0.006464851200439038
1751.0,0.006556839300984545
1750.0,0.006580380135645894
1749.0,0.006625838791569538
1748.0,0.006736449468014819
1747.0,0.006867401175442275
1746.0,0.006991343248201388
1745.0,0.007133567312827496
1744.0,0.007297542966369664
1743.0,0.007446410377349012
1742.0,0.0075794796424917404
1741.0,0.007742603056296735
1740.0,0.007936891459609416
1739.0,0.008107813527580578
1738.0,0.008258005376201452
1737.0,0.008455001518362948
1736.0,0.008709748376174265
1735.0,0.00893079388492432
1734.0,0.009048140295508962
1733.0,0.0091369979319031
1732.0,0.009243037654508584
1731.0,0.009331501817319905
1730.0,0.009425187958357091
1729.0,0.009582348265954123
1728.0,0.009797972187154742
1727.0,0.010005235431435635
1726.0,0.0101837170063987
1725.0,0.010382707387025701
1724.0,0.01062142230577784
1723.0,0.010852064966042125
1722.0,0.01105532555280353
1721.0,0.011281515271163008
1720.0,0.01156555961473212
1719.0,0.011872509331753137
1718.0,0.012165192580279031
1717.0,0.012455243376315992
1716.0,0.012726192986843216
1715.0,0.012936384269735483
1714.0,0.013122337876825995
1713.0,0.013359396515926684
1712.0,0.013647770581862438
1711.0,0.013928567717936706
1710.0,0.014186793200178733
1709.0,0.014465576724215275
1708.0,0.01477921734601793
1707.0,0.015093957992684103
1706.0,0.015411190670355242
1705.0,0.015775785558502755
1704.0,0.016178654076209487
1703.0,0.016574031065655706
1702.0,0.016988694197013748
1701.0,0.017546273285415775
1700.0,0.01824800655050902
1699.0,0.018833480035721058
1698.0,0.019272330821958773
1697.0,0.019781804643201117
1696.0,0.020462575274459188
1695.0,0.021139177858489414
1694.0,0.021656462459712988
1693.0,0.022097151711219225
1692.0,0.02259248271632056
1691.0,0.023168611129575325
1690.0,0.023792061464574417
1689.0,0.02444216543553992
1688.0,0.025093008709955688
1687.0,0.025708036244285765
1686.0,0.026323759523389233
1685.0,0.027100055145122495
1684.0,0.02804647154957977
1683.0,0.0288150746149846
1682.0,0.029349285198436704
1681.0,0.029877050676637762
1680.0,0.030502575316668626
1679.0,0.031138121980514515
1678.0,0.03171856292022993
1677.0,0.03233516993750611
1676.0,0.033103413999640376
1675.0,0.033940935366768676
1674.0,0.034648159606801995
1673.0,0.035225539833045105
1672.0,0.03580584564352663
1671.0,0.03647359566676783
1670.0,0.037248133034707545
1669.0,0.038100352510833074
1668.0,0.03891653350392283
1667.0,0.03958134046402076
1666.0,0.040127009496987436
1665.0,0.0407017138873997
1664.0,0.0414207003169336
1663.0,0.04225032870102077
1662.0,0.043048580075880416
1661.0,0.043762753874051194
1660.0,0.04442867474073208
1659.0,0.04504217216695912
1658.0,0.04557752995532874
1657.0,0.0460641530786644
1656.0,0.04656238272536839
1655.0,0.04711917888419699
1654.0,0.04785538708075885
1653.0,0.04884650169193056
1652.0,0.04962921642145244
1651.0,0.049905182439551846
1650.0,0.04991325673196381
1649.0,0.05000689342222141
1648.0,0.05037448249921077
1647.0,0.050935093745267945
1646.0,0.05143626507010041
1645.0,0.051800258907805284
1644.0,0.05207029693191175
1643.0,0.05227083201726031
1642.0,0.052439239337748675
1641.0,0.052626709729611795
1640.0,0.05283493549631186
1639.0,0.053004319559972986
1638.0,0.05311251431508426
1637.0,0.05323613414795854
1636.0,0.05344204940271815
1635.0,0.05360420490847646
1634.0,0.053597606570138616
1633.0,0.053484310281478514
1632.0,0.05334862114677123
1631.0,0.053187877066385524
1630.0,0.0529653573906029
1629.0,0.05269760585585279
1628.0,0.05242658331894196
1627.0,0.0521404048989239
1626.0,0.05180311896783022
1625.0,0.05141587149804402
1624.0,0.05098691668606961
1623.0,0.05050470670404648
1622.0,0.04999192647240465
1621.0,0.04951295126689939
1620.0,0.04908780789831414
1619.0,0.04866477835614991
1618.0,0.04815953225165393
1617.0,0.04754933934077598
1616.0,0.046918872618538165
1615.0,0.04631789126681592
1614.0,0.04572885376250328
1613.0,0.045154734982992654
1612.0,0.044598766773698006
1611.0,0.04403755421929108
1610.0,0.04345650963099057
1609.0,0.04287976959308584
1608.0,0.04233446889674946
1607.0,0.0418137911053076
1606.0,0.04130185019286
1605.0,0.04080382277290145
1604.0,0.04032511246862876
1603.0,0.039851753599803745
1602.0,0.03937597250848986
1601.0,0.03891550796225593
1600.0,0.03848494593473163
1599.0,0.03807302934660956
1598.0,0.03766519198019478
1597.0,0.0372632655999212
1596.0,0.03687085525828519
1595.0,0.03648300855971428
1594.0,0.036100352985635326
1593.0,0.03573514998935671
1592.0,0.035390845876591095
1591.0,0.0350554326733599
1590.0,0.03472227206357448
1589.0,0.03440133042302687
1588.0,0.034100617065527035
1587.0,0.03381416889531692
1586.0,0.03353654892786441
1585.0,0.03327187634483111
1584.0,0.03302386658071748
1583.0,0.03278813762774043
1582.0,0.03256194657702489
1581.0,0.032353594924124505
1580.0,0.032177136477925465
1579.0,0.03203694893122499
1578.0,0.03191591421954048
1577.0,0.03177725140013931
1576.0,0.031602145008817195
1575.0,0.03141089957201013
1574.0,0.031227389136985577
1573.0,0.03107174420335454
1572.0,0.030946950539986556
1571.0,0.030826735927837204
1570.0,0.03069918300734214
1569.0,0.030593767331283356
1568.0,0.030524961531015984
1567.0,0.03046291904674439
1566.0,0.030395498955316874
1565.0,0.030343665451133976
1564.0,0.0303257905921352
1563.0,0.030343059928871353
1562.0,0.030386905299354124
1561.0,0.030428615880265728
1560.0,0.0304539537356315
1559.0,0.030486057642723573
1558.0,0.030519566581956162
1557.0,0.030575087914523215
1556.0,0.030610005096805226
1555.0,0.03064152863770489
1554.0,0.030689241874215102
1553.0,0.030740660490345628
1552.0,0.03077164789927926
1551.0,0.030785808451559968
1550.0,0.03081427858287867
1549.0,0.030872237934156062
1548.0,0.030935100277969245
1547.0,0.030970254389918142
1546.0,0.03097979424202906
1545.0,0.030987820012031812
1544.0,0.030999029923047546
1543.0,0.030999426746500282
1542.0,0.030996578502374347
1541.0,0.030995091218123674
1540.0,0.030957223872772194
1539.0,0.030881485637955917
1538.0,0.03080343488809005
1537.0,0.030717935868313583
1536.0,0.030633275810442062
1535.0,0.030550884571691764
1534.0,0.030473565986702866
1533.0,0.030434158576980647
1532.0,0.03043539129711552
1531.0,0.030441373078681798
1530.0,0.030438955213896973
1529.0,0.030442907015365117
1528.0,0.030457005898029486
1527.0,0.03047013385106105
1526.0,0.0304916687820756
1525.0,0.030542733869574526
1524.0,0.030614078877992286
1523.0,0.030686605016905545
1522.0,0.0307718192004812
1521.0,0.03088409834707803
1520.0,0.030975628316275927
1519.0,0.031004270887637297
1518.0,0.03101410505410901
1517.0,0.031063156266506346
1516.0,0.03112866640734647
1515.0,0.031159349538517227
1514.0,0.031160495835293345
1513.0,0.031164973840123233
1512.0,0.03116876359788196
1511.0,0.03114821138581101
1510.0,0.03112548257279993
1509.0,0.031152513103431236
1508.0,0.031223032716580022
1507.0,0.03125137103566128
1506.0,0.03126951037521788
1505.0,0.0313465807301598
1504.0,0.03138332247669949
1503.0,0.03136238988031253
1502.0,0.03135324663086447
1501.0,0.031405268860205234
1500.0,0.03150793461623269
1499.0,0.031620370393849156
1498.0,0.03175847793552707
1497.0,0.03197441633444523
1496.0,0.032216333724842734
1495.0,0.03237441200281131
1494.0,0.032462176474527905
1493.0,0.03256112229228406
1492.0,0.03267412736655655
1491.0,0.03273033382271589
1490.0,0.03271753998273874
1489.0,0.032703077809941104
1488.0,0.03269344419174815
1487.0,0.03265677347178497
1486.0,0.03263015220590298
1485.0,0.03266925103832055
1484.0,0.032761852216466165
1483.0,0.03287461769579389
1482.0,0.033052516552351335
1481.0,0.03337059254548113
1480.0,0.03382220871842915
1479.0,0.03442738134890176
1478.0,0.03545195140498091
1477.0,0.037372115908146035
1476.0,0.04052271147822167
1475.0,0.044876743035153
1474.0,0.05001406068085112
1473.0,0.054547548641037544
1472.0,0.056418728599843954
1471.0,0.055577588014078735
1470.0,0.05381652853361535
1469.0,0.05229219390221337
1468.0,0.051255329254662
1467.0,0.05078568123965845
1466.0,0.051231216689156985
1465.0,0.05290979120327491
1464.0,0.055213748599053286
1463.0,0.05679947447115362
1462.0,0.05688647502263312
1461.0,0.05554295225262482
1460.0,0.05326826451351071
1459.0,0.05069812504549317
1458.0,0.04842080629714599
1457.0,0.046818227124666566
1456.0,0.04587620093398699
1455.0,0.0452798860429364
1454.0,0.0448000714046708
1453.0,0.044356959787817014
1452.0,0.04393815430329476
1451.0,0.04357901553353105
1450.0,0.043305480877244944
1449.0,0.04308838295108069
1448.0,0.04288970421440962
1447.0,0.04272116892095262
1446.0,0.04260070841403524
1445.0,0.04250463032197202
1444.0,0.0424067382622065
1443.0,0.04231330999243763
1442.0,0.042240676671810494
1441.0,0.042185442804123445
1440.0,0.04213751310055284
1439.0,0.042102257890967464
1438.0,0.04209980001959075
1437.0,0.04214038332461439
1436.0,0.04220160846038837
1435.0,0.0422533406098727
1434.0,0.042303489160398285
1433.0,0.04237463957236249
1432.0,0.04247623310953342
1431.0,0.042611116938462104
1430.0,0.042792023066638304
1429.0,0.0430154858655922
1428.0,0.04324262605682605
1427.0,0.04344863372970826
1426.0,0.043658736258530714
1425.0,0.043911035726224276
1424.0,0.04418931081895415
1423.0,0.04443758672949816
1422.0,0.044650137323099554
1421.0,0.04486426932677541
1420.0,0.04509591187731633
1419.0,0.045317566778037145
1418.0,0.04549285819701593
1417.0,0.045607776323936554
1416.0,0.045654581217612636
1415.0,0.045642502072334584
1414.0,0.04560101131783014
1413.0,0.04554134241061525
1412.0,0.04543351737838186
1411.0,0.045252980924118225
1410.0,0.04502439585788807
1409.0,0.04476990551240501
1408.0,0.04446049907212197
1407.0,0.044065997920125846
1406.0,0.043599527118703976
1405.0,0.04308577655456281
1404.0,0.042534501037111906
1403.0,0.04197131592369658
1402.0,0.04142117691308141
1401.0,0.04084755923871375
1400.0,0.04017953053939327
1399.0,0.03942459166153898
1398.0,0.03867941755550331
1397.0,0.03796543903554914
1396.0,0.03719595957546038
1395.0,0.03633643951721086
1394.0,0.035482759484955655
1393.0,0.034720194619051334
1392.0,0.034026740053322325
1391.0,0.033363442897087606
1390.0,0.03271692035990452
1389.0,0.03205901583949891
1388.0,0.031357747877399124
1387.0,0.030648915491132897
1386.0,0.030012541161608945
1385.0,0.029461724678824977
1384.0,0.028953894355309817
1383.0,0.028473472471262147
1382.0,0.028034320562069955
1381.0,0.027628688009885594
1380.0,0.027228125279480014
1379.0,0.026823971324399325
1378.0,0.026423012533388367
1377.0,0.026011987691715
1376.0,0.025566578632835308
1375.0,0.025094755805521923
1374.0,0.02464371943217155
1373.0,0.024255634486142014
1372.0,0.023933585805654838
1371.0,0.023655447926251162
1370.0,0.02338579313777123
1369.0,0.023088667544949922
1368.0,0.022759971742207855
1367.0,0.022433335472362464
1366.0,0.022128206171135197
1365.0,0.021821626921283487
1364.0,0.02149017449497353
1363.0,0.021155972731364128
1362.0,0.020864479695688533
1361.0,0.02062902610885285
1360.0,0.020436634206902442
1359.0,0.02028377492974128
1358.0,0.02016865177451293
1357.0,0.020076510237756463
1356.0,0.019998315410301077
1355.0,0.019945318685461885
1354.0,0.019924626364543944
1353.0,0.019921071190829844
1352.0,0.01992163513312826
1351.0,0.019934681284981666
1350.0,0.019963665521366487
1349.0,0.019995349578725955
1348.0,0.020024647868272606
1347.0,0.02006572435365331
1346.0,0.020124579344998308
1345.0,0.020185466745709556
1344.0,0.02023578816552959
1343.0,0.020280467708837967
1342.0,0.02032041546366927
1341.0,0.02033984558605323
1340.0,0.0203270861360196
1339.0,0.02029010978429591
1338.0,0.020236174100720785
1337.0,0.020155697920325844
1336.0,0.02004378971648133
1335.0,0.01991247233761414
1334.0,0.019768416675913822
1333.0,0.019602145995793765
1332.0,0.019411053520561484
1331.0,0.01921150175886093
1330.0,0.01901534040130371
1329.0,0.018815993573961572
1328.0,0.01860883479566047
1327.0,0.018403570287688728
1326.0,0.0182041768997567
1325.0,0.018001088065651486
1324.0,0.017791291345553698
1323.0,0.017586086015439945
1322.0,0.017389345414242346
1321.0,0.0171883215890654
1320.0,0.016976492995499276
1319.0,0.016766476455280177
1318.0,0.01656947160338854
1317.0,0.016380973856436117
1316.0,0.01619800307416206
1315.0,0.016028820274391436
1314.0,0.015875797375828147
1313.0,0.015728418341913564
1312.0,0.015583223834676752
1311.0,0.015450816342631842
1310.0,0.015334136184791031
1309.0,0.015221294110827729
1308.0,0.015106909383384513
1307.0,0.015000354489695694
1306.0,0.014904058095168479
1305.0,0.01480677316317451
1304.0,0.014704703542850119
1303.0,0.014608776017982859
1302.0,0.01452261856588315
1301.0,0.014434267968095254
1300.0,0.014337928940368675
1299.0,0.014243619401693108
1298.0,0.014156700418233546
1297.0,0.01406763686753423
1296.0,0.01397133169368052
1295.0,0.013876571112922408
1294.0,0.013788167907186042
1293.0,0.013699136199445086
1292.0,0.013608533615524564
1291.0,0.013527793071480127
1290.0,0.01346133731481669
1289.0,0.01339950929356597
1288.0,0.013338458364541197
1287.0,0.013287581574486527
1286.0,0.013249762376337532
1285.0,0.013214411926728217
1284.0,0.013177885421665057
1283.0,0.013151317906599538
1282.0,0.013140504779931228
1281.0,0.013136425012282842
1280.0,0.013133881932995414
1279.0,0.013140608130416585
1278.0,0.013160615376751492
1277.0,0.013186259998601634
1276.0,0.013214632271230091
1275.0,0.013254124939184844
1274.0,0.013307780771560807
1273.0,0.013366756188277575
1272.0,0.013426693205602337
1271.0,0.013494506877967594
1270.0,0.01357299300407128
1269.0,0.013655220666103907
1268.0,0.013739757878478285
1267.0,0.013834497747315079
1266.0,0.013940831202940488
1265.0,0.01405024340075484
1264.0,0.014161723732067154
1263.0,0.014286104075473878
1262.0,0.01442775935863113
1261.0,0.014577773487111052
1260.0,0.014730995971355604
1259.0,0.014894082846074883
1258.0,0.015072141810870222
1257.0,0.015261704881919323
1256.0,0.015461282469921747
1255.0,0.015674693468041293
1254.0,0.015900605547766775
1253.0,0.01613200934462397
1252.0,0.016369358730091956
1251.0,0.01662113561456362
1250.0,0.01688867432558777
1249.0,0.01716296108366417
1248.0,0.01743880184014471
1247.0,0.01771972538363089
1246.0,0.018007081635788614
1245.0,0.01829566670035036
1244.0,0.018582708596653313
1243.0,0.018870668038985138
1242.0,0.019158433248302856
1241.0,0.019438887231924957
1240.0,0.019707192963268155
1239.0,0.019963390306121667
1238.0,0.02020616296320657
1237.0,0.02043275353222527
1236.0,0.020646646919215673
1235.0,0.0208573520354632
1234.0,0.021070436966909484
1233.0,0.021284336345829824
1232.0,0.0214978869319348
1231.0,0.021713701745173456
1230.0,0.02193256328890961
1229.0,0.022151035266168115
1228.0,0.022366512343051034
1227.0,0.022579170832282253
1226.0,0.02278759574717394
1225.0,0.02298764054010624
1224.0,0.023176890657115406
1223.0,0.02335562774500541
1222.0,0.023522402940960956
1221.0,0.023673065678458536
1220.0,0.023805343845377157
1219.0,0.023920399748195185
1218.0,0.024018913803523924
1217.0,0.02409940236184663
1216.0,0.024161971486915013
1215.0,0.024210284857070725
1214.0,0.024247802859258788
1213.0,0.02427490664600132
1212.0,0.024291641443780987
1211.0,0.02430081625253766
1210.0,0.024305916971686586
1209.0,0.024308175591422527
1208.0,0.024308222894829465
1207.0,0.024308600142072458
1206.0,0.02431207628489746
1205.0,0.024318938460653697
1204.0,0.02432798376891697
1203.0,0.02433865838859786
1202.0,0.024350904189586863
1201.0,0.024364946644077973
1200.0,0.024382413793497287
1199.0,0.024405487895443164
1198.0,0.024433809864843375
1197.0,0.0244643119724365
1196.0,0.024495037116756456
1195.0,0.024526863653080388
1194.0,0.024560438103464016
1193.0,0.02459402754442751
1192.0,0.02462556899837305
1191.0,0.024654253082779836
1190.0,0.024678756423541268
1189.0,0.024696505667692936
1188.0,0.024706636437509175
1187.0,0.024711820633587234
1186.0,0.024715397942784743
1185.0,0.02471822708051501
1184.0,0.024719962217489372
1183.0,0.024721531305048564
1182.0,0.024724398953151826
1181.0,0.02472923978608482
1180.0,0.024737292808233738
1179.0,0.0247508823359715
1178.0,0.024770272806157966
1177.0,0.024792070797664944
1176.0,0.024813376106459083
1175.0,0.0248360985286156
1174.0,0.0248646447828656
1173.0,0.024900558698386404
1172.0,0.024941645497378782
1171.0,0.0249852913204435
1170.0,0.025030274552149994
1169.0,0.02507596773615497
1168.0,0.025122138998623658
1167.0,0.02516982912128245
1166.0,0.02522085376750802
1165.0,0.025276135001637855
1164.0,0.025335458572943465
1163.0,0.025398778379782105
1162.0,0.02546682953840637
1161.0,0.02554058580932991
1160.0,0.025621011388167386
1159.0,0.025708803538336315
1158.0,0.025803574945712664
1157.0,0.02590368779217102
1156.0,0.026007865005382665
1155.0,0.026116528044181086
1154.0,0.026230535618354735
1153.0,0.02634896354778837
1152.0,0.026469787982207813
1151.0,0.026593067115255394
1150.0,0.026721526653262065
1149.0,0.026856909562992755
1148.0,0.026997589744578297
1147.0,0.027141417543704652
1146.0,0.02728904135421427
1145.0,0.02744194925497489
1144.0,0.02759887403274463
1143.0,0.027757635729750305
1142.0,0.02791971039572757
1141.0,0.028089102888659137
1140.0,0.028266751884038224
1139.0,0.028449981425872246
1138.0,0.02863743829339515
1137.0,0.02883025520476639
1136.0,0.02902812729277649
1135.0,0.029229021574121168
1134.0,0.02943316791680428
1133.0,0.029642403409325127
1132.0,0.029855165589199102
1131.0,0.030067374469999686
1130.0,0.030278263872899717
1129.0,0.030489184615344875
1128.0,0.03069675914031371
1127.0,0.030894844642654636
1126.0,0.031084255415022514
1125.0,0.03127259385724508
1124.0,0.03146365466740515
1123.0,0.03165496579577899
1122.0,0.03184607467665438
1121.0,0.03203982020650923
1120.0,0.0322349477628408
1119.0,0.03242723857110543
1118.0,0.03261874218984707
1117.0,0.032815812383437344
1116.0,0.033017993616640776
1115.0,0.033219836481605425
1114.0,0.03342322368221632
1113.0,0.03363480791075198
1112.0,0.033851237015345634
1111.0,0.034062098826032096
1110.0,0.03426890654083983
1109.0,0.03448538420789417
1108.0,0.03471596065081446
1107.0,0.03495085434441961
1106.0,0.03518475017754507
1105.0,0.035423067976833776
1104.0,0.03566634090345785
1103.0,0.03590612304360064
1102.0,0.03614091305597197
1101.0,0.03637925483690246
1100.0,0.03662165307063049
1099.0,0.036859514090054564
1098.0,0.037092290894688275
1097.0,0.03732905538610834
1096.0,0.03756845257868116
1095.0,0.03779743991674444
1094.0,0.03801386214627255
1093.0,0.03822940291054605
1092.0,0.03844664577985095
1091.0,0.03865509600475332
1090.0,0.03885315277474231
1089.0,0.03905093508294098
1088.0,0.03924783495867305
1087.0,0.03943188104789929
1086.0,0.03960508490062358
1085.0,0.03978159409200874
1084.0,0.039953993263675554
1083.0,0.04008955786579131
1082.0,0.04016948298924839
1081.0,0.040207164357787956
1080.0,0.04022097323953807
1079.0,0.040215565130819246
1078.0,0.040196039573394376
1077.0,0.04017342082791957
1076.0,0.040147807307129225
1075.0,0.040108821482468825
1074.0,0.04005748976807866
1073.0,0.04000516237248328
1072.0,0.03994937343574739
1071.0,0.03987594557776891
1070.0,0.039786495259493536
1069.0,0.03969787058587541
1068.0,0.03961361810137119
1067.0,0.03952249933111305
1066.0,0.03942524755582163
1065.0,0.03933507091218552
1064.0,0.039250519878115356
1063.0,0.039155668739844274
1062.0,0.03904990428914435
1061.0,0.03895132200175631
1060.0,0.03886778942740729
1059.0,0.038791684169156876
1058.0,0.038727033582965184
1057.0,0.03869488053712603
1056.0,0.03870606807996088
1055.0,0.03875312206397068
1054.0,0.03883486090744902
1053.0,0.03896485590181957
1052.0,0.03914542233509366
1051.0,0.039354578976806574
1050.0,0.03956851785557124
1049.0,0.03977201486751777
1048.0,0.03993809237746419
1047.0,0.04002952873907873
1046.0,0.040030625490184005
1045.0,0.039951122016468436
1044.0,0.039796795203906145
1043.0,0.03956336759319126
1042.0,0.0392596169790979
1041.0,0.038910239621917996
1040.0,0.038532662146697726
1039.0,0.038132968125788175
1038.0,0.03772425434902143
1037.0,0.03732604733146577
1036.0,0.036943651898158535
1035.0,0.036567461332494514
1034.0,0.0361936034756141
1033.0,0.03582775205699064
1032.0,0.035468959834881374
1031.0,0.035108089959190396
1030.0,0.034742816722630354
1029.0,0.034377899319866685
1028.0,0.034011196296372816
1027.0,0.03363539851787139
1026.0,0.03325286194567542
1025.0,0.03287374920026418
1024.0,0.03250061293824194
1023.0,0.03212871215537273
1022.0,0.03175996161611735
1021.0,0.03140282560899972
1020.0,0.03105873539599193
1019.0,0.030720739365374186
1018.0,0.030384787560326774
1017.0,0.030051593162809087
1016.0,0.029719440968480823
1015.0,0.02938651043578138
1014.0,0.02905893182518844
1013.0,0.028746126161651085
1012.0,0.028449008528453716
1011.0,0.028160858769111147
1010.0,0.02787724652573058
1009.0,0.027597032367554668
1008.0,0.027316394235897143
1007.0,0.027030647840880273
1006.0,0.02674028915037218
1005.0,0.0264475429125157
1004.0,0.02614920708961685
1003.0,0.025840250273382784
1002.0,0.025522037010299488
1001.0,0.025199980937742082
1000.0,0.024875815323491618
999.0,0.024548879547107393
998.0,0.02422212725674009
997.0,0.02390039045475727
996.0,0.023584840004634226
995.0,0.023274333377448442
994.0,0.022969763648862586
993.0,0.022672620777660846
992.0,0.022382112400384957
991.0,0.022097989151696633
990.0,0.021823275843058643
989.0,0.021560287026712335
988.0,0.021306648548624078
987.0,0.02105824356725093
986.0,0.02081300216220571
985.0,0.020569242759494216
984.0,0.020323825648651386
983.0,0.02007461432866762
982.0,0.019821307190957222
981.0,0.019561518515815935
980.0,0.01929015961492266
979.0,0.01900568703531362
978.0,0.018713468762219607
977.0,0.018420174904532224
976.0,0.018128277461613315
975.0,0.017838074722249395
974.0,0.017551342831880184
973.0,0.017270598287361216
972.0,0.016997665698185522
971.0,0.016734612476463306
970.0,0.016483592230760815
969.0,0.016244913487426953
968.0,0.016017281929291853
967.0,0.015799673313634452
966.0,0.015590945317196375
965.0,0.015388625381480968
964.0,0.015190506151768278
963.0,0.014995910987019696
962.0,0.014803059360715291
961.0,0.014607695229507386
960.0,0.014407286126535766
959.0,0.014204017652551849
958.0,0.014000340154703365
957.0,0.01379460562767847
956.0,0.013585183730051076
955.0,0.013375930925310506
954.0,0.013172924056604505
953.0,0.012978058393450238
952.0,0.012790179251170625
951.0,0.012609946808005194
950.0,0.01243916805885183
949.0,0.012277958515766779
948.0,0.012126860203916841
947.0,0.011989229396304667
946.0,0.011867808793109263
945.0,0.011761828041868334
944.0,0.011670974773784929
943.0,0.011599118878904097
942.0,0.011550988286507479
941.0,0.011528249206101668
940.0,0.011530885671889205
939.0,0.011557461165459502
938.0,0.011600147431338352
937.0,0.011642954825521145
936.0,0.011667940970751186
935.0,0.011661143246453086
934.0,0.011612875229317272
933.0,0.011518466748218312
932.0,0.011382347977810191
931.0,0.011217902287734019
930.0,0.011039936608291806
929.0,0.010859649910688638
928.0,0.010687511552978503
927.0,0.010534032747935441
926.0,0.01040307040201693
925.0,0.010289610356622382
924.0,0.010188427204229598
923.0,0.010099854713518115
922.0,0.010024069907856748
921.0,0.00995666670138923
920.0,0.009894797269654445
919.0,0.00984157603932712
918.0,0.009799363367469938
917.0,0.009764129378851589
916.0,0.009731413767792279
915.0,0.00970261307979995
914.0,0.009680662302699577
913.0,0.009664362571325455
912.0,0.009651565343854182
911.0,0.009642915350007691
910.0,0.009637660781285876
909.0,0.00963066988637815
908.0,0.009618225686283809
907.0,0.00960210454874805
906.0,0.009583783228780281
905.0,0.009559578044428682
904.0,0.009525274171623514
903.0,0.009479998357167393
902.0,0.009421563418054162
901.0,0.009344252956301556
900.0,0.009246282267174746
899.0,0.009134010394030417
898.0,0.00901334238821481
897.0,0.008883088434582975
896.0,0.008742310024359353
895.0,0.00859816160902168
894.0,0.008460132245983252
893.0,0.008332190710544645
892.0,0.008216920433149097
891.0,0.00812166476084659
890.0,0.00805478488071056
889.0,0.008023048881950328
888.0,0.008039491603578615
887.0,0.008126196414577352
886.0,0.008299917885153999
885.0,0.008560035231615123
884.0,0.008898211001973137
883.0,0.009315142854590782
882.0,0.009821114686976041
881.0,0.010422010469348573
880.0,0.011104649875012227
879.0,0.011826573745675063
878.0,0.012518268915459884
877.0,0.013108854530868005
876.0,0.013559125646851865
875.0,0.013862524495392319
874.0,0.014002024692473213
873.0,0.013911910440418292
872.0,0.013509191769426152
871.0,0.0127846760612302
870.0,0.011855802533611813
869.0,0.010913569076920926
868.0,0.010117869224852073
867.0,0.0095369269595285
866.0,0.009154557552273998
865.0,0.008914907800224095
864.0,0.008766377934770522
863.0,0.00867892225816617
862.0,0.008636506869812275
861.0,0.008626712141994978
860.0,0.00864052130403727
859.0,0.008674176421017619
858.0,0.00872402202559312
857.0,0.008779027619374855
856.0,0.008817364621992804
855.0,0.008806861013707293
854.0,0.008714777073907932
853.0,0.008532382857656106
852.0,0.00829623359483712
851.0,0.008073154650905523
850.0,0.00791051421801271
849.0,0.007804507271234473
848.0,0.0077242559418879315
847.0,0.007656394411512273
846.0,0.007611379116618834
845.0,0.007593870540316369
844.0,0.0075879969645540595
843.0,0.00757565475322337
842.0,0.007555927873317424
841.0,0.007540733899445179
840.0,0.0075398201860494354
839.0,0.007554815953899903
838.0,0.007581109734579905
837.0,0.0076107253574487395
836.0,0.0076371345624111076
835.0,0.00766058620226636
834.0,0.007686781686742496
833.0,0.007719745627605298
832.0,0.007758902122196607
831.0,0.007802572815200373
830.0,0.007849826676547753
829.0,0.007898383004774879
828.0,0.007945642337075154
827.0,0.007993452814106006
826.0,0.00804770781447393
825.0,0.008111579539343017
824.0,0.008182866559344594
823.0,0.008258271159924524
822.0,0.008335200126407021
821.0,0.00840974870170481
820.0,0.00847897373788595
819.0,0.008545833548410172
818.0,0.008617115685799637
817.0,0.008695728747733927
816.0,0.00877830009146868
815.0,0.008860388910033462
814.0,0.008940327863873294
813.0,0.009017378741075416
812.0,0.009090326469139612
811.0,0.009159678907295018
810.0,0.009227981837572011
809.0,0.009296314045639058
808.0,0.009363550734272242
807.0,0.009430310437875872
806.0,0.009499623227069407
805.0,0.009571654290903158
804.0,0.009641619430864452
803.0,0.009705339299168038
802.0,0.00976384976272672
801.0,0.0098201127107788
800.0,0.009874362756126798
799.0,0.009925054693111491
798.0,0.009970873191416985
797.0,0.010009463249092881
796.0,0.010038113573033046
795.0,0.010058647261566172
794.0,0.010077594309771225
793.0,0.010098500995388674
792.0,0.010118608694131809
791.0,0.010136041421145135
790.0,0.010154381285143513
789.0,0.010176267613529626
788.0,0.010198764177376106
787.0,0.01022079778127407
786.0,0.010248835186069605
785.0,0.010288032436758208
784.0,0.010332619157112855
783.0,0.010372568384212941
782.0,0.010405614578076056
781.0,0.01043513739968168
780.0,0.010460485509558321
779.0,0.01047859996258206
778.0,0.01049209383431959
777.0,0.0105061461074001
776.0,0.010519326502971962
775.0,0.010526167880719757
774.0,0.010527226270028115
773.0,0.010527923200852666
772.0,0.010528980957995863
771.0,0.010526777384512277
770.0,0.010521851041529532
769.0,0.010518447317285858
768.0,0.010516562883169
767.0,0.010512963975870464
766.0,0.010508880840285284
765.0,0.010508320018690634
764.0,0.010510106331062963
763.0,0.010510120310729558
762.0,0.010509723245652063
761.0,0.010513771002398701
760.0,0.010522283762044435
759.0,0.010532814537297906
758.0,0.010548801541938525
757.0,0.010576299335740672
756.0,0.010614722497772434
755.0,0.01065983688950014
754.0,0.010712495608799347
753.0,0.010774571778215458
752.0,0.010840618271642982
751.0,0.010905474358157748
750.0,0.010975812722969186
749.0,0.011061057189183425
748.0,0.01115696877992058
747.0,0.011252098961721815
746.0,0.011345421122057255
745.0,0.011441440909169577
744.0,0.011533098671945578
743.0,0.011608884940050426
742.0,0.011673371020049585
741.0,0.011740893546049885
740.0,0.011813788463930764
739.0,0.01189005461526477
738.0,0.01198875185193413
737.0,0.012151590055432634
736.0,0.012447828981505347
735.0,0.013025133211701505
734.0,0.014122537835637692
733.0,0.01590683265853329
732.0,0.018188711388157208
731.0,0.02031802098832486
730.0,0.021515170074971866
729.0,0.02145696801771339
728.0,0.020516959208901633
727.0,0.019401724243398765
726.0,0.01864485541125397
725.0,0.018446649132395906
724.0,0.01886076543572385
723.0,0.02002153224617388
722.0,0.02212613019012477
721.0,0.025114814824620392
720.0,0.028323440041682406
719.0,0.03066333034627055
718.0,0.03140414354984789
717.0,0.03063133769222471
716.0,0.028910865599713342
715.0,0.02680645112923173
714.0,0.024698648848989563
713.0,0.022798078995846925
712.0,0.021188266635001875
711.0,0.019866604556890956
710.0,0.018795512106908066
709.0,0.01794327884949359
708.0,0.017283559693735732
707.0,0.016773985421191198
706.0,0.016364228171626874
705.0,0.016026111425020816
704.0,0.015755515955265136
703.0,0.015545010267029199
702.0,0.015373456604810452
701.0,0.015222743026072984
700.0,0.015085189192059454
699.0,0.014950743290688483
698.0,0.014807527520127498
697.0,0.01465826800259733
696.0,0.01451834398773708
695.0,0.014395518274882283
694.0,0.01428419365734163
693.0,0.014181640047090511
692.0,0.01409458074320697
691.0,0.01402410332076379
690.0,0.013960645527532522
689.0,0.013897930133580864
688.0,0.013839429022253418
687.0,0.013788023967590927
686.0,0.01374043925307555
685.0,0.01369606501937223
684.0,0.013658909671946298
683.0,0.013627455978426878
682.0,0.013594703572209012
681.0,0.013558594676317166
680.0,0.013523186449474225
679.0,0.013489883289064565
678.0,0.013457172823007502
677.0,0.013428500705119056
676.0,0.01340290291021241
675.0,0.013372087066711245
674.0,0.01332997313421562
673.0,0.013276249695966212
672.0,0.01320091941197353
671.0,0.013081494475829566
670.0,0.01290904189651624
669.0,0.012728298622321752
668.0,0.012650976505361892
667.0,0.012737589802392802
666.0,0.012845505911662107
665.0,0.012869945974702882
664.0,0.012840048549049514
663.0,0.012797378081010748
662.0,0.012754533757603312
661.0,0.012709636111040475
660.0,0.012666469841386745
659.0,0.012629618257602858
658.0,0.012593717678357024
657.0,0.012552466031538572
656.0,0.012502435619885694
655.0,0.01244378661673275
654.0,0.01238279029379543
653.0,0.012330476093543964
652.0,0.01229060133339957
651.0,0.012254436030374561
650.0,0.012213695447618727
649.0,0.012172653450674049
648.0,0.012135227145937524
647.0,0.01209177156934519
646.0,0.012034398119263299
645.0,0.01197112676734852
644.0,0.01191110593727382
643.0,0.011845887188977729
642.0,0.01175976826084929
641.0,0.011655365515909562
640.0,0.011552119375913699
639.0,0.011464323781248852
638.0,0.011394490648123149
637.0,0.011343543597733
636.0,0.011311488050478984
635.0,0.011288017165541557
634.0,0.011256889036450307
633.0,0.011211579256787622
632.0,0.01115231116589473
631.0,0.011074169483560516
630.0,0.01097455090304357
629.0,0.010865934748539249
628.0,0.01076325274778011
627.0,0.010660966136490042
626.0,0.010539027410016156
625.0,0.010391639680412762
624.0,0.010235267178574401
623.0,0.010084911940076508
622.0,0.009937472810016869
621.0,0.009790558828870314
620.0,0.009665857521669957
619.0,0.009594589261442691
618.0,0.009574635277595112
617.0,0.00956402041901885
616.0,0.00953039842833478
615.0,0.00948332768145934
614.0,0.009452666637373718
613.0,0.009452631081401541
612.0,0.009477267240873503
611.0,0.009517457735509726
610.0,0.009573705733121034
609.0,0.009648921601107387
608.0,0.009727615708231684
607.0,0.009773950575572486
606.0,0.009769045772531168
605.0,0.009737312692083631
604.0,0.009715490141120924
603.0,0.009711735196070881
602.0,0.009709460366583333
601.0,0.009696067686422463
600.0,0.009665337957984133
599.0,0.009605558311143556
598.0,0.009509193429585606
597.0,0.009388872008440501
596.0,0.009268395462392616
595.0,0.009162951780508705
594.0,0.009072882051059092
593.0,0.008987169495904484
592.0,0.008885426393010262
591.0,0.008745482191588522
590.0,0.008564855751488219
589.0,0.008368408533287953
588.0,0.00818594116287617
587.0,0.008027672360305903
586.0,0.007872786534199951
585.0,0.007683739997332732
584.0,0.007440695544329835
583.0,0.007158295755335352
582.0,0.00686664612296994
581.0,0.006581810232612761
580.0,0.006319333419545447
579.0,0.006117790566375254
578.0,0.005995953306414422
577.0,0.005908327728504768
576.0,0.005788703754769194
575.0,0.005621154984103351
574.0,0.005443853307270204
573.0,0.00529741959088538
572.0,0.0052050521367182755
571.0,0.005170609015682353
570.0,0.005155442712399231
569.0,0.0051119398664277674
568.0,0.0050614066384689
567.0,0.005082513939772144
566.0,0.005194283136139021
565.0,0.0053069479200038745
564.0,0.005323940537557999
563.0,0.0052327728959008085
562.0,0.005093738194803495
561.0,0.004962115634605668
560.0,0.004860039127783811
559.0,0.004809907825794015
558.0,0.004827852211533862
557.0,0.0048898237119525175
556.0,0.004949229993927854
555.0,0.004975237877355402
554.0,0.004963024819939772
553.0,0.004918008988385987
552.0,0.004828868886320498
551.0,0.004674330227990912
550.0,0.004461945100340746
