cm-1,A
4000.0,0.001143733371510849
3999.0,0.0011421571878555271
3998.0,0.0011405713415545762
3997.0,0.0011390453754719413
3996.0,0.001139346407765363
3995.0,0.0011434937258042494
3994.0,0.0011518526851762613
3993.0,0.0011620759921980631
3992.0,0.0011696206141652873
3991.0,0.001170138590815285
3990.0,0.0011626341642576145
3989.0,0.0011512959109103152
3988.0,0.0011427383019939194
3987.0,0.0011409398634582993
3986.0,0.0011443795863337824
3985.0,0.0011481302732573992
3984.0,0.0011495707226142336
3983.0,0.0011503296208558267
3982.0,0.0011529220750385346
3981.0,0.0011562659010112821
3980.0,0.0011559174833627654
3979.0,0.0011493233077685314
3978.0,0.0011392487175262995
3977.0,0.0011317188090372255
3976.0,0.0011313262712713047
3975.0,0.0011385592613946762
3974.0,0.001150269299754265
3973.0,0.0011618597165496346
3972.0,0.0011689704963485218
3971.0,0.0011689426421734915
3970.0,0.0011626775470980262
3969.0,0.0011544415672355142
3968.0,0.0011486569143318603
3967.0,0.0011469204933487317
3966.0,0.0011477911362760317
3965.0,0.0011490476495115117
3964.0,0.001149945131570739
3963.0,0.0011515127906571144
3962.0,0.0011548012347177786
3961.0,0.00115981775892571
3960.0,0.0011657691962496447
3959.0,0.0011707735966758458
3958.0,0.0011731233721147837
3957.0,0.0011724751635237554
3956.0,0.0011696049649877562
3955.0,0.0011658815035569146
3954.0,0.001162310703941555
3953.0,0.0011594584234358935
3952.0,0.001158175746708296
3951.0,0.0011588800564460286
3950.0,0.0011615914795464902
3949.0,0.0011642591972949
3948.0,0.0011633156271624646
3947.0,0.0011573515804802555
3946.0,0.0011467515393780445
3945.0,0.0011351980643358817
3944.0,0.0011281626384193754
3943.0,0.0011281381059899255
3942.0,0.0011344719152997207
3941.0,0.0011435407997395443
3940.0,0.0011511796589063206
3939.0,0.0011541989146137258
3938.0,0.0011518567205844534
3937.0,0.0011476152321164028
3936.0,0.001146773546784214
3935.0,0.0011528136253834737
3934.0,0.001163729525300463
3933.0,0.001174507430108262
3932.0,0.0011797000644407966
3931.0,0.0011784988528982148
3930.0,0.0011738811339535456
3929.0,0.001164916416436347
3928.0,0.0011497867334095222
3927.0,0.0011307557649627058
3926.0,0.0011164118867071403
3925.0,0.001114898960202451
3924.0,0.0011259186132986988
3923.0,0.0011435371036242546
3922.0,0.0011614150694230375
3921.0,0.001176976630182778
3920.0,0.001190809500450874
3919.0,0.0012018215865690742
3918.0,0.0012070411644855435
3917.0,0.001203281277111752
3916.0,0.0011912856126639034
3915.0,0.001176126326332026
3914.0,0.0011616174400840068
3913.0,0.0011499009013414903
3912.0,0.0011424767075592502
3911.0,0.001139126668905774
3910.0,0.0011386271546696275
3909.0,0.0011384011038471915
3908.0,0.0011365859729111903
3907.0,0.0011359576759257077
3906.0,0.0011451985651655381
3905.0,0.0011712112913646105
3904.0,0.001207787015538149
3903.0,0.0012357217338915443
3902.0,0.0012409055878597561
3901.0,0.0012266232109367616
3900.0,0.001205663583062825
3899.0,0.0011892093986934148
3898.0,0.001180233704003707
3897.0,0.0011743819796650144
3896.0,0.0011691423636637824
3895.0,0.0011652216989604283
3894.0,0.0011651197453599283
3893.0,0.001171117084361067
3892.0,0.0011786256416473043
3891.0,0.001180565404985812
3890.0,0.001179202979489001
3889.0,0.001179847819126053
3888.0,0.0011819865225086794
3887.0,0.001183823269881331
3886.0,0.0011829759331564512
3885.0,0.00117598127343397
3884.0,0.001165439943607914
3883.0,0.0011554549311424953
3882.0,0.0011493141601209992
3881.0,0.001149369601066008
3880.0,0.0011511654578116384
3879.0,0.0011510553696925233
3878.0,0.0011491731820780925
3877.0,0.0011430793935475066
3876.0,0.0011335257919884603
3875.0,0.0011289936993152637
3874.0,0.0011378700741489479
3873.0,0.001159744843483323
3872.0,0.0011858312745038767
3871.0,0.001203955312335297
3870.0,0.0012056002902526134
3869.0,0.001195363598201707
3868.0,0.0011882122530323534
3867.0,0.0011882225620826383
3866.0,0.0011892720687533376
3865.0,0.001187432328458098
3864.0,0.0011857366157027463
3863.0,0.001187943242012584
3862.0,0.0011932542608273397
3861.0,0.001197600966512539
3860.0,0.0011993778287551836
3859.0,0.0012032435226330199
3858.0,0.0012128305213115207
3857.0,0.001222084747526644
3856.0,0.001221315896076563
3855.0,0.0012128568003651665
3854.0,0.0012191034498077328
3853.0,0.0012267749533961818
3852.0,0.0012154867825078216
3851.0,0.0012002555133863902
3850.0,0.0011903398793340876
3849.0,0.001183601473126853
3848.0,0.0011768472286127515
3847.0,0.0011696240066113675
3846.0,0.0011644350144777954
3845.0,0.001162908466635707
3844.0,0.0011651004441112756
3843.0,0.001169760969227467
3842.0,0.0011764139738928456
3841.0,0.0011846056090826858
3840.0,0.0011926253375967337
3839.0,0.0011992466576858998
3838.0,0.0012048030612171494
3837.0,0.0012109390621102157
3836.0,0.0012181994591567084
3835.0,0.0012223906023167627
3834.0,0.0012202473124872698
3833.0,0.0012120853267671484
3832.0,0.0012004084968041395
3831.0,0.0011880860873611583
3830.0,0.0011760159825913662
3829.0,0.0011638733068331589
3828.0,0.0011545911031088226
3827.0,0.0011548268477588474
3826.0,0.0011683626215264454
3825.0,0.0011906297597794636
3824.0,0.0012088381256275859
3823.0,0.0012128791402075002
3822.0,0.0012107465533025582
3821.0,0.0012101153898145555
3820.0,0.0012105440939567747
3819.0,0.0012123074530661746
3818.0,0.0012114400272571226
3817.0,0.0012053376651942338
3816.0,0.0011967204569752043
3815.0,0.0011886989446297596
3814.0,0.001183569183606957
3813.0,0.0011802491852160816
3812.0,0.0011771958658341728
3811.0,0.0011748908681308168
3810.0,0.001173110822361155
3809.0,0.001171979975632705
3808.0,0.0011739138570804547
3807.0,0.00118166738401389
3806.0,0.0011963183675979708
3805.0,0.0012158084369424116
3804.0,0.0012341004297906277
3803.0,0.0012440881322997215
3802.0,0.001240915436093273
3801.0,0.0012251964595442564
3800.0,0.0012097394062871593
3799.0,0.0012072758911112137
3798.0,0.0012139328411784208
3797.0,0.0012193116062872225
3796.0,0.0012169613885943606
3795.0,0.0012076387318848084
3794.0,0.0011968407592544811
3793.0,0.0011872046619659255
3792.0,0.0011782015414666626
3791.0,0.0011685597631118185
3790.0,0.0011576712103778548
3789.0,0.0011462761970429882
3788.0,0.0011362600112714617
3787.0,0.0011302479186910742
3786.0,0.001130238895493877
3785.0,0.0011345005585589344
3784.0,0.0011387023190385969
3783.0,0.0011405733714110028
3782.0,0.0011409281129315706
3781.0,0.0011450484473632082
3780.0,0.0011578047117823584
3779.0,0.0011757839136124306
3778.0,0.0011900062306886665
3777.0,0.0011951747061818463
3776.0,0.0011928934454304777
3775.0,0.0011885245701659555
3774.0,0.0011871760375985444
3773.0,0.0011907334389591952
3772.0,0.001198811452378921
3771.0,0.0012104911233923356
3770.0,0.0012243490033992171
3769.0,0.0012361399153265795
3768.0,0.0012406745463919037
3767.0,0.0012359808200532586
3766.0,0.0012238058986567412
3765.0,0.0012096810537188954
3764.0,0.0011998738356696634
3763.0,0.0011942613071141525
3762.0,0.0011885827749419683
3761.0,0.0011832860962551492
3760.0,0.0011838190272067928
3759.0,0.0011939807095798578
3758.0,0.0012109954021538557
3757.0,0.0012312016318024852
3756.0,0.0012503157332693746
3755.0,0.0012658089858624461
3754.0,0.0012794094337804864
3753.0,0.0012988485838791352
3752.0,0.001328492688415802
3751.0,0.0013555149267416764
3750.0,0.0013633012274119598
3749.0,0.001357705792205555
3748.0,0.0013532214257201336
3747.0,0.0013495861185172354
3746.0,0.0013402580246091953
3745.0,0.0013227119211047648
3744.0,0.0012992343621104998
3743.0,0.0012781878858785364
3742.0,0.0012684100921864514
3741.0,0.0012676706946715697
3740.0,0.0012701783821195975
3739.0,0.0012730165221998754
3738.0,0.0012760477350718812
3737.0,0.0012840743722494236
3736.0,0.0012993403410536458
3735.0,0.0013181094177813065
3734.0,0.0013360555115236954
3733.0,0.0013445290232931965
3732.0,0.001332540898594907
3731.0,0.001303424296679756
3730.0,0.0012727074984109393
3729.0,0.0012518039594627182
3728.0,0.0012435763217235997
3727.0,0.0012458894130226343
3726.0,0.0012545521683140623
3725.0,0.0012637768309327686
3724.0,0.0012667840292568192
3723.0,0.0012605655660943749
3722.0,0.001249790620449926
3721.0,0.001243095564365985
3720.0,0.0012460183346021765
3719.0,0.0012572813778548627
3718.0,0.0012719872899833286
3717.0,0.0012871471797518347
3716.0,0.0013017711267917093
3715.0,0.001315492490160206
3714.0,0.0013285915619741721
3713.0,0.0013438375519619818
3712.0,0.0013616608742405703
3711.0,0.0013738712726546996
3710.0,0.0013775870963290797
3709.0,0.0013789306477052666
3708.0,0.0013821455238601558
3707.0,0.0013876559746169585
3706.0,0.00139340101244064
3705.0,0.001396517896044397
3704.0,0.0013963917916514708
3703.0,0.0013976668853801027
3702.0,0.0014062022652751244
3701.0,0.001422484600728525
3700.0,0.0014423009310980677
3699.0,0.0014609383093805409
3698.0,0.0014752240523816544
3697.0,0.0014857365257446575
3696.0,0.0014961730627461602
3695.0,0.0015094443910646832
3694.0,0.0015244954824573166
3693.0,0.0015373605367953193
3692.0,0.0015481526130558987
3691.0,0.0015619927148676745
3690.0,0.0015814434846422457
3689.0,0.0015983814457975923
3688.0,0.001606283869203523
3687.0,0.0016123956982262515
3686.0,0.0016217529928801962
3685.0,0.001630502305748899
3684.0,0.0016346451259362862
3683.0,0.00163538182643156
3682.0,0.0016390266266856639
3681.0,0.001653223644519937
3680.0,0.001681599626253947
3679.0,0.0017197428984238859
3678.0,0.0017581374112067669
3677.0,0.0017891647724629796
3676.0,0.001809387315243857
3675.0,0.0018192167054896348
3674.0,0.00183522018681773
3673.0,0.0018653211159407332
3672.0,0.001897260031986924
3671.0,0.0019191757724957887
3670.0,0.001932583555984377
3669.0,0.0019454480577680436
3668.0,0.0019657117916618036
3667.0,0.0019903517570601225
3666.0,0.0020129426592462303
3665.0,0.0020314294366725887
3664.0,0.002048430319577794
3663.0,0.0020667937111734833
3662.0,0.002088239297242842
3661.0,0.0021139136395995485
3660.0,0.002142884557818754
3659.0,0.0021726699018867947
3658.0,0.0022016032568909646
3657.0,0.0022312181199971256
3656.0,0.0022636529587599257
3655.0,0.0023026024722697844
3654.0,0.0023503957584679286
3653.0,0.002399647089256445
3652.0,0.0024411075178704857
3651.0,0.0024749325453472123
3650.0,0.002510461262204578
3649.0,0.0025451763110490772
3648.0,0.00256986199125927
3647.0,0.0025848137606919947
3646.0,0.0026010097229328803
3645.0,0.0026258933094314195
3644.0,0.0026585956277751913
3643.0,0.002692887451963933
3642.0,0.002723254582754776
3641.0,0.002749950763344753
3640.0,0.002775606849984289
3639.0,0.0028034299826918676
3638.0,0.0028363403078218823
3637.0,0.0028753435088306905
3636.0,0.0029183166931094602
3635.0,0.002961758557545238
3634.0,0.003006149544392175
3633.0,0.0030540091964674945
3632.0,0.00310147217584461
3631.0,0.0031371165392056312
3630.0,0.003158077964052519
3629.0,0.0031740165836954834
3628.0,0.00319670308112805
3627.0,0.0032356678302202825
3626.0,0.0032837182824204097
3625.0,0.003328071099449126
3624.0,0.0033633324798180014
3623.0,0.0033917696882833255
3622.0,0.0034157728140266474
3621.0,0.0034360683302703332
3620.0,0.0034547056705415673
3619.0,0.0034749736775988834
3618.0,0.0035022862857494175
3617.0,0.003542102274611594
3616.0,0.0035927939645181194
3615.0,0.00364553194823645
3614.0,0.0036916383970589106
3613.0,0.0037305875132269874
3612.0,0.003768079802644211
3611.0,0.0038058354803030625
3610.0,0.0038345606323278844
3609.0,0.0038428697182779662
3608.0,0.0038336511473968226
3607.0,0.003825934764763425
3606.0,0.0038375317595338724
3605.0,0.0038694334517074477
3604.0,0.003910415802895985
3603.0,0.003951194539649139
3602.0,0.003988303915986493
3601.0,0.004021681029955432
3600.0,0.0040526561797644065
3599.0,0.004082991652002104
3598.0,0.0041125624095528805
3597.0,0.004139612775010553
3596.0,0.0041630328661967425
3595.0,0.004185731406743048
3594.0,0.004213972727084517
3593.0,0.004252155393851156
3592.0,0.004298251097277098
3591.0,0.004342894444130375
3590.0,0.004376412081729097
3589.0,0.004396420915537381
3588.0,0.004408787958243861
3587.0,0.004423746836748523
3586.0,0.004450777414362202
3585.0,0.004490161617666827
3584.0,0.004533826801737152
3583.0,0.00457602487928302
3582.0,0.00461631460777922
3581.0,0.004654474615347835
3580.0,0.004687636611203263
3579.0,0.004713802890590759
3578.0,0.004736118854288803
3577.0,0.004760653667144191
3576.0,0.004791243965893624
3575.0,0.004827221563852619
3574.0,0.0048665811258994315
3573.0,0.00490829895007356
3572.0,0.004951111323121709
3571.0,0.0049911745169509214
3570.0,0.005023541687551759
3569.0,0.005046440469958159
3568.0,0.005061484740776177
3567.0,0.005073460851777696
3566.0,0.005094189608533478
3565.0,0.005133953263249731
3564.0,0.005187212761633868
3563.0,0.005238766001495659
3562.0,0.005279524052894698
3561.0,0.005312317276249362
3560.0,0.005344952425532579
3559.0,0.005381544303110323
3558.0,0.005420475821181099
3557.0,0.005458169452114143
3556.0,0.005492812500016368
3555.0,0.0055244586277200846
3554.0,0.005553846500037308
3553.0,0.0055823544639451075
3552.0,0.005613393714913188
3551.0,0.005651253259088664
3550.0,0.005696469424868004
3549.0,0.00574347438816053
3548.0,0.005783771282563322
3547.0,0.0058124688348998015
3546.0,0.005833330586134658
3545.0,0.005856010742687011
3544.0,0.005887623530391156
3543.0,0.005926935095454917
3542.0,0.005968604605673892
3541.0,0.006009483925126028
3540.0,0.0060488436654241706
3539.0,0.006085406818048153
3538.0,0.00611572844501869
3537.0,0.006137907829703501
3536.0,0.006156752956086907
3535.0,0.006182350360271454
3534.0,0.006219859478524347
3533.0,0.006263466738097045
3532.0,0.006302266589324514
3531.0,0.006331573712280496
3530.0,0.006357212295730759
3529.0,0.006387458499165562
3528.0,0.006423866957216967
3527.0,0.006461744441037782
3526.0,0.006496778583633964
3525.0,0.00652784671014199
3524.0,0.006556400744496753
3523.0,0.006586580799459744
3522.0,0.006623157331020335
3521.0,0.006665721847767258
3520.0,0.006706456920606263
3519.0,0.006737433357691787
3518.0,0.0067589560413255055
3517.0,0.006779156986277013
3516.0,0.006805708342001256
3515.0,0.006840882471553756
3514.0,0.00688276359349958
3513.0,0.006927332045015908
3512.0,0.006968645054524915
3511.0,0.007001691587526596
3510.0,0.007028062299503871
3509.0,0.007056463414904108
3508.0,0.007095167205166878
3507.0,0.007144255573281525
3506.0,0.007195582322499491
3505.0,0.007239273801029294
3504.0,0.007269990236319976
3503.0,0.007289884270346754
3502.0,0.007307710000866574
3501.0,0.007331810822680217
3500.0,0.007362983958504142
3499.0,0.007395436634502817
3498.0,0.007422969779502476
3497.0,0.0074444142561281255
3496.0,0.007464534490059261
3495.0,0.007490067547251816
3494.0,0.00752444134829223
3493.0,0.00756535944653176
3492.0,0.007606883599416478
3491.0,0.007644345527203167
3490.0,0.0076772689847728285
3489.0,0.007707918093442326
3488.0,0.007738989063389826
3487.0,0.007772880176609882
3486.0,0.007810730713846165
3485.0,0.007850790203536297
3484.0,0.007888385742276433
3483.0,0.00791946696839826
3482.0,0.007944655933110934
3481.0,0.007968572610821904
3480.0,0.007995429477766483
3479.0,0.008026080297364025
3478.0,0.0080584708612919
3477.0,0.00809010182156572
3476.0,0.008120797961377008
3475.0,0.008153280531723048
3474.0,0.00818979823677889
3473.0,0.008227898879108738
3472.0,0.008261139653504859
3471.0,0.008285356355277987
3470.0,0.008303345448481877
3469.0,0.008322004319668359
3468.0,0.008346173124839599
3467.0,0.008376334891012183
3466.0,0.008410581810374483
3465.0,0.008446505514973428
3464.0,0.008481525965804149
3463.0,0.00851360773089407
3462.0,0.00854226289178657
3461.0,0.008568797283660539
3460.0,0.008596091320161127
3459.0,0.008627877858879633
3458.0,0.008665794950530494
3457.0,0.008706215306705322
3456.0,0.008741607497708087
3455.0,0.008767842146827706
3454.0,0.008789237074294272
3453.0,0.00881483088613208
3452.0,0.008849849956198808
3451.0,0.00889131535339145
3450.0,0.008931503666866894
3449.0,0.008963757611445697
3448.0,0.008986296080581269
3447.0,0.009003647008580518
3446.0,0.009024151318562532
3445.0,0.009052807129629224
3444.0,0.009086608161015074
3443.0,0.009118642409943093
3442.0,0.009145587987669193
3441.0,0.009170066722364388
3440.0,0.009195921741855316
3439.0,0.009223562898156594
3438.0,0.009250739820703284
3437.0,0.009275857718784577
3436.0,0.009298725879953399
3435.0,0.009320323711166943
3434.0,0.009342645558763858
3433.0,0.00936733472241914
3432.0,0.009393506198875167
3431.0,0.009418187295673338
3430.0,0.009440741267494607
3429.0,0.009465206597007707
3428.0,0.00949631761811183
3427.0,0.00953375442840547
3426.0,0.009572181326728225
3425.0,0.009606422666959592
3424.0,0.00963485195165129
3423.0,0.009658134308379467
3422.0,0.009676585962461109
3421.0,0.00968997136756427
3420.0,0.009699450186147344
3419.0,0.009708513669382794
3418.0,0.009721510596480246
3417.0,0.009740693898991955
3416.0,0.00976454855382693
3415.0,0.00978909411099846
3414.0,0.009811123993667608
3413.0,0.009830197600656556
3412.0,0.00984786776744618
3411.0,0.009865975331253406
3410.0,0.009885589656794081
3409.0,0.009906514575382507
3408.0,0.009927491510114756
3407.0,0.009947125621422925
3406.0,0.009964464861348204
3405.0,0.009978568318270662
3404.0,0.009988471620698944
3403.0,0.009995300486209108
3402.0,0.010003833122140014
3401.0,0.01001956365406126
3400.0,0.010043273581155044
3399.0,0.01006997837036425
3398.0,0.0100942451583274
3397.0,0.010115020161822703
3396.0,0.0101342859391061
3395.0,0.010152260396378121
3394.0,0.010166207399150716
3393.0,0.010174418140756189
3392.0,0.010179762900027048
3391.0,0.010187817323709583
3390.0,0.010201721429999555
3389.0,0.01022004452355998
3388.0,0.010239216670365122
3387.0,0.010257039366576959
3386.0,0.010273545615566473
3385.0,0.010289589423688635
3384.0,0.010305560973630643
3383.0,0.010321555887818933
3382.0,0.010337802160803633
3381.0,0.010354681378025515
3380.0,0.01037244364526209
3379.0,0.010390323978135853
3378.0,0.010405666259393943
3377.0,0.01041516049671752
3376.0,0.010418779232383709
3375.0,0.01042196614890146
3374.0,0.010431704495611056
3373.0,0.010449886455602252
3372.0,0.010471860384887892
3371.0,0.010491640117989857
3370.0,0.01050703579977172
3369.0,0.010519638596377464
3368.0,0.010531833807672407
3367.0,0.01054522757520051
3366.0,0.010560256685979355
3365.0,0.01057543737666952
3364.0,0.010587511276426834
3363.0,0.010593875702131557
3362.0,0.01059516126535932
3361.0,0.010595181336071123
3360.0,0.010598791557671782
3359.0,0.010609763505686449
3358.0,0.010629336339788808
3357.0,0.010655125237887609
3356.0,0.010681379078988085
3355.0,0.010701327330901494
3354.0,0.01071071368572209
3353.0,0.01071054990446329
3352.0,0.01070735905462595
3351.0,0.010709380463015122
3350.0,0.010720071836116443
3349.0,0.010734874392921053
3348.0,0.010745815940964007
3347.0,0.010749801207412162
3346.0,0.010750706637436951
3345.0,0.010753590381587151
3344.0,0.010759638196405933
3343.0,0.010767687798747759
3342.0,0.01077778551936861
3341.0,0.010790437549826372
3340.0,0.010803943339319862
3339.0,0.010815307549419147
3338.0,0.010823936886531015
3337.0,0.010832589928424122
3336.0,0.010844176050828713
3335.0,0.010858543575469122
3334.0,0.010872333424916404
3333.0,0.010881445048210038
3332.0,0.010884125087643118
3331.0,0.01088274518082778
3330.0,0.010882020713264374
3329.0,0.010884632999578705
3328.0,0.010889003779442047
3327.0,0.010892190714291343
3326.0,0.010893874762694836
3325.0,0.010895978473498477
3324.0,0.010899171124506548
3323.0,0.010902001744682106
3322.0,0.01090378663925597
3321.0,0.010906439922651733
3320.0,0.01091256879270066
3319.0,0.010922907617473263
3318.0,0.010936089192620638
3317.0,0.010949767206023513
3316.0,0.010961233833480776
3315.0,0.010968129027806748
3314.0,0.010970128694319395
3313.0,0.010969888967482067
3312.0,0.010971224023165953
3311.0,0.010975895220717355
3310.0,0.010982472570120283
3309.0,0.010988351866163565
3308.0,0.010992336296522923
3307.0,0.01099506670229848
3306.0,0.010997625043228449
3305.0,0.011000530594266178
3304.0,0.011003613662154311
3303.0,0.011005933964267665
3302.0,0.011005754534420206
3301.0,0.011001824056243429
3300.0,0.010995209267917173
3299.0,0.010989362465795174
3298.0,0.010987776906318709
3297.0,0.010991665605611958
3296.0,0.010999617198062257
3295.0,0.011008391012428334
3294.0,0.0110142479247267
3293.0,0.011015503162595218
3292.0,0.011014609712194949
3291.0,0.011015965262454274
3290.0,0.011020132552377312
3289.0,0.01102204999116855
3288.0,0.011016923585970326
3287.0,0.011006341483505258
3286.0,0.010995943674234065
3285.0,0.010988127054492423
3284.0,0.010980685175871726
3283.0,0.010972486447625192
3282.0,0.010966502918364056
3281.0,0.010965327478049033
3280.0,0.010966398702339033
3279.0,0.010964112118109794
3278.0,0.010955341890278204
3277.0,0.010941267741960055
3276.0,0.010925048191246171
3275.0,0.010909169847812667
3274.0,0.010894280809669048
3273.0,0.010879526214696778
3272.0,0.010864563328472616
3271.0,0.010851558450985762
3270.0,0.010843482028093366
3269.0,0.010839478236952025
3268.0,0.010833788413364702
3267.0,0.010821070214503998
3266.0,0.010801748680812365
3265.0,0.010780272107178437
3264.0,0.010759100320922666
3263.0,0.010736325266127514
3262.0,0.010709225580776329
3261.0,0.010678497323560741
3260.0,0.010648494126634205
3259.0,0.010623893575532813
3258.0,0.010605779369417909
3257.0,0.010590416064253731
3256.0,0.010572310575561222
3255.0,0.010549525962362102
3254.0,0.010525678940731064
3253.0,0.010506092598378666
3252.0,0.010492010425311688
3251.0,0.01047912859078497
3250.0,0.010461587818221024
3249.0,0.010436800705403987
3248.0,0.010406878630125203
3247.0,0.010376180493207491
3246.0,0.01034801461166738
3245.0,0.010323482825139417
3244.0,0.010302571928651137
3243.0,0.010284522074325534
3242.0,0.010266637999957473
3241.0,0.010244781903572666
3240.0,0.010217378507255591
3239.0,0.010188114259652431
3238.0,0.010162090793891071
3237.0,0.01013943634315749
3236.0,0.01011527774530996
3235.0,0.010086676324300249
3234.0,0.010056791027751505
3233.0,0.010031058923030637
3232.0,0.010011358454252018
3231.0,0.009995352358387275
3230.0,0.00997978763816885
3229.0,0.009962635680042823
3228.0,0.009943485561366866
3227.0,0.009923645064872323
3226.0,0.009904853705427116
3225.0,0.009886310550827733
3224.0,0.009864186514223496
3223.0,0.009835598750822266
3222.0,0.0098024550865489
3221.0,0.009769874175394894
3220.0,0.009741843658952618
3219.0,0.009719623797365589
3218.0,0.009702889348123647
3217.0,0.009689782318376862
3216.0,0.009676246106194358
3215.0,0.009658213404274129
3214.0,0.009635413096126475
3213.0,0.00961132356742537
3212.0,0.009588372077659097
3211.0,0.009564875018680518
3210.0,0.009538331180088566
3209.0,0.009510431296823885
3208.0,0.009486396527632985
3207.0,0.009468683474755376
3206.0,0.0094531515791557
3205.0,0.009432975169778703
3204.0,0.0094059330555375
3203.0,0.009376168067724785
3202.0,0.00934871452364162
3201.0,0.009324173071969274
3200.0,0.009299856101461732
3199.0,0.009274427886685987
3198.0,0.009249163537386598
3197.0,0.00922531853662731
3196.0,0.009202412059310284
3195.0,0.009179247362059927
3194.0,0.009154537387502167
3193.0,0.009126340010790658
3192.0,0.009093154291317978
3191.0,0.009056423101648085
3190.0,0.009020233601137344
3189.0,0.008987230457847387
3188.0,0.008956552484449267
3187.0,0.008926762903881318
3186.0,0.008898945483704478
3185.0,0.008874696195148505
3184.0,0.008852221079850358
3183.0,0.008827049605971284
3182.0,0.008796640657646144
3181.0,0.008762606832841106
3180.0,0.008728342736908586
3179.0,0.008695920499849448
3178.0,0.008665422954658103
3177.0,0.008635717867601181
3176.0,0.008605112231313931
3175.0,0.008572294331666341
3174.0,0.008537673524212384
3173.0,0.008503403866706229
3172.0,0.008471322807462366
3171.0,0.008440890085102664
3170.0,0.00840971010113122
3169.0,0.008375942095038474
3168.0,0.008339921901310757
3167.0,0.008303392631424827
3166.0,0.0082676712746165
3165.0,0.008232988262111999
3164.0,0.008199470397595766
3163.0,0.008168283833037238
3162.0,0.008141129527695672
3161.0,0.008118235212968476
3160.0,0.008096930275879896
3159.0,0.00807260583824923
3158.0,0.008041773785303118
3157.0,0.008004492622324038
3156.0,0.007964223556644555
3155.0,0.007925436209684746
3154.0,0.007891391320610706
3153.0,0.00786318503150459
3152.0,0.007839539844551996
3151.0,0.007817128521079162
3150.0,0.007792369460050269
3149.0,0.007764217029019355
3148.0,0.00773498295857945
3147.0,0.007707461331829457
3146.0,0.007681448933031687
3145.0,0.007653998354648724
3144.0,0.007622883311395811
3143.0,0.00758863724376947
3142.0,0.007553038602852885
3141.0,0.007517202106318368
3140.0,0.0074820125185474685
3139.0,0.0074492254388340475
3138.0,0.007420635560337405
3137.0,0.007396571857794711
3136.0,0.007376203804043371
3135.0,0.0073586599486252565
3134.0,0.007342559368234221
3133.0,0.007325179845116778
3132.0,0.007303906954820838
3131.0,0.007278775049219992
3130.0,0.0072522927276848885
3129.0,0.007226308645559067
3128.0,0.007199892535006613
3127.0,0.007170750733133301
3126.0,0.007138407348396795
3125.0,0.007105540337406279
3124.0,0.007076106633755668
3123.0,0.007052002494593534
3122.0,0.007031482739291506
3121.0,0.007011111667652184
3120.0,0.006989096727552629
3119.0,0.006966518433824658
3118.0,0.006945564123858855
3117.0,0.006927244876198463
3116.0,0.006910929129781179
3115.0,0.006895400908690231
3114.0,0.006880015313460827
3113.0,0.006865401310654108
3112.0,0.00685297391520015
3111.0,0.006842847520469932
3110.0,0.006832405423353461
3109.0,0.006818371116537463
3108.0,0.006800812474959638
3107.0,0.006783479954638182
3106.0,0.006769439962195547
3105.0,0.006757612334318886
3104.0,0.006744765174800276
3103.0,0.006729761309777528
3102.0,0.0067145367523222055
3101.0,0.006701346859113151
3100.0,0.006690274051268317
3099.0,0.006679581807850568
3098.0,0.006667570558169093
3097.0,0.006654089092916938
3096.0,0.006640569354691838
3095.0,0.006628437162591386
3094.0,0.0066171270862254656
3093.0,0.0066043830844983616
3092.0,0.006589045380068411
3091.0,0.006572663764878392
3090.0,0.006557611711688682
3089.0,0.006544552427619659
3088.0,0.0065328332022849605
3087.0,0.006522529039360528
3086.0,0.006514598785963734
3085.0,0.006509158379125457
3084.0,0.006505008529955877
3083.0,0.006500662372405071
3082.0,0.006494744157544692
3081.0,0.006485629017980943
3080.0,0.006472090399375314
3079.0,0.006454771411203392
3078.0,0.006436236644625319
3077.0,0.006419542842722528
3076.0,0.006406689170914951
3075.0,0.006397467465897576
3074.0,0.006388782143274188
3073.0,0.0063764760671141145
3072.0,0.006359524783097206
3071.0,0.006341708050083786
3070.0,0.006327314258789819
3069.0,0.0063153899136941605
3068.0,0.00630061431443015
3067.0,0.006279706920238327
3066.0,0.0062549169629413925
3065.0,0.00623086897263336
3064.0,0.006210160985526054
3063.0,0.006193216798437126
3062.0,0.006179699091270104
3061.0,0.006167983864053535
3060.0,0.006154591689859699
3059.0,0.0061363919545967364
3058.0,0.006113259619294674
3057.0,0.006087510032092051
3056.0,0.006061331090911585
3055.0,0.006035686300220975
3054.0,0.006011031823777377
3053.0,0.005987508403740161
3052.0,0.0059646542313027484
3051.0,0.0059418691852195235
3050.0,0.005919164673714956
3049.0,0.005896779201301713
3048.0,0.005874166855191384
3047.0,0.005849883586583167
3046.0,0.005822459020884029
3045.0,0.005791271361880825
3044.0,0.005757521416790813
3043.0,0.005724588822785855
3042.0,0.005696402757052926
3041.0,0.005674562621172725
3040.0,0.005657038103638848
3039.0,0.005640066141815413
3038.0,0.005620761640044865
3037.0,0.005598129415909224
3036.0,0.005572927720283085
3035.0,0.005547200114024382
3034.0,0.0055229735264950945
3033.0,0.005500747307796487
3032.0,0.005479862894872398
3031.0,0.005460350798706583
3030.0,0.005442998503917989
3029.0,0.005426978463985657
3028.0,0.005409555604110311
3027.0,0.005389474037859112
3026.0,0.005369541458860317
3025.0,0.005353982780627202
3024.0,0.005343411724303602
3023.0,0.005333643868170562
3022.0,0.005319196454395833
3021.0,0.005297398017275073
3020.0,0.005269969467017029
3019.0,0.005242095264941395
3018.0,0.005219673337737483
3017.0,0.005205290014629907
3016.0,0.0051961136196237365
3015.0,0.005186396738978495
3014.0,0.0051724143039519705
3013.0,0.005155160496951084
3012.0,0.005138707462217205
3011.0,0.0051269274115116345
3010.0,0.005121182294490956
3009.0,0.005119546173286214
3008.0,0.005117696517832716
3007.0,0.005111408533851429
3006.0,0.0050993444719181985
3005.0,0.005083988179064022
3004.0,0.005069653264799805
3003.0,0.005059104889488475
3002.0,0.005051783606821164
3001.0,0.005045010236620175
3000.0,0.005037197305263088
2999.0,0.005029267814597633
2998.0,0.005022725035539282
2997.0,0.00501707099058695
2996.0,0.005010727785072727
2995.0,0.005004501971192127
2994.0,0.005002200134042953
2993.0,0.005006983812564172
2992.0,0.005018335289421854
2991.0,0.005033734911338804
2990.0,0.005051726146608556
2989.0,0.005071921878871079
2988.0,0.005093036574781644
2987.0,0.005112981646865311
2986.0,0.005130830886434557
2985.0,0.005147182108337157
2984.0,0.005162737753335668
2983.0,0.005177984425018669
2982.0,0.005194495001702734
2981.0,0.005215000296654661
2980.0,0.005241170900700189
2979.0,0.005271846419641268
2978.0,0.005304353281183335
2977.0,0.005337444196021448
2976.0,0.005372109147853385
2975.0,0.005408890753997313
2974.0,0.005444829277797631
2973.0,0.005474430074007811
2972.0,0.005494841470560301
2971.0,0.00550984013424181
2970.0,0.005527415061138732
2969.0,0.005553265063769004
2968.0,0.005586715316909736
2967.0,0.005622422604389413
2966.0,0.005654385350156893
2965.0,0.005678629952830671
2964.0,0.005694488046906106
2963.0,0.005704417380262423
2962.0,0.005711530237818143
2961.0,0.005716101640464217
2960.0,0.005715695501923243
2959.0,0.0057090067711140285
2958.0,0.005698167573310705
2957.0,0.005686102540160864
2956.0,0.005673176751448421
2955.0,0.00565761654315643
2954.0,0.005638063950309196
2953.0,0.005614464846172912
2952.0,0.00558810475208194
2951.0,0.0055626226777851446
2950.0,0.005543613709063538
2949.0,0.0055347142465661065
2948.0,0.005533800835368737
2947.0,0.005535032558727757
2946.0,0.005534690475368096
2945.0,0.005534572785579349
2944.0,0.005540021563939489
2943.0,0.005555905529809438
2942.0,0.005583229990904446
2941.0,0.005617560215419684
2940.0,0.005650984256065968
2939.0,0.00567777911906393
2938.0,0.005699072266427967
2937.0,0.00572071349608789
2936.0,0.005746859287748782
2935.0,0.005776907598628446
2934.0,0.005808020354091329
2933.0,0.005837846161244391
2932.0,0.005864304919643836
2931.0,0.005885502304582718
2930.0,0.005901685962450922
2929.0,0.0059156070796127684
2928.0,0.005928848797471931
2927.0,0.005938519652802828
2926.0,0.005939394672422493
2925.0,0.005929275910324234
2924.0,0.005911000791229793
2923.0,0.005888798043133237
2922.0,0.005863430274228667
2921.0,0.005831059333686533
2920.0,0.005786898357323921
2919.0,0.0057299173614208925
2918.0,0.005664351625287765
2917.0,0.005596462917870956
2916.0,0.005530357409080722
2915.0,0.005467195748900432
2914.0,0.005407483160288229
2913.0,0.005352332525171145
2912.0,0.00530200480380703
2911.0,0.005254872285991494
2910.0,0.005208715890224237
2909.0,0.005162641164926474
2908.0,0.005116852709853571
2907.0,0.00507134697264227
2906.0,0.0050258499488334985
2905.0,0.004980982163848647
2904.0,0.004938182276828144
2903.0,0.004898580824164054
2902.0,0.0048609884192111485
2901.0,0.004823518234904847
2900.0,0.004785455237174439
2899.0,0.004747803764920164
2898.0,0.004712624010090745
2897.0,0.0046812216928207835
2896.0,0.004653589424379052
2895.0,0.004629149886475287
2894.0,0.004607563137725582
2893.0,0.004588293944287164
2892.0,0.0045696698450984835
2891.0,0.0045492229418416736
2890.0,0.004525717489365594
2889.0,0.004500724568592062
2888.0,0.0044777538956121314
2887.0,0.004459313211996924
2886.0,0.004444808899417038
2885.0,0.004431364240191291
2884.0,0.004416671219845783
2883.0,0.0044010424272554255
2882.0,0.004386799277552896
2881.0,0.004376206129507896
2880.0,0.004370097244783455
2879.0,0.00436793108310328
2878.0,0.004368150272193541
2877.0,0.004368291207005639
2876.0,0.004365676647603983
2875.0,0.004359004096118403
2874.0,0.004349274727244209
2873.0,0.0043387970269391785
2872.0,0.004329048184540554
2871.0,0.0043197202077053095
2870.0,0.004309602659974666
2869.0,0.004297850335559615
2868.0,0.004284284854722901
2867.0,0.0042689647579724765
2866.0,0.004252314111740617
2865.0,0.004235917570686642
2864.0,0.004222497577339455
2863.0,0.00421400010903305
2862.0,0.004209731760853018
2861.0,0.004207353914652787
2860.0,0.00420659181896426
2859.0,0.004210991126340848
2858.0,0.004224582877483781
2857.0,0.004246645800791851
2856.0,0.00427027755482029
2855.0,0.0042864833757121365
2854.0,0.004289205487946029
2853.0,0.004277146252941458
2852.0,0.004251948292601339
2851.0,0.004215076765976224
2850.0,0.004166702351139279
2849.0,0.0041074152067978684
2848.0,0.004040627019016364
2847.0,0.003972073561325716
2846.0,0.0039060726865629333
2845.0,0.00384316965768641
2844.0,0.003782150026885524
2843.0,0.0037233568858644024
2842.0,0.0036688879891918404
2841.0,0.0036201433444543966
2840.0,0.0035768417499810745
2839.0,0.003538273910394173
2838.0,0.003503571863475962
2837.0,0.0034707622129361944
2836.0,0.0034377360626125673
2835.0,0.0034051948117971268
2834.0,0.003376679550053859
2833.0,0.0033542612455922387
2832.0,0.003335647660916127
2831.0,0.0033168782539721524
2830.0,0.0032966238102625054
2829.0,0.0032761991298704044
2828.0,0.0032566553200807755
2827.0,0.003238176129010832
2826.0,0.0032214029209205876
2825.0,0.0032068684729607746
2824.0,0.003193110817306958
2823.0,0.0031775829291633005
2822.0,0.0031600550155970624
2821.0,0.0031431680710230702
2820.0,0.003128943451940869
2819.0,0.0031162764041109824
2818.0,0.0031026745652073216
2817.0,0.0030870848113678582
2816.0,0.003069913448129552
2815.0,0.0030516004610759177
2814.0,0.003032777062666088
2813.0,0.0030150865207547797
2812.0,0.0030002460586177992
2811.0,0.002988286641305119
2810.0,0.002977870073781038
2809.0,0.002968331490281199
2808.0,0.002960068116488447
2807.0,0.0029526341259544526
2806.0,0.0029437827274112023
2805.0,0.002931535795957487
2804.0,0.002916562920243637
2803.0,0.002901495284873492
2802.0,0.002888296863128694
2801.0,0.002877139649486767
2800.0,0.0028676036910739765
2799.0,0.002859439717237176
2798.0,0.0028516774039310175
2797.0,0.0028425996383821743
2796.0,0.0028318335267126225
2795.0,0.0028216388285387116
2794.0,0.002814611667167199
2793.0,0.0028102444066446697
2792.0,0.002805093533327618
2791.0,0.0027965532364736543
2790.0,0.0027852279717988458
2789.0,0.0027733657197839615
2788.0,0.0027622013869902976
2787.0,0.002751314179446463
2786.0,0.0027397745156170395
2785.0,0.0027271527329910433
2784.0,0.002713711576896109
2783.0,0.0027002126487111026
2782.0,0.0026874678768630113
2781.0,0.002675911513133484
2780.0,0.0026657193520993093
2779.0,0.002657050030746201
2778.0,0.0026496321540713753
2777.0,0.0026423871249515564
2776.0,0.0026342986237259097
2775.0,0.002625660313391533
2774.0,0.0026177604347748973
2773.0,0.0026114244446389513
2772.0,0.002606596278054878
2771.0,0.0026029479564416216
2770.0,0.0025996081899393154
2769.0,0.002594479624649056
2768.0,0.002585628587363426
2767.0,0.0025738337929926856
2766.0,0.002562250251293536
2765.0,0.0025529173786933345
2764.0,0.0025447632665400967
2763.0,0.0025357372143295933
2762.0,0.0025256113916204714
2761.0,0.0025156184780806656
2760.0,0.0025066253743341285
2759.0,0.002498865100164341
2758.0,0.0024924007586574533
2757.0,0.0024864531618280132
2756.0,0.002479027548039196
2755.0,0.0024688241748319975
2754.0,0.0024572491558913687
2753.0,0.002447206804658533
2752.0,0.0024398987812963855
2751.0,0.0024336775684388003
2750.0,0.0024261832171982942
2749.0,0.0024170192763961333
2748.0,0.002408244988231759
2747.0,0.0024025421072075906
2746.0,0.002400585552062299
2745.0,0.0024000151428302512
2744.0,0.0023973307927465308
2743.0,0.002390949768561414
2742.0,0.0023821055256887727
2741.0,0.002373118576507226
2740.0,0.0023657985417768566
2739.0,0.0023612248305222416
2738.0,0.002359258482103669
2737.0,0.0023575038047305586
2736.0,0.00235236684013665
2735.0,0.0023424978751475788
2734.0,0.0023302322931556406
2733.0,0.002318683837447083
2732.0,0.0023084406651930275
2731.0,0.002298462760143666
2730.0,0.00228908880902513
2729.0,0.0022822267568418857
2728.0,0.0022788108221075917
2727.0,0.0022773530883123247
2726.0,0.0022750603399785134
2725.0,0.0022697314301085483
2724.0,0.0022609728041640687
2723.0,0.0022504330591198722
2722.0,0.002240511873917619
2721.0,0.002232250812693461
2720.0,0.0022248443770927777
2719.0,0.0022174768424206436
2718.0,0.0022105547722164457
2717.0,0.0022043295079707667
2716.0,0.002197676797151326
2715.0,0.002189590056430782
2714.0,0.002180969829716879
2713.0,0.002173464634884213
2712.0,0.0021671868611305603
2711.0,0.002161013617916384
2710.0,0.002154603615442764
2709.0,0.0021485686930959136
2708.0,0.002143033859192099
2707.0,0.0021374481509045633
2706.0,0.00213164706357361
2705.0,0.0021259458064083
2704.0,0.0021204045861210876
2703.0,0.002115030001698134
2702.0,0.0021101897146271645
2701.0,0.002105661226684019
2700.0,0.002099882319826902
2699.0,0.0020916656876603275
2698.0,0.002082334595323948
2697.0,0.002074727513230833
2696.0,0.002070196656168308
2695.0,0.002067718625205746
2694.0,0.0020655553427226334
2693.0,0.0020623974932638977
2692.0,0.0020574280236650326
2691.0,0.002051020216563393
2690.0,0.002045304177402094
2689.0,0.0020424461760240446
2688.0,0.002042152117586604
2687.0,0.002042048580659748
2686.0,0.002040238410384187
2685.0,0.002036135896461339
2684.0,0.0020294692928539476
2683.0,0.0020206466348608445
2682.0,0.002012108238562006
2681.0,0.002006815270363554
2680.0,0.0020045165704956295
2679.0,0.002001557209956404
2678.0,0.0019954302405085327
2677.0,0.0019878859101886146
2676.0,0.0019823593508555633
2675.0,0.001979830817844742
2674.0,0.001978548612483123
2673.0,0.0019765708062776744
2672.0,0.001973042812317823
2671.0,0.0019678863247738865
2670.0,0.001962051340088527
2669.0,0.001957882286111378
2668.0,0.0019576691624236617
2667.0,0.0019614496882094643
2666.0,0.00196693698506726
2665.0,0.0019717766713820174
2664.0,0.0019754848210093694
2663.0,0.001979388866523198
2662.0,0.0019854220283974304
2661.0,0.0019948937114507206
2660.0,0.0020075647265211044
2659.0,0.0020212649207285898
2658.0,0.002032618960304363
2657.0,0.0020388994243094906
2656.0,0.0020399160709292435
2655.0,0.0020383927940311494
2654.0,0.0020381189508632816
2653.0,0.0020411301660195526
2652.0,0.0020464006851260027
2651.0,0.0020513609882013457
2650.0,0.0020544020081948193
2649.0,0.002055647391004136
2648.0,0.0020558119244237674
2647.0,0.0020553235115953446
2646.0,0.0020548985956846976
2645.0,0.002056050733115698
2644.0,0.002060015809444236
2643.0,0.0020658885229765944
2642.0,0.0020702502263928433
2641.0,0.0020693333559793064
2640.0,0.0020621715464878418
2639.0,0.0020518501996045573
2638.0,0.002043174323416725
2637.0,0.0020387382802131066
2636.0,0.002037401945135466
2635.0,0.002036553179514089
2634.0,0.0020352435865721484
2633.0,0.002034401632793088
2632.0,0.002034550637587754
2631.0,0.002034498021124489
2630.0,0.0020326051129793306
2629.0,0.0020287563960088976
2628.0,0.0020245470074812433
2627.0,0.0020216895405335534
2626.0,0.002020565507197743
2625.0,0.0020203854203217266
2624.0,0.002020379729784888
2623.0,0.002020338869966293
2622.0,0.002019967838127192
2621.0,0.0020185989289173575
2620.0,0.0020162197169847347
2619.0,0.0020140900427039845
2618.0,0.0020133070393221716
2617.0,0.0020132342266520127
2616.0,0.002012559425004012
2615.0,0.002011353027048996
2614.0,0.002010285373323128
2613.0,0.0020080727571052275
2612.0,0.0020022778978039317
2611.0,0.001993319608671155
2610.0,0.0019853008121839635
2609.0,0.001981418645083416
2608.0,0.0019803012253948576
2607.0,0.001978533957345177
2606.0,0.001974982081687778
2605.0,0.0019706698279823203
2604.0,0.0019659626851652383
2603.0,0.0019602369962657224
2602.0,0.001953762720176681
2601.0,0.0019479178579702187
2600.0,0.001943924742583026
2599.0,0.0019426552211028688
2598.0,0.0019445774028521846
2597.0,0.0019480991007078986
2596.0,0.0019490714891257062
2595.0,0.001944531926798465
2594.0,0.0019364978866835323
2593.0,0.0019299735083518738
2592.0,0.0019274114460044213
2591.0,0.0019268601640269945
2590.0,0.0019251299632174527
2589.0,0.001920723113192697
2588.0,0.0019139713053376653
2587.0,0.001906744854208026
2586.0,0.0019021653856026413
2585.0,0.001902338489916135
2584.0,0.0019057637527748806
2583.0,0.0019084075023318085
2582.0,0.0019076410949746994
2581.0,0.001903888572381469
2580.0,0.0018987282351541866
2579.0,0.0018933787432154356
2578.0,0.00188908335189665
2577.0,0.0018867920651175077
2576.0,0.0018858908477419347
2575.0,0.001884821714236774
2574.0,0.0018832453347175583
2573.0,0.0018819369607047582
2572.0,0.001880328737106586
2571.0,0.0018761463750260397
2570.0,0.0018682525435720298
2569.0,0.001858326477807037
2568.0,0.0018491061484657693
2567.0,0.0018422715685532417
2566.0,0.001838288599281986
2565.0,0.0018366891019182797
2564.0,0.0018360197301633876
2563.0,0.0018352376317110693
2562.0,0.0018356866414476012
2561.0,0.0018397705297901142
2560.0,0.001846861488313669
2559.0,0.0018527150073910964
2558.0,0.0018543849573098578
2557.0,0.001853695814072086
2556.0,0.0018538021486446668
2555.0,0.0018537750522976668
2554.0,0.0018493583958163
2553.0,0.001838875885608863
2552.0,0.001825786809594632
2551.0,0.0018149016165398524
2550.0,0.0018082756063396255
2549.0,0.0018057930316650668
2548.0,0.0018077514996830018
2547.0,0.0018143799846243344
2546.0,0.001822938869989282
2545.0,0.0018276959505356665
2544.0,0.0018246113295709403
2543.0,0.0018158144173145842
2542.0,0.0018082275472136823
2541.0,0.0018071373869082159
2540.0,0.0018114891869681756
2539.0,0.00181584120154473
2538.0,0.0018164281726083314
2537.0,0.0018145865212294324
2536.0,0.001814294572930942
2535.0,0.001817106055756421
2534.0,0.0018203399922456314
2533.0,0.0018203983901500932
2532.0,0.0018170293634252777
2531.0,0.0018134380172246628
2530.0,0.0018125636791416705
2529.0,0.0018145341994739955
2528.0,0.0018179814761250927
2527.0,0.0018223579552382818
2526.0,0.0018277619459888582
2525.0,0.0018333428073470394
2524.0,0.0018373059956715856
2523.0,0.0018382702568779967
2522.0,0.001835837725088821
2521.0,0.0018305887437207705
2520.0,0.0018245519077334411
2519.0,0.0018206123940734905
2518.0,0.0018196801331995952
2517.0,0.0018189853873457158
2516.0,0.0018149544547271367
2515.0,0.0018073494201546478
2514.0,0.0017987418463811995
2513.0,0.0017905908881582036
2512.0,0.0017824314314987479
2511.0,0.0017748410763783144
2510.0,0.0017702656957655585
2509.0,0.0017698467564357338
2508.0,0.0017714985372680168
2507.0,0.0017721128327106215
2506.0,0.0017699281734991756
2505.0,0.0017641236461458198
2504.0,0.0017543936008393964
2503.0,0.0017423245174192576
2502.0,0.0017314740985485094
2501.0,0.0017246006372029746
2500.0,0.001721692951496226
2499.0,0.0017211768944415196
2498.0,0.0017214098243373468
2497.0,0.0017203986942383107
2496.0,0.0017161341216085087
2495.0,0.001708514802271232
2494.0,0.0016996147760201617
2493.0,0.0016912110142562583
2492.0,0.0016835048529108354
2491.0,0.0016766738252743884
2490.0,0.0016715044407509799
2489.0,0.0016675260650099604
2488.0,0.0016626956366330463
2487.0,0.0016561346328015977
2486.0,0.001649255640505627
2485.0,0.0016432812506833971
2484.0,0.0016379416884684174
2483.0,0.0016335772974787922
2482.0,0.0016315612248906724
2481.0,0.0016308762582146845
2480.0,0.001627210819359584
2479.0,0.0016181271134993115
2478.0,0.0016068997013512613
2477.0,0.0015984935283739922
2476.0,0.0015935677308734175
2475.0,0.0015892136267016542
2474.0,0.0015838472727779654
2473.0,0.0015781944786726692
2472.0,0.0015727151807832097
2471.0,0.0015674032292800303
2470.0,0.001563635433108228
2469.0,0.0015632373079885594
2468.0,0.0015658884077751323
2467.0,0.0015698530779223623
2466.0,0.0015748922868597034
2465.0,0.0015818549662891014
2464.0,0.001589461192867335
2463.0,0.001594059668492884
2462.0,0.0015932416444173869
2461.0,0.0015882059179516926
2460.0,0.0015823767072972734
2459.0,0.001578964083380274
2458.0,0.0015795239818769905
2457.0,0.0015831301152192268
2456.0,0.0015867020605368966
2455.0,0.0015873740543283247
2454.0,0.0015847259216348797
2453.0,0.0015801518597480318
2452.0,0.0015748576953625302
2451.0,0.0015695545819915846
2450.0,0.0015650156885465571
2449.0,0.0015610859026573341
2448.0,0.0015557563930108738
2447.0,0.0015473198999778042
2446.0,0.0015374591422996871
2445.0,0.0015303835866382542
2444.0,0.0015283908404360865
2443.0,0.001529441283970255
2442.0,0.0015295527584548135
2441.0,0.0015269084672853593
2440.0,0.0015233299891095323
2439.0,0.0015218551874713255
2438.0,0.0015226864415087225
2437.0,0.001521822174422879
2436.0,0.001515065140405233
2435.0,0.0015037423351738216
2434.0,0.001494703431542696
2433.0,0.0014933008269052497
2432.0,0.001497595654797936
2431.0,0.0015010387139437309
2430.0,0.0014998053028298548
2429.0,0.0014955547058309487
2428.0,0.0014915549712338852
2427.0,0.0014882557148462963
2426.0,0.0014832591743377849
2425.0,0.0014745226384600125
2424.0,0.001462983320503567
2423.0,0.0014523631724522748
2422.0,0.0014464052668323312
2421.0,0.0014459717511102635
2420.0,0.0014486994974800712
2419.0,0.001451279889510465
2418.0,0.0014517182473998786
2417.0,0.001449854740332065
2416.0,0.0014468354804335472
2415.0,0.0014442944671503547
2414.0,0.001443352210828254
2413.0,0.001444287689978035
2412.0,0.001447282607825423
2411.0,0.0014522084295146627
2410.0,0.0014563873199509873
2409.0,0.0014540779721324312
2408.0,0.0014412644272446627
2407.0,0.0014211887343204862
2406.0,0.0014027188943704849
2405.0,0.0013926956638270012
2404.0,0.0013914017857601499
2403.0,0.0013947518901934377
2402.0,0.0013979944796806078
2401.0,0.0013974527173361345
2400.0,0.0013922464594239418
2399.0,0.0013855158826478016
2398.0,0.0013813689408964352
2397.0,0.0013797343975928966
2396.0,0.0013768366461414166
2395.0,0.0013714451149181395
2394.0,0.001367204035826677
2393.0,0.001367337823513148
2392.0,0.001370379411460085
2391.0,0.001372944982592229
2390.0,0.0013736195267410414
2389.0,0.0013718345037474734
2388.0,0.0013658637827388014
2387.0,0.0013552143081842108
2386.0,0.0013432969366609765
2385.0,0.0013346024688093887
2384.0,0.0013297662670812625
2383.0,0.0013252339083733983
2382.0,0.0013167217406789484
2381.0,0.001301339081590328
2380.0,0.001278152148340952
2379.0,0.0012499547778012862
2378.0,0.0012243252278246
2377.0,0.001209761986960445
2376.0,0.001210339589651361
2375.0,0.0012245871561664193
2374.0,0.00124674097372825
2373.0,0.0012662147097313942
2372.0,0.001270635321725053
2371.0,0.0012574911787984805
2370.0,0.0012407665740425623
2369.0,0.0012361223197501876
2368.0,0.0012401001306552174
2367.0,0.0012355732681883782
2366.0,0.0012195030590322815
2365.0,0.001210966377867361
2364.0,0.0012251698181139463
2363.0,0.0012528673320215298
2362.0,0.0012710100238241613
2361.0,0.0012681126894647226
2360.0,0.0012553398846583844
2359.0,0.0012517029310357179
2358.0,0.0012619824241185084
2357.0,0.0012682488401726745
2356.0,0.0012516316347835265
2355.0,0.0012190314930568883
2354.0,0.0011960286833975168
2353.0,0.0011988647175801195
2352.0,0.0012200521415654413
2351.0,0.0012439908095683977
2350.0,0.0012615854073724955
2349.0,0.0012691485077782716
2348.0,0.0012700876636933202
2347.0,0.001271669861455853
2346.0,0.0012805533413057988
2345.0,0.0012949223338517882
2344.0,0.0013059814651722034
2343.0,0.0013105171640689559
2342.0,0.0013143476807738522
2341.0,0.0013246771862320554
2340.0,0.001336733308094245
2339.0,0.0013423002983550694
2338.0,0.0013431838589115608
2337.0,0.0013483641536846803
2336.0,0.0013573394302958959
2335.0,0.001360723887308084
2334.0,0.0013542789207523429
2333.0,0.0013470241176395702
2332.0,0.0013481012210007043
2331.0,0.0013566064388414298
2330.0,0.0013665485835907553
2329.0,0.001377400995844585
2328.0,0.001400773556512792
2327.0,0.001448143754215017
2326.0,0.00151838392281081
2325.0,0.0015893256269776002
2324.0,0.0016300499376996867
2323.0,0.0016274982226096779
2322.0,0.0015986007299075343
2321.0,0.001573032052813036
2320.0,0.001562421690120354
2319.0,0.0015581048204947826
2318.0,0.001546703910264013
2317.0,0.0015242469398609212
2316.0,0.0014958605168657402
2315.0,0.0014722531288095698
2314.0,0.0014632493282200692
2313.0,0.0014693569953603634
2312.0,0.0014804626926839648
2311.0,0.001486289434646459
2310.0,0.001487389786078868
2309.0,0.0014908577295115505
2308.0,0.0014994871439209159
2307.0,0.0015090219565079997
2306.0,0.0015150413414098032
2305.0,0.001517390231563326
2304.0,0.0015186042472688861
2303.0,0.0015215425404035271
2302.0,0.0015283260946234774
2301.0,0.0015391233683263747
2300.0,0.0015523386912101248
2299.0,0.0015667719585467088
2298.0,0.0015825349594704688
2297.0,0.0015979113971374224
2296.0,0.0016090494554040296
2295.0,0.0016144285847592157
2294.0,0.0016185300404101405
2293.0,0.0016272249326251195
2292.0,0.0016422929403543682
2291.0,0.001662041836324262
2290.0,0.0016851452810194103
2289.0,0.0017095430463071493
2288.0,0.0017296206165549383
2287.0,0.0017390539151884827
2286.0,0.0017367591371110313
2285.0,0.0017276363849584163
2284.0,0.001717607858905299
2283.0,0.0017096262739607021
2282.0,0.0017031449197702972
2281.0,0.0016955074770608107
2280.0,0.001684863578296182
2279.0,0.0016732357153638087
2278.0,0.001664469790089336
2277.0,0.001658488424992949
2276.0,0.0016513482980231376
2275.0,0.001642926570502461
2274.0,0.0016393800097817646
2273.0,0.0016439019331950264
2272.0,0.0016500026777644514
2271.0,0.001649095502323174
2270.0,0.0016410963331387994
2269.0,0.0016325393348332459
2268.0,0.001627785051553953
2267.0,0.0016271581387779111
2266.0,0.0016296285072027012
2265.0,0.0016316380247271846
2264.0,0.0016272110472730313
2263.0,0.0016153612503402798
2262.0,0.0016045448906848272
2261.0,0.0016040215019855967
2260.0,0.0016136960861353848
2259.0,0.0016269499805254474
2258.0,0.0016383314819860646
2257.0,0.001642761402047372
2256.0,0.0016335561991925732
2255.0,0.0016107927451297181
2254.0,0.0015874373279407194
2253.0,0.001577182731061423
2252.0,0.0015782243783175637
2251.0,0.0015779203114613149
2250.0,0.0015712792740886824
2249.0,0.0015657667517478043
2248.0,0.0015686603912749366
2247.0,0.0015788454265216567
2246.0,0.0015917323421541433
2245.0,0.001604205110904756
2244.0,0.0016141803216685737
2243.0,0.0016214333970818882
2242.0,0.0016289263818575674
2241.0,0.0016380361419785123
2240.0,0.001643627881073661
2239.0,0.0016394369120096967
2238.0,0.0016267528656219886
2237.0,0.0016125765124282928
2236.0,0.00160147927643432
2235.0,0.0015946563790728676
2234.0,0.0015935360103635813
2233.0,0.001597251367557266
2232.0,0.0015998361889650594
2231.0,0.0015974266534808182
2230.0,0.001595027582224785
2229.0,0.0015982633311869175
2228.0,0.001602448311550913
2227.0,0.0015989317541923633
2226.0,0.0015889929579377023
2225.0,0.0015820426431720185
2224.0,0.001582408596424442
2223.0,0.0015876506338632567
2222.0,0.0015972648977886433
2221.0,0.0016120601408260787
2220.0,0.001625903155349474
2219.0,0.0016287452691318188
2218.0,0.0016186777895723567
2217.0,0.0016031138133597328
2216.0,0.0015893472104452583
2215.0,0.0015817685206996096
2214.0,0.001585509170797878
2213.0,0.0016019047976224647
2212.0,0.0016216534126501803
2211.0,0.0016329853273364709
2210.0,0.0016357289608158424
2209.0,0.0016377897318112708
2208.0,0.0016396574349869996
2207.0,0.0016344992929009227
2206.0,0.001624131094650981
2205.0,0.0016225873338725184
2204.0,0.0016394086689059963
2203.0,0.001668051058965092
2202.0,0.0016933195400339325
2201.0,0.001703727563630977
2200.0,0.0016968495836460185
2199.0,0.0016794411896835012
2198.0,0.0016640359692716225
2197.0,0.0016595800843808967
2196.0,0.0016642810732953133
2195.0,0.00167172393908181
2194.0,0.0016808588959398693
2193.0,0.0016943992452515039
2192.0,0.001711855743707252
2191.0,0.0017312424311909228
2190.0,0.0017529574869067826
2189.0,0.0017740679126170835
2188.0,0.0017846699678764032
2187.0,0.0017793735577343423
2186.0,0.0017658164954030974
2185.0,0.0017505903345506558
2184.0,0.0017235360685251447
2183.0,0.001671920020017471
2182.0,0.001607366908275406
2181.0,0.0015611327964231217
2180.0,0.001550908318842158
2179.0,0.0015668640707741162
2178.0,0.0015902959121177008
2177.0,0.0016099861504978628
2176.0,0.0016200746321674184
2175.0,0.001618430033609466
2174.0,0.0016128475000868677
2173.0,0.001618960795677524
2172.0,0.0016468847539076767
2171.0,0.0016944259839947854
2170.0,0.0017511766455738766
2169.0,0.0018025514669307583
2168.0,0.0018346550094075573
2167.0,0.0018447266385801203
2166.0,0.001846649927923457
2165.0,0.0018598921931497455
2164.0,0.0018929172167655214
2163.0,0.0019380811554958362
2162.0,0.0019694072262406055
2161.0,0.0019375627548251554
2160.0,0.0017913053952102543
2159.0,0.0015365882495587968
2158.0,0.0012637409327638403
2157.0,0.0010786146208486608
2156.0,0.0010139885412608957
2155.0,0.0010339044095537212
2154.0,0.0010956717222561833
2153.0,0.0011737767061265874
2152.0,0.0012467376621804473
2151.0,0.0012952097533190225
2150.0,0.001313291751975349
2149.0,0.001306126571137698
2148.0,0.0012789360669350183
2147.0,0.001241020317226976
2146.0,0.0012137416669950431
2145.0,0.0012163964425030151
2144.0,0.0012444687909286209
2143.0,0.0012758922992702887
2142.0,0.0012963998605440101
2141.0,0.0013063487416360394
2140.0,0.001307764526171143
2139.0,0.0012994702972192304
2138.0,0.001282787984518341
2137.0,0.0012592564594060217
2136.0,0.0012244879160756123
2135.0,0.001177132904069943
2134.0,0.0011321060840405617
2133.0,0.0011114204680989983
2132.0,0.001121730400668666
2131.0,0.0011507098794094
2130.0,0.0011829165076464466
2129.0,0.0012091695557134156
2128.0,0.0012256007482574526
2127.0,0.0012354091783152218
2126.0,0.001249863643074661
2125.0,0.001277188127086765
2124.0,0.0013108766444226408
2123.0,0.0013377784557008492
2122.0,0.0013554347753538863
2121.0,0.0013718326905257548
2120.0,0.0013902297236695696
2119.0,0.0014058090002197652
2118.0,0.001417707417551622
2117.0,0.001432976272791057
2116.0,0.001455384014424682
2115.0,0.001479086161156094
2114.0,0.0014963201582006496
2113.0,0.0015044704570301506
2112.0,0.0015039905334955103
2111.0,0.001496524550231713
2110.0,0.001487335915164398
2109.0,0.0014827299671427863
2108.0,0.001482836687126016
2107.0,0.0014827889944050863
2106.0,0.0014816180589972048
2105.0,0.0014832819571083825
2104.0,0.0014881634867419367
2103.0,0.0014910203633091569
2102.0,0.0014891260396056158
2101.0,0.0014857736860868604
2100.0,0.0014838049887470745
2099.0,0.0014806872106509273
2098.0,0.0014707543210044894
2097.0,0.0014487285358263488
2096.0,0.0014133849151363464
2095.0,0.0013739973508845595
2094.0,0.0013500253655194744
2093.0,0.0013548901743485405
2092.0,0.001380980716664092
2091.0,0.0014079507919955443
2090.0,0.0014244686975127573
2089.0,0.001435125236094311
2088.0,0.0014483221498545343
2087.0,0.0014661874023344868
2086.0,0.0014856845175789703
2085.0,0.0015012510008945439
2084.0,0.001506568443911704
2083.0,0.0015020358553286637
2082.0,0.0015000257928474638
2081.0,0.0015139341931895839
2080.0,0.0015407804745319867
2079.0,0.0015627978551060098
2078.0,0.0015668583853494058
2077.0,0.0015547890797896898
2076.0,0.001535962877296657
2075.0,0.001519000233922731
2074.0,0.0015112249204640425
2073.0,0.0015153291486586248
2072.0,0.0015236528204825867
2071.0,0.0015245908161237972
2070.0,0.0015162570254795495
2069.0,0.0015065089684835134
2068.0,0.0014998737344639568
2067.0,0.001493884370963139
2066.0,0.001488311715909699
2065.0,0.0014871949271090942
2064.0,0.0014903901252392522
2063.0,0.0014927251802615644
2062.0,0.0014922809493193468
2061.0,0.0014904997734804704
2060.0,0.001485604801382133
2059.0,0.0014765317243250232
2058.0,0.0014711223702757962
2057.0,0.0014778374511516786
2056.0,0.0014915026760803935
2055.0,0.0015033125611044322
2054.0,0.001524420090186727
2053.0,0.0015781581023132062
2052.0,0.0016621852730536195
2051.0,0.0017363449869559446
2050.0,0.0017588158315407277
2049.0,0.001727289541428243
2048.0,0.0016753253251763915
2047.0,0.001632534866896093
2046.0,0.0016032009607928569
2045.0,0.0015807767630510096
2044.0,0.0015651324468845176
2043.0,0.0015618038799535881
2042.0,0.0015725791335588209
2041.0,0.0015901335188486404
2040.0,0.0016019790086379095
2039.0,0.0016006981106857982
2038.0,0.0015883169977647835
2037.0,0.0015696926148535083
2036.0,0.0015471055131566335
2035.0,0.0015253338106878088
2034.0,0.0015142277404362637
2033.0,0.0015160314959381288
2032.0,0.001517083770532011
2031.0,0.0015051182343704408
2030.0,0.0014876358448945434
2029.0,0.0014801101552578886
2028.0,0.0014827892897995576
2027.0,0.0014837752442529053
2026.0,0.00147873014249231
2025.0,0.0014710268707509785
2024.0,0.0014595935627280687
2023.0,0.0014439711653254064
2022.0,0.001435620421062668
2021.0,0.0014453661600122606
2020.0,0.0014629929913217011
2019.0,0.0014668017449543348
2018.0,0.0014499785710291898
2017.0,0.0014230319846108607
2016.0,0.0013958760255024408
2015.0,0.001374739699142271
2014.0,0.0013714716351428712
2013.0,0.001394268993204229
2012.0,0.001430314833785551
2011.0,0.0014564506469716691
2010.0,0.001463952098022893
2009.0,0.0014558513972387835
2008.0,0.0014281468696788352
2007.0,0.0013767074058035349
2006.0,0.0013186641666721734
2005.0,0.00128158010882835
2004.0,0.0012720846190161384
2003.0,0.001277433566055659
2002.0,0.0012944441908011703
2001.0,0.0013317178929693394
2000.0,0.0013827817571066253
1999.0,0.0014217183568295908
1998.0,0.0014317861333333047
1997.0,0.0014225988746845932
1996.0,0.0014150017888870782
1995.0,0.001422303084473224
1994.0,0.0014480214827017263
1993.0,0.0014852602341088531
1992.0,0.0015154072160142422
1991.0,0.0015238455856905996
1990.0,0.0015175686054108187
1989.0,0.0015145794858656449
1988.0,0.0015207843838431494
1987.0,0.0015309213561753815
1986.0,0.0015464640445272218
1985.0,0.0015747957205299846
1984.0,0.0016142578738474645
1983.0,0.0016584466897337916
1982.0,0.0017108966372747089
1981.0,0.0017716296990754458
1980.0,0.0018100353888770568
1979.0,0.0017796857305566014
1978.0,0.0016713977570314707
1977.0,0.0015310984018895486
1976.0,0.001410939665244246
1975.0,0.0013274358783627416
1974.0,0.0012786934834768
1973.0,0.0012660862878920932
1972.0,0.0012828288106063877
1971.0,0.001308967433495734
1970.0,0.00133031838393257
1969.0,0.0013449065726299444
1968.0,0.0013484820820979686
1967.0,0.0013355065611166937
1966.0,0.0013171874135741847
1965.0,0.0013136662085600275
1964.0,0.0013238712730960583
1963.0,0.0013253125936886752
1962.0,0.001306274476194745
1961.0,0.00127940402452511
1960.0,0.0012599863420648806
1959.0,0.0012494327542328504
1958.0,0.0012453090844356792
1957.0,0.0012476204959022974
1956.0,0.001249822473953003
1955.0,0.001242242878597967
1954.0,0.0012294690923365067
1953.0,0.0012288913112927444
1952.0,0.0012475666398171002
1951.0,0.0012735680714212273
1950.0,0.0012926121067452316
1949.0,0.001299771992680623
1948.0,0.0012937795412567602
1947.0,0.001275029537139554
1946.0,0.0012525438622267395
1945.0,0.0012386617017089302
1944.0,0.0012328130358528983
1943.0,0.0012229593138429872
1942.0,0.0012065756046114003
1941.0,0.0011946288316429744
1940.0,0.0011916597612154753
1939.0,0.0011911111622502073
1938.0,0.0011905005781749007
1937.0,0.001193720844351315
1936.0,0.0011978262799398232
1935.0,0.001193366849652748
1934.0,0.0011813255225528582
1933.0,0.001174830885825546
1932.0,0.0011795185809468996
1931.0,0.0011852810920288737
1930.0,0.0011832718686840052
1929.0,0.0011775770363479522
1928.0,0.0011749145918103512
1927.0,0.001174264939102677
1926.0,0.0011728479824915502
1925.0,0.0011731847116112735
1924.0,0.0011764320726706005
1923.0,0.0011785654270782704
1922.0,0.0011800337920776379
1921.0,0.0011889070221595657
1920.0,0.001207735905222342
1919.0,0.0012241008006774459
1918.0,0.0012218616615915722
1917.0,0.0012021086946955887
1916.0,0.0011808021656523273
1915.0,0.0011686400757371996
1914.0,0.0011665115115824655
1913.0,0.0011713586303322696
1912.0,0.001178113420539169
1911.0,0.0011813376107199845
1910.0,0.001179955849737007
1909.0,0.0011777088959605234
1908.0,0.0011768851004570833
1907.0,0.0011751145126719373
1906.0,0.00117071678453229
1905.0,0.0011672322857239927
1904.0,0.0011680136987640194
1903.0,0.001171565300884494
1902.0,0.001175548633131444
1901.0,0.001179640804808806
1900.0,0.0011819549980584825
1899.0,0.0011785077910029483
1898.0,0.0011691305414325743
1897.0,0.0011590985424918298
1896.0,0.001152012394234592
1895.0,0.001146299659912417
1894.0,0.0011418819636270835
1893.0,0.0011433703028380017
1892.0,0.0011522588639790977
1891.0,0.0011617151091196723
1890.0,0.0011630863837030702
1889.0,0.0011566539107273955
1888.0,0.001149915138272988
1887.0,0.0011465847909037789
1886.0,0.001145816157327702
1885.0,0.0011468306505287174
1884.0,0.0011486937932185986
1883.0,0.0011496410320397548
1882.0,0.001149898572749541
1881.0,0.0011518943168960002
1880.0,0.0011549898674759827
1879.0,0.001154449534169329
1878.0,0.001147520693226413
1877.0,0.001137513413943451
1876.0,0.00112998642809992
1875.0,0.0011276502279761024
1874.0,0.001131069126218887
1873.0,0.0011402881126851491
1872.0,0.0011530099839514953
1871.0,0.001164091595988313
1870.0,0.0011675454499290561
1869.0,0.001160324686154282
1868.0,0.0011470527958813317
1867.0,0.001135933232441623
1866.0,0.001131527386125723
1865.0,0.001134502624672915
1864.0,0.0011414492015514215
1863.0,0.001146701371958828
1862.0,0.0011480446598729531
1861.0,0.0011473429492044119
1860.0,0.0011454105754886074
1859.0,0.0011410698277361717
1858.0,0.0011361067280390572
1857.0,0.00113547718345383
1856.0,0.0011400807365349707
1855.0,0.0011437149210625326
1854.0,0.0011422295785513481
1853.0,0.0011397245657329658
1852.0,0.0011418035210949923
1851.0,0.0011483583509120938
1850.0,0.0011543779392789559
1849.0,0.0011554534975407177
1848.0,0.0011511899542616646
1847.0,0.0011455153399235025
1846.0,0.0011445021374107444
1845.0,0.001149485335927372
1844.0,0.0011538185116891433
1843.0,0.0011518883983794538
1842.0,0.0011465780572458165
1841.0,0.0011433988896990754
1840.0,0.0011420227280255135
1839.0,0.001137787133212112
1838.0,0.0011310658757758814
1837.0,0.0011292911457711093
1836.0,0.0011356998051895056
1835.0,0.0011442305645473496
1834.0,0.0011503633618793851
1833.0,0.0011568778113020543
1832.0,0.0011665341260921882
1831.0,0.0011749894193268065
1830.0,0.0011753189173392463
1829.0,0.0011693341150620913
1828.0,0.0011638582381759085
1827.0,0.0011620694355815844
1826.0,0.0011643518884583523
1825.0,0.0011699053204478227
1824.0,0.0011766581128150643
1823.0,0.0011823287660579149
1822.0,0.001185825636766704
1821.0,0.0011857339420539273
1820.0,0.0011787392689601912
1819.0,0.0011626054723233121
1818.0,0.0011405531635905295
1817.0,0.0011213693287041495
1816.0,0.001112953919326224
1815.0,0.0011169959517187153
1814.0,0.0011299840245534906
1813.0,0.0011460470376619754
1812.0,0.0011594486588093454
1811.0,0.0011682695720385216
1810.0,0.001174942082423835
1809.0,0.001181514544118106
1808.0,0.0011875067312896242
1807.0,0.0011920901269770767
1806.0,0.0011963459903261901
1805.0,0.0012039487534471318
1804.0,0.0012180794305055285
1803.0,0.0012383694230500108
1802.0,0.0012602710586358094
1801.0,0.0012763227755070968
1800.0,0.00128343150214121
1799.0,0.001285552607918852
1798.0,0.0012864726848007995
1797.0,0.001286387290242456
1796.0,0.0012853145158442639
1795.0,0.001286049934052783
1794.0,0.0012923537422699983
1793.0,0.0013010159835853616
1792.0,0.0013025632398138585
1791.0,0.0012936888123577393
1790.0,0.0012789382777086966
1789.0,0.0012643647642585124
1788.0,0.0012550428537946277
1787.0,0.0012523969851690336
1786.0,0.0012527462715604025
1785.0,0.0012511161399534085
1784.0,0.0012457365144451
1783.0,0.0012392747045141526
1782.0,0.001235116293139579
1781.0,0.0012320336044201602
1780.0,0.001226656336597812
1779.0,0.0012179480893011858
1778.0,0.0012074878087616192
1777.0,0.0011961427090097525
1776.0,0.0011839999843478767
1775.0,0.0011745794904280868
1774.0,0.0011754604293489693
1773.0,0.0011877358862471207
1772.0,0.0012013807814809606
1771.0,0.0012111058823967764
1770.0,0.001221193162175873
1769.0,0.0012336772138468268
1768.0,0.0012430709775594633
1767.0,0.0012446592965038039
1766.0,0.0012433755224145414
1765.0,0.0012487521644989315
1764.0,0.0012649129003364729
1763.0,0.0012864883206908087
1762.0,0.001303844040997731
1761.0,0.001314470588241907
1760.0,0.0013241312439352636
1759.0,0.0013391179601720932
1758.0,0.0013632285008232255
1757.0,0.001393751864402354
1756.0,0.001422809121089492
1755.0,0.0014492026397716397
1754.0,0.0014830146884152189
1753.0,0.00153645458165794
1752.0,0.0016095343628873139
1751.0,0.0016859783224557143
1750.0,0.0017555241659961158
1749.0,0.001828485136087154
1748.0,0.0019144280425249993
1747.0,0.0020129101299819806
1746.0,0.0021250248868171216
1745.0,0.002254779464954235
1744.0,0.0023999289651910967
1743.0,0.0025516601884189513
1742.0,0.0027101599392952308
1741.0,0.0028882406261119303
1740.0,0.0030878546782447873
1739.0,0.003284728486813538
1738.0,0.0034593208833451554
1737.0,0.0036235933489229023
1736.0,0.003808788198489739
1735.0,0.004033733017809197
1734.0,0.004269339974644828
1733.0,0.004473737288188879
1732.0,0.004651015831497988
1731.0,0.004823664715797267
1730.0,0.005001451225067318
1729.0,0.005186376988830392
1728.0,0.005374511788693292
1727.0,0.00556334888879072
1726.0,0.005753416308425654
1725.0,0.005945167342778406
1724.0,0.006135550805333618
1723.0,0.0063194430407917945
1722.0,0.006495217187594914
1721.0,0.006666013364200314
1720.0,0.0068347544173819694
1719.0,0.0069981294929300905
1718.0,0.007138388295247581
1717.0,0.007240479174671042
1716.0,0.007319487220261107
1715.0,0.007388282758611396
1714.0,0.00743120603739198
1713.0,0.0074318703588222785
1712.0,0.007387000707002004
1711.0,0.007294781307274298
1710.0,0.007154424671642642
1709.0,0.0069768808857759166
1708.0,0.0067736651272217755
1707.0,0.006531407100179046
1706.0,0.006233600170033179
1705.0,0.005932086194785684
1704.0,0.005713966727560975
1703.0,0.00558529073788009
1702.0,0.005480189351943038
1701.0,0.005309766310015374
1700.0,0.005086207084180131
1699.0,0.004936253165290263
1698.0,0.0048847125585568685
1697.0,0.004869787560751673
1696.0,0.004855596223421836
1695.0,0.004850799602184478
1694.0,0.004877658668688083
1693.0,0.004931051455279419
1692.0,0.004995328426515655
1691.0,0.005056031364179257
1690.0,0.005110514259617014
1689.0,0.005166761408537677
1688.0,0.005227990352980951
1687.0,0.00529019418613792
1686.0,0.005358335295203619
1685.0,0.005438449102481071
1684.0,0.00552271542519364
1683.0,0.005607908711077968
1682.0,0.005694208097268449
1681.0,0.005781083500436479
1680.0,0.0058635153465495925
1679.0,0.005936422248328837
1678.0,0.006006968726567508
1677.0,0.006091584370060379
1676.0,0.006190140306423158
1675.0,0.006280493211537786
1674.0,0.006355485821702346
1673.0,0.0064313374747034585
1672.0,0.006515707510571976
1671.0,0.006598494794436412
1670.0,0.0066733816379535545
1669.0,0.006754465934636905
1668.0,0.006847412579040678
1667.0,0.006937071392188251
1666.0,0.007019751740600791
1665.0,0.007106141810031311
1664.0,0.007197734764141086
1663.0,0.007280366102916707
1662.0,0.007351534903425965
1661.0,0.007427721175501296
1660.0,0.007511868749326007
1659.0,0.0075911756657565145
1658.0,0.007657304077042381
1657.0,0.007718193701361139
1656.0,0.007778344829701387
1655.0,0.007837163650563016
1654.0,0.007871876840821357
1653.0,0.007892513914794322
1652.0,0.007951412229467594
1651.0,0.00802675067409208
1650.0,0.008089068809343057
1649.0,0.008140171171906636
1648.0,0.008181276448867266
1647.0,0.008205610497071088
1646.0,0.008221743298912778
1645.0,0.008251969155362839
1644.0,0.008291122171765407
1643.0,0.008320065231843938
1642.0,0.008333405807655151
1641.0,0.008339092379175675
1640.0,0.008346725449997107
1639.0,0.008353665128455423
1638.0,0.008352107456821365
1637.0,0.008336518408367723
1636.0,0.008303418426345575
1635.0,0.008265264505033475
1634.0,0.008239790293455443
1633.0,0.008225460560540701
1632.0,0.008210496537610294
1631.0,0.008182958860140132
1630.0,0.00813465051581648
1629.0,0.008067863339968576
1628.0,0.007992451800316522
1627.0,0.007918736295229902
1626.0,0.007849759514079348
1625.0,0.0077779346439110116
1624.0,0.007685551261919443
1623.0,0.007565426605770259
1622.0,0.007443330301559805
1621.0,0.00734640754832735
1620.0,0.007268019463006817
1619.0,0.007183350017896841
1618.0,0.007069949348322116
1617.0,0.00692711584664331
1616.0,0.006789760773609559
1615.0,0.006684986243048743
1614.0,0.006600087271292799
1613.0,0.006512574785516288
1612.0,0.006409849246584874
1611.0,0.0062903221562646255
1610.0,0.0061626686070479185
1609.0,0.006036920733374002
1608.0,0.0059162632785618105
1607.0,0.0058007284824930444
1606.0,0.0056941553815599115
1605.0,0.005597385104717347
1604.0,0.005503679902612689
1603.0,0.005407768986737068
1602.0,0.005314192469066574
1601.0,0.0052306250950022865
1600.0,0.005156925230307955
1599.0,0.005088172684352884
1598.0,0.0050229501583541345
1597.0,0.004962364744677809
1596.0,0.004906250455623366
1595.0,0.00485485688878483
1594.0,0.004810173236177297
1593.0,0.004771897969561838
1592.0,0.004735885381457341
1591.0,0.004699893661093577
1590.0,0.004667508751503148
1589.0,0.004643284065191848
1588.0,0.00462780077629548
1587.0,0.004620155511071189
1586.0,0.004622152881032199
1585.0,0.004634755082026479
1584.0,0.0046542307558809625
1583.0,0.00467761058670592
1582.0,0.0047057646710507595
1581.0,0.004737506375740652
1580.0,0.0047670915828702245
1579.0,0.004790649487524968
1578.0,0.004810244645674005
1577.0,0.0048255980319875215
1576.0,0.00483168390874344
1575.0,0.004834642777137565
1574.0,0.00484575882066447
1573.0,0.004863492767447614
1572.0,0.004881612256640377
1571.0,0.004899010167642869
1570.0,0.004920894602175154
1569.0,0.0049549933082934094
1568.0,0.004997689626696343
1567.0,0.005040657468222422
1566.0,0.005083218830381282
1565.0,0.005125656503411681
1564.0,0.005159933029674246
1563.0,0.0051824525324419635
1562.0,0.005202307445396433
1561.0,0.005241845760103251
1560.0,0.005319196494425562
1559.0,0.005418240638318617
1558.0,0.005512849837798493
1557.0,0.005599502159218452
1556.0,0.005675929044426457
1555.0,0.005742032774174174
1554.0,0.005807999409687826
1553.0,0.005871680424354229
1552.0,0.005931207433647759
1551.0,0.005987180747685769
1550.0,0.006047981971216745
1549.0,0.0061175481427845745
1548.0,0.0061907221706199896
1547.0,0.006263284949480833
1546.0,0.006337069415542727
1545.0,0.006406534706141046
1544.0,0.006457039907704605
1543.0,0.006480878078402026
1542.0,0.006487795967675914
1541.0,0.006491106747000317
1540.0,0.006506446527268564
1539.0,0.006554894016062065
1538.0,0.006630753437752508
1537.0,0.006710597549735422
1536.0,0.006780455510722677
1535.0,0.00683413791735237
1534.0,0.006865722950097376
1533.0,0.00687889988844166
1532.0,0.006889849147630672
1531.0,0.0069074311260550894
1530.0,0.006930616810791662
1529.0,0.006958257094894956
1528.0,0.006987003651179501
1527.0,0.00701376726079861
1526.0,0.00704023715267438
1525.0,0.007068264635158964
1524.0,0.007093241538462476
1523.0,0.007106797834844398
1522.0,0.007101664299881988
1521.0,0.007089412986654259
1520.0,0.007095415431760673
1519.0,0.0071223121553729
1518.0,0.007156984851721984
1517.0,0.0071888588273075855
1516.0,0.007212842928762392
1515.0,0.007231126146225963
1514.0,0.0072453971814999026
1513.0,0.007254100177382488
1512.0,0.0072557683548318055
1511.0,0.007257160265655101
1510.0,0.007269996847533581
1509.0,0.007300576419283835
1508.0,0.007334701178980928
1507.0,0.007344955937619647
1506.0,0.007347104408805543
1505.0,0.0073607966648690775
1504.0,0.007362393004442257
1503.0,0.007336045532149196
1502.0,0.0072840956083627464
1501.0,0.007213861249085534
1500.0,0.007136371248555857
1499.0,0.007062008664443735
1498.0,0.007005521717024158
1497.0,0.00697420997255016
1496.0,0.006957797354152942
1495.0,0.006944541252320709
1494.0,0.006937918452353182
1493.0,0.006942621709687087
1492.0,0.006949438050332539
1491.0,0.006938839391109272
1490.0,0.006909465868877064
1489.0,0.006888147231337832
1488.0,0.0068934190788996555
1487.0,0.006919825560326308
1486.0,0.006960093780331873
1485.0,0.007011897885835043
1484.0,0.007066732057110789
1483.0,0.007112917531339512
1482.0,0.007148360179486701
1481.0,0.007183233522117425
1480.0,0.007226709394862363
1479.0,0.007279815246983694
1478.0,0.007342519244971913
1477.0,0.007415988840537593
1476.0,0.007496826784082667
1475.0,0.007579577776512811
1474.0,0.007663677238348484
1473.0,0.007743244678860726
1472.0,0.007805761015549627
1471.0,0.007853960922296822
1470.0,0.007902838508891941
1469.0,0.007960896505940954
1468.0,0.00802692048186962
1467.0,0.008095839826867412
1466.0,0.008165170922699102
1465.0,0.00823232591958123
1464.0,0.008294427848779175
1463.0,0.0083551948156118
1462.0,0.008422171249167007
1461.0,0.008497346466684836
1460.0,0.008571729876621957
1459.0,0.00863237515157482
1458.0,0.008673193286489106
1457.0,0.008705355819106924
1456.0,0.008747906074947454
1455.0,0.00880255281256855
1454.0,0.00885851641644733
1453.0,0.008902123719453401
1452.0,0.00892336820089588
1451.0,0.008925832283683436
1450.0,0.00892270805442648
1449.0,0.008918203473253762
1448.0,0.008907189490579974
1447.0,0.008895538238504036
1446.0,0.00889782041329128
1445.0,0.00891165397305055
1444.0,0.008920831336858505
1443.0,0.008916970534200656
1442.0,0.008908177587119068
1441.0,0.008906331291430517
1440.0,0.008911383790568318
1439.0,0.008912907337773052
1438.0,0.008896934828783237
1437.0,0.008853746090613677
1436.0,0.008799859069753833
1435.0,0.008768545786163106
1434.0,0.00876609856115907
1433.0,0.00877239311906796
1432.0,0.008765515091462308
1431.0,0.008737897949568097
1430.0,0.008703642297977085
1429.0,0.008682723943758323
1428.0,0.008681111383884107
1427.0,0.008692912101507709
1426.0,0.008711317738569783
1425.0,0.00872927913780657
1424.0,0.008742367501577294
1423.0,0.008757868862021232
1422.0,0.008787230225665224
1421.0,0.008828622411908453
1420.0,0.008862340622866236
1419.0,0.008877811698885492
1418.0,0.008902967110866078
1417.0,0.008963031718232864
1416.0,0.009049502800456985
1415.0,0.009152276398249656
1414.0,0.009273641190638799
1413.0,0.009410209110253715
1412.0,0.00953931361588794
1411.0,0.009633250499219936
1410.0,0.009682290479620291
1409.0,0.009686317183222654
1408.0,0.00963436779985383
1407.0,0.00951214031175104
1406.0,0.009323123222723948
1405.0,0.00909096421992953
1404.0,0.00885162634000391
1403.0,0.008640669662516321
1402.0,0.00846959616115887
1401.0,0.008316818174318544
1400.0,0.008150672489598545
1399.0,0.00797152627455292
1398.0,0.007812905216307044
1397.0,0.007684304543262459
1396.0,0.007554080019202386
1395.0,0.007399624012357026
1394.0,0.007243706816138874
1393.0,0.007117854463534681
1392.0,0.0070206367812776175
1391.0,0.006935923677012233
1390.0,0.006853762932017817
1389.0,0.006766070280772675
1388.0,0.006664307373348534
1387.0,0.006553479572082209
1386.0,0.006454018469279113
1385.0,0.006374891456758686
1384.0,0.0063059547680408765
1383.0,0.006237450793545721
1382.0,0.006169485021012091
1381.0,0.006104291863309648
1380.0,0.006039623385657485
1379.0,0.005974182971601878
1378.0,0.005912044983656706
1377.0,0.005855660481133528
1376.0,0.005799408347965662
1375.0,0.005735350384243259
1374.0,0.005664592310068575
1373.0,0.005596570158288832
1372.0,0.005535453913823766
1371.0,0.005475474107143841
1370.0,0.005407705918354887
1369.0,0.005326685715261629
1368.0,0.005235538700764766
1367.0,0.005144750645215289
1366.0,0.005061111729708006
1365.0,0.004979860062378919
1364.0,0.004890381371651303
1363.0,0.004790248932279911
1362.0,0.0046915615113198575
1361.0,0.004607917603509218
1360.0,0.004541365360419459
1359.0,0.004487283090754015
1358.0,0.004441817514750047
1357.0,0.004402279777791615
1356.0,0.0043670649087629715
1355.0,0.0043374036720316336
1354.0,0.00431638095810353
1353.0,0.004305530539030157
1352.0,0.004304572986083091
1351.0,0.004312807056529616
1350.0,0.0043292887220662685
1349.0,0.004354034650131075
1348.0,0.004390233352204205
1347.0,0.004443283567993811
1346.0,0.0045161458928753475
1345.0,0.004606207877199065
1344.0,0.004707018188224227
1343.0,0.004811479038970997
1342.0,0.004911323046234617
1341.0,0.004993887227335482
1340.0,0.005041941419304739
1339.0,0.005041199028826605
1338.0,0.004988603162037092
1337.0,0.004889928572712169
1336.0,0.004754303873206516
1335.0,0.004594064984998963
1334.0,0.004423576093425229
1333.0,0.004255676091731662
1332.0,0.004101218413054504
1331.0,0.003969618809209535
1330.0,0.003865340041985515
1329.0,0.00378570458177365
1328.0,0.0037256237922231837
1327.0,0.003682358669514491
1326.0,0.0036542244723640543
1325.0,0.0036382809505541586
1324.0,0.00363155768443656
1323.0,0.0036325399962394075
1322.0,0.003639234961946662
1321.0,0.003647568195904744
1320.0,0.0036538303922625413
1319.0,0.0036576201494880967
1318.0,0.0036607299577229345
1317.0,0.0036644406680635833
1316.0,0.0036696420700426547
1315.0,0.0036779000085375583
1314.0,0.003689984235710002
1313.0,0.003704251591210333
1312.0,0.0037184906755542155
1311.0,0.0037322949202161903
1310.0,0.003746061204981517
1309.0,0.0037592191314005036
1308.0,0.003771531654958053
1307.0,0.0037847915005986502
1306.0,0.0038013157416083732
1305.0,0.0038217208071044395
1304.0,0.0038454870929425363
1303.0,0.0038732629368618023
1302.0,0.0039069712763641256
1301.0,0.003947927923513962
1300.0,0.003996123640757636
1299.0,0.004051140156346334
1298.0,0.004112468416232507
1297.0,0.004178842784389137
1296.0,0.004248257498350699
1295.0,0.004318951659838551
1294.0,0.0043901829563729984
1293.0,0.004461861657439939
1292.0,0.004533782721837137
1291.0,0.004605438783530484
1290.0,0.004676042042941429
1289.0,0.004744292962116185
1288.0,0.004808652508356586
1287.0,0.004868589677410903
1286.0,0.004925259897828945
1285.0,0.004980071146267989
1284.0,0.0050330245625160985
1283.0,0.0050834704002376
1282.0,0.00513179896134195
1281.0,0.005179205908801102
1280.0,0.005226263165370697
1279.0,0.0052732708248153055
1278.0,0.005322129119408808
1277.0,0.0053762765830353484
1276.0,0.005438552968604274
1275.0,0.005510269352634211
1274.0,0.005592409281127739
1273.0,0.005686132765178332
1272.0,0.0057915387489804486
1271.0,0.005907258648735951
1270.0,0.006031806527144225
1269.0,0.006163714243444093
1268.0,0.006299733909443879
1267.0,0.0064351494358044475
1266.0,0.006566937988819401
1265.0,0.006694419084131828
1264.0,0.006816233473330479
1263.0,0.0069296871465472
1262.0,0.007033730766240368
1261.0,0.007129277279522716
1260.0,0.00721581079652126
1259.0,0.0072915375420503775
1258.0,0.007358074446744018
1257.0,0.00742099296727231
1256.0,0.0074849482439349815
1255.0,0.007552142180579664
1254.0,0.007625808184806239
1253.0,0.007710424167363294
1252.0,0.007806829290530649
1251.0,0.007910942182675091
1250.0,0.008019053945153683
1249.0,0.008130974901257323
1248.0,0.008246688150316976
1247.0,0.008363909329969724
1246.0,0.008480450971942732
1245.0,0.008594896267302365
1244.0,0.008703719431458068
1243.0,0.008802039380997679
1242.0,0.008888034227917436
1241.0,0.00896196811846699
1240.0,0.009020734361625002
1239.0,0.0090590784859541
1238.0,0.009076609028810837
1237.0,0.00907753432991549
1236.0,0.009063154940253039
1235.0,0.009031132624800957
1234.0,0.00898255718411644
1233.0,0.00892298719907696
1232.0,0.008855854885893988
1231.0,0.008781084288531377
1230.0,0.008700170167780302
1229.0,0.00861587755498345
1228.0,0.008526547326691277
1227.0,0.008427196065672707
1226.0,0.008316995489551435
1225.0,0.00820015070053805
1224.0,0.008079177226912575
1223.0,0.007952869578870985
1222.0,0.007821072348452626
1221.0,0.007685959417861817
1220.0,0.007548263829294022
1219.0,0.0074072730686699575
1218.0,0.007265053303615493
1217.0,0.007126408973842405
1216.0,0.006994433485728925
1215.0,0.006869632596726242
1214.0,0.006752787027521743
1213.0,0.006644979249538371
1212.0,0.006545257422867361
1211.0,0.006451737983328755
1210.0,0.006364552707481837
1209.0,0.006284631289080793
1208.0,0.006210449445691343
1207.0,0.006139238048276931
1206.0,0.006070722428303005
1205.0,0.006006544858056497
1204.0,0.005946691759424151
1203.0,0.0058896216156755984
1202.0,0.0058353411633754355
1201.0,0.005785187137588514
1200.0,0.005738747063556043
1199.0,0.005693828339179257
1198.0,0.005649465899029809
1197.0,0.005606522754694293
1196.0,0.005565529612661986
1195.0,0.0055264325053500105
1194.0,0.005490325428779811
1193.0,0.005459164448201332
1192.0,0.005433704205170072
1191.0,0.005413486987185742
1190.0,0.005398514789936448
1189.0,0.005389040480949482
1188.0,0.005384110865003644
1187.0,0.005382446725429588
1186.0,0.005384707852217161
1185.0,0.005393089508263587
1184.0,0.005408845378265593
1183.0,0.005431811548323943
1182.0,0.0054617445856693985
1181.0,0.005498084377999129
1180.0,0.005538600564176303
1179.0,0.005580377189086741
1178.0,0.0056220595943474805
1177.0,0.005663048209942728
1176.0,0.005700793392461428
1175.0,0.005731397353611065
1174.0,0.005752837317947779
1173.0,0.00576520854868862
1172.0,0.005768413440727764
1171.0,0.005763017613524687
1170.0,0.005753264873178889
1169.0,0.005745529330780612
1168.0,0.00574312841570563
1167.0,0.005745164241967277
1166.0,0.005750277411218678
1165.0,0.005758434041323862
1164.0,0.005769120280670777
1163.0,0.0057812631108360765
1162.0,0.00579548942888564
1161.0,0.005813476401386753
1160.0,0.005834871555192845
1159.0,0.005857959963600526
1158.0,0.005883509945234839
1157.0,0.005914373286960648
1156.0,0.0059506023300499675
1155.0,0.005988562692226803
1154.0,0.00602588893542516
1153.0,0.006064001896444402
1152.0,0.006104789497175018
1151.0,0.00614839768007462
1150.0,0.006195528916597104
1149.0,0.006248248098420838
1148.0,0.006306716422447898
1147.0,0.006368093479319791
1146.0,0.006430237839769116
1145.0,0.006493783963764524
1144.0,0.006559608919612854
1143.0,0.006627398830931757
1142.0,0.006697859465457201
1141.0,0.00677296758851581
1140.0,0.006852685959399836
1139.0,0.006934801502801211
1138.0,0.007019151304468698
1137.0,0.007108445159763506
1136.0,0.007203882920604816
1135.0,0.00730398556071169
1134.0,0.00740886369939903
1133.0,0.007521122481379799
1132.0,0.007641012178293563
1131.0,0.007765169705517971
1130.0,0.007891908068939843
1129.0,0.008023129098777853
1128.0,0.00815907055828328
1127.0,0.00829597781513123
1126.0,0.008431008429128788
1125.0,0.00856455235697321
1124.0,0.008695871872383144
1123.0,0.00882196056029182
1122.0,0.008942566116360452
1121.0,0.009060356796292426
1120.0,0.009174082446967222
1119.0,0.009277504103307315
1118.0,0.009366429160367298
1117.0,0.009440544828498959
1116.0,0.009497927819802625
1115.0,0.009536264957979566
1114.0,0.009561603592139454
1113.0,0.009588036705054941
1112.0,0.009626879405047454
1111.0,0.009682988617112193
1110.0,0.009761496493336817
1109.0,0.009868513933998922
1108.0,0.010002763788264448
1107.0,0.010154813437627098
1106.0,0.010316844655838748
1105.0,0.010485933493407535
1104.0,0.010657107252127668
1103.0,0.010822679669837673
1102.0,0.010980971437497667
1101.0,0.011135747674840298
1100.0,0.011285314581663888
1099.0,0.011422776247717143
1098.0,0.011547348723360837
1097.0,0.011664843022343989
1096.0,0.011774348449953242
1095.0,0.011867418670434457
1094.0,0.011942506899980186
1093.0,0.012007299755137256
1092.0,0.012064306088252492
1091.0,0.01210754907868641
1090.0,0.012136051318201252
1089.0,0.012157289886554137
1088.0,0.01217475882655057
1087.0,0.012185283321188558
1086.0,0.012190754617172927
1085.0,0.01219798626872086
1084.0,0.012204075769253336
1083.0,0.012196157269589574
1082.0,0.012169016356156836
1081.0,0.012129175708470804
1080.0,0.012079136609655306
1079.0,0.012012530229629226
1078.0,0.011928346657233661
1077.0,0.011835669877533286
1076.0,0.011740309834127768
1075.0,0.011639634243840425
1074.0,0.011533798851750699
1073.0,0.011429699060818312
1072.0,0.011330586485561695
1071.0,0.011233196411238253
1070.0,0.011137442830910624
1069.0,0.011048150546154087
1068.0,0.010965785460005952
1067.0,0.010886218279453378
1066.0,0.0108106141107637
1065.0,0.010744836178873462
1064.0,0.010688457731714446
1063.0,0.010635115108992902
1062.0,0.010584449118105719
1061.0,0.010543038753780693
1060.0,0.010512323652347449
1059.0,0.01048635657626263
1058.0,0.010462787283058302
1057.0,0.010445286547185583
1056.0,0.010433545031442977
1055.0,0.010421705783716349
1054.0,0.010409224167766545
1053.0,0.010403326677393627
1052.0,0.010407725947911424
1051.0,0.010418955853847858
1050.0,0.010436655798387687
1049.0,0.010465055498877331
1048.0,0.010500452430175744
1047.0,0.01053053679038399
1046.0,0.010549290965791998
1045.0,0.01056113593186811
1044.0,0.010569587563118479
1043.0,0.010572769106868973
1042.0,0.01057056304603805
1041.0,0.010565573959097428
1040.0,0.010555592227423687
1039.0,0.01053488226929761
1038.0,0.010504467496490406
1037.0,0.010471714468401458
1036.0,0.010438668875726686
1035.0,0.010400449276543555
1034.0,0.010356551238364708
1033.0,0.010314008143571063
1032.0,0.010277476604946748
1031.0,0.010245450288536214
1030.0,0.01021830393401015
1029.0,0.01020173384646291
1028.0,0.010201023097981458
1027.0,0.010220192557838985
1026.0,0.010267308281874268
1025.0,0.010351443809531869
1024.0,0.01047280666732589
1023.0,0.010623959773698658
1022.0,0.010801291351968605
1021.0,0.011004719469457174
1020.0,0.011222117576704256
1019.0,0.011423005596175805
1018.0,0.011572274653061262
1017.0,0.01164311406923284
1016.0,0.011617050075675915
1015.0,0.01148729683554855
1014.0,0.011269797364184264
1013.0,0.011000690239445193
1012.0,0.010716738663216869
1011.0,0.010442439874306797
1010.0,0.01019227988534538
1009.0,0.009973066628340627
1008.0,0.009781430589203225
1007.0,0.009608053265589271
1006.0,0.009448546888109718
1005.0,0.009305495409011655
1004.0,0.009179313482227145
1003.0,0.009064112568252168
1002.0,0.008954232416473674
1001.0,0.008848583902439809
1000.0,0.0087469045928654
999.0,0.00864761948367726
998.0,0.008551164486673101
997.0,0.008460003212938797
996.0,0.008373656110994901
995.0,0.008288266444724416
994.0,0.008202136019232241
993.0,0.008117212144881583
992.0,0.008034505723407899
991.0,0.007952879753159748
990.0,0.00787292967368962
989.0,0.007797014047606613
988.0,0.007724775302111252
987.0,0.007653562472428974
986.0,0.007584095300640071
985.0,0.007520889948301041
984.0,0.00746603496297682
983.0,0.00741683170322547
982.0,0.00737046218432349
981.0,0.007326983051209712
980.0,0.007286836238013322
979.0,0.007249389079434395
978.0,0.007214784223839445
977.0,0.007183367785860631
976.0,0.007152330753554436
975.0,0.007116320761439516
974.0,0.007071960752892629
973.0,0.007018927584675618
972.0,0.006957106338387656
971.0,0.00688644227422423
970.0,0.006808919945476251
969.0,0.006726543649414893
968.0,0.006637815728434913
967.0,0.00654020609049928
966.0,0.00643539404796061
965.0,0.006327892220719536
964.0,0.006219420022932447
963.0,0.006109125129724316
962.0,0.0059983784274547395
961.0,0.005890509988699798
960.0,0.005786246168491685
959.0,0.005683877764275153
958.0,0.005583718071448946
957.0,0.005488153645123291
956.0,0.0053974268925586705
955.0,0.005309202026247285
954.0,0.00522221840201343
953.0,0.005136964928774017
952.0,0.005053240590767203
951.0,0.0049708682548180025
950.0,0.004892294969864891
949.0,0.004820495499099342
948.0,0.004754399100475136
947.0,0.0046900740854629005
946.0,0.004626194117819643
945.0,0.004564562874419368
944.0,0.004505461631153512
943.0,0.0044467495839518485
942.0,0.004388116828601519
941.0,0.004332182348930753
940.0,0.004280259464025634
939.0,0.004230386369932511
938.0,0.004180848228722767
937.0,0.004132532560001696
936.0,0.004086309123458437
935.0,0.004040700027759873
934.0,0.003993761833649603
933.0,0.003945337190527123
932.0,0.003896269263617598
931.0,0.003847181371826401
930.0,0.003798952151010405
929.0,0.00375262473685096
928.0,0.0037079532980095684
927.0,0.003663547704660858
926.0,0.0036192222172767644
925.0,0.0035767680188944764
924.0,0.003537719789284425
923.0,0.0035016932031066957
922.0,0.0034674379620281736
921.0,0.0034342257419551605
920.0,0.0034016626854554066
919.0,0.0033694068807844065
918.0,0.0033376862498671967
917.0,0.0033071182573025677
916.0,0.003277608968144851
915.0,0.003248393127629318
914.0,0.0032194031001184335
913.0,0.0031915202757443186
912.0,0.003165170581115882
911.0,0.003139789726235554
910.0,0.0031151136908984583
909.0,0.0030920417934805445
908.0,0.00307163443701075
907.0,0.0030538056010787186
906.0,0.0030372094415901567
905.0,0.003019919512437839
904.0,0.003000263491959999
903.0,0.0029776925782431223
902.0,0.0029529516770491673
901.0,0.0029269583372820073
900.0,0.00289989485240473
899.0,0.002871895546447822
898.0,0.002843689658178992
897.0,0.0028157082715001783
896.0,0.002787058892063151
895.0,0.00275678215546554
894.0,0.0027257885483164728
893.0,0.0026965393175201703
892.0,0.002671285834740407
891.0,0.0026518584207781614
890.0,0.002641133498234422
889.0,0.0026438981124502154
888.0,0.002666363086165577
887.0,0.00271503031021099
886.0,0.002794875525988242
885.0,0.002907244957756223
884.0,0.0030497182953617167
883.0,0.003219492526351525
882.0,0.0034175876109189757
881.0,0.0036479924679974447
880.0,0.00391035122250265
879.0,0.004193750805924204
878.0,0.0044797336391792595
877.0,0.004751367437859786
876.0,0.004997116184980798
875.0,0.005205328477902855
874.0,0.005355443114747303
873.0,0.0054147509617903265
872.0,0.005349496810316019
871.0,0.005149980119079264
870.0,0.004848614851892886
869.0,0.004507754856589028
868.0,0.00418707268747084
867.0,0.003921093790726277
866.0,0.003717561761017182
865.0,0.003567104655077603
864.0,0.0034548295399273263
863.0,0.00336922730559129
862.0,0.003305194717677179
861.0,0.0032609914011696326
860.0,0.0032345846349254416
859.0,0.0032237342696823344
858.0,0.003226502681481813
857.0,0.0032379126951766696
856.0,0.0032467834911878582
855.0,0.0032396406464846404
854.0,0.0032097320190630713
853.0,0.0031615582912553532
852.0,0.0031072434078167795
851.0,0.003059391415514489
850.0,0.003024518482352372
849.0,0.002999526777626816
848.0,0.0029751931846170544
847.0,0.002945604830001969
846.0,0.002913389734488134
845.0,0.0028838175533021926
844.0,0.002856624749652774
843.0,0.0028277891871518208
842.0,0.0027973912140885366
841.0,0.0027702538356242715
840.0,0.002748734855019392
839.0,0.0027297932012452916
838.0,0.002710188372732374
837.0,0.0026905670227952844
836.0,0.0026730081252259027
835.0,0.0026580235630099674
834.0,0.0026456363691611667
833.0,0.002636446551623162
832.0,0.002629676878624909
831.0,0.002622459713067244
830.0,0.0026130974232353183
829.0,0.0026033847021021675
828.0,0.002596209621980158
827.0,0.0025924078313320125
826.0,0.0025913257347133295
825.0,0.002592574231680172
824.0,0.002595802452223078
823.0,0.0026005113391377455
822.0,0.002607368002969372
821.0,0.0026177114904049423
820.0,0.0026312116135671767
819.0,0.002645718803465396
818.0,0.0026594477533490963
817.0,0.002671806907145363
816.0,0.0026825504551723136
815.0,0.0026922520249364063
814.0,0.002703169118919731
813.0,0.002717169599047469
812.0,0.0027327711913274592
811.0,0.002746624863686595
810.0,0.0027580044767092915
809.0,0.0027692788954906825
808.0,0.0027816858159333607
807.0,0.002793342824441951
806.0,0.00280221910041243
805.0,0.0028088551688865123
804.0,0.0028154479466295703
803.0,0.0028240102908408905
802.0,0.002835728083551264
801.0,0.002850646375618572
800.0,0.0028684884758048727
799.0,0.0028915644161906706
798.0,0.002925565491013047
797.0,0.00297383937163852
796.0,0.003030589099646371
795.0,0.003082473780787723
794.0,0.003117663376510982
793.0,0.0031316659041840675
792.0,0.003125539613282261
791.0,0.0031027481108497545
790.0,0.0030684777153009686
789.0,0.0030284141330502064
788.0,0.0029870450180278325
787.0,0.0029486062336056386
786.0,0.002918014753247226
785.0,0.002897479058467052
784.0,0.002883204390817928
783.0,0.002868997652557421
782.0,0.0028526849183244324
781.0,0.0028358371526905892
780.0,0.0028186100405802883
779.0,0.002799306181381655
778.0,0.002778484812362837
777.0,0.0027588833863642437
776.0,0.002741057532327073
775.0,0.0027229215827429838
774.0,0.0027037985141311017
773.0,0.002685284180830096
772.0,0.0026680903387767546
771.0,0.0026515668160645572
770.0,0.0026360496026054244
769.0,0.0026220252347644024
768.0,0.0026076351533617197
767.0,0.0025910101240950523
766.0,0.0025745938402800097
765.0,0.0025627359889978506
764.0,0.002555464367811301
763.0,0.0025490557110020877
762.0,0.0025421991498035396
761.0,0.0025368505520684008
760.0,0.0025332214204351264
759.0,0.0025292049161571607
758.0,0.0025249832638660572
757.0,0.002523172685323853
756.0,0.0025238857620331944
755.0,0.002524679371223636
754.0,0.002525761556201523
753.0,0.0025300058848566906
752.0,0.0025371330190102374
751.0,0.002543428544549339
750.0,0.0025480959751796907
749.0,0.0025545139781338747
748.0,0.002564537380818053
747.0,0.0025772995762029516
746.0,0.0025949056782147073
745.0,0.0026234787286314974
744.0,0.002667163252316796
743.0,0.0027268438992936617
742.0,0.002806217026017014
741.0,0.002912777827147439
740.0,0.0030503143918952464
739.0,0.0032162971663866726
738.0,0.0034083908038322064
737.0,0.003626667910941182
736.0,0.0038667858869723248
735.0,0.00411831055811757
734.0,0.004373903856466484
733.0,0.004634188431302035
732.0,0.004900485535075871
731.0,0.005170035086831179
730.0,0.005441948370267484
729.0,0.005719657308574924
728.0,0.0060018105124899305
727.0,0.006276288064490154
726.0,0.006525473323277471
725.0,0.006729963273439539
724.0,0.0068661179836985355
723.0,0.006911352854035576
722.0,0.006858618239556026
721.0,0.006723033268039672
720.0,0.006533364824870226
719.0,0.0063189446018479395
718.0,0.006103471351228393
717.0,0.005905001217197538
716.0,0.0057349406968000925
715.0,0.005594873384700411
714.0,0.005476192504533937
713.0,0.005364371045555189
712.0,0.0052453518396805895
711.0,0.005112578721391234
710.0,0.0049710557307104
709.0,0.004832547999384793
708.0,0.004705683943712276
707.0,0.004593108679583082
706.0,0.004496862978939818
705.0,0.004420128761412675
704.0,0.004361627919867996
703.0,0.004313571814346708
702.0,0.0042678258947394625
701.0,0.004219776465704714
700.0,0.0041643524953578264
699.0,0.00409510960769917
698.0,0.004012114969101572
697.0,0.0039255870381500095
696.0,0.0038471403075307853
695.0,0.0037810539060056337
694.0,0.0037270681074901895
693.0,0.003686259692831686
692.0,0.003658724611256577
691.0,0.003639477814673192
690.0,0.0036224568086782307
689.0,0.0036056307619252827
688.0,0.0035877180008092747
687.0,0.0035645218695454627
686.0,0.003535167433931648
685.0,0.0035079349973914037
684.0,0.003492921109172105
683.0,0.003491386773374035
682.0,0.0034968246944463207
681.0,0.003502747667176338
680.0,0.0035054052506555793
679.0,0.00350195645262667
678.0,0.0034910528792357525
677.0,0.0034737719734607856
676.0,0.0034513281989570366
675.0,0.003424495230340081
674.0,0.0033967822068277677
673.0,0.003374001574047613
672.0,0.003358146784381971
671.0,0.003345064720070539
670.0,0.0033288114866424877
669.0,0.003307988682977634
668.0,0.003288128744579329
667.0,0.0032766277001335803
666.0,0.0032704257039903716
665.0,0.003265169829210203
664.0,0.0032583620527766735
663.0,0.0032446912127478836
662.0,0.003222905232151535
661.0,0.0032014926827818218
660.0,0.003187917957288039
659.0,0.0031792116565606994
658.0,0.003168206518777237
657.0,0.0031531460401644637
656.0,0.0031357081382970553
655.0,0.0031161216557994073
654.0,0.0030954014361780765
653.0,0.0030767074460089595
652.0,0.003060954457013069
651.0,0.0030460973050498103
650.0,0.0030327299617446376
649.0,0.003024280524291793
648.0,0.0030188932884703803
647.0,0.003009363825325219
646.0,0.0029945113334479724
645.0,0.002981474102840217
644.0,0.0029737242694358257
643.0,0.002965589670618456
642.0,0.0029526817649049557
641.0,0.002938248086935001
640.0,0.0029231580149127485
639.0,0.0029002779228851404
638.0,0.0028671958414482794
637.0,0.002835521988794861
636.0,0.0028196361592688485
635.0,0.002823604518510752
634.0,0.002842601079076714
633.0,0.002868597282332028
632.0,0.002888444713988236
631.0,0.0028862791560921672
630.0,0.00285837156751745
629.0,0.002815911840995146
628.0,0.0027657375714071567
627.0,0.00270328328125245
626.0,0.002632160801633184
625.0,0.0025753172887441125
624.0,0.0025523550595140127
623.0,0.0025546728195018423
622.0,0.0025554191272248042
621.0,0.002539292464628011
620.0,0.0025078675015249444
619.0,0.0024644505767481457
618.0,0.002409284318646605
617.0,0.0023452357241090975
616.0,0.0022794539336186085
615.0,0.0022236400176664835
614.0,0.0021939404298042227
613.0,0.0022025185426757157
612.0,0.002245070049337535
611.0,0.0022991116545449984
610.0,0.0023416038088267775
609.0,0.0023659935061815084
608.0,0.002375062167992388
607.0,0.0023689721789316234
606.0,0.0023509196312119307
605.0,0.0023327008351035896
604.0,0.0023260964021321554
603.0,0.00233633186196715
602.0,0.0023632434435108393
601.0,0.002400042998070221
600.0,0.0024309785152632126
599.0,0.0024403903080126516
598.0,0.0024294076401286183
597.0,0.002409025445027888
596.0,0.002375731165844137
595.0,0.0023152320668889947
594.0,0.0022320124571841822
593.0,0.0021541913969416685
592.0,0.002104174236015428
591.0,0.0020799577864841056
590.0,0.00206523432162918
589.0,0.0020434563575364873
588.0,0.0019988230437459047
587.0,0.001925793787235417
586.0,0.0018447224678420655
585.0,0.0017837187664741004
584.0,0.0017428253558331684
583.0,0.001699325159674762
582.0,0.0016504882717949644
581.0,0.0016258376447624689
580.0,0.0016450571904499276
579.0,0.0016847506102042557
578.0,0.001702751251093015
577.0,0.001677252309876684
576.0,0.0016051019843959123
575.0,0.0014929511211756834
574.0,0.0013674881081991875
573.0,0.0012652480309490411
572.0,0.0012098670891712566
571.0,0.00120899896504475
570.0,0.0012567323467766703
569.0,0.0013315657427609802
568.0,0.00139463142267805
567.0,0.001408849676557215
566.0,0.0013780968428389797
565.0,0.0013402535212819486
564.0,0.0013141650923783593
563.0,0.0012832845386447798
562.0,0.0012332257611033992
561.0,0.0011814539560332043
560.0,0.0011565883500803016
559.0,0.001167401581721727
558.0,0.0012026592208414385
557.0,0.001246904057422373
556.0,0.0012805931683898156
555.0,0.0012795312707687728
554.0,0.0012397836961664807
553.0,0.001189337952824496
552.0,0.0011549662209569202
551.0,0.0011361362284036704
550.0,0.0011156895090995997
