cm-1,A
4000.0,-0.00018217543161144767
3999.0,-0.000156145595362736
3998.0,-0.00014347448462529453
3997.0,-0.00016559780885788775
3996.0,-0.00021452765367279292
3995.0,-0.0002603476046637316
3994.0,-0.00027324662780730136
3993.0,-0.0002426758135972121
3992.0,-0.00018426618487298561
3991.0,-0.00013074009156842413
3990.0,-0.00011031263831655109
3989.0,-0.00012040025447452229
3988.0,-0.00012647464169870384
3987.0,-9.338844587137175e-05
3986.0,-2.2911287371175926e-05
3985.0,4.580546314203113e-05
3984.0,7.393356814124367e-05
3983.0,5.684495080475818e-05
3982.0,2.5980111616655255e-05
3981.0,1.536132470154189e-05
3980.0,3.199599128283484e-05
3979.0,5.707363280347275e-05
3978.0,6.611085964619264e-05
3977.0,5.029663110027883e-05
3976.0,2.2447656169091376e-05
3975.0,8.482932893232042e-06
3974.0,2.999384316668e-05
3973.0,8.899898516837035e-05
3972.0,0.00017006091568354384
3971.0,0.00025258430605669966
3970.0,0.00031795022222480887
3969.0,0.00034844237184071406
3968.0,0.0003267590843488693
3967.0,0.0002497249478126771
3966.0,0.00014477135900483294
3965.0,6.466919057558857e-05
3964.0,5.703550387036512e-05
3963.0,0.00011874504212139704
3962.0,0.00018787560408895822
3961.0,0.00019689918120313968
3960.0,0.00013316371765671785
3959.0,5.14548665625455e-05
3958.0,1.7125343408779057e-05
3957.0,5.28511367056078e-05
3956.0,0.00013985326240960588
3955.0,0.00023837732064199571
3954.0,0.00031244472891111576
3953.0,0.00034052333807431
3952.0,0.000321649298172771
3951.0,0.0002738065086045974
3950.0,0.0002226547074472506
3949.0,0.00018875151216826182
3948.0,0.00016741605434238182
3947.0,0.0001376362019002088
3946.0,0.00010325399125351003
3945.0,9.796238871421321e-05
3944.0,0.0001495267868287472
3943.0,0.0002353879311268797
3942.0,0.00027461665458484476
3941.0,0.000221779517770462
3940.0,0.00014766898158783716
3939.0,0.00016199546399607925
3938.0,0.0002806834352549548
3937.0,0.00041751027500801577
3936.0,0.0004845911917667604
3935.0,0.0004676519703252901
3934.0,0.00041598683707769115
3933.0,0.0003846308191216121
3932.0,0.000394119035729194
3931.0,0.00041644621216039256
3930.0,0.0004239780978200348
3929.0,0.00042504291682986684
3928.0,0.00043073072316545617
3927.0,0.00045052481332756144
3926.0,0.0004900161127834525
3925.0,0.000523855232890376
3924.0,0.0004911610994684668
3923.0,0.00037502963923161667
3922.0,0.0002617108866861022
3921.0,0.00022403577450328446
3920.0,0.00024667201629587597
3919.0,0.00030771992706258395
3918.0,0.0004064642917742463
3917.0,0.0005125512752183242
3916.0,0.0005680336147720795
3915.0,0.000568484733357225
3914.0,0.0005903929043691693
3913.0,0.0006871624991078504
3912.0,0.0008224538764990434
3911.0,0.0009247247058332426
3910.0,0.0009352111501772253
3909.0,0.0008225387060029959
3908.0,0.0005858298901917467
3907.0,0.0002625183698570536
3906.0,-5.741647244686182e-05
3905.0,-0.000280171695684141
3904.0,-0.00038968782096135326
3903.0,-0.00045761764652667465
3902.0,-0.0004879575658800633
3901.0,-0.0003860563300273532
3900.0,-0.00014532741583762605
3899.0,9.189905808208634e-05
3898.0,0.00022157591415140985
3897.0,0.0002968553064393326
3896.0,0.0003846447687452228
3895.0,0.0004309092765879558
3894.0,0.00037522119547120847
3893.0,0.000311373749836506
3892.0,0.0003842461484563314
3891.0,0.0005022610599863479
3890.0,0.0004320793590494344
3889.0,0.00024079569761875337
3888.0,0.00019589468340610976
3887.0,0.0003442972399913726
3886.0,0.0005353744487798539
3885.0,0.0005326416475224752
3884.0,0.00023078525716806707
3883.0,-7.040196121993036e-05
3882.0,-5.330497515290667e-05
3881.0,0.00021633382717873477
3880.0,0.00045595166329244225
3879.0,0.0004319966559209001
3878.0,0.000257644864629369
3877.0,0.00025073214818713534
3876.0,0.0004632648391256957
3875.0,0.0006948411554303993
3874.0,0.0007215566655714282
3873.0,0.0004342385662129645
3872.0,2.2796464986299956e-05
3871.0,-0.00015990151537198516
3870.0,-1.2932551689467334e-05
3869.0,0.00013852697163476454
3868.0,4.591611675727118e-05
3867.0,-3.3918820744572534e-05
3866.0,8.684508071033804e-05
3865.0,0.0002462816792589966
3864.0,0.00034806636856325995
3863.0,0.0004181856943786255
3862.0,0.0004946131462116054
3861.0,0.0005896387401216245
3860.0,0.0006376958836493752
3859.0,0.0005800667408066805
3858.0,0.0004025990424713381
3857.0,8.959964883787394e-05
3856.0,-0.00031223872204799025
3855.0,-0.0005920860385241773
3854.0,-0.0004188340569073719
3853.0,-8.663175958203788e-05
3852.0,-0.0003069526278264385
3851.0,-0.0006532870229452463
3850.0,-0.0003405693984164487
3849.0,0.0003320716569414446
3848.0,0.0007608272344745508
3847.0,0.0008490811775422793
3846.0,0.0007802776494460675
3845.0,0.0006972131095592127
3844.0,0.0006177084610091386
3843.0,0.0004724626128000619
3842.0,0.00021440339516241836
3841.0,-6.334248870764605e-05
3840.0,-0.00018570714749201905
3839.0,-8.639643327147304e-05
3838.0,8.663447608810984e-05
3837.0,0.00012807807558925318
3836.0,4.8228271053485415e-05
3835.0,3.9341559895993096e-05
3834.0,0.00021134895752834468
3833.0,0.0004941475362978936
3832.0,0.0007441728548902757
3831.0,0.0008385353610180649
3830.0,0.0007802806730130086
3829.0,0.0007116684617180747
3828.0,0.0007539970912566136
3827.0,0.000862972933185842
3826.0,0.0008561064595448541
3825.0,0.0006100070229334551
3824.0,0.0002539538098820593
3823.0,5.1489793589965926e-05
3822.0,0.00020972822060042265
3821.0,0.0006123770199950381
3820.0,0.0006861434995611006
3819.0,0.00034565636261707066
3818.0,0.00020799042219660962
3817.0,0.0004958246542074714
3816.0,0.0008898658094405633
3815.0,0.001003992404115227
3814.0,0.0008233266019254349
3813.0,0.0007634593422759786
3812.0,0.0009384760096578398
3811.0,0.0010148662216185426
3810.0,0.0008443098703477979
3809.0,0.0006387458000904362
3808.0,0.0006490361129907118
3807.0,0.0008097043304851467
3806.0,0.0007421844185784192
3805.0,0.0003583852810310484
3804.0,4.230750520131275e-05
3803.0,7.407105928248147e-05
3802.0,0.00043747528828866605
3801.0,0.0007711811388430197
3800.0,0.000625392513033951
3799.0,0.00029399562469688495
3798.0,0.0003539234594408828
3797.0,0.0007506115141080421
3796.0,0.0011154910502755738
3795.0,0.0012504137301936379
3794.0,0.0012409047297851357
3793.0,0.001273360500495346
3792.0,0.0013568164252239913
3791.0,0.0013875621301659815
3790.0,0.0013338074959040025
3789.0,0.00123865179519487
3788.0,0.0011425563630455874
3787.0,0.001080458987087837
3786.0,0.0010857062940447665
3785.0,0.001145223014590649
3784.0,0.0011713020287899513
3783.0,0.0010991452631978044
3782.0,0.0009836078047831811
3781.0,0.0009297995282589577
3780.0,0.0009866263556639774
3779.0,0.0011008328977422026
3778.0,0.0011591686780643758
3777.0,0.0011722345632738025
3776.0,0.0012401811364834347
3775.0,0.0013268989560444146
3774.0,0.0013050457324674265
3773.0,0.0011572315476121513
3772.0,0.001017882316502022
3771.0,0.0010140670784005417
3770.0,0.0010983002543233145
3769.0,0.0010898451527055477
3768.0,0.0009591676491738322
3767.0,0.0008896201853761335
3766.0,0.0009771891935623335
3765.0,0.0010952628797584458
3764.0,0.0010887497694508082
3763.0,0.0009929265273649337
3762.0,0.000954339440408087
3761.0,0.0009997458763233457
3760.0,0.001058424535362239
3759.0,0.0010677711343788873
3758.0,0.0009843940885460294
3757.0,0.0008138149304862566
3756.0,0.0006102893602330773
3755.0,0.00041015510092406115
3754.0,0.00020106579192961894
3753.0,-3.8500049525473905e-05
3752.0,-0.00018284704658340736
3751.0,-7.152813687730914e-05
3750.0,0.00011348897918210532
3749.0,6.990632424498612e-05
3748.0,-0.0001420174296818959
3747.0,-0.00024325760465117373
3746.0,-9.284246486900992e-05
3745.0,0.00031375826347805114
3744.0,0.0006271881068798911
3743.0,0.0003726603262117357
3742.0,2.6994929719787505e-05
3741.0,0.0002718173881076486
3740.0,0.0007254976459581696
3739.0,0.0008054902966813976
3738.0,0.0005362636359822729
3737.0,0.00025642570180096154
3736.0,0.00019682507378203113
3735.0,0.0002635929156701352
3734.0,0.0002929347393139793
3733.0,0.0003718014346476876
3732.0,0.0005935039483133358
3731.0,0.0008052409988100824
3730.0,0.0008906828973656027
3729.0,0.0009171773103296976
3728.0,0.0009544683935654354
3727.0,0.0010226034041632627
3726.0,0.001120633800223665
3725.0,0.0012153456128446176
3724.0,0.0012986647784890468
3723.0,0.0013690150774983696
3722.0,0.0013860035068837262
3721.0,0.0013446136609311953
3720.0,0.001309851124250836
3719.0,0.0013511278822704539
3718.0,0.0014389893062717921
3717.0,0.0014522577309626244
3716.0,0.001296489590010102
3715.0,0.000992916356775711
3714.0,0.0006599006917888646
3713.0,0.00047802922738476167
3712.0,0.0006231502085851143
3711.0,0.0009730145198297226
3710.0,0.0011954039555309185
3709.0,0.0012559337617567778
3708.0,0.0013361344785575483
3707.0,0.00148176452457662
3706.0,0.0016210284618172754
3705.0,0.001711167298049347
3704.0,0.0017701314051454405
3703.0,0.00182236017429284
3702.0,0.0018625311206385059
3701.0,0.0018454782741326682
3700.0,0.0017704692207282102
3699.0,0.0017580183353827997
3698.0,0.0019086575044948467
3697.0,0.0021521583487691892
3696.0,0.002329243198739344
3695.0,0.0023620572946224513
3694.0,0.0022924083228927136
3693.0,0.0021735152220785773
3692.0,0.0020160668878931557
3691.0,0.001876116701184692
3690.0,0.001865358263805982
3689.0,0.002001966476377877
3688.0,0.0021451293942989142
3687.0,0.0022342253548777407
3686.0,0.0024124491997271186
3685.0,0.0027133069258582854
3684.0,0.002940263352961706
3683.0,0.002951154815493062
3682.0,0.002828206231915862
3681.0,0.002739629727721623
3680.0,0.002706120909290518
3679.0,0.002588922684623008
3678.0,0.0023576980318214943
3677.0,0.002221977764992104
3676.0,0.002440196349297782
3675.0,0.002725189579126973
3674.0,0.002541746129814495
3673.0,0.002249784513890286
3672.0,0.0024028802188119577
3671.0,0.002878984988776862
3670.0,0.0034162999902201483
3669.0,0.003715269253447704
3668.0,0.0037023730961743056
3667.0,0.0037954558868985447
3666.0,0.0041702882413848395
3665.0,0.0045884689334234514
3664.0,0.004869090324847232
3663.0,0.0050111477482337186
3662.0,0.005084757416349523
3661.0,0.005121861638676867
3660.0,0.005119087355261282
3659.0,0.005102741846724467
3658.0,0.005168540672607542
3657.0,0.0053930723513237
3656.0,0.00565781525323388
3655.0,0.00570401303457212
3654.0,0.005521981755745535
3653.0,0.005308377151068046
3652.0,0.005111779442115297
3651.0,0.005021242721002159
3650.0,0.005300444425464892
3649.0,0.005823193953781054
3648.0,0.006144548149591084
3647.0,0.0062955087917836655
3646.0,0.006550255334459201
3645.0,0.006948681349452819
3644.0,0.007396431208643653
3643.0,0.0078060783509656395
3642.0,0.008141654845744091
3641.0,0.008398281919339
3640.0,0.008601184890827217
3639.0,0.008783927659041898
3638.0,0.00893578674953142
3637.0,0.009020008147991415
3636.0,0.009068580874213734
3635.0,0.009143400240647383
3634.0,0.00921975341262316
3633.0,0.009188839225292112
3632.0,0.009037888175734247
3631.0,0.008915206591491703
3630.0,0.009063190992947143
3629.0,0.009586028053421378
3628.0,0.010010454146614778
3627.0,0.010064443819296545
3626.0,0.01029539464444197
3625.0,0.010905374943339527
3624.0,0.011477232839454952
3623.0,0.011753607152279686
3622.0,0.011821766471226956
3621.0,0.011888713154011974
3620.0,0.012074118261525343
3619.0,0.012328786294599034
3618.0,0.01251232628511881
3617.0,0.012644594219644605
3616.0,0.012871066587229961
3615.0,0.013199768272477569
3614.0,0.013513758229459426
3613.0,0.013721512347009768
3612.0,0.01381913781451458
3611.0,0.013908706539118153
3610.0,0.014117996847707384
3609.0,0.014475563009105082
3608.0,0.014892334409995715
3607.0,0.015239396936403301
3606.0,0.015489394705441032
3605.0,0.015715939862873014
3604.0,0.015939074441228888
3603.0,0.01614009026027394
3602.0,0.016356369377477017
3601.0,0.016622383398534887
3600.0,0.016882833361068404
3599.0,0.01706430717299062
3598.0,0.017184729389805656
3597.0,0.017319323161660974
3596.0,0.017529727962947737
3595.0,0.017831260764075384
3594.0,0.018165079948000252
3593.0,0.01842818606785128
3592.0,0.018559549279807585
3591.0,0.01856941597194062
3590.0,0.018536257837532225
3589.0,0.018638105250779004
3588.0,0.019023609189399174
3587.0,0.019502055362244544
3586.0,0.019759879854438143
3585.0,0.019894750511666365
3584.0,0.02018526798678477
3583.0,0.020655124694037234
3582.0,0.02115033412843432
3581.0,0.021543011945525128
3580.0,0.021795870052165767
3579.0,0.021938759512141026
3578.0,0.022033518603530075
3577.0,0.022141281826407594
3576.0,0.022304352989193775
3575.0,0.02254185623920954
3574.0,0.02283581373887518
3573.0,0.023126776526611194
3572.0,0.023333670813533592
3571.0,0.023398994540825856
3570.0,0.02334203943558666
3569.0,0.02329572476475189
3568.0,0.02346559155170742
3567.0,0.023878040658529696
3566.0,0.024267066052547685
3565.0,0.02449167216229688
3564.0,0.02472111611062861
3563.0,0.025086079064865662
3562.0,0.025546092343424275
3561.0,0.026015615818122725
3560.0,0.026427449896258975
3559.0,0.026745490871410843
3558.0,0.026977218366067028
3557.0,0.02715233925595073
3556.0,0.0272914234187068
3555.0,0.027420690709363246
3554.0,0.02759126223104076
3553.0,0.027838077483190275
3552.0,0.02811031039810778
3551.0,0.02831395358445003
3550.0,0.028437485793965444
3549.0,0.028561754248006752
3548.0,0.02876299849145229
3547.0,0.029048698766510093
3546.0,0.02935952254254794
3545.0,0.029633388158483195
3544.0,0.029884868025725212
3543.0,0.030179030170718733
3542.0,0.030532177237065528
3541.0,0.030894918486554623
3540.0,0.031221598444283273
3539.0,0.0315257795869147
3538.0,0.0318598171378237
3537.0,0.03223448057915211
3536.0,0.03257403577876093
3535.0,0.03278378894091926
3534.0,0.03286210138910721
3533.0,0.03290622902377709
3532.0,0.03301676991249464
3531.0,0.033213733426162705
3530.0,0.033438788050488936
3529.0,0.0336242665521486
3528.0,0.033761967041484535
3527.0,0.033911218900975655
3526.0,0.03414332386112388
3525.0,0.034486155685516766
3524.0,0.0349054273799674
3523.0,0.03532625121746358
3522.0,0.03567918670143951
3521.0,0.0359436359573658
3520.0,0.036150570705006206
3519.0,0.03635041613871321
3518.0,0.036582887368044645
3517.0,0.03685798040725342
3516.0,0.037151804958994526
3515.0,0.03742116421058989
3514.0,0.03763334793295373
3513.0,0.0377955715488914
3512.0,0.03796088452843722
3511.0,0.03818433643184301
3510.0,0.03846161748528945
3509.0,0.03872387358786416
3508.0,0.03891266754360991
3507.0,0.03905213077133652
3506.0,0.03921810549359052
3505.0,0.03945307356697139
3504.0,0.03973721112967588
3503.0,0.040023718397113266
3502.0,0.04028771685800501
3501.0,0.040544140728153544
3500.0,0.04081552918734033
3499.0,0.04110537229413087
3498.0,0.041408392599111346
3497.0,0.04171411078386731
3496.0,0.0419974640617308
3495.0,0.042234501881190344
3494.0,0.04243214923214732
3493.0,0.04262267297388278
3492.0,0.042826761742722534
3491.0,0.043040723850696495
3490.0,0.04325936308864128
3489.0,0.043486689529958364
3488.0,0.04371829759522633
3487.0,0.043937859230629435
3486.0,0.04414281045513411
3485.0,0.044352207813332954
3484.0,0.044577642774336616
3483.0,0.04480786244412241
3482.0,0.045035129182711645
3481.0,0.045273589461715204
3480.0,0.045532484844014884
3479.0,0.04578930926425737
3478.0,0.046011981684829825
3477.0,0.0462008023646748
3476.0,0.046392236772676454
3475.0,0.04661970698437106
3474.0,0.04688355586648874
3473.0,0.047167157325762495
3472.0,0.0474634341922586
3471.0,0.047769294860009685
3470.0,0.04806531521172082
3469.0,0.048315068103973166
3468.0,0.048487569682059695
3467.0,0.04858641765356806
3466.0,0.048661376882672636
3465.0,0.04878205749859209
3464.0,0.04898342199861453
3463.0,0.04923329969131394
3462.0,0.049463956432975444
3461.0,0.04963956304873752
3460.0,0.04978878722967175
3459.0,0.04997424769506516
3458.0,0.05023573076144541
3457.0,0.050556712227617484
3456.0,0.05087403086180784
3455.0,0.05112128824568988
3454.0,0.05127776437451427
3453.0,0.05137690719572433
3452.0,0.0514660059748039
3451.0,0.051572835939655295
3450.0,0.05171786248914162
3449.0,0.05192339619196973
3448.0,0.05217769770942711
3447.0,0.05241109246103008
3446.0,0.05256635037216819
3445.0,0.052692927077515425
3444.0,0.052902354718704823
3443.0,0.053226145502022856
3442.0,0.053567800652326164
3441.0,0.05381137796333741
3440.0,0.053947030244570086
3439.0,0.054055612159536304
3438.0,0.054199304993768314
3437.0,0.054376323589259375
3436.0,0.05456416094784185
3435.0,0.05475551601946771
3434.0,0.054942786000018305
3433.0,0.05510059949372214
3432.0,0.055211931665777626
3431.0,0.05529875054497545
3430.0,0.0554044595224747
3429.0,0.055547681569292025
3428.0,0.055708886420529104
3427.0,0.0558598065901546
3426.0,0.055990057092317476
3425.0,0.05610981089965735
3424.0,0.05624027964248743
3423.0,0.0564006534582284
3422.0,0.05659081690473027
3421.0,0.056786134359599026
3420.0,0.05695793852422351
3419.0,0.05709403345655364
3418.0,0.05719020964777798
3417.0,0.05723732957280348
3416.0,0.05724249232478296
3415.0,0.0572553884793087
3414.0,0.05733932312166364
3413.0,0.057502860438723734
3412.0,0.057682532755577595
3411.0,0.05780879227781771
3410.0,0.05787589289076977
3409.0,0.05793430078841697
3408.0,0.058022226462930045
3407.0,0.058122750296321225
3406.0,0.05819107513467572
3405.0,0.058215003051716424
3404.0,0.05824213659825304
3403.0,0.058338291257513
3402.0,0.05851493796175366
3401.0,0.058713985401821676
3400.0,0.058875123601238734
3399.0,0.05899466444299841
3398.0,0.05909949749092808
3397.0,0.05918673502530471
3396.0,0.059228557198257585
3395.0,0.05923167246607924
3394.0,0.059245565916632305
3393.0,0.059294956327599575
3392.0,0.0593385068945953
3391.0,0.059321822276613555
3390.0,0.05924512909316177
3389.0,0.05914975510750543
3388.0,0.05906235573773969
3387.0,0.0589873951901201
3386.0,0.05894302162336311
3385.0,0.05896628395411625
3384.0,0.05907317193997963
3383.0,0.059236028692008884
3382.0,0.0594085652745617
3381.0,0.05955493633542413
3380.0,0.05965158248759162
3379.0,0.05968315921625079
3378.0,0.059652594799939514
3377.0,0.059585583584713206
3376.0,0.059510947146729894
3375.0,0.05943932616115105
3374.0,0.059368392009841404
3373.0,0.05930334241687346
3372.0,0.059261076879102266
3371.0,0.05925420559580552
3370.0,0.0592771004456886
3369.0,0.05930823617205194
3368.0,0.059321270440737234
3367.0,0.05929472649163926
3366.0,0.05922019599023285
3365.0,0.05910925458208878
3364.0,0.05899263485966692
3363.0,0.0589065990317126
3362.0,0.05887026638677947
3361.0,0.05886841843398324
3360.0,0.058859137607023854
3359.0,0.05880682405979561
3358.0,0.058709350963110994
3357.0,0.05859127065458519
3356.0,0.058477150635886016
3355.0,0.05837812004354304
3354.0,0.05829498443484433
3353.0,0.05821541390491831
3352.0,0.0581078667961624
3351.0,0.057943833161978764
3350.0,0.05774279963967012
3349.0,0.05757757087486527
3348.0,0.057507352809728164
3347.0,0.057509398856420424
3346.0,0.05750089549987188
3345.0,0.05743059861643466
3344.0,0.05732723182962523
3343.0,0.057245977712035
3342.0,0.05718642959267427
3341.0,0.057087393736981164
3340.0,0.05690053199613566
3339.0,0.05664954104504923
3338.0,0.0564085241284344
3337.0,0.05623310187339442
3336.0,0.056123235867188974
3335.0,0.05604702243870835
3334.0,0.05598200868313395
3333.0,0.05592240684609101
3332.0,0.05585781258679689
3331.0,0.055767955433883326
3330.0,0.05564810573457958
3329.0,0.05552620559309342
3328.0,0.055434609075237146
3327.0,0.05536320184206842
3326.0,0.05525847786110302
3325.0,0.055082153550747644
3324.0,0.05486094823107236
3323.0,0.05466197418062874
3322.0,0.05452462490740724
3321.0,0.05443371805224637
3320.0,0.05435506501986383
3319.0,0.05427094867574754
3318.0,0.05417067377677204
3317.0,0.054031272140631886
3316.0,0.05383746706192324
3315.0,0.05361820795719372
3314.0,0.053437047388737786
3313.0,0.05333319429968186
3312.0,0.05328120293051022
3311.0,0.05321614210404578
3310.0,0.05309065127548679
3309.0,0.05290496305381811
3308.0,0.05269763918885933
3307.0,0.05251892891294996
3306.0,0.052400705365720966
3305.0,0.052332623976705406
3304.0,0.05226655716777347
3303.0,0.05215695764383971
3302.0,0.052000156886682795
3301.0,0.05182924744267517
3300.0,0.05167546541612523
3299.0,0.05154459399115864
3298.0,0.051424608995300214
3297.0,0.05129773344558459
3296.0,0.05114505870307327
3295.0,0.05096028072478847
3294.0,0.050769138197669025
3293.0,0.05061956359856552
3292.0,0.050535118270442644
3291.0,0.05048454233960417
3290.0,0.05041403619175119
3289.0,0.05030611939320147
3288.0,0.05019036843381871
3287.0,0.05009640060319373
3286.0,0.050011436309982074
3285.0,0.04989129240617679
3284.0,0.049706971140092364
3283.0,0.0494747344262112
3282.0,0.049242993758802
3281.0,0.04905496400303509
3280.0,0.04892252184211959
3279.0,0.048828811625208364
3278.0,0.048749601173050966
3277.0,0.048668847785971484
3276.0,0.048574786682449224
3275.0,0.04845026240757105
3274.0,0.04828025974481245
3273.0,0.04807381984069284
3272.0,0.04787015008176684
3271.0,0.04771166773417426
3270.0,0.047608552508799674
3269.0,0.04753391131089876
3268.0,0.04745524383585139
3267.0,0.04736497109657983
3266.0,0.047273664063170656
3265.0,0.04717796790092526
3264.0,0.04705139621459033
3263.0,0.046875160884870544
3262.0,0.04666718035695623
3261.0,0.0464680644003162
3260.0,0.046301300191568494
3259.0,0.04615903183110344
3258.0,0.04602510051595629
3257.0,0.04589389202735134
3256.0,0.04576037679834412
3255.0,0.0456137944221989
3254.0,0.04545925195466018
3253.0,0.0453285020560492
3252.0,0.045242829180603086
3251.0,0.045170326553757065
3250.0,0.0450474476473023
3249.0,0.044849990798435074
3248.0,0.044623703811288516
3247.0,0.04443360771455961
3246.0,0.04429705475718353
3245.0,0.04417742134755198
3244.0,0.044031643155664546
3243.0,0.04384903337831012
3242.0,0.04365032236677861
3241.0,0.043466516209965944
3240.0,0.04331675698956745
3239.0,0.0431925814459232
3238.0,0.043064742406461916
3237.0,0.04291506803105534
3236.0,0.04275649554893098
3235.0,0.04261049426891765
3234.0,0.04247049288058768
3233.0,0.04230436926689845
3232.0,0.042096435690906146
3231.0,0.041874193405424566
3230.0,0.04168757420096742
3229.0,0.04156822120758656
3228.0,0.04150809484382817
3227.0,0.04146581600029163
3226.0,0.0413921170105334
3225.0,0.04126252211403589
3224.0,0.04109448692225185
3223.0,0.040926381419653324
3222.0,0.040772829720452375
3221.0,0.04060820247496081
3220.0,0.04040215785738618
3219.0,0.040162070925596614
3218.0,0.03992515608903892
3217.0,0.03971297339391782
3216.0,0.03951136543610877
3215.0,0.03930092418680981
3214.0,0.03909417619261558
3213.0,0.03892700713103331
3212.0,0.03881374536946206
3211.0,0.03872407944472646
3210.0,0.03860996910800144
3209.0,0.0384487185213719
3208.0,0.03825264066702799
3207.0,0.03804095083098609
3206.0,0.037816947244364574
3205.0,0.037579852365745875
3204.0,0.03734636316298291
3203.0,0.037141991761966434
3202.0,0.03696961248611241
3201.0,0.036803211591921056
3200.0,0.036621418901496575
3199.0,0.03643549421493733
3198.0,0.03627035110143142
3197.0,0.03612435429324471
3196.0,0.03596694921184185
3195.0,0.035778786829968566
3194.0,0.035576122472516784
3193.0,0.035387274490381065
3192.0,0.03521754370485181
3191.0,0.03504661692511096
3190.0,0.03485140382269083
3189.0,0.03462022630637352
3188.0,0.034352616700925834
3187.0,0.03406205667336535
3186.0,0.033778758970805775
3185.0,0.033533801328128846
3184.0,0.03333113021631761
3183.0,0.03314209128857709
3182.0,0.03293420907764916
3181.0,0.032700987322586174
3180.0,0.032461148530176814
3179.0,0.03223574564521833
3178.0,0.03202890513600022
3177.0,0.03182715110993161
3176.0,0.031617662194754835
3175.0,0.031410277507487316
3174.0,0.031236701135741278
3173.0,0.031117541706516642
3172.0,0.03102934874760821
3171.0,0.030914858806152662
3170.0,0.03073056827163851
3169.0,0.030479515750260533
3168.0,0.03019936467160922
3167.0,0.02993028915136253
3166.0,0.029694989510451113
3165.0,0.029491562021722786
3164.0,0.029295322498171184
3163.0,0.029082081718214022
3162.0,0.028862506228442785
3161.0,0.02868087159162398
3160.0,0.02856383366613245
3159.0,0.028478940369399873
3158.0,0.028359644186827924
3157.0,0.02816784204789697
3156.0,0.02792127431359449
3155.0,0.027666079492227044
3154.0,0.027438474736114164
3153.0,0.027249196225216564
3152.0,0.027085588144548634
3151.0,0.026923772434326254
3150.0,0.0267499939280511
3149.0,0.026574517547793206
3148.0,0.02641900767838378
3147.0,0.026291002456674144
3146.0,0.026177247369225654
3145.0,0.026057161959421503
3144.0,0.02591081898017171
3143.0,0.025718116054573338
3142.0,0.025470099447282256
3141.0,0.025188692926358815
3140.0,0.024922943620916873
3139.0,0.024713795588922415
3138.0,0.024564627431822847
3137.0,0.024449633094865676
3136.0,0.024341538257381057
3135.0,0.024223078445881795
3134.0,0.024081915228232307
3133.0,0.023910427244083765
3132.0,0.023714500738270267
3131.0,0.02351641663510328
3130.0,0.023343394299866725
3129.0,0.023208333601262263
3128.0,0.023096143103024446
3127.0,0.0229715999052138
3126.0,0.022810859996271516
3125.0,0.022625742463215415
3124.0,0.022449086214859783
3123.0,0.022296783665145595
3122.0,0.022152748964549596
3121.0,0.02199332455755253
3120.0,0.021817594655669223
3119.0,0.0216469975312588
3118.0,0.021502052113043412
3117.0,0.021387609311470324
3116.0,0.021295405362925495
3115.0,0.02121131225893243
3114.0,0.021119840455801068
3113.0,0.02100727730531503
3112.0,0.020864297670954064
3111.0,0.020689388403183826
3110.0,0.020495923219408747
3109.0,0.02031491269373182
3108.0,0.02017923031876677
3107.0,0.020095688683098672
3106.0,0.02003467159918271
3105.0,0.019952182990333824
3104.0,0.019823126411534994
3103.0,0.019654141253309054
3102.0,0.01947077350723564
3101.0,0.01929949577579928
3100.0,0.019159502610271224
3099.0,0.019059844977008338
3098.0,0.018994484814456727
3097.0,0.018941582668583905
3096.0,0.01887232911057936
3095.0,0.01876388010024055
3094.0,0.018610306599112624
3093.0,0.018428897481909703
3092.0,0.01825502641573899
3091.0,0.01811855526511956
3090.0,0.018017317196324715
3089.0,0.017921626687095845
3088.0,0.01781199948826388
3087.0,0.017706050356512217
3086.0,0.017636541417384546
3085.0,0.01760506423883183
3084.0,0.017571772317072135
3083.0,0.01749215646104721
3082.0,0.017357002781979162
3081.0,0.017197205551941715
3080.0,0.017057772331219936
3079.0,0.016966324638437325
3078.0,0.0169133823021399
3077.0,0.016858762076922593
3076.0,0.016765081179335208
3075.0,0.016631936141197318
3074.0,0.01649484774903216
3073.0,0.01638612323977713
3072.0,0.016303331300724175
3071.0,0.016218912047130475
3070.0,0.016110838113184006
3069.0,0.015976414882995556
3068.0,0.015825134700097453
3067.0,0.01567426925171357
3066.0,0.015550001022133584
3065.0,0.015476282144104087
3064.0,0.015453560519827055
3063.0,0.015453173821466323
3062.0,0.015439573349545644
3061.0,0.015396012837868251
3060.0,0.01532530662153862
3059.0,0.015229471748745362
3058.0,0.015097369795294687
3057.0,0.014922728378890835
3056.0,0.014730130922154257
3055.0,0.014566711181244087
3054.0,0.014459934455771952
3053.0,0.01439247376708828
3052.0,0.01432922810842989
3051.0,0.014259288142442157
3050.0,0.01419504716459179
3049.0,0.014136434626998456
3048.0,0.014058661824653394
3047.0,0.013946214279092478
3046.0,0.013818665998613767
3045.0,0.013710334810940136
3044.0,0.013635998034506176
3043.0,0.013586023735080423
3042.0,0.013544444374938425
3041.0,0.013496298877440539
3040.0,0.013427130169041618
3039.0,0.013334075226172982
3038.0,0.013238797876214372
3037.0,0.013172966578747407
3036.0,0.013145583769012424
3035.0,0.01313261018568562
3034.0,0.013101199692618163
3033.0,0.013040443071506515
3032.0,0.012964901291500863
3031.0,0.012895660841108266
3030.0,0.01284255243806556
3029.0,0.012803057777055626
3028.0,0.012774427530753118
3027.0,0.012760854170228018
3026.0,0.012764791186993947
3025.0,0.012771178836960047
3024.0,0.012751519051221544
3023.0,0.01269160663794956
3022.0,0.012604964303495792
3021.0,0.012512875354812174
3020.0,0.012421646088067995
3019.0,0.012336872564594021
3018.0,0.012284925490364008
3017.0,0.012293307605733146
3016.0,0.012344612914398157
3015.0,0.012379730545634517
3014.0,0.012359707838693994
3013.0,0.012308256163877674
3012.0,0.012276949307278266
3011.0,0.012280183405890398
3010.0,0.012288086529410642
3009.0,0.012275339452863496
3008.0,0.012256516968720965
3007.0,0.012263542761613191
3006.0,0.012305041453550547
3005.0,0.012359054447050396
3004.0,0.01240185642953667
3003.0,0.012434343962640974
3002.0,0.012475712895866844
3001.0,0.012539095895870359
3000.0,0.012619234217835285
2999.0,0.012703810969578495
2998.0,0.012789201820100623
2997.0,0.01288249127980817
2996.0,0.012991123795132413
2995.0,0.013115043319021498
2994.0,0.013250529908020042
2993.0,0.013400185878373945
2992.0,0.013579591921652388
2991.0,0.013812800718829179
2990.0,0.014117155436857655
2989.0,0.014485614417632384
2988.0,0.01488581139376402
2987.0,0.015285375904816462
2986.0,0.015684029694733297
2985.0,0.016122079744966433
2984.0,0.016654530720202624
2983.0,0.017318459453382944
2982.0,0.018122150668273822
2981.0,0.019059105172747746
2980.0,0.020125686715194838
2979.0,0.02132679539823842
2978.0,0.02267616593347319
2977.0,0.024198404880087707
2976.0,0.025927502402920872
2975.0,0.027898189643739853
2974.0,0.030139707869072788
2973.0,0.0326822839171383
2972.0,0.03556334250241822
2971.0,0.03881518275242466
2970.0,0.042439985953444614
2969.0,0.04640859749632192
2968.0,0.05068535418394662
2967.0,0.05523850224940086
2966.0,0.06000578475593662
2965.0,0.06485280630570796
2964.0,0.06956950077588668
2963.0,0.07390883008760238
2962.0,0.0776420440382258
2961.0,0.08063502186989524
2960.0,0.08292470364703675
2959.0,0.08474139217384868
2958.0,0.08645693583518842
2957.0,0.08847869360445336
2956.0,0.09111934602418169
2955.0,0.09449487820523673
2954.0,0.0984756951559655
2953.0,0.102708161515842
2952.0,0.10665167064192232
2951.0,0.10961831946981433
2950.0,0.11089249384810246
2949.0,0.10995234473214369
2948.0,0.10670035334850582
2947.0,0.10149691122247641
2946.0,0.09500490753455734
2945.0,0.08800316091738646
2944.0,0.08124136160421674
2943.0,0.0753213349257549
2942.0,0.07061655991233834
2941.0,0.0672695148148018
2940.0,0.06526625780080587
2939.0,0.06452290291408713
2938.0,0.06493175974846367
2937.0,0.06637775625301207
2936.0,0.06875841098628054
2935.0,0.07200260771092193
2934.0,0.07605096063152543
2933.0,0.08082747267380876
2932.0,0.08623945729796362
2931.0,0.0921941427666924
2930.0,0.09859159637878372
2929.0,0.1052980164354965
2928.0,0.11216047041192852
2927.0,0.11904411360813845
2926.0,0.12586225326961692
2925.0,0.13260415772012318
2924.0,0.1393479621617064
2923.0,0.1461869865628541
2922.0,0.153107028447361
2921.0,0.1598964932182811
2920.0,0.1661421091565895
2919.0,0.1712535342013723
2918.0,0.17450276331956166
2917.0,0.17521069835324884
2916.0,0.17305626118089504
2915.0,0.16828238167535775
2914.0,0.16160663725087765
2913.0,0.15395716842984408
2912.0,0.14618454482661578
2911.0,0.13885705745202626
2910.0,0.1322359488006954
2909.0,0.12633926526902514
2908.0,0.1210458364418299
2907.0,0.11616665560071586
2906.0,0.11152752553101983
2905.0,0.10702949850621148
2904.0,0.10264901434687064
2903.0,0.09838851721985178
2902.0,0.09424314249944603
2901.0,0.09021621266084852
2900.0,0.08634145411292769
2899.0,0.08266467978923787
2898.0,0.07922101992155448
2897.0,0.07604022519687133
2896.0,0.07316525073900514
2895.0,0.0706446487307354
2894.0,0.06850613663066896
2893.0,0.06674549352099597
2892.0,0.06534213553253564
2891.0,0.06427298118382302
2890.0,0.06350876889904448
2889.0,0.06300254825075619
2888.0,0.06269478398601165
2887.0,0.06254496189064512
2886.0,0.06255740920193008
2885.0,0.06277705001671269
2884.0,0.06325102881317556
2883.0,0.06399277658166583
2882.0,0.06496634690107919
2881.0,0.06608254347700385
2880.0,0.06719763624794378
2879.0,0.06812368539520078
2878.0,0.06867662589668216
2877.0,0.06875907675568443
2876.0,0.06842250295433715
2875.0,0.06786957038852637
2874.0,0.06737254519082571
2873.0,0.0671823777317322
2872.0,0.0674337471238881
2871.0,0.06811251171863067
2870.0,0.06906327344645463
2869.0,0.07002553287016566
2868.0,0.07064361421297743
2867.0,0.07050926375890607
2866.0,0.06926206655616185
2865.0,0.06675970964546976
2864.0,0.06317957670855662
2863.0,0.0589964614764836
2862.0,0.05480609996031564
2861.0,0.051159154494954555
2860.0,0.048417726744517095
2859.0,0.04672171901169104
2858.0,0.04604435892570773
2857.0,0.04629677035957236
2856.0,0.04736917369354968
2855.0,0.04913179992912318
2854.0,0.05141264776734261
2853.0,0.05397537206112594
2852.0,0.05647891422404919
2851.0,0.05847535730391536
2850.0,0.05954142313524101
2849.0,0.05953577633487225
2848.0,0.0587454012718684
2847.0,0.05777522129654079
2846.0,0.05722258469087462
2845.0,0.057452246946484736
2844.0,0.058536982786859044
2843.0,0.06032755189832232
2842.0,0.06251232935592084
2841.0,0.06469507063294462
2840.0,0.06644721683725188
2839.0,0.06735307620909865
2838.0,0.0670423733717166
2837.0,0.06526686691086431
2836.0,0.061998423834960695
2835.0,0.057483746663973954
2834.0,0.05217087150699259
2833.0,0.04660299831244578
2832.0,0.041269621787605286
2831.0,0.03652189392786989
2830.0,0.03252490530613072
2829.0,0.029279813954207402
2828.0,0.026682848159708148
2827.0,0.02459223235805205
2826.0,0.022879398128282314
2825.0,0.02145246901853982
2824.0,0.020253905073687174
2823.0,0.01924503362748312
2822.0,0.01839239978918997
2821.0,0.017659608536418517
2820.0,0.017013799257603695
2819.0,0.016432561978734377
2818.0,0.01590718656025773
2817.0,0.015438679479129951
2816.0,0.015032243908657171
2815.0,0.01468452319710104
2814.0,0.014371053016572172
2813.0,0.014052675139832401
2812.0,0.013706591810532036
2811.0,0.013350306920864264
2810.0,0.01302110292574556
2809.0,0.012727857327644523
2808.0,0.012439297640607494
2807.0,0.012124073394362944
2806.0,0.011786792394955083
2805.0,0.011452135393191032
2804.0,0.011127390741926977
2803.0,0.01080350514880821
2802.0,0.010488741926082557
2801.0,0.0102147758420914
2800.0,0.010002705016086189
2799.0,0.009840019278596367
2798.0,0.009701381491506875
2797.0,0.009576498262249817
2796.0,0.009463988216815562
2795.0,0.009349570861145542
2794.0,0.009208532325046355
2793.0,0.0090313226987145
2792.0,0.008832559654215415
2791.0,0.00863315710807506
2790.0,0.008443236827575536
2789.0,0.008265712410459515
2788.0,0.00810486628446136
2787.0,0.007961109580446386
2786.0,0.007823275308627494
2785.0,0.007676968574279103
2784.0,0.007521513975586251
2783.0,0.007372515789179548
2782.0,0.007244904923982443
2781.0,0.007136948068140288
2780.0,0.007033452433581056
2779.0,0.006922184732704203
2778.0,0.006804576859284828
2777.0,0.00669400496891313
2776.0,0.006606651137231937
2775.0,0.006549331118881657
2774.0,0.006512209407585326
2773.0,0.0064741437781214856
2772.0,0.00641993010108969
2771.0,0.0063546961119449645
2770.0,0.006298275245324224
2769.0,0.006263677152215634
2768.0,0.006244865509672999
2767.0,0.006226296415804452
2766.0,0.006200373887629423
2765.0,0.006172633901038193
2764.0,0.006150418288996238
2763.0,0.006129384724377929
2762.0,0.006094367912332723
2761.0,0.006035828199689983
2760.0,0.00596528231882671
2759.0,0.0059088884852114085
2758.0,0.005883068672452217
2757.0,0.0058802071140891575
2756.0,0.005881438648373593
2755.0,0.005876388613129821
2754.0,0.0058644107062297175
2753.0,0.005842654911050837
2752.0,0.0058050874369811965
2751.0,0.005753998219725564
2750.0,0.005702910103858205
2749.0,0.005665071303117691
2748.0,0.0056455631731648186
2747.0,0.005644832879505688
2746.0,0.0056609640151328924
2745.0,0.005686608361518422
2744.0,0.005712559331322778
2743.0,0.005738098989525265
2742.0,0.005771132223806649
2741.0,0.005815168968267971
2740.0,0.005862705531265559
2739.0,0.005906061052773129
2738.0,0.005948363603435534
2737.0,0.0059983889832054
2736.0,0.006058711396715532
2735.0,0.006122470084213545
2734.0,0.00618040267690597
2733.0,0.006230404147009592
2732.0,0.006283536123293006
2731.0,0.006359550497938712
2730.0,0.006470215870626938
2729.0,0.00660721617693447
2728.0,0.006751676694616002
2727.0,0.006891537477912909
2726.0,0.007020972793840156
2725.0,0.007126534642927558
2724.0,0.007187551552350961
2723.0,0.007193345422837393
2722.0,0.0071480643871468085
2721.0,0.007056723688400198
2720.0,0.0069195652447737056
2719.0,0.006745182823275077
2718.0,0.006555345048947235
2717.0,0.0063685451872031885
2716.0,0.006190543418258851
2715.0,0.006027738311724566
2714.0,0.005897327069172761
2713.0,0.005810392791779697
2712.0,0.005751968369386226
2711.0,0.005690405926800716
2710.0,0.005605884701584926
2709.0,0.005502291511649042
2708.0,0.005398168197634696
2707.0,0.005312321810782463
2706.0,0.005251877779138997
2705.0,0.005206027941047294
2704.0,0.005157489907682078
2703.0,0.005105677133935596
2702.0,0.005068373018285673
2701.0,0.005053933851273979
2700.0,0.005043986656664312
2699.0,0.0050156547697343635
2698.0,0.004969339519672326
2697.0,0.004920147867673591
2696.0,0.004872974056386607
2695.0,0.004824369514453487
2694.0,0.0047828205597833994
2693.0,0.004764591755763337
2692.0,0.004768924654040843
2691.0,0.0047758018259198565
2690.0,0.004772240542371045
2689.0,0.004765851037146804
2688.0,0.004768007577485208
2687.0,0.004777144318555666
2686.0,0.004785584376994355
2685.0,0.004790693298759052
2684.0,0.004791563696608358
2683.0,0.004782863521176435
2682.0,0.0047612611438962865
2681.0,0.004734346358279105
2680.0,0.004716536682546757
2679.0,0.004716604170868404
2678.0,0.004730669498179351
2677.0,0.004745719410807451
2676.0,0.004750243235597718
2675.0,0.004744266425662861
2674.0,0.004738692365463533
2673.0,0.0047419591009676566
2672.0,0.004749275564220401
2671.0,0.004748785355531162
2670.0,0.004735822704983231
2669.0,0.004716743700040692
2668.0,0.004701633332638943
2667.0,0.004699540740084104
2666.0,0.004717949548124402
2665.0,0.004757736828383706
2664.0,0.0048079193302665675
2663.0,0.004852130056996174
2662.0,0.0048827798095270065
2661.0,0.004905278498629167
2660.0,0.004927883803420577
2659.0,0.004951985058386868
2658.0,0.004971847021157239
2657.0,0.00497913702917992
2656.0,0.004966834742103417
2655.0,0.004932894838835399
2654.0,0.004881178165143605
2653.0,0.004816925242238652
2652.0,0.004742524443166531
2651.0,0.004661278620812925
2650.0,0.004583574833545709
2649.0,0.004523246859968405
2648.0,0.004486352715074637
2647.0,0.004466491984127653
2646.0,0.004451428153256635
2645.0,0.004432683958112225
2644.0,0.0044088147586710145
2643.0,0.004381057458985498
2642.0,0.004345899154817427
2641.0,0.004294058508847969
2640.0,0.004221601149077411
2639.0,0.004141812309301654
2638.0,0.004078397269815048
2637.0,0.004044744343224284
2636.0,0.004035992583556541
2635.0,0.004042221584646207
2634.0,0.00405872831628008
2633.0,0.004076646317370741
2632.0,0.00407628534318186
2631.0,0.004043011011514132
2630.0,0.003986286410986149
2629.0,0.003933567801748079
2628.0,0.003905815001554844
2627.0,0.0039036831840280747
2626.0,0.003911996851776846
2625.0,0.003911530696311463
2624.0,0.0038929719101206198
2623.0,0.003866282213320504
2622.0,0.003852172160015912
2621.0,0.003859102267312793
2620.0,0.0038742782660304157
2619.0,0.0038815024301731204
2618.0,0.003877351256929314
2617.0,0.0038637039045896215
2616.0,0.0038365844960039867
2615.0,0.003793384048073783
2614.0,0.0037423446365954256
2613.0,0.0036940792803098104
2612.0,0.0036521933630929877
2611.0,0.003620441653221943
2610.0,0.0036066592977244093
2609.0,0.003606849203962397
2608.0,0.0035977548230345527
2607.0,0.0035603323362036927
2606.0,0.003500405574994229
2605.0,0.0034325357199397003
2604.0,0.0033564619845892775
2603.0,0.0032686995659024806
2602.0,0.003186412779978661
2601.0,0.003135784939055775
2600.0,0.0031212501513756597
2599.0,0.0031262181821781463
2598.0,0.0031384634446263984
2597.0,0.003154195736296264
2596.0,0.0031635672050917742
2595.0,0.003156458534693288
2594.0,0.0031423396321264728
2593.0,0.0031428653187577627
2592.0,0.003164942890145407
2591.0,0.0032003544318082106
2590.0,0.0032486963621410807
2589.0,0.003314802255912918
2588.0,0.003380900684771855
2587.0,0.003409366119997155
2586.0,0.0033850093765177844
2585.0,0.003336486282375033
2584.0,0.003305650005816209
2583.0,0.0033092580108179176
2582.0,0.003337479686066605
2581.0,0.0033732956154836568
2580.0,0.0033988783728627304
2579.0,0.0033934756506064498
2578.0,0.0033419909536740156
2577.0,0.0032485543509375584
2576.0,0.00313736072160469
2575.0,0.0030389493664676206
2574.0,0.002972756149883072
2573.0,0.00293601615643381
2572.0,0.0029086939911510054
2571.0,0.0028726746255120245
2570.0,0.002824820684178975
2569.0,0.0027712847504434107
2568.0,0.0027176304874971333
2567.0,0.0026699825018116847
2566.0,0.0026372130663692155
2565.0,0.0026230911532235065
2564.0,0.002622392328957678
2563.0,0.0026307830546549154
2562.0,0.002647901751793887
2561.0,0.002662606736899785
2560.0,0.0026505597340290166
2559.0,0.0026022897108808314
2558.0,0.0025433657377145432
2557.0,0.0025100138655571695
2556.0,0.002510950352134923
2555.0,0.00252710947587698
2554.0,0.0025401723022655874
2553.0,0.0025442926634447636
2552.0,0.0025385254811362713
2551.0,0.0025267436880701175
2550.0,0.0025183956955825313
2549.0,0.002510790743268543
2548.0,0.002477559834615477
2547.0,0.0023959005301434385
2546.0,0.0022818615366595255
2545.0,0.0021789286098551127
2544.0,0.0021127206491486543
2543.0,0.0020746564121458325
2542.0,0.0020479209160546535
2541.0,0.0020290410012985785
2540.0,0.0020218973714766974
2539.0,0.002028149264052125
2538.0,0.0020466302280687607
2537.0,0.0020697142438706995
2536.0,0.00208207346418762
2535.0,0.002077290989609553
2534.0,0.0020733426888659024
2533.0,0.002096145109304046
2532.0,0.0021479613561142105
2531.0,0.0022044533431848532
2530.0,0.002240164731049523
2529.0,0.00224490804728867
2528.0,0.0022214818305904597
2527.0,0.0021839967668492075
2526.0,0.002155672110397949
2525.0,0.002150896539000598
2524.0,0.002158397811479722
2523.0,0.0021545455991429613
2522.0,0.0021309965420778757
2521.0,0.0020974342982972094
2520.0,0.002062571581590419
2519.0,0.002028320628142835
2518.0,0.001999563195435187
2517.0,0.0019831518739752514
2516.0,0.0019772823738040284
2515.0,0.0019745214760561055
2514.0,0.001972359947614348
2513.0,0.001967668541629337
2512.0,0.0019460381182091323
2511.0,0.0018942507049973935
2510.0,0.0018239928683472947
2509.0,0.0017696666430359964
2508.0,0.0017604563816771344
2507.0,0.00180173512665277
2506.0,0.001878271861422089
2505.0,0.001963395156816357
2504.0,0.0020293444554730722
2503.0,0.0020613951303079404
2502.0,0.002061991293713951
2501.0,0.0020385774107661877
2500.0,0.0019976707646789937
2499.0,0.001955183853218211
2498.0,0.0019338008726742621
2497.0,0.0019357966450396845
2496.0,0.0019354242383303132
2495.0,0.0019164974034484431
2494.0,0.001900554103532313
2493.0,0.0019153888118058813
2492.0,0.0019519183742606047
2491.0,0.0019801129935848195
2490.0,0.0019943740421974154
2489.0,0.0020109427341261717
2488.0,0.0020284194222131447
2487.0,0.002025829741237022
2486.0,0.0019995877123132394
2485.0,0.0019692778108230534
2484.0,0.0019417457895219755
2483.0,0.001900954376867929
2482.0,0.0018449352228469894
2481.0,0.0018056666566223906
2480.0,0.0018136274855633395
2479.0,0.00185782458071706
2478.0,0.0018963097078256311
2477.0,0.0018983346868217885
2476.0,0.00186781495578534
2475.0,0.0018331267822901164
2474.0,0.0018212087075051928
2473.0,0.0018373524423671702
2472.0,0.0018658036848263762
2471.0,0.0018889529294491068
2470.0,0.0018998222426320197
2469.0,0.0018938639071033165
2468.0,0.001863486044472131
2467.0,0.001813944983273749
2466.0,0.001772815375000548
2465.0,0.0017648846434913986
2464.0,0.0017832265347902648
2463.0,0.0018023499583617753
2462.0,0.0018145854402671496
2461.0,0.0018348824811266983
2460.0,0.0018727061219790454
2459.0,0.0019177150988199101
2458.0,0.0019536561533478034
2457.0,0.001972631903767249
2456.0,0.0019775339369303363
2455.0,0.0019826733364748756
2454.0,0.002007346207005672
2453.0,0.0020548716728429534
2452.0,0.002102989821040892
2451.0,0.002128638224908776
2450.0,0.002134228713283484
2449.0,0.0021335296280145105
2448.0,0.002122192848146297
2447.0,0.002084904363879617
2446.0,0.0020254376086672942
2445.0,0.001964895726412788
2444.0,0.0019119228540234435
2443.0,0.0018590850212231035
2442.0,0.0018107947246792664
2441.0,0.0017907052381187028
2440.0,0.001812718054203777
2439.0,0.0018610017064854129
2438.0,0.001906169332392173
2437.0,0.0019306722315773485
2436.0,0.001936467100804166
2435.0,0.0019383655542450288
2434.0,0.001950029610325824
2433.0,0.0019671586802820764
2432.0,0.0019679790498414156
2431.0,0.001941076764905947
2430.0,0.0019062733485776654
2429.0,0.001893704114464444
2428.0,0.0019078239497207455
2427.0,0.0019275571087898112
2426.0,0.0019360612173547802
2425.0,0.0019330126588920208
2424.0,0.00192353733459658
2423.0,0.0019156749426106237
2422.0,0.0019266247436644482
2421.0,0.001969882710618627
2420.0,0.002032019837942315
2419.0,0.0020775434093024334
2418.0,0.002080796068278923
2417.0,0.002045035424848482
2416.0,0.0019937899462462204
2415.0,0.001953685848251267
2414.0,0.0019399887379899193
2413.0,0.0019445582115813478
2412.0,0.001940385707524099
2411.0,0.0019094184210428828
2410.0,0.0018608152717919553
2409.0,0.0018121133998851395
2408.0,0.0017648900990648478
2407.0,0.0017167454304147958
2406.0,0.0016853957003798092
2405.0,0.0016954010831035323
2404.0,0.0017438719038917402
2403.0,0.0018005833330910627
2402.0,0.0018416647361854627
2401.0,0.0018666126596442356
2400.0,0.0018844728246370625
2399.0,0.0019009871353736951
2398.0,0.0019184172570635635
2397.0,0.0019314605546495596
2396.0,0.0019250627109737377
2395.0,0.0018925658885894218
2394.0,0.001853141293565458
2393.0,0.0018337574326187148
2392.0,0.0018358998260925622
2391.0,0.0018383472697960286
2390.0,0.0018320091958885028
2389.0,0.0018321872138500855
2388.0,0.0018518395204783654
2387.0,0.0018795677370922127
2386.0,0.0018921606604390992
2385.0,0.0018790416328117333
2384.0,0.0018510951056405706
2383.0,0.0018332278946518905
2382.0,0.001847764883519347
2381.0,0.0018935362395987982
2380.0,0.001939785153096374
2379.0,0.001953338096058979
2378.0,0.0019341918817963552
2377.0,0.0019143057007281077
2376.0,0.00192248344925547
2375.0,0.0019649675930291724
2374.0,0.0020361191977129457
2373.0,0.002119031853635851
2372.0,0.0021823086842882055
2371.0,0.0022056561084533915
2370.0,0.0022023473650918434
2369.0,0.002180750984220363
2368.0,0.002097005028541024
2367.0,0.0019210775011951776
2366.0,0.0017463335402092455
2365.0,0.001730973956354524
2364.0,0.001900586897753609
2363.0,0.0021252957408913714
2362.0,0.00232607829788346
2361.0,0.0025484381371015026
2360.0,0.0028175455088952604
2359.0,0.003113307158112292
2358.0,0.0034129677952462073
2357.0,0.0036596904843931456
2356.0,0.0037471973609678197
2355.0,0.0035976981992822997
2354.0,0.003326939893457197
2353.0,0.0031183631917732495
2352.0,0.0029947757224224095
2351.0,0.00287665643521199
2350.0,0.0027546430573915396
2349.0,0.002739795097920073
2348.0,0.002820818889722772
2347.0,0.0028550634278492436
2346.0,0.0027534903557441064
2345.0,0.0025173805785375573
2344.0,0.002243132145137529
2343.0,0.0020471010816065015
2342.0,0.002071207575556902
2341.0,0.0023251222629462674
2340.0,0.0026339685114518687
2339.0,0.002856253593125451
2338.0,0.0029393354465443193
2337.0,0.002975185490877696
2336.0,0.003035794973111215
2335.0,0.0031250661651176133
2334.0,0.0032189292621856215
2333.0,0.003310478453721107
2332.0,0.0033867335446226498
2331.0,0.00343887508995307
2330.0,0.0035229271601699475
2329.0,0.0037578943687094158
2328.0,0.004162396715357505
2327.0,0.004600353560971758
2326.0,0.004940859631840126
2325.0,0.00508144932442964
2324.0,0.0050494088233586955
2323.0,0.004844481983405364
2322.0,0.004536492059038555
2321.0,0.004225503992599413
2320.0,0.004023515648111082
2319.0,0.003972013815384721
2318.0,0.003984343870522572
2317.0,0.003964542707543199
2316.0,0.003860266602019732
2315.0,0.0037248418787957822
2314.0,0.0036343726189069546
2313.0,0.0036098992589413985
2312.0,0.003602569633945209
2311.0,0.0035532342315410656
2310.0,0.003483223379079868
2309.0,0.0034352097450257913
2308.0,0.0034372469414021274
2307.0,0.003451768570528954
2306.0,0.003460162805421872
2305.0,0.0034483800971526145
2304.0,0.003424535534577908
2303.0,0.0033752752930662324
2302.0,0.0033077698125027503
2301.0,0.003235493051911879
2300.0,0.003179935003345141
2299.0,0.003144420458447882
2298.0,0.003128826898294334
2297.0,0.0031203746763046073
2296.0,0.0031122914720213874
2295.0,0.00310127912199904
2294.0,0.0031050242668792002
2293.0,0.0031249317773127372
2292.0,0.003152712023208668
2291.0,0.0031732134947235428
2290.0,0.0031989845176559418
2289.0,0.003235902045576304
2288.0,0.0032710292723186845
2287.0,0.0032830151403774824
2286.0,0.0032774612273490226
2285.0,0.0032637311309717163
2284.0,0.003223684364636784
2283.0,0.0031330529892904337
2282.0,0.003010983447299302
2281.0,0.002909463599150981
2280.0,0.002847823148880194
2279.0,0.0027989855623591665
2278.0,0.0027385409883216765
2277.0,0.0026752258206229063
2276.0,0.0026184268616405906
2275.0,0.002566369918188338
2274.0,0.002531987017389216
2273.0,0.002543971943820572
2272.0,0.0025959267432756933
2271.0,0.0026349268283620843
2270.0,0.002625942304093061
2269.0,0.0025970472469674264
2268.0,0.0026004230320790024
2267.0,0.0026443949082800137
2266.0,0.0026858879269623954
2265.0,0.002672908584192952
2264.0,0.0025852115866613363
2263.0,0.0024529384730964813
2262.0,0.002343594418773424
2261.0,0.0023096174278425504
2260.0,0.0023411646391778597
2259.0,0.002381249462102301
2258.0,0.002389416917367502
2257.0,0.0023663654533427037
2256.0,0.002327630972314641
2255.0,0.00228742682200216
2254.0,0.002264046445951683
2253.0,0.0022710214657713024
2252.0,0.0022937689361018413
2251.0,0.00230866223434698
2250.0,0.0023180802328608974
2249.0,0.002336085741657177
2248.0,0.002345939521213743
2247.0,0.002315150950141574
2246.0,0.002255077050219407
2245.0,0.0022178166009590443
2244.0,0.0022293469913922505
2243.0,0.002268927592232414
2242.0,0.0023248535173228534
2241.0,0.0024154929891324044
2240.0,0.002532403493798645
2239.0,0.0026053377710573418
2238.0,0.0025585181093012873
2237.0,0.0023851254223471426
2236.0,0.002153083516658866
2235.0,0.001955085960105282
2234.0,0.0018600696379618524
2233.0,0.0018780777614787008
2232.0,0.0019505883557955593
2231.0,0.0019959955333480914
2230.0,0.001978089794748351
2229.0,0.0019244925377822743
2228.0,0.0018930527618912715
2227.0,0.0019338003497211755
2226.0,0.002055373298335214
2225.0,0.0021880519994236596
2224.0,0.002210539058953438
2223.0,0.002078470620160281
2222.0,0.0019082604710416637
2221.0,0.001872097256310787
2220.0,0.00200414443100281
2219.0,0.0021761112060866964
2218.0,0.002264201475779729
2217.0,0.002260594137536777
2216.0,0.002212128108794532
2215.0,0.0021296282757839683
2214.0,0.0020102205847112604
2213.0,0.0018950034779763444
2212.0,0.0018457846871142987
2211.0,0.0018831112542742213
2210.0,0.00197600280014248
2209.0,0.002068772635834087
2208.0,0.0021039144343583103
2207.0,0.0020539826683908403
2206.0,0.0019534869308500953
2205.0,0.0018843756177976667
2204.0,0.0019093049832485057
2203.0,0.0020259589551146788
2202.0,0.002176383053093883
2201.0,0.002273617057737589
2200.0,0.002246176415919704
2199.0,0.0021055875833864983
2198.0,0.001965850701015141
2197.0,0.0019437409618369554
2196.0,0.0020273120127970536
2195.0,0.002093527286614105
2194.0,0.002058260981074634
2193.0,0.001956480861468194
2192.0,0.0018719881958348076
2191.0,0.0018426269587285896
2190.0,0.0018613933825756275
2189.0,0.0019215292681509888
2188.0,0.0020198187151076828
2187.0,0.0021400295519348024
2186.0,0.0022497332328112745
2185.0,0.002299532688374504
2184.0,0.0022391967324953094
2183.0,0.002067924090106795
2182.0,0.0018687420991706422
2181.0,0.0017477624170895276
2180.0,0.0017215651587241631
2179.0,0.001702311547286545
2178.0,0.0015982320653140144
2177.0,0.0014097312361691515
2176.0,0.0012393620641705165
2175.0,0.0012232601245098784
2174.0,0.0014351354228801698
2173.0,0.0018178915603763533
2172.0,0.002211322378704022
2171.0,0.002483009934058878
2170.0,0.002625305121238657
2169.0,0.00272028259603983
2168.0,0.0028463033418308515
2167.0,0.003030213749114051
2166.0,0.0032479538174915207
2165.0,0.003424925796579363
2164.0,0.003462475241467078
2163.0,0.0032876066301782475
2162.0,0.0028447905327679155
2161.0,0.002078142134285996
2160.0,0.0010365406273081324
2159.0,1.0344890250521821e-05
2158.0,-0.0006161691808374387
2157.0,-0.0007316900010551778
2156.0,-0.0005701310241536477
2155.0,-0.00039088958471897306
2154.0,-0.00024976436525980805
2153.0,-0.00011028840974510412
2152.0,2.955863818102866e-06
2151.0,5.933589723386118e-05
2150.0,0.00011412133724365558
2149.0,0.00021573183178770334
2148.0,0.0002966901226207561
2147.0,0.00028902250185697633
2146.0,0.0002786600199909226
2145.0,0.00040561530758360167
2144.0,0.0006446087853266094
2143.0,0.0008190466362952667
2142.0,0.0008182927506214928
2141.0,0.0006907346633122986
2140.0,0.0005386382926308175
2139.0,0.00041661070027314924
2138.0,0.0003371293904013689
2137.0,0.0002822708623072789
2136.0,0.00019609964337585306
2135.0,4.950129564590206e-05
2134.0,-8.293914175227668e-05
2133.0,-8.647222609238325e-05
2132.0,4.7507771943504416e-05
2131.0,0.00021318598086585632
2130.0,0.0003322639584890208
2129.0,0.00043704618115934655
2128.0,0.0005969499254613695
2127.0,0.0008092283279177069
2126.0,0.0009921688207220562
2125.0,0.0010643798003779834
2124.0,0.001019977538115171
2123.0,0.0009397800894631794
2122.0,0.0009312700917393314
2121.0,0.001038612606039947
2120.0,0.0012068337549581787
2119.0,0.0013490710691932068
2118.0,0.0014360394093870196
2117.0,0.0015003690517112888
2116.0,0.001566651619319315
2115.0,0.0016091340502434623
2114.0,0.0015809881361105766
2113.0,0.0014658435352910184
2112.0,0.001301561311954746
2111.0,0.0011661625942959901
2110.0,0.0011341050795662467
2109.0,0.0012198441685973285
2108.0,0.0013627258160739224
2107.0,0.0014841920331941905
2106.0,0.001550220683389051
2105.0,0.0015704575726530074
2104.0,0.001558774258963539
2103.0,0.0015204147530671276
2102.0,0.0014667548594566042
2101.0,0.0014188076349654203
2100.0,0.0013943236724533459
2099.0,0.001392259139724753
2098.0,0.001379373791951549
2097.0,0.0013027078455796087
2096.0,0.0011542936970286083
2095.0,0.0010208065203408784
2094.0,0.0010171193419068198
2093.0,0.0011568351295677063
2092.0,0.0013409773994031505
2091.0,0.001486879255346665
2090.0,0.001605457346099519
2089.0,0.001728689070976506
2088.0,0.0018273963665424906
2087.0,0.0018504358115108846
2086.0,0.001792553284264237
2085.0,0.0016784379680123793
2084.0,0.0015323682154603777
2083.0,0.0014096529006251085
2082.0,0.001397953969208346
2081.0,0.0015178326817058688
2080.0,0.0016635279906007704
2079.0,0.001715552447578555
2078.0,0.0016744785408599565
2077.0,0.0016162227012710066
2076.0,0.0015679862854125958
2075.0,0.0015116120173977066
2074.0,0.0014680335455752342
2073.0,0.001476292280217206
2072.0,0.001511630623018247
2071.0,0.0015151836751976242
2070.0,0.0014861423964162884
2069.0,0.0014617735291557266
2068.0,0.0014322254201603309
2067.0,0.0013678105183378216
2066.0,0.0013096329270910353
2065.0,0.0013331254682096315
2064.0,0.001425536676797663
2063.0,0.0014991993275969985
2062.0,0.001519697482498261
2061.0,0.0015225525470467934
2060.0,0.0015200030731080917
2059.0,0.0014852177115272733
2058.0,0.0014203411230409204
2057.0,0.0013616347578197954
2056.0,0.0013345968790278437
2055.0,0.0013847834577777388
2054.0,0.0016091831913337975
2053.0,0.0020275007014732374
2052.0,0.002442925481566928
2051.0,0.002565408470368629
2050.0,0.0023073239021810105
2049.0,0.0018847284657199036
2048.0,0.001560116503234352
2047.0,0.0013892452037612465
2046.0,0.0013104344708336566
2045.0,0.0013121803362889364
2044.0,0.001402833180969512
2043.0,0.0015309558353446917
2042.0,0.0016244656555042861
2041.0,0.0016463125836825869
2040.0,0.001573981754242022
2039.0,0.0014008460596292365
2038.0,0.0011851415552769269
2037.0,0.0010158347408282377
2036.0,0.0008896311859086451
2035.0,0.0007092345323152871
2034.0,0.00044488041176431105
2033.0,0.0002078324502142729
2032.0,0.00012513846658138573
2031.0,0.00022664382539787847
2030.0,0.00046370933356503223
2029.0,0.0007255400822671837
2028.0,0.0008575956048161382
2027.0,0.0007878649152086781
2026.0,0.0006283199391637175
2025.0,0.0005577135096852398
2024.0,0.0006178161098049817
2023.0,0.0007182914199419673
2022.0,0.0008001819390514073
2021.0,0.0008565122782249945
2020.0,0.0008351371124931906
2019.0,0.0006832627121929491
2018.0,0.0004906551436869164
2017.0,0.0004339653900059646
2016.0,0.0005299081150355274
2015.0,0.0006025830017787332
2014.0,0.0005242728531277862
2013.0,0.00034762363677015
2012.0,0.00019718306943705645
2011.0,0.00013409596471730846
2010.0,0.00014498570980908123
2009.0,0.00016987494985275817
2008.0,0.00012624567109468864
2007.0,-2.263532393123607e-06
2006.0,-0.00010685927756461677
2005.0,-6.909517474537303e-05
2004.0,9.525325259825059e-05
2003.0,0.0002811447517038999
2002.0,0.00042821929213075044
2001.0,0.0005291309596776761
2000.0,0.0005642606601958811
1999.0,0.0005390389527340623
1998.0,0.000542638863430174
1997.0,0.0006701718684191426
1996.0,0.0008979185997912129
1995.0,0.0011139028404701283
1994.0,0.0012405363146493742
1993.0,0.0012532497105818873
1992.0,0.0011407648886843204
1991.0,0.0009432591700254695
1990.0,0.0007800118492788833
1989.0,0.0007339983575086624
1988.0,0.0007546060700277768
1987.0,0.0007645137330594603
1986.0,0.00081226454037904
1985.0,0.0010046293501376259
1984.0,0.0013246252680526767
1983.0,0.0016425369658715232
1982.0,0.0018714886104278508
1981.0,0.001977405244658648
1980.0,0.0018736054371146838
1979.0,0.0014925887088383368
1978.0,0.0009814886509457426
1977.0,0.0006333615699382839
1976.0,0.0005452558268487307
1975.0,0.0005365269404069367
1974.0,0.0004356960812279386
1973.0,0.0002492392358308248
1972.0,4.455130545653142e-05
1971.0,-0.0001535313699993539
1970.0,-0.0002976289813720723
1969.0,-0.00029442981666164605
1968.0,-0.00012796414799588686
1967.0,7.579374793006982e-05
1966.0,0.00016916387101808362
1965.0,0.00010941630780110235
1964.0,-5.4051896585708185e-05
1963.0,-0.00022916555246444857
1962.0,-0.0003092812538333507
1961.0,-0.0002577494676433817
1960.0,-0.000167574229057883
1959.0,-0.00015150219613703714
1958.0,-0.0002047073945364374
1957.0,-0.0002499157860491331
1956.0,-0.00026305481815163057
1955.0,-0.00025990465615966185
1954.0,-0.00020739036698688061
1953.0,-6.617798549114174e-05
1952.0,0.00010529177163601158
1951.0,0.00019474012446016315
1950.0,0.0001782300470378834
1949.0,0.00011911714499342153
1948.0,4.585269186349784e-05
1947.0,-5.825910154424912e-05
1946.0,-0.00015968741486314199
1945.0,-0.00017960624640985635
1944.0,-0.00010568966810161929
1943.0,-1.017866727221167e-05
1942.0,5.884619288020653e-05
1941.0,0.00011819092405892286
1940.0,0.0001660249503897071
1939.0,0.00015651214048711677
1938.0,8.67761948390545e-05
1937.0,3.085294626704616e-05
1936.0,4.961179884808444e-05
1935.0,0.00011908558538883425
1934.0,0.00017523494741964493
1933.0,0.0001869732708744199
1932.0,0.00016902345335289843
1931.0,0.00015258893460742948
1930.0,0.00016706511634550223
1929.0,0.00020300360175185298
1928.0,0.00020417037182643872
1927.0,0.00014594809972876433
1926.0,8.427018005073496e-05
1925.0,0.00010466167535875398
1924.0,0.00021177359923492118
1923.0,0.0003268516680128646
1922.0,0.0003929067650203851
1921.0,0.00041876036855534565
1920.0,0.0004184957417024438
1919.0,0.00038479267162692835
1918.0,0.0003384420225264682
1917.0,0.0003232828679806067
1916.0,0.00034604796816000056
1915.0,0.0003753428160753869
1914.0,0.000384580676350306
1913.0,0.00037037471778387306
1912.0,0.00034070397618172165
1911.0,0.00031729218220569037
1910.0,0.00034354118680953285
1909.0,0.00042311084632766613
1908.0,0.0004841771089155605
1907.0,0.0004700001906882107
1906.0,0.000415643208145898
1905.0,0.0004021150289768685
1904.0,0.00043687931136777384
1903.0,0.00045553161885698683
1902.0,0.0004256782957224052
1901.0,0.0003667734057289163
1900.0,0.0002988026818383227
1899.0,0.0002322662438872707
1898.0,0.0001972132767522342
1897.0,0.00023478438280606867
1896.0,0.00033206650378734474
1895.0,0.00042095319043892587
1894.0,0.00045989381379705
1893.0,0.00046183013568971303
1892.0,0.00044513977740050074
1891.0,0.0004145407994713261
1890.0,0.000394659029589613
1889.0,0.00041270792921645205
1888.0,0.0004525452890474435
1887.0,0.0004813441947730899
1886.0,0.0004933623954847021
1885.0,0.0005004144180383607
1884.0,0.0005004297408482421
1883.0,0.0004851268850759262
1882.0,0.00047068833037498315
1881.0,0.00046946796445305377
1880.0,0.00045395919394641934
1879.0,0.00039259833911280367
1878.0,0.00030096415173319537
1877.0,0.0002333313911985366
1876.0,0.00021712462367976188
1875.0,0.00022887343366692625
1874.0,0.00024637572027166725
1873.0,0.00026874223131961763
1872.0,0.00028472353431811446
1871.0,0.0002760840587062144
1870.0,0.0002663233539713422
1869.0,0.00030733980293489805
1868.0,0.000379023444086623
1867.0,0.0004142057725026874
1866.0,0.0004053414159076376
1865.0,0.00038175711457340646
1864.0,0.00035880594721087334
1863.0,0.00034324818768130083
1862.0,0.0003498950263039072
1861.0,0.00038755951137615387
1860.0,0.0004322494007002497
1859.0,0.00044843151492798003
1858.0,0.0004287817579229883
1857.0,0.00038935592741434896
1856.0,0.00034538571665844496
1855.0,0.00031278012925780945
1854.0,0.00031402710427710185
1853.0,0.00034613499972487873
1852.0,0.0003650595815406061
1851.0,0.00034874114529528867
1850.0,0.00031162974094183773
1849.0,0.0002797828668269992
1848.0,0.00025889587025190015
1847.0,0.0002445090515983809
1846.0,0.00025687359424762
1845.0,0.0003308947854014615
1844.0,0.00043962358028262196
1843.0,0.0005023747956417629
1842.0,0.000520400638657503
1841.0,0.0005228970923170852
1840.0,0.0004942705240699519
1839.0,0.0004416486975909995
1838.0,0.0004142662004175011
1837.0,0.00044870637208591774
1836.0,0.0005040953228966985
1835.0,0.0005174605650620718
1834.0,0.0004890258065122059
1833.0,0.00045439413283407783
1832.0,0.0004217979717165484
1831.0,0.00038521695355587106
1830.0,0.00035905651104407247
1829.0,0.00036380840090173474
1828.0,0.0003958252099721671
1827.0,0.0004247782735292969
1826.0,0.0004339492165070318
1825.0,0.0004556577578109678
1824.0,0.0005001620721310851
1823.0,0.0005282156794768494
1822.0,0.0005177447528130737
1821.0,0.00047521216962240665
1820.0,0.0004160360154642029
1819.0,0.0003555895850731216
1818.0,0.00032467861826563607
1817.0,0.00035895169892064503
1816.0,0.0004316037881227483
1815.0,0.0004811458826805711
1814.0,0.0004949352236691038
1813.0,0.0005050269124939719
1812.0,0.0005349934514751722
1811.0,0.0005625732679540741
1810.0,0.0005763056180977766
1809.0,0.000599986220719137
1808.0,0.0006296334921563056
1807.0,0.000639098870362186
1806.0,0.0006338309622211788
1805.0,0.0006444219035121152
1804.0,0.0006758523343906933
1803.0,0.0007083471813848202
1802.0,0.0007409686262266062
1801.0,0.000778762585079267
1800.0,0.0008047008020794055
1799.0,0.0007900044463373345
1798.0,0.0007584201835455916
1797.0,0.0007552414075834744
1796.0,0.000774262366470462
1795.0,0.0007763091112066808
1794.0,0.0007563033778656971
1793.0,0.0007673963002061608
1792.0,0.0008377133655334146
1791.0,0.0009031513216487281
1790.0,0.0009317119059610696
1789.0,0.0009428832586608365
1788.0,0.000940669894101531
1787.0,0.0009315136000531909
1786.0,0.0009339701951374441
1785.0,0.0009504722162239194
1784.0,0.0009495843329270009
1783.0,0.0009173448468875298
1782.0,0.0008850240614127823
1781.0,0.0008789244672765882
1780.0,0.0009055001459926638
1779.0,0.0009301243066801123
1778.0,0.0009364597981117505
1777.0,0.0009355897339400733
1776.0,0.0009317660414407767
1775.0,0.0009209911758468734
1774.0,0.0008901705681226648
1773.0,0.0008668250929663775
1772.0,0.000884257506232727
1771.0,0.0009262933557389972
1770.0,0.0010011967562263864
1769.0,0.001111724099192426
1768.0,0.001208690195601157
1767.0,0.0012412462639936604
1766.0,0.0012138383961719074
1765.0,0.001176163808745166
1764.0,0.00115966689169182
1763.0,0.0011730989604759917
1762.0,0.0012208337793813175
1761.0,0.001282979330879219
1760.0,0.0013511833448182618
1759.0,0.0014147506079832724
1758.0,0.0014730895172269214
1757.0,0.0015335210588004597
1756.0,0.0015854315087256306
1755.0,0.0016161183122692805
1754.0,0.0016272743273557542
1753.0,0.001629481730964789
1752.0,0.0016575557130721953
1751.0,0.0017352431524604115
1750.0,0.0018298485937933706
1749.0,0.0019206832447834546
1748.0,0.0019879366699988026
1747.0,0.0020206618074397895
1746.0,0.0020426352088177453
1745.0,0.002091387800198955
1744.0,0.0021825834231546334
1743.0,0.002272622388007774
1742.0,0.0023290934577753146
1741.0,0.0023787865622281724
1740.0,0.0024418253757373717
1739.0,0.00248326816676962
1738.0,0.002505215095740117
1737.0,0.002539235419977178
1736.0,0.0025437532906810436
1735.0,0.002514772411407667
1734.0,0.002530386772800211
1733.0,0.0025918875476279102
1732.0,0.0027101677095972224
1731.0,0.002840644051685351
1730.0,0.0029068484671019275
1729.0,0.002934021360880351
1728.0,0.0029660021435257942
1727.0,0.0030107583100327994
1726.0,0.0030552724340772615
1725.0,0.003113580782854011
1724.0,0.0032087558520800617
1723.0,0.0033011465447948824
1722.0,0.0033654522525171093
1721.0,0.003423008826376075
1720.0,0.003478060564931439
1719.0,0.0035168335612590536
1718.0,0.0035749113166555777
1717.0,0.0037019664736391506
1716.0,0.0038777595875726855
1715.0,0.0040559320186018275
1714.0,0.0042031062125198245
1713.0,0.004321301998761014
1712.0,0.0044140741965941165
1711.0,0.0044781312649375665
1710.0,0.004531900703332312
1709.0,0.004602725673035376
1708.0,0.004704823595249556
1707.0,0.004835717448524073
1706.0,0.004996917735941212
1705.0,0.005189396945343452
1704.0,0.005378953971863649
1703.0,0.005541001554725911
1702.0,0.005651607286014256
1701.0,0.00581544534307329
1700.0,0.006085757170882344
1699.0,0.006301587739749192
1698.0,0.006525072853989098
1697.0,0.006827290853983937
1696.0,0.007163828523660105
1695.0,0.007413026488133911
1694.0,0.007596119243799621
1693.0,0.00782267085888922
1692.0,0.008046148800563169
1691.0,0.00823695085410643
1690.0,0.008458098305891502
1689.0,0.008741543359136274
1688.0,0.009020346264990823
1687.0,0.009213733098982496
1686.0,0.009310196439897047
1685.0,0.009539228380549276
1684.0,0.010030522341173553
1683.0,0.010450368845394423
1682.0,0.010772932654809261
1681.0,0.011083557106341235
1680.0,0.011337945088131365
1679.0,0.011531288950367003
1678.0,0.011686597355411655
1677.0,0.011862085311753447
1676.0,0.01212389514085092
1675.0,0.012434845638063498
1674.0,0.012668182808974415
1673.0,0.012825756524782666
1672.0,0.01297414067638326
1671.0,0.013140470217514732
1670.0,0.013382955842254678
1669.0,0.013682541864683227
1668.0,0.013953013217636819
1667.0,0.014153825687064046
1666.0,0.014275966751432091
1665.0,0.01435719588379222
1664.0,0.014477070129325888
1663.0,0.01467718237158478
1662.0,0.014903946485385348
1661.0,0.015090873098818836
1660.0,0.0152480086863045
1659.0,0.015363104908395639
1658.0,0.01541396985252123
1657.0,0.01541533594460573
1656.0,0.015411586768165349
1655.0,0.015408155511087561
1654.0,0.015542365276345397
1653.0,0.015831217351994404
1652.0,0.015844438275386123
1651.0,0.01583203783189264
1650.0,0.015905377582714784
1649.0,0.015902145704944096
1648.0,0.01587930849086922
1647.0,0.01594016617107726
1646.0,0.015988134419068913
1645.0,0.01596498428523613
1644.0,0.01593557226477882
1643.0,0.015892928624777827
1642.0,0.015823152823656213
1641.0,0.01572158163864876
1640.0,0.015597760040235147
1639.0,0.015457440576477147
1638.0,0.015292152045517447
1637.0,0.015138216468766785
1636.0,0.015061401124510751
1635.0,0.015002158626074336
1634.0,0.014903822472719794
1633.0,0.014828973603950111
1632.0,0.014728759977283516
1631.0,0.014561245648703612
1630.0,0.014358308920507282
1629.0,0.01416173294347698
1628.0,0.013981386415285079
1627.0,0.013802861444018474
1626.0,0.013619799759109721
1625.0,0.013421731301285052
1624.0,0.013214031846751033
1623.0,0.013014440124967759
1622.0,0.012836537762764987
1621.0,0.012686860791077706
1620.0,0.012544953360438453
1619.0,0.01236025121555709
1618.0,0.012119505679787963
1617.0,0.011870142215065264
1616.0,0.011656000889900925
1615.0,0.01152544975359555
1614.0,0.011474464323265342
1613.0,0.011407963793873863
1612.0,0.011270457815148691
1611.0,0.01109859167103179
1610.0,0.010951229030169318
1609.0,0.010840418596300447
1608.0,0.010749280940489034
1607.0,0.010670348397612495
1606.0,0.010603331177635681
1605.0,0.010531509372683285
1604.0,0.010452025530351424
1603.0,0.010368459999667923
1602.0,0.010278416719033269
1601.0,0.010184849684969294
1600.0,0.010095925247448845
1599.0,0.01001626733901172
1598.0,0.00993945748169912
1597.0,0.009858714745485447
1596.0,0.009777238580131648
1595.0,0.009704471678799904
1594.0,0.009648642391413146
1593.0,0.009607878082432747
1592.0,0.009576056621653062
1591.0,0.009549800526109374
1590.0,0.009528445118879354
1589.0,0.009510506631312542
1588.0,0.009501632489903242
1587.0,0.009513548316411274
1586.0,0.009549907576425945
1585.0,0.00959246706159814
1584.0,0.009622234095746097
1583.0,0.009648526165016831
1582.0,0.009666091344729203
1581.0,0.009661668574688103
1580.0,0.009636179630672868
1579.0,0.00959688817166432
1578.0,0.009537229195060016
1577.0,0.009492039386850065
1576.0,0.00949114251867028
1575.0,0.009498912713923165
1574.0,0.00953345294418801
1573.0,0.009573324331713042
1572.0,0.009551644459728826
1571.0,0.009468762030822383
1570.0,0.009391361318491725
1569.0,0.009343338840847292
1568.0,0.009312650319547285
1567.0,0.009296619734409652
1566.0,0.009253505095382114
1565.0,0.009171767374557542
1564.0,0.009074277159539014
1563.0,0.008983887302733164
1562.0,0.008873153299398183
1561.0,0.008686266671275226
1560.0,0.008491104010643666
1559.0,0.008498473086030958
1558.0,0.008470235184120815
1557.0,0.008445395685062992
1556.0,0.008503022171621234
1555.0,0.008482490003530081
1554.0,0.008376364237416528
1553.0,0.008256072649002508
1552.0,0.008188323427531749
1551.0,0.008151387172276623
1550.0,0.008098284392695651
1549.0,0.00801999543978951
1548.0,0.007919146232961092
1547.0,0.007808081141462406
1546.0,0.007693133913976878
1545.0,0.0076038787926587924
1544.0,0.007539245061199061
1543.0,0.007429545225297898
1542.0,0.007223012787114482
1541.0,0.007002244451569186
1540.0,0.006863349723594224
1539.0,0.006740018816849805
1538.0,0.006666101596504843
1537.0,0.006673242124386754
1536.0,0.006642877220437162
1535.0,0.006513181552239381
1534.0,0.006352696111014125
1533.0,0.006254490624166942
1532.0,0.0062102935593344975
1531.0,0.006156434855144341
1530.0,0.006062149950394849
1529.0,0.005964097765135876
1528.0,0.005899012159297331
1527.0,0.005849609404084025
1526.0,0.005784401042539399
1525.0,0.005709403823639294
1524.0,0.005640902771755777
1523.0,0.005563819331659371
1522.0,0.005496672369370239
1521.0,0.0054654627147668
1520.0,0.005429102463813782
1519.0,0.005374600173595803
1518.0,0.005297585181252798
1517.0,0.005246583982016714
1516.0,0.0052395710173943014
1515.0,0.005221100446365836
1514.0,0.005176759159468974
1513.0,0.005119450288475855
1512.0,0.005065162319317305
1511.0,0.00499924043678753
1510.0,0.004921274447548035
1509.0,0.004853896732636829
1508.0,0.004857569585575024
1507.0,0.004937103435968354
1506.0,0.0048981736629689875
1505.0,0.004803159226950219
1504.0,0.004795912796361051
1503.0,0.004798824779094911
1502.0,0.00476884019217517
1501.0,0.0047474183923547275
1500.0,0.004769410322972567
1499.0,0.004815682077583504
1498.0,0.004889599611748527
1497.0,0.005069589476353732
1496.0,0.005326169555493606
1495.0,0.005513531065945524
1494.0,0.005622494140876413
1493.0,0.005705765683139831
1492.0,0.005753761194973629
1491.0,0.005736186952731693
1490.0,0.005716693974823935
1489.0,0.005795464310360102
1488.0,0.005919833625647046
1487.0,0.005986231049970099
1486.0,0.006041190496849206
1485.0,0.006162438746672078
1484.0,0.006334804143547869
1483.0,0.006531281727742927
1482.0,0.006781738321674264
1481.0,0.007138712236372536
1480.0,0.007551240452393099
1479.0,0.007968116479898427
1478.0,0.008492132881707968
1477.0,0.00931464732570273
1476.0,0.010461779210293906
1475.0,0.011805602411615572
1474.0,0.01343998943331937
1473.0,0.01558890665917453
1472.0,0.017900756674854305
1471.0,0.019787025121156127
1470.0,0.021390767273210192
1469.0,0.023054392319510914
1468.0,0.024883704137376936
1467.0,0.026928846470774936
1466.0,0.02938703338055422
1465.0,0.03227774751384201
1464.0,0.03495891861293448
1463.0,0.03680062677008446
1462.0,0.03791064750658369
1461.0,0.038618631896436884
1460.0,0.03905011067742488
1459.0,0.03925065963471198
1458.0,0.03939906000567729
1457.0,0.039637042183136566
1456.0,0.039700114986180764
1455.0,0.03952554870165148
1454.0,0.03923072456263719
1453.0,0.03873171327404206
1452.0,0.037897856887436056
1451.0,0.03671748411119205
1450.0,0.035200395453919626
1449.0,0.033192333122555984
1448.0,0.030630883925540822
1447.0,0.027923182033056715
1446.0,0.025554861643032497
1445.0,0.02357458055593126
1444.0,0.02186449155661175
1443.0,0.02041800913551388
1442.0,0.019299786364250032
1441.0,0.018507628128545197
1440.0,0.01798980593849529
1439.0,0.017721909302147662
1438.0,0.017692484287024104
1437.0,0.01777653438903693
1436.0,0.017623060767424113
1435.0,0.017026714446256978
1434.0,0.01608480303605599
1433.0,0.014906723478611626
1432.0,0.013622780450711816
1431.0,0.012446877378019486
1430.0,0.011519861807108494
1429.0,0.01082296385684314
1428.0,0.010306721260623807
1427.0,0.009956703028170208
1426.0,0.009714250588999473
1425.0,0.00948339542168403
1424.0,0.009261368786189444
1423.0,0.009101193365841375
1422.0,0.008984090756687924
1421.0,0.008839316384668634
1420.0,0.008680119183032752
1419.0,0.008604152694513093
1418.0,0.008581171175617807
1417.0,0.008501046532582657
1416.0,0.00835868944809758
1415.0,0.00820780337863213
1414.0,0.008067196584655576
1413.0,0.007918217850132608
1412.0,0.007768903967367895
1411.0,0.0076463931901321665
1410.0,0.007529972288576272
1409.0,0.00737546345079766
1408.0,0.0071921830527892396
1407.0,0.0070320630490573865
1406.0,0.00690667623311415
1405.0,0.006766578662844752
1404.0,0.006614877043987753
1403.0,0.006502795389295105
1402.0,0.006420835943193681
1401.0,0.006315596569475777
1400.0,0.0061944480553995426
1399.0,0.006125178909013502
1398.0,0.006101886331240838
1397.0,0.006054321404135159
1396.0,0.005987429284617514
1395.0,0.005979786765705425
1394.0,0.006024850637383249
1393.0,0.0060481241807297855
1392.0,0.006073624652939915
1391.0,0.006172384289429908
1390.0,0.006362524201863843
1389.0,0.006645608880727953
1388.0,0.007117676092437596
1387.0,0.007916194663111662
1386.0,0.009042067338904673
1385.0,0.010488472422138422
1384.0,0.012486947467845299
1383.0,0.015386628867558871
1382.0,0.01940445652830668
1381.0,0.024651849888887734
1380.0,0.031248022448976877
1379.0,0.03894459099684544
1378.0,0.04658435288293443
1377.0,0.052392818257074196
1376.0,0.05468487684319497
1375.0,0.05231350310796082
1374.0,0.04579676038610846
1373.0,0.037792209799814944
1372.0,0.030670243753977866
1371.0,0.024971073449910505
1370.0,0.020431196351304914
1369.0,0.016921646425658823
1368.0,0.014465673287298225
1367.0,0.012941218652670453
1366.0,0.012082037407557346
1365.0,0.011674628230696742
1364.0,0.01163170676899128
1363.0,0.011924344865993745
1362.0,0.012462530087054807
1361.0,0.013052146775469377
1360.0,0.013480669097276438
1359.0,0.013589266073889397
1358.0,0.013297507319373847
1357.0,0.012622015936444866
1356.0,0.011668669949864456
1355.0,0.01059269962817766
1354.0,0.009554489514984835
1353.0,0.008662761918631526
1352.0,0.007935557298590986
1351.0,0.007335284307301421
1350.0,0.006831420035714523
1349.0,0.006406910676728999
1348.0,0.006047950502067271
1347.0,0.0057391579148269225
1346.0,0.005478043849991003
1345.0,0.005266779030067212
1344.0,0.005097457023080973
1343.0,0.004956378615824422
1342.0,0.004841109528266002
1341.0,0.004759664902871169
1340.0,0.004713680105147253
1339.0,0.004687423239471692
1338.0,0.00466053344350688
1337.0,0.004627508555629123
1336.0,0.004597289625409014
1335.0,0.004584771388481901
1334.0,0.004604149155299827
1333.0,0.004660365435036853
1332.0,0.004741199684699507
1331.0,0.004818337250988344
1330.0,0.004860548436110352
1329.0,0.004849801688454001
1328.0,0.0047878263403905805
1327.0,0.004688186502799754
1326.0,0.004564486907809459
1325.0,0.004424181377464229
1324.0,0.004276907777116274
1323.0,0.004137750148919858
1322.0,0.004021054696323523
1321.0,0.0039314260905785395
1320.0,0.0038637065026170484
1319.0,0.0038078043986621594
1318.0,0.0037530239012482152
1317.0,0.0036935551503181974
1316.0,0.003632778790354313
1315.0,0.003580154791322044
1314.0,0.003542084070076751
1313.0,0.003517962754712725
1312.0,0.00350619255321483
1311.0,0.0035127050487175357
1310.0,0.0035529924544421606
1309.0,0.0036487952110365422
1308.0,0.0038169939183050755
1307.0,0.004047479197927003
1306.0,0.004289448235255219
1305.0,0.004470056702921792
1304.0,0.0045393105057916425
1303.0,0.004498591683872231
1302.0,0.004393534362161
1301.0,0.004281215876902424
1300.0,0.004202209747064723
1299.0,0.00416926394065447
1298.0,0.004168977606236272
1297.0,0.004172830918080166
1296.0,0.004154178525886051
1295.0,0.004099582448063155
1294.0,0.004007485146430423
1293.0,0.003883861926657293
1292.0,0.0037425689415711335
1291.0,0.0036035866865225417
1290.0,0.0034826521612984895
1289.0,0.003383061169739584
1288.0,0.0033003488961486525
1287.0,0.003231109380384951
1286.0,0.0031740395498645463
1285.0,0.0031273702267966726
1284.0,0.0030898212851723315
1283.0,0.0030610474640895046
1282.0,0.0030393064718618737
1281.0,0.0030216873729988552
1280.0,0.0030070486939683142
1279.0,0.0029944597399808107
1278.0,0.0029783466428134654
1277.0,0.002953444186565607
1276.0,0.0029247610967923733
1275.0,0.00290522622337674
1274.0,0.002900354384189321
1273.0,0.0029031960162278865
1272.0,0.002907237796062348
1271.0,0.0029161163426583477
1270.0,0.002935790761159341
1269.0,0.002964848928091351
1268.0,0.002999311027657472
1267.0,0.0030402419363761996
1266.0,0.0030900897028392936
1265.0,0.0031470548708423807
1264.0,0.0032083995709615235
1263.0,0.0032765921783198355
1262.0,0.00335842689073232
1261.0,0.003460731014654969
1260.0,0.0035884865787739802
1259.0,0.003741015241135154
1258.0,0.003902765914601208
1257.0,0.004040412015243574
1256.0,0.00411371466281751
1255.0,0.004095958894981598
1254.0,0.003990318142184295
1253.0,0.003828952966018628
1252.0,0.0036552761191445404
1251.0,0.003503842250515924
1250.0,0.00338903640426709
1249.0,0.0033075174980327377
1248.0,0.0032496121213959114
1247.0,0.003206796333846593
1246.0,0.0031708167660473947
1245.0,0.0031338060616242355
1244.0,0.0030927575512482066
1243.0,0.0030516576351892425
1242.0,0.003016826227829326
1241.0,0.0029913432921671755
1240.0,0.002973876761674473
1239.0,0.0029597640337429157
1238.0,0.0029428260452288076
1237.0,0.0029196511605592956
1236.0,0.0028934734119621334
1235.0,0.002872221309906644
1234.0,0.00286229142361975
1233.0,0.002864358042084252
1232.0,0.00287287160424818
1231.0,0.002878134720730295
1230.0,0.0028741907456220203
1229.0,0.0028694867089544976
1228.0,0.002884142765424943
1227.0,0.0029293194182243992
1226.0,0.0029926512660411785
1225.0,0.00305246374832194
1224.0,0.003103276437710827
1223.0,0.0031561209472789004
1222.0,0.003214565579082245
1221.0,0.003263039493896086
1220.0,0.003283384363234783
1219.0,0.0032745152999928123
1218.0,0.0032497617689068066
1217.0,0.0032196478151567866
1216.0,0.0031834110405916573
1215.0,0.003135355953265412
1214.0,0.0030748854021807465
1213.0,0.0030107727868049616
1212.0,0.0029568225904062244
1211.0,0.0029206168074430803
1210.0,0.0028954926105494655
1209.0,0.002867055617358237
1208.0,0.0028290856621586034
1207.0,0.0027898688230860473
1206.0,0.0027619568599737054
1205.0,0.0027493395386241296
1204.0,0.0027466395093242663
1203.0,0.0027470494506015046
1202.0,0.0027479925785938537
1201.0,0.0027506693460521607
1200.0,0.0027558754179382357
1199.0,0.002760663919980368
1198.0,0.002761097615706764
1197.0,0.0027602778446223835
1196.0,0.002770086334555416
1195.0,0.002800031504562499
1194.0,0.0028451523503009585
1193.0,0.0028896541659784785
1192.0,0.0029221994056803915
1191.0,0.0029437751642746868
1190.0,0.002961771174732857
1189.0,0.0029812146558825074
1188.0,0.0030020915531180532
1187.0,0.0030210997448280623
1186.0,0.003035596563207273
1185.0,0.0030489817074964218
1184.0,0.0030717799666319066
1183.0,0.003114349651306171
1182.0,0.003178684071968982
1181.0,0.0032605624691690958
1180.0,0.0033593664691428243
1179.0,0.0034831225743574713
1178.0,0.0036448459192457375
1177.0,0.003857477881149717
1176.0,0.004131871373035176
1175.0,0.004477693883535427
1174.0,0.004907557219507119
1173.0,0.005437984744970233
1172.0,0.00607393563897379
1171.0,0.006781990786576082
1170.0,0.007482616978685696
1169.0,0.008076927074227648
1168.0,0.00848424324535466
1167.0,0.008666869351933514
1166.0,0.008641123678014919
1165.0,0.008469405131943704
1164.0,0.008230734968846335
1163.0,0.007989201623031574
1162.0,0.007781305202596662
1161.0,0.007620138995546149
1160.0,0.007505323704286923
1159.0,0.007430909472957908
1158.0,0.0073900002775998015
1157.0,0.007376048880022896
1156.0,0.007380890951839145
1155.0,0.007392745066862806
1154.0,0.007397385756838947
1153.0,0.007379905346547968
1152.0,0.007325585516865393
1151.0,0.007224353211023731
1150.0,0.007079239075356621
1149.0,0.006907785504545927
1148.0,0.006731974835789321
1147.0,0.006567841831452212
1146.0,0.006423001838613274
1145.0,0.006298400984236192
1144.0,0.0061895311954110865
1143.0,0.006089105593869295
1142.0,0.005992598609631666
1141.0,0.005901701526073458
1140.0,0.005821848180756513
1139.0,0.00575749690068203
1138.0,0.005709287929956732
1137.0,0.005672974921331333
1136.0,0.00564106217160916
1135.0,0.005610048364831713
1134.0,0.005587717046764877
1133.0,0.005587494015608695
1132.0,0.005611626779066211
1131.0,0.00564468101964811
1130.0,0.005668971686414283
1129.0,0.005682442809289586
1128.0,0.005695881286486355
1127.0,0.00571848127869469
1126.0,0.005754340862052641
1125.0,0.005807335133832858
1124.0,0.005876234942773631
1123.0,0.005945220056121353
1122.0,0.005992126401534174
1121.0,0.006010599812245162
1120.0,0.006016267148069843
1119.0,0.006029455772872169
1118.0,0.006058507634334066
1117.0,0.006098776591504327
1116.0,0.006138181989191971
1115.0,0.006162252275988713
1114.0,0.0061642238573253755
1113.0,0.0061551970552783195
1112.0,0.006158158796709954
1111.0,0.0061896867622203856
1110.0,0.0062520006732044355
1109.0,0.006342031188541436
1108.0,0.006458031842170916
1107.0,0.006592823486308703
1106.0,0.006730073959913726
1105.0,0.0068512667566935585
1104.0,0.006939950887633011
1103.0,0.006978894530653017
1102.0,0.006955050296810043
1101.0,0.0068720822911968234
1100.0,0.00675098322174889
1099.0,0.006615416331890844
1098.0,0.006480745280078611
1097.0,0.006356595485495494
1096.0,0.006249298811692063
1095.0,0.006155649038031008
1094.0,0.006061803625954069
1093.0,0.005957862669193889
1092.0,0.005849956589893001
1091.0,0.005750218918054105
1090.0,0.005659131046017136
1089.0,0.005568609562871309
1088.0,0.005481074301529691
1087.0,0.005411511269497219
1086.0,0.005364634752480824
1085.0,0.005320883083903079
1084.0,0.005256075561276073
1083.0,0.00517036640878177
1082.0,0.0050869556347464834
1081.0,0.005022446638915035
1080.0,0.004968735613677321
1079.0,0.004907185372280206
1078.0,0.004832034325755732
1077.0,0.0047531732883011515
1076.0,0.00468095877002578
1075.0,0.004616409178946072
1074.0,0.004554418597774182
1073.0,0.004488964663665997
1072.0,0.004414660953411274
1071.0,0.004330935800251635
1070.0,0.004248052561108323
1069.0,0.004181952498319361
1068.0,0.004137149536922858
1067.0,0.004098698342653943
1066.0,0.004047798592014002
1065.0,0.003983695275528838
1064.0,0.00392307881547075
1063.0,0.0038785194073742736
1062.0,0.0038447624237696026
1061.0,0.0038084504617133894
1060.0,0.003765682355684686
1059.0,0.003726032054949934
1058.0,0.003702273076157418
1057.0,0.003699161034193559
1056.0,0.0037106545142714265
1055.0,0.003726109368402024
1054.0,0.003740679279180273
1053.0,0.003759688724155016
1052.0,0.003789553351677733
1051.0,0.003826251152207997
1050.0,0.003860608578025204
1049.0,0.003893882382498517
1048.0,0.003935987310356225
1047.0,0.003986734215400993
1046.0,0.004030058996762726
1045.0,0.00404782758094057
1044.0,0.004029737825967269
1043.0,0.0039714684815967405
1042.0,0.0038768256329711308
1041.0,0.003765739180542819
1040.0,0.003668693968114957
1039.0,0.0036035182759294373
1038.0,0.00356079581230548
1037.0,0.0035178884164527822
1036.0,0.003462653909219073
1035.0,0.003398070031969595
1034.0,0.0033313800226122386
1033.0,0.00326873145238743
1032.0,0.0032175921697737767
1031.0,0.0031842086874398264
1030.0,0.0031672328508668204
1029.0,0.0031597665755849404
1028.0,0.003156384028585337
1027.0,0.0031521707767315776
1026.0,0.0031386990900549756
1025.0,0.003111166333453824
1024.0,0.0030792936562725887
1023.0,0.0030609808705631437
1022.0,0.003061225397966206
1021.0,0.003063881480940653
1020.0,0.0030484918811489233
1019.0,0.0030107254869597613
1018.0,0.002963129309423272
1017.0,0.002919800704252226
1016.0,0.002884789274917159
1015.0,0.002853190283829271
1014.0,0.0028186036026754506
1013.0,0.002779326191302835
1012.0,0.002739933840738805
1011.0,0.0027079934402151878
1010.0,0.002689397652118621
1009.0,0.0026878503311814246
1008.0,0.0027091721633039512
1007.0,0.0027646019674680573
1006.0,0.002868828947571324
1005.0,0.0030360631640382624
1004.0,0.0032808657253967487
1003.0,0.0036240353045539596
1002.0,0.004091422669649311
1001.0,0.0046881593652995275
1000.0,0.005351416331099146
999.0,0.005926651301752553
998.0,0.0062206735112727545
997.0,0.006112866326725929
996.0,0.005630150821627336
995.0,0.004923809246960786
994.0,0.004177302248022289
993.0,0.0035193805027037457
992.0,0.002996389253791025
991.0,0.0025982795150743306
990.0,0.0022967718061145323
989.0,0.0020695607814524668
988.0,0.0019068182806718462
987.0,0.0018047548375363827
986.0,0.0017578076698998683
985.0,0.001760446393513396
984.0,0.001814278060310307
983.0,0.001928034596892213
982.0,0.0021126760726064165
981.0,0.0023829933160334944
980.0,0.002761624453815042
979.0,0.003271520590914831
978.0,0.003919788843487818
977.0,0.004686199121486092
976.0,0.005512204650370799
975.0,0.006284376742692641
974.0,0.0068377838189515
973.0,0.0070082178897725115
972.0,0.006714606616090111
971.0,0.00601560033995799
970.0,0.005091031569117202
969.0,0.004151566630437441
968.0,0.003345798712235566
967.0,0.0027257227998004167
966.0,0.0022678172232188515
965.0,0.0019185884022030059
964.0,0.001635538223432772
963.0,0.0014015283276040654
962.0,0.0012118377097473949
961.0,0.0010570410356446139
960.0,0.0009222742942884164
959.0,0.0007979020710032108
958.0,0.0006846530006457052
957.0,0.000588775292974417
956.0,0.0005144267725611324
955.0,0.0004589784133322058
954.0,0.0004138728685888623
953.0,0.0003717241504535909
952.0,0.00033263076858321746
951.0,0.0003006303689389008
950.0,0.00027566501505541224
949.0,0.00025508759337971535
948.0,0.00024221565138470968
947.0,0.0002446487832390284
946.0,0.00026273913525325966
945.0,0.0002895034447622782
944.0,0.0003248543079940108
943.0,0.00037759771623673
942.0,0.00044453895708251867
941.0,0.0004970098700067885
940.0,0.0005008985006614754
939.0,0.0004482796825965663
938.0,0.00036025154298434826
937.0,0.0002606518272417514
936.0,0.00015864211701575436
935.0,5.789582006162763e-05
934.0,-3.1386114000471824e-05
933.0,-9.792183608945803e-05
932.0,-0.00014000633559974399
931.0,-0.0001643309371558762
930.0,-0.0001781872929327473
929.0,-0.0001872747439300446
928.0,-0.00019699001070169753
927.0,-0.0002095638376628352
926.0,-0.000220550735473995
925.0,-0.00022305109671151308
924.0,-0.0002161047110388909
923.0,-0.00020565844965522283
922.0,-0.00019714786938086672
921.0,-0.0001907016049046209
920.0,-0.0001846961172590443
919.0,-0.00018020164342038084
918.0,-0.00017925112905970656
917.0,-0.00018163147868332109
916.0,-0.00018636179743678448
915.0,-0.0001935045503601157
914.0,-0.0001998569083400308
913.0,-0.00019416669059530572
912.0,-0.00016245756225551251
911.0,-0.00010036121484774049
910.0,-1.784364510465635e-05
909.0,6.930428596855533e-05
908.0,0.0001513046076114929
907.0,0.00023185284871346523
906.0,0.000332524500271247
905.0,0.0004895977542358227
904.0,0.0007345067487624741
903.0,0.0010657125923810669
902.0,0.0014372283066952686
901.0,0.0017754993405432774
900.0,0.0020059393860681115
899.0,0.0020727608528887075
898.0,0.0019570824989448114
897.0,0.0016898015636296285
896.0,0.0013425851394834667
895.0,0.000996821997810174
894.0,0.0007109757913190276
893.0,0.0005065555305485943
892.0,0.0003748967000573528
891.0,0.00029109329667875456
890.0,0.0002275161800591001
889.0,0.00016796238978598974
888.0,0.00011500305007754348
887.0,8.049861035775655e-05
886.0,6.816157783123226e-05
885.0,6.97275901272252e-05
884.0,7.814550126393743e-05
883.0,9.73504109682815e-05
882.0,0.00013527053949571183
881.0,0.00019185365950553403
880.0,0.0002587293625560972
879.0,0.0003281466801045808
878.0,0.00039676975638483665
877.0,0.00045979058048848786
876.0,0.0005058698368040236
875.0,0.0005233782922336033
874.0,0.0005128670718002621
873.0,0.0004886093747536345
872.0,0.00046347148466192
871.0,0.00043492727897458203
870.0,0.00039086112409661856
869.0,0.00032864112374975454
868.0,0.00026370478654547894
867.0,0.00021741707053966452
866.0,0.00019844125999284121
865.0,0.0001972064763663163
864.0,0.000197322678300969
863.0,0.00019118841414090051
862.0,0.0001850762074046301
861.0,0.00018955614796966908
860.0,0.0002059868932723849
859.0,0.00022587631201432656
858.0,0.00024500181221287325
857.0,0.0002721320026017361
856.0,0.0003164533906373605
855.0,0.0003695781331267793
854.0,0.00041131326071762713
853.0,0.0004354755830488352
852.0,0.0004592687914313186
851.0,0.0005029389359581492
850.0,0.0005702011613601364
849.0,0.0006561689350560382
848.0,0.0007696205898990362
847.0,0.0009442197117683904
846.0,0.001235462190448051
845.0,0.0017025815656084246
844.0,0.0023585891689086955
843.0,0.0030998130575600642
842.0,0.00369402709755645
841.0,0.0038945011453152163
840.0,0.003612029419896275
839.0,0.002986484592463458
838.0,0.0022838265180050703
837.0,0.0017155077310523122
836.0,0.0013452580367439432
835.0,0.0011294302094088816
834.0,0.0010011494687964442
833.0,0.0009152287794266124
832.0,0.0008493775187697894
831.0,0.0007947079114678877
830.0,0.0007492520488408122
829.0,0.0007114435138324288
828.0,0.0006796503654931327
827.0,0.0006595484942236111
826.0,0.000661743098693315
825.0,0.0006824525421758286
824.0,0.0006967319803498698
823.0,0.0006865236089966566
822.0,0.0006676123001058687
821.0,0.0006719217812459488
820.0,0.000711565635318278
819.0,0.0007772013498220359
818.0,0.0008646353760325323
817.0,0.0009861397766303577
816.0,0.0011549745207862679
815.0,0.0013712440752444328
814.0,0.0016277108633346513
813.0,0.001918111892913613
812.0,0.002228932088781145
811.0,0.00252750505312865
810.0,0.002768040544817019
809.0,0.002909540761314765
808.0,0.0029269495865128746
807.0,0.002817209128332932
806.0,0.002605033139348763
805.0,0.002337589683072334
804.0,0.0020676407507226654
803.0,0.0018397258084701593
802.0,0.0016806062013931186
801.0,0.001588444078740427
800.0,0.0015333796234792748
799.0,0.0014816832681857645
798.0,0.001423375431080967
797.0,0.0013691477283078284
796.0,0.0013230245956886329
795.0,0.0012746577940109059
794.0,0.0012214160613287263
793.0,0.0011792651014315148
792.0,0.001160121990470827
791.0,0.0011517008204986242
790.0,0.0011338147316540086
789.0,0.0011063290489338358
788.0,0.0010877325718030729
787.0,0.0010899610242520417
786.0,0.0011047678827930812
785.0,0.0011130206507937168
784.0,0.0011008420164971902
783.0,0.0010711273223948086
782.0,0.001046182749330429
781.0,0.0010525669417180035
780.0,0.001094520963573353
779.0,0.0011469070689475083
778.0,0.001181594330405527
777.0,0.0011946918399321424
776.0,0.0011999734348444833
775.0,0.0012057918787719245
774.0,0.0012133582110598045
773.0,0.0012314099630859141
772.0,0.0012732255687321736
771.0,0.0013359879723938203
770.0,0.0013977379942885712
769.0,0.0014414909671672301
768.0,0.0014730355663734266
767.0,0.001508925588514124
766.0,0.0015548358795029246
765.0,0.001603716495225017
764.0,0.0016508451340988897
763.0,0.0017016641381366916
762.0,0.0017621964957531822
761.0,0.0018248674823559234
760.0,0.0018695481111730208
759.0,0.001883461773038544
758.0,0.0018791088308221186
757.0,0.0018863496101244812
756.0,0.0019247207585111094
755.0,0.001988159893658749
754.0,0.0020564554893569738
753.0,0.002113265195248591
752.0,0.002150076029727027
751.0,0.0021626927946731354
750.0,0.002153678427691
749.0,0.0021351858820070693
748.0,0.002122621622970163
747.0,0.002125137107552369
746.0,0.0021419936836870757
745.0,0.0021637846050295076
744.0,0.0021775957131925355
743.0,0.0021776409967110503
742.0,0.0021722827576776908
741.0,0.002174952398849817
740.0,0.0021890129396415683
739.0,0.0022095859956269386
738.0,0.002237194896200858
737.0,0.002277652152538943
736.0,0.0023321556658431053
735.0,0.002404743491449911
734.0,0.0025178676858353937
733.0,0.0026948944157470043
732.0,0.0029148151642358205
731.0,0.0031046277854600464
730.0,0.0031977363473400834
729.0,0.003193505682443157
728.0,0.0031478463141663467
727.0,0.003118022374161235
726.0,0.0031325417506431665
725.0,0.0031994780085505305
724.0,0.0033183048396595964
723.0,0.0034832997230048145
722.0,0.0036860245935460226
721.0,0.003909662344732412
720.0,0.0041123522009401305
719.0,0.004232225159141061
718.0,0.004227260303003773
717.0,0.004098276239743837
716.0,0.0038713796261697787
715.0,0.003581576277402746
714.0,0.0032770192898168796
713.0,0.0030161596162947574
712.0,0.002841278127317222
711.0,0.002754994094434809
710.0,0.0027302334549229295
709.0,0.0027428474964597185
708.0,0.002790097033615921
707.0,0.0028818002423607967
706.0,0.0030252299635431835
705.0,0.0032207458474161066
704.0,0.0034621118019188147
703.0,0.0037343402818144095
702.0,0.004011195717062434
701.0,0.004253116593279448
700.0,0.004410496589776663
699.0,0.004441535252541965
698.0,0.004336037323239466
697.0,0.004119313372502299
696.0,0.0038312264721643355
695.0,0.0035104305364867926
694.0,0.003196408868884934
693.0,0.0029254661672709157
692.0,0.00271477860395815
691.0,0.002556831099933184
690.0,0.002433257610343303
689.0,0.0023285951766871867
688.0,0.0022314023438113964
687.0,0.0021400778621303903
686.0,0.0020723278822655875
685.0,0.0020492787719380776
684.0,0.0020640563380899205
683.0,0.0020820253141583204
682.0,0.0020781599112941005
681.0,0.0020585039494375977
680.0,0.0020415567631842484
679.0,0.0020334111264560095
678.0,0.002030659363449396
677.0,0.0020267135807196385
676.0,0.0020127078808305117
675.0,0.0019828763215467855
674.0,0.0019371304452168933
673.0,0.0018900930719855397
672.0,0.00184763055004355
671.0,0.0018045115325074426
670.0,0.0017494550547066702
669.0,0.0017222458372866383
668.0,0.0017818219183535853
667.0,0.0018615555501605482
666.0,0.001879531706031107
665.0,0.0018232499642405007
664.0,0.0017140630809129916
663.0,0.0016069613019986159
662.0,0.0015378818617498655
661.0,0.0015051848930861759
660.0,0.0014828368665806436
659.0,0.0014456905245041913
658.0,0.0013987176152728265
657.0,0.0013672943549209154
656.0,0.0013657664728676158
655.0,0.00137712313650723
654.0,0.0013671147846119683
653.0,0.0013237217269418938
652.0,0.0012671799973930122
651.0,0.0012277082175405525
650.0,0.0012245713078762183
649.0,0.0012542352808532272
648.0,0.0012896096049115086
647.0,0.0012964416325315538
646.0,0.001262626646560818
645.0,0.001207137198558226
644.0,0.0011553475184013437
643.0,0.0011177094017013386
642.0,0.0010903858184113692
641.0,0.0010588859411588495
640.0,0.000999210175971283
639.0,0.0008947897094273207
638.0,0.000763734046222082
637.0,0.0006536703894323148
636.0,0.0005990276665670414
635.0,0.0005922226310951795
634.0,0.0005975623147633242
633.0,0.0005830738278386326
632.0,0.0005364143490523398
631.0,0.0004690234002494541
630.0,0.0004157756877397733
629.0,0.00040882519288194114
628.0,0.0004426599195622872
627.0,0.0004795427112017081
626.0,0.0004934491447149292
625.0,0.0004912514004720633
624.0,0.000482364538537481
623.0,0.00045731783330656313
622.0,0.00041534655384106896
621.0,0.0003804190997070602
620.0,0.0003636381013783288
619.0,0.0003377381926819214
618.0,0.00027958057686687694
617.0,0.00021491243999242557
616.0,0.00018284702736217316
615.0,0.00017719741370921666
614.0,0.0001635134535280438
613.0,0.0001336382443272912
612.0,0.000105552339452036
611.0,8.428784772996148e-05
610.0,5.935408854249903e-05
609.0,3.650521580935394e-05
608.0,4.257116091463224e-05
607.0,8.923234580393569e-05
606.0,0.00014257326260518066
605.0,0.00014097003385319697
604.0,4.746826691540661e-05
603.0,-0.00010599805523529328
602.0,-0.00022976919014649523
601.0,-0.0002576253645546929
600.0,-0.0002162581205775449
