cm-1,A
4000.0,0.001175049434858813
3999.0,0.0011580805868068832
3998.0,0.0011686934303423886
3997.0,0.0012088423694668806
3996.0,0.0012528436356347913
3995.0,0.0012761298286577197
3994.0,0.001283561550134149
3993.0,0.00130036542976702
3992.0,0.0013359059109766692
3991.0,0.0013727236505848405
3990.0,0.0013976870647650647
3989.0,0.0014243833871512793
3988.0,0.0014714987126138081
3987.0,0.0015256825450654637
3986.0,0.001548365548115254
3985.0,0.0015204621591926714
3984.0,0.0014688861665680345
3983.0,0.001442337815993797
3982.0,0.0014598749090693319
3981.0,0.0014905014104739881
3980.0,0.0014800218416245198
3979.0,0.0014036042799498594
3978.0,0.0012926403527648385
3977.0,0.0012152291284730143
3976.0,0.001229198994521243
3975.0,0.0013249643423603576
3974.0,0.0014299387501037555
3973.0,0.001475812332968984
3972.0,0.001460904247867904
3971.0,0.001439862098336981
3970.0,0.0014627130848621902
3969.0,0.0015441912022100355
3968.0,0.0016609073835070938
3967.0,0.001773374071010015
3966.0,0.0018450272547524856
3965.0,0.0018577784923276483
3964.0,0.0018231622177915796
3963.0,0.0017706013092011908
3962.0,0.0017281613614315555
3961.0,0.0017075001234082687
3960.0,0.0017096333826468642
3959.0,0.0017266159026525871
3958.0,0.0017271721558014125
3957.0,0.0016818951230316839
3956.0,0.0015929555760078014
3955.0,0.0014942923018883732
3954.0,0.001415069806984819
3953.0,0.0013591198930811756
3952.0,0.0013160259585581974
3951.0,0.0012909958832727957
3950.0,0.0013185522327207183
3949.0,0.0014128872448959393
3948.0,0.0015196730409067528
3947.0,0.0015651268573250972
3946.0,0.0015407919135697395
3945.0,0.0014694780897705137
3944.0,0.0013735777094966229
3943.0,0.0012977134614581996
3942.0,0.0012752258135073045
3941.0,0.001334469960120565
3940.0,0.0015026416059306432
3939.0,0.0017206201315566813
3938.0,0.0018522787706043977
3937.0,0.0018202704084270193
3936.0,0.001663256861111676
3935.0,0.0014717959319047753
3934.0,0.0013179387528185803
3933.0,0.001253890427571019
3932.0,0.0012983905884172012
3931.0,0.0013923277723130387
3930.0,0.0014684562466367639
3929.0,0.0015193880648545332
3928.0,0.0015495626058004983
3927.0,0.0015483029823111063
3926.0,0.0014945692928453906
3925.0,0.0014006588907658924
3924.0,0.0013137190131569977
3923.0,0.0012869758523102173
3922.0,0.0013476102285712218
3921.0,0.001406608850475076
3920.0,0.0013721433582898034
3919.0,0.0013294818003083825
3918.0,0.0014219391408315943
3917.0,0.0016512096829804845
3916.0,0.0018891788951196633
3915.0,0.0020717489495645433
3914.0,0.0022318263500583574
3913.0,0.002358671673350632
3912.0,0.002417283151627309
3911.0,0.0024256884117161417
3910.0,0.002384635573839144
3909.0,0.0022540161973086635
3908.0,0.0019810644834599416
3907.0,0.0015953953738381639
3906.0,0.0012256078617553503
3905.0,0.0010564667126335492
3904.0,0.0011265676549970611
3903.0,0.0012589344022434727
3902.0,0.0013733065957956389
3901.0,0.0015368151885046324
3900.0,0.001691984679817649
3899.0,0.0017068145144071923
3898.0,0.0016210006601614611
3897.0,0.001599638228588246
3896.0,0.001660381056037107
3895.0,0.0016616383089600928
3894.0,0.001589149343656341
3893.0,0.0016403589814995888
3892.0,0.0019127978728767777
3891.0,0.0020785237623595085
3890.0,0.0018913355516191098
3889.0,0.0017419566676305735
3888.0,0.0018859765288850574
3887.0,0.0021034753151076514
3886.0,0.002220473445306792
3885.0,0.0021600008092821036
3884.0,0.0019072724531504067
3883.0,0.001732594033058774
3882.0,0.0017211539325773509
3881.0,0.0017363494662215205
3880.0,0.001678851005163109
3879.0,0.0015179440300047593
3878.0,0.001509821640110042
3877.0,0.0017607914360170552
3876.0,0.001915650887939129
3875.0,0.0017132632729280686
3874.0,0.0012601911551460912
3873.0,0.000855180134934702
3872.0,0.0007817028377369358
3871.0,0.0010499036236462757
3870.0,0.0013332649246547154
3869.0,0.0012612416420456976
3868.0,0.0010293278567101377
3867.0,0.0010943133605529568
3866.0,0.0012433175052594773
3865.0,0.0012114759549962826
3864.0,0.0012418794014502875
3863.0,0.0014099612076298833
3862.0,0.001555298422255832
3861.0,0.0016306786137934987
3860.0,0.0016235493773737305
3859.0,0.0015445093653500067
3858.0,0.0014017216772363164
3857.0,0.00124228115040603
3856.0,0.0011565249175621564
3855.0,0.001361314586831218
3854.0,0.002212373250864089
3853.0,0.002956422365675419
3852.0,0.0024034978256958486
3851.0,0.0017935637829583923
3850.0,0.002030098157198265
3849.0,0.002391374316901256
3848.0,0.002459156677667291
3847.0,0.0023595894467902485
3846.0,0.0022325682014332207
3845.0,0.0020884518759383807
3844.0,0.0019158838266873958
3843.0,0.0016639023069640931
3842.0,0.0013353005614112285
3841.0,0.0010642598557305902
3840.0,0.0009680215478536855
3839.0,0.001050738363979533
3838.0,0.0011453464800055468
3837.0,0.001133061997686249
3836.0,0.0011519473713235253
3835.0,0.001378406794136383
3834.0,0.0017416265293524972
3833.0,0.0020534733983598175
3832.0,0.002188241504273762
3831.0,0.002143772719207168
3830.0,0.002033330132485198
3829.0,0.0019694999096365002
3828.0,0.0019349639758154558
3827.0,0.0018156619611801065
3826.0,0.0015437323755558069
3825.0,0.0012261970404618934
3824.0,0.0010350774779195777
3823.0,0.0009391802695966935
3822.0,0.0009403884174212949
3821.0,0.001109768900434958
3820.0,0.0010235990721480558
3819.0,0.0008989951088339953
3818.0,0.0013093083301088564
3817.0,0.001945386947243873
3816.0,0.0023426085307387172
3815.0,0.0023457340882066004
3814.0,0.002301718981403973
3813.0,0.0025848516051094166
3812.0,0.0028869803958032902
3811.0,0.0028447551787252404
3810.0,0.002621667521710603
3809.0,0.0025163283179368313
3808.0,0.0025677599142451338
3807.0,0.002501964652671428
3806.0,0.0020585682506363296
3805.0,0.0015428713462411203
3804.0,0.001375653237363804
3803.0,0.0014364461429741274
3802.0,0.0016498603607495261
3801.0,0.0018048123955017792
3800.0,0.0015810467540165298
3799.0,0.001540167485260621
3798.0,0.0019629394355859192
3797.0,0.0024432690293795852
3796.0,0.0027392977584521274
3795.0,0.002886831690148745
3794.0,0.0030658095776721307
3793.0,0.003295755724146956
3792.0,0.0034132474017184835
3791.0,0.0033673910424514538
3790.0,0.0032624622829662137
3789.0,0.003161528503345821
3788.0,0.0030559005017684665
3787.0,0.0029470043637007627
3786.0,0.002864066618830826
3785.0,0.0027899013197576266
3784.0,0.0026736429599467735
3783.0,0.0025459168229013613
3782.0,0.0024906307480481614
3781.0,0.0024907432664432504
3780.0,0.002505379562572088
3779.0,0.0025236311172055267
3778.0,0.0025330780864397514
3777.0,0.0026421545014092733
3776.0,0.002883713452960966
3775.0,0.00306781987707235
3774.0,0.003073678973172701
3773.0,0.0029991951184638347
3772.0,0.0029583055076103015
3771.0,0.0029394532155361955
3770.0,0.002869959417547422
3769.0,0.0027295446142092594
3768.0,0.002646294689524987
3767.0,0.00272693903372987
3766.0,0.0028171172829990687
3765.0,0.0027349496611494906
3764.0,0.002537465305423735
3763.0,0.0024469851281815396
3762.0,0.002497757007713353
3761.0,0.0024836926498002024
3760.0,0.0023556707679538557
3759.0,0.00220109270766036
3758.0,0.0019726847256004215
3757.0,0.0016713363167165773
3756.0,0.0014492391800023452
3755.0,0.0013617028324693862
3754.0,0.0012209580191136623
3753.0,0.0008409626110539078
3752.0,0.000553549327536716
3751.0,0.0009083838195828786
3750.0,0.0013803708674157283
3749.0,0.0013016363279580887
3748.0,0.0011671181522241092
3747.0,0.0015066719520442301
3746.0,0.002185465390778207
3745.0,0.0028352295482705217
3744.0,0.0028499099509887056
3743.0,0.002129888295878117
3742.0,0.0017295671766689794
3741.0,0.0018888664798022287
3740.0,0.0018687532359125646
3739.0,0.001516325053255576
3738.0,0.0011117444833615405
3737.0,0.0008087407413699798
3736.0,0.0006884448028032595
3735.0,0.0008323035167467014
3734.0,0.0011873347315938792
3733.0,0.001720028252441017
3732.0,0.002254183141422442
3731.0,0.002558807944572275
3730.0,0.0027001201287154422
3729.0,0.002796876419289442
3728.0,0.0027662530347167284
3727.0,0.0025427047105423296
3726.0,0.00224547037434647
3725.0,0.0020361109854512074
3724.0,0.002000523936083007
3723.0,0.0021005212136954348
3722.0,0.0022663998711602235
3721.0,0.0024693280621977875
3720.0,0.002712948392817961
3719.0,0.0029694056409995256
3718.0,0.003115766630383301
3717.0,0.003061600994314825
3716.0,0.0028693614071946877
3715.0,0.002641733939448533
3714.0,0.0023769928409772935
3713.0,0.002110601550894998
3712.0,0.0020596049678369265
3711.0,0.00218720672446152
3710.0,0.002212557187998324
3709.0,0.0023034959443422086
3708.0,0.002661331972544205
3707.0,0.0031212710194450993
3706.0,0.0034739023244301573
3705.0,0.0036701149789459863
3704.0,0.003761601430406514
3703.0,0.0038390532450638497
3702.0,0.003988870667801289
3701.0,0.004161577189313982
3700.0,0.004291419562796694
3699.0,0.004447299347224561
3698.0,0.004601978359202294
3697.0,0.004604176099167363
3696.0,0.004433715123945618
3695.0,0.004213864994584497
3694.0,0.003996400556707026
3693.0,0.003697456938054131
3692.0,0.0033259759997336788
3691.0,0.0031807886413151715
3690.0,0.0035585488668133146
3689.0,0.004115626018796316
3688.0,0.004281060505807907
3687.0,0.0042780158222160925
3686.0,0.004569861313905138
3685.0,0.005057776904688751
3684.0,0.005388525768321271
3683.0,0.005445470843598076
3682.0,0.005328494419950269
3681.0,0.005108722398265292
3680.0,0.004742486050991786
3679.0,0.004272822500784127
3678.0,0.0039389331898029385
3677.0,0.0039871542844353725
3676.0,0.0045388485994866945
3675.0,0.0049153682445935536
3674.0,0.004630998396457572
3673.0,0.004614731172165747
3672.0,0.0050670415535615364
3671.0,0.0054442560476858255
3670.0,0.005860939179034916
3669.0,0.0062273297556246655
3668.0,0.006441925107377046
3667.0,0.00687370019834088
3666.0,0.007442472542058943
3665.0,0.007856267370490028
3664.0,0.008095175562308952
3663.0,0.00823811006587544
3662.0,0.00828596144816244
3661.0,0.008205502772761128
3660.0,0.008058545976729715
3659.0,0.008001228929112267
3658.0,0.00816381137807057
3657.0,0.008531759518258944
3656.0,0.00885459317963815
3655.0,0.008890790218234232
3654.0,0.008812523221106493
3653.0,0.008714426004158442
3652.0,0.008347983766655217
3651.0,0.007795517575434207
3650.0,0.007882802120140933
3649.0,0.008601627599506384
3648.0,0.00875958491159364
3647.0,0.008533801750307135
3646.0,0.008729581866789385
3645.0,0.009358807440141507
3644.0,0.010095815618376615
3643.0,0.010677187284463577
3642.0,0.011045837095657825
3641.0,0.011271871962844664
3640.0,0.011443341366145615
3639.0,0.011602069177854692
3638.0,0.01173978304105819
3637.0,0.011874977886507428
3636.0,0.012039269100192353
3635.0,0.012168911776349763
3634.0,0.012172524707048644
3633.0,0.012093196420673889
3632.0,0.012119017397000147
3631.0,0.012322269567418739
3630.0,0.012754004839197013
3629.0,0.013452334216672114
3628.0,0.013782115690137594
3627.0,0.013688007825577043
3626.0,0.013977699865669428
3625.0,0.014507023640810954
3624.0,0.014761572069627825
3623.0,0.014718529583373812
3622.0,0.014589266245802156
3621.0,0.01454685174355676
3620.0,0.014696644688093043
3619.0,0.014979204958278751
3618.0,0.01515097599178902
3617.0,0.01525637725690852
3616.0,0.015484699938000245
3615.0,0.01577439244891043
3614.0,0.016005039346262063
3613.0,0.01615178469014534
3612.0,0.01626207595816793
3611.0,0.016444942422454853
3610.0,0.01675513359839353
3609.0,0.017143740442044378
3608.0,0.017521247093267356
3607.0,0.017780249460428364
3606.0,0.017962209037457585
3605.0,0.01818961212171375
3604.0,0.018420161441082383
3603.0,0.018552240894825295
3602.0,0.018593484654219474
3601.0,0.01863243544390869
3600.0,0.018742031026935727
3599.0,0.01895617490275905
3598.0,0.019270835944849695
3597.0,0.01963597441067709
3596.0,0.019997523279825728
3595.0,0.020296789142404816
3594.0,0.02046974525803105
3593.0,0.020514935582404616
3592.0,0.020526789464661487
3591.0,0.020564716818958093
3590.0,0.020629781489322874
3589.0,0.02080572248247064
3588.0,0.021243370557613005
3587.0,0.021711703978873023
3586.0,0.021909902357329498
3585.0,0.022121921649556425
3584.0,0.022587931594549717
3583.0,0.02312818853666203
3582.0,0.02354479945500674
3581.0,0.023801421674277966
3580.0,0.02395547324947462
3579.0,0.024073638546502785
3578.0,0.024224803714203054
3577.0,0.02446283704104688
3576.0,0.02479656318808714
3575.0,0.025152811011356625
3574.0,0.025417210456357826
3573.0,0.025519245758387613
3572.0,0.025475834439036102
3571.0,0.025350938610617043
3570.0,0.025213563454640004
3569.0,0.025150920871799428
3568.0,0.025322200577911312
3567.0,0.025698601859953037
3566.0,0.02591321173178433
3565.0,0.025949071260307745
3564.0,0.02613856046186078
3563.0,0.02653320448720672
3562.0,0.02701077560006128
3561.0,0.027516815823374598
3560.0,0.028013022203372862
3559.0,0.028428219645395707
3558.0,0.028726334213393268
3557.0,0.028937105781123455
3556.0,0.02910664062179269
3555.0,0.029272498213157146
3554.0,0.029464300293908466
3553.0,0.029691990827952708
3552.0,0.029907570146292292
3551.0,0.030066988453361754
3550.0,0.03020536262827969
3549.0,0.03036375928742366
3548.0,0.030535353690771323
3547.0,0.0307304588042824
3546.0,0.030973012464914122
3545.0,0.031244350969802367
3544.0,0.031530061927834856
3543.0,0.03185514646072593
3542.0,0.03221901058011657
3541.0,0.03257043600131162
3540.0,0.032854815738528866
3539.0,0.03307064126501546
3538.0,0.033277860616441585
3537.0,0.03354088230809439
3536.0,0.03384549528492174
3535.0,0.034126507845751844
3534.0,0.03437017646354039
3533.0,0.03461269710457235
3532.0,0.03486251852317823
3531.0,0.035079132344762405
3530.0,0.03522755809898945
3529.0,0.03531805426294408
3528.0,0.035390279611253676
3527.0,0.03548007825255944
3526.0,0.03563218329409157
3525.0,0.035906171930022636
3524.0,0.036325090097718844
3523.0,0.03681106823918909
3522.0,0.03723245635122988
3521.0,0.03753600516991227
3520.0,0.0377690257899738
3519.0,0.03799808902854181
3518.0,0.038258525158189685
3517.0,0.03854609890155866
3516.0,0.03882080633773555
3515.0,0.03903263138793052
3514.0,0.039171381712836156
3513.0,0.039291634840022814
3512.0,0.039469657852510526
3511.0,0.03972551734449202
3510.0,0.040001838883254204
3509.0,0.040220650479647485
3508.0,0.0403696489608948
3507.0,0.04051107992196571
3506.0,0.040705680811437085
3505.0,0.040974770802111496
3504.0,0.0413185290782559
3503.0,0.04169189182119218
3502.0,0.04201971380806216
3501.0,0.04228488434809479
3500.0,0.04251394805654582
3499.0,0.04270642264823314
3498.0,0.04285823833822492
3497.0,0.04300616650932883
3496.0,0.04320861893849557
3495.0,0.043489659115403735
3494.0,0.043818455478385095
3493.0,0.04413527305859743
3492.0,0.04437937480061328
3491.0,0.04451645022228176
3490.0,0.04457089619171743
3489.0,0.044621430839825164
3488.0,0.04474354022119049
3487.0,0.044957511488624015
3486.0,0.04523546326356572
3485.0,0.045529249641238424
3484.0,0.045776159145313605
3483.0,0.04592260644778002
3482.0,0.0459836258263915
3481.0,0.04605955820568091
3480.0,0.04625212908021393
3479.0,0.046567763283078344
3478.0,0.04693086174702926
3477.0,0.04726827857976887
3476.0,0.047553158930178155
3475.0,0.04777690553558792
3474.0,0.047921180538860006
3473.0,0.0479803019225077
3472.0,0.04798559204993667
3471.0,0.047993647640163936
3470.0,0.04806568969845085
3469.0,0.048246890153662465
3468.0,0.04853446872732961
3467.0,0.048867337469195554
3466.0,0.049171144891089626
3465.0,0.04941690064242882
3464.0,0.049619632808969666
3463.0,0.04979444162059407
3462.0,0.0499411020707165
3461.0,0.05006883051007313
3460.0,0.05020655703794897
3459.0,0.05037908225407124
3458.0,0.05059257492427257
3457.0,0.050844610560853085
3456.0,0.051122961678232534
3455.0,0.05139552724888966
3454.0,0.05161998205600743
3453.0,0.051771141402608224
3452.0,0.05185968489703107
3451.0,0.05192517587084967
3450.0,0.0520143204768843
3449.0,0.05215152189699232
3448.0,0.052322259981980174
3447.0,0.05248269133361608
3446.0,0.052617265179221516
3445.0,0.052779055122537166
3444.0,0.053022095857311526
3443.0,0.053321704284812414
3442.0,0.05359672550396277
3441.0,0.05378655863141034
3440.0,0.05389946942185063
3439.0,0.053992855433314925
3438.0,0.05412304152062897
3437.0,0.05431601814611951
3436.0,0.05455543472313857
3435.0,0.054796972415159934
3434.0,0.05500561344305497
3433.0,0.055177433795935635
3432.0,0.055332933518501916
3431.0,0.05549705793629988
3430.0,0.0556851706759627
3429.0,0.055893063534813166
3428.0,0.05609689029384898
3427.0,0.056264419667524344
3426.0,0.056377115357593426
3425.0,0.05644656548733148
3424.0,0.0565080500500065
3423.0,0.0565955180507859
3422.0,0.05671635653820033
3421.0,0.056847950072899195
3420.0,0.05696635500277756
3419.0,0.057083187198187134
3418.0,0.05723774976914419
3417.0,0.057445500229416774
3416.0,0.057667797916625796
3415.0,0.05784131431051871
3414.0,0.05793916252732777
3413.0,0.05799940977553105
3412.0,0.05808968263325544
3411.0,0.058244930635310145
3410.0,0.05843854423521276
3409.0,0.0586073034256133
3408.0,0.05870527985443191
3407.0,0.05874090327789227
3406.0,0.058766982472084596
3405.0,0.05883471280676173
3404.0,0.05895061088624999
3403.0,0.059079104356815924
3402.0,0.05919067277221328
3401.0,0.059298505108647065
3400.0,0.05943301808451435
3399.0,0.059587077830317144
3398.0,0.05970877859566727
3397.0,0.05975533335493039
3396.0,0.059743174218295024
3395.0,0.05973328415771315
3394.0,0.05977717724686581
3393.0,0.05988358701805194
3392.0,0.06002327239771674
3391.0,0.06015813839959372
3390.0,0.06026810098330673
3389.0,0.06035058391926401
3388.0,0.06040451121094258
3387.0,0.06042631779542296
3386.0,0.060421733441499315
3385.0,0.060415633537077934
3384.0,0.060438987625460475
3383.0,0.06050472430024113
3382.0,0.060599177525782685
3381.0,0.06068953159023484
3380.0,0.0607367555605772
3379.0,0.0607192940232098
3378.0,0.06066431751512287
3377.0,0.06064022708084675
3376.0,0.06069136512506408
3375.0,0.060785282522128975
3374.0,0.06085102696779275
3373.0,0.06086387919712656
3372.0,0.06086172238796361
3371.0,0.06087849259560753
3370.0,0.060899224958695555
3369.0,0.06089538228222845
3368.0,0.06087185099179643
3367.0,0.060853185441142515
3366.0,0.06084266617271468
3365.0,0.06082162026306809
3364.0,0.06077818250227686
3363.0,0.06071745422060186
3362.0,0.060652426670821075
3361.0,0.06060082077342928
3360.0,0.06058201532949012
3359.0,0.06060129203736814
3358.0,0.060640865157646426
3357.0,0.060675847928468404
3356.0,0.06069379399521305
3355.0,0.0606902898872093
3354.0,0.06065603568672091
3353.0,0.060585625012738314
3352.0,0.06049686420583984
3351.0,0.06042452002432823
3350.0,0.06038716958134428
3349.0,0.060367802370447365
3348.0,0.06033428651644031
3347.0,0.06027650810637383
3346.0,0.06021456134325709
3345.0,0.06016892626724109
3344.0,0.060129249929629675
3343.0,0.060061961593243215
3342.0,0.059949739950628925
3341.0,0.059812205506644046
3340.0,0.05968063723862022
3339.0,0.059562001233035046
3338.0,0.059441578960739136
3337.0,0.05931332561824367
3336.0,0.05919077207696876
3335.0,0.05909185408424801
3334.0,0.05903005368288824
3333.0,0.05901405401591678
3332.0,0.05903156718282594
3331.0,0.05903146347487237
3330.0,0.05894789421046605
3329.0,0.05876072591833676
3328.0,0.05852301562622823
3327.0,0.0583158193683697
3326.0,0.05817965098260397
3325.0,0.05809788340419676
3324.0,0.058034540743135146
3323.0,0.05796804756342284
3322.0,0.05789331495400329
3321.0,0.05781353834401359
3320.0,0.05773802713076744
3319.0,0.057677226367303686
3318.0,0.057629153412971
3317.0,0.057569972062806965
3316.0,0.05746609286540642
3315.0,0.057304896933416664
3314.0,0.057116281517301436
3313.0,0.05695399411396087
3312.0,0.05684525461814575
3311.0,0.056765074555585784
3310.0,0.0566713473654757
3309.0,0.056557707264979766
3308.0,0.05645589905402821
3307.0,0.056389326856252794
3306.0,0.05634508243508455
3305.0,0.05629341531415389
3304.0,0.056214639879786844
3303.0,0.05610221915918808
3302.0,0.05595760775815611
3301.0,0.055792876983271275
3300.0,0.055624758022123307
3299.0,0.055456574251582305
3298.0,0.05527829737780131
3297.0,0.05509528091744294
3296.0,0.054943216147864564
3295.0,0.0548546981888126
3294.0,0.054815684438723526
3293.0,0.05477086180187796
3292.0,0.054676423135273905
3291.0,0.05454148607158033
3290.0,0.05441432811404113
3289.0,0.054331614534947385
3288.0,0.05428562487678267
3287.0,0.05424037953768442
3286.0,0.054175021193681526
3285.0,0.05410261325703268
3284.0,0.05403989453652129
3283.0,0.053966426987263665
3282.0,0.053836318515724485
3281.0,0.05363759655975128
3280.0,0.053418258943551025
3279.0,0.05324093246818801
3278.0,0.05312734865217849
3277.0,0.05306000257328052
3276.0,0.0530209368639511
3275.0,0.05300316882372921
3274.0,0.05298619361399411
3273.0,0.05292849895661565
3272.0,0.05280038883288462
3271.0,0.052616588914967705
3270.0,0.052429047486906216
3269.0,0.052287821138155374
3268.0,0.052204486800285436
3267.0,0.052144942393870665
3266.0,0.05205844141287227
3265.0,0.05192262009948559
3264.0,0.051763887724763494
3263.0,0.05162817108297346
3262.0,0.051533279519681854
3261.0,0.051454292824584094
3260.0,0.05135223872741203
3259.0,0.05121521053289739
3258.0,0.051074239497469254
3257.0,0.05097679861855175
3256.0,0.050936411812815954
3255.0,0.05090993782730685
3254.0,0.050834345893142015
3253.0,0.05069058962528453
3252.0,0.050520330189764116
3251.0,0.05037673237135069
3250.0,0.05027462369436697
3249.0,0.050192008764032355
3248.0,0.05010204761330441
3247.0,0.04999109837490715
3246.0,0.04985779061081411
3245.0,0.04971084440906046
3244.0,0.04956457149088754
3243.0,0.049424553360614853
3242.0,0.04928130842068991
3241.0,0.04912703175447436
3240.0,0.04897243368749787
3239.0,0.04883515833679548
3238.0,0.04871628107259354
3237.0,0.0485998907979137
3236.0,0.04847306260806864
3235.0,0.048337378645303075
3234.0,0.048201085415048056
3233.0,0.0480686690047878
3232.0,0.047937549059932985
3231.0,0.0477979187505401
3230.0,0.04763953550581742
3229.0,0.04746670325786333
3228.0,0.04730315794499736
3227.0,0.04717170024295941
3226.0,0.047067502116269616
3225.0,0.04695819859061474
3224.0,0.046812419142677794
3223.0,0.04662436728474586
3222.0,0.04641420272568165
3221.0,0.04621162501475739
3220.0,0.046037177679556264
3219.0,0.04589231746976953
3218.0,0.045767606745439476
3217.0,0.04565751752836504
3216.0,0.04555703800946296
3215.0,0.04544616128319581
3214.0,0.04529534819003731
3213.0,0.04510049098952239
3212.0,0.04490130491810618
3211.0,0.04474417653542771
3210.0,0.04462677667491159
3209.0,0.04449390400546856
3208.0,0.04429619061172535
3207.0,0.04404423283783381
3206.0,0.043796333024097835
3205.0,0.04360129819092725
3204.0,0.043460231541729955
3203.0,0.04333671537111513
3202.0,0.04319586246904925
3201.0,0.043030457563919926
3200.0,0.04285134879083722
3199.0,0.042659419271175135
3198.0,0.04243675544578583
3197.0,0.04217341687317167
3196.0,0.04189574657752889
3195.0,0.04165106850384169
3194.0,0.04146054424306592
3193.0,0.041301389312138
3192.0,0.04114157185710647
3191.0,0.040979861830028406
3190.0,0.04083821531450577
3189.0,0.04072010361175535
3188.0,0.04059529969411682
3187.0,0.04042941264361159
3186.0,0.04021854503466179
3185.0,0.0399902013855542
3184.0,0.03977633774021095
3183.0,0.03958870200787588
3182.0,0.039411706039176715
3181.0,0.039214186318830134
3180.0,0.03897817759388435
3179.0,0.03872416084768896
3178.0,0.03849528347658445
3177.0,0.03830773227695184
3176.0,0.038132857041992874
3175.0,0.03793951359951286
3174.0,0.03773505274866891
3173.0,0.03754899820449226
3172.0,0.037390525796620666
3171.0,0.03724397292489741
3170.0,0.03709985433166014
3169.0,0.03696232331782328
3168.0,0.03682195101100487
3167.0,0.036647234007359204
3166.0,0.036417570454494494
3165.0,0.036148877835555586
3164.0,0.03587758799836945
3163.0,0.03563359503712941
3162.0,0.03543348884735015
3161.0,0.035279797039853476
3160.0,0.03515133531698325
3159.0,0.03500693490176142
3158.0,0.03481535983829923
3157.0,0.03458075632768948
3156.0,0.03433394217411953
3155.0,0.03410564791923076
3154.0,0.03391328276754107
3153.0,0.033761139307836245
3152.0,0.033639150286383895
3151.0,0.033525010620426
3150.0,0.03339818638555141
3149.0,0.033252079193818375
3148.0,0.0330883129675709
3147.0,0.03290434505272363
3146.0,0.03269600396959967
3145.0,0.03247262349513174
3144.0,0.03226156094622345
3143.0,0.03209018243931057
3142.0,0.031959715807562405
3141.0,0.031838700148358656
3140.0,0.03168720418805196
3139.0,0.03149235184248821
3138.0,0.031280312942649074
3137.0,0.031089483747252622
3136.0,0.03093128796154867
3135.0,0.030781472192636723
3134.0,0.030610117207688525
3133.0,0.030415072024279427
3132.0,0.03022326695020479
3131.0,0.030062744745345663
3130.0,0.029937218781221568
3129.0,0.029825215452125887
3128.0,0.029701113247644337
3127.0,0.029557826403931155
3126.0,0.02940653497480763
3125.0,0.029252247860373698
3124.0,0.02908165132942178
3123.0,0.028885743267881427
3122.0,0.028682670839729845
3121.0,0.028502221638543372
3120.0,0.028353366243741372
3119.0,0.028221045535099958
3118.0,0.028089111926554076
3117.0,0.027949735001130512
3116.0,0.027793685233184203
3115.0,0.027612652879474054
3114.0,0.02741669602312199
3113.0,0.027233540902977218
3112.0,0.02708253769590323
3111.0,0.026959792978065538
3110.0,0.026850462865439143
3109.0,0.02674418323274608
3108.0,0.026638323916773086
3107.0,0.026535478521943295
3106.0,0.02643718454653716
3105.0,0.026331258833745944
3104.0,0.026195379502737235
3103.0,0.026026966006851688
3102.0,0.02585700005683229
3101.0,0.02571635068266787
3100.0,0.025597827765378445
3099.0,0.02547544683383974
3098.0,0.0253527614225993
3097.0,0.02525918421343757
3096.0,0.0251972619841748
3095.0,0.02512377640160761
3094.0,0.02499940001815503
3093.0,0.024836486129401238
3092.0,0.024677484718383897
3091.0,0.024543668375410818
3090.0,0.02442362806135394
3089.0,0.02430041710839817
3088.0,0.02417178823283246
3087.0,0.024045225923037376
3086.0,0.02392540904862833
3085.0,0.02381000035655108
3084.0,0.023692575207810432
3083.0,0.023566243585608392
3082.0,0.023424806786100857
3081.0,0.023263084205631966
3080.0,0.023084033817331113
3079.0,0.022913520565484256
3078.0,0.022798779317525074
3077.0,0.022771116709548216
3076.0,0.022803967342542992
3075.0,0.022821518517821635
3074.0,0.022762528713478353
3073.0,0.022632564239746508
3072.0,0.022486645644964297
3071.0,0.022367120003977788
3070.0,0.022266543672451497
3069.0,0.022150060547771265
3068.0,0.022002745667773067
3067.0,0.02184450011576306
3066.0,0.021704055390786046
3065.0,0.0215928022895583
3064.0,0.021509913360179315
3063.0,0.021458334885326794
3062.0,0.021434020154721487
3061.0,0.02140578209457827
3060.0,0.021330262328079542
3059.0,0.0211957371937325
3058.0,0.02103878904846402
3057.0,0.020905063486694388
3056.0,0.020802731045347942
3055.0,0.020704932540595133
3054.0,0.020587478770205746
3053.0,0.02044966658936545
3052.0,0.020307580004260077
3051.0,0.020183469868109562
3050.0,0.02009321361376582
3049.0,0.020028417296881935
3048.0,0.019956272954006708
3047.0,0.01985264754070513
3046.0,0.019728456788521857
3045.0,0.019611806835545996
3044.0,0.019513989227806155
3043.0,0.0194267958594826
3042.0,0.019347293954329492
3041.0,0.01928196730315706
3040.0,0.01922644268548619
3039.0,0.019162856082236238
3038.0,0.019084521694963573
3037.0,0.01900595140590581
3036.0,0.018939587761903402
3035.0,0.018876173853082132
3034.0,0.018799327463000406
3033.0,0.018714759262007396
3032.0,0.018651112135589204
3031.0,0.01863180713252921
3030.0,0.018650407166314546
3029.0,0.018674788958032172
3028.0,0.018675095287177815
3027.0,0.018649160288230552
3026.0,0.01862429391529803
3025.0,0.018627840319570564
3024.0,0.01865900402236119
3023.0,0.01869771766771688
3022.0,0.018733906591024446
3021.0,0.01877863634844852
3020.0,0.018849935101542915
3019.0,0.018957106098941967
3018.0,0.01909591327712238
3017.0,0.0192516437672531
3016.0,0.019413607932075014
3015.0,0.019590346277111908
3014.0,0.019799470896843013
3013.0,0.02003560515450939
3012.0,0.020266022223471743
3011.0,0.020477400289391372
3010.0,0.020709465620325954
3009.0,0.02101880042735992
3008.0,0.021414052826009684
3007.0,0.021847026324578325
3006.0,0.022262117827602453
3005.0,0.022636443238395688
3004.0,0.022981831719911326
3003.0,0.023326011616187074
3002.0,0.023691008460772874
3001.0,0.024069041553628323
3000.0,0.024417712051862134
2999.0,0.024694644578008587
2998.0,0.024894110030434083
2997.0,0.025034658527920996
2996.0,0.025113395843323345
2995.0,0.025096286703432495
2994.0,0.02495479855079049
2993.0,0.02468932294260231
2992.0,0.024315205559158885
2991.0,0.023849508963115076
2990.0,0.023320511326754487
2989.0,0.022767428544604604
2988.0,0.022217380374310362
2987.0,0.021676920217883224
2986.0,0.02115212232430558
2985.0,0.020660660204824526
2984.0,0.02021574133203262
2983.0,0.01981747919623722
2982.0,0.01947048902659573
2981.0,0.019190394735214656
2980.0,0.018979356791758013
2979.0,0.018811369969279193
2978.0,0.01865765448025769
2977.0,0.01851876579345762
2976.0,0.018419834112580424
2975.0,0.018381498128393167
2974.0,0.018398860230278532
2973.0,0.01844057181450422
2972.0,0.018464918610524076
2971.0,0.018449903453718774
2970.0,0.0184143101016323
2969.0,0.018399745891010528
2968.0,0.01843028483521967
2967.0,0.018496366477802416
2966.0,0.018578118520544192
2965.0,0.018664024033636126
2964.0,0.01874531805723852
2963.0,0.018814148968076358
2962.0,0.018878364681880824
2961.0,0.018960608338035603
2960.0,0.01907067997624707
2959.0,0.019196074201427927
2958.0,0.01932796643181625
2957.0,0.019479387275952945
2956.0,0.01966423097959114
2955.0,0.019878831261791144
2954.0,0.0201191124938756
2953.0,0.020398294825591298
2952.0,0.02072321258455676
2951.0,0.021062777209520094
2950.0,0.0213648101108984
2949.0,0.021603031040248587
2948.0,0.021792231727962685
2947.0,0.02195345287600369
2946.0,0.022077243297747334
2945.0,0.02212376486993824
2944.0,0.022053655857341932
2943.0,0.021856337921916144
2942.0,0.021551463334417206
2941.0,0.021167172514636724
2940.0,0.020722582594944507
2939.0,0.020238897209350317
2938.0,0.019758965758110775
2937.0,0.019337148633316627
2936.0,0.019004395941902685
2935.0,0.0187525758668698
2934.0,0.018555672396724072
2933.0,0.018389915505425403
2932.0,0.018235406339592544
2931.0,0.018081622329314956
2930.0,0.017939952449364964
2929.0,0.017832456138496083
2928.0,0.017753504368624082
2927.0,0.01766333330164738
2926.0,0.017534836035290595
2925.0,0.017391437797518786
2924.0,0.01727576449602621
2923.0,0.01718633536483625
2922.0,0.01706938858771367
2921.0,0.016874375390266084
2920.0,0.016607499808591577
2919.0,0.016324944001778863
2918.0,0.016079264059674574
2917.0,0.015874414800999964
2916.0,0.015674452803829345
2915.0,0.01545347974595954
2914.0,0.015228163429133381
2913.0,0.015033666254806767
2912.0,0.014879990415761348
2911.0,0.014749012386332864
2910.0,0.014626167681905639
2909.0,0.014516754764146229
2908.0,0.014429076889759637
2907.0,0.014361105128677065
2906.0,0.014307176710983742
2905.0,0.014259089984729356
2904.0,0.014196159873117873
2903.0,0.014092868804924545
2902.0,0.013947119938305694
2901.0,0.013790768950764832
2900.0,0.013656700320306076
2899.0,0.01355390464048184
2898.0,0.013472430515415804
2897.0,0.013402076742780983
2896.0,0.01334126832047173
2895.0,0.013292956863683881
2894.0,0.013260965524681487
2893.0,0.013242751049400762
2892.0,0.013227176469315744
2891.0,0.013206864225020026
2890.0,0.013190747565359729
2889.0,0.013190498200966926
2888.0,0.013198744353303022
2887.0,0.013198847980676111
2886.0,0.01319508990735936
2885.0,0.013212789728681403
2884.0,0.013259122855239978
2883.0,0.013304283208661139
2882.0,0.013309870243322967
2881.0,0.0132598110444461
2880.0,0.013160049790417967
2879.0,0.013025434377339785
2878.0,0.012879068654639626
2877.0,0.012746120852749383
2876.0,0.012632341892066768
2875.0,0.012519464103970437
2874.0,0.012394471911043287
2873.0,0.012271046865702628
2872.0,0.012169942740983122
2871.0,0.012087778143004848
2870.0,0.011997032543660649
2869.0,0.01187456644402604
2868.0,0.011720713694887211
2867.0,0.011558354144491642
2866.0,0.011419698091637662
2865.0,0.011324194323060267
2864.0,0.011265794903860545
2863.0,0.011228372708081509
2862.0,0.011216899259521892
2861.0,0.011256379801350094
2860.0,0.011354988105114828
2859.0,0.011486740544628556
2858.0,0.011616007967042168
2857.0,0.01172319374193848
2856.0,0.011796067429346538
2855.0,0.011818463513531337
2854.0,0.011785551540708285
2853.0,0.011714882883810087
2852.0,0.011623892603384055
2851.0,0.011505354186128997
2850.0,0.0113437190742851
2849.0,0.011149127662765537
2848.0,0.010957833745025066
2847.0,0.010798364405795671
2846.0,0.010667089544579459
2845.0,0.010538247091031043
2844.0,0.010387534361651195
2843.0,0.010209730915385922
2842.0,0.010024176590472627
2841.0,0.009863576001363755
2840.0,0.009753323464489894
2839.0,0.00969532702267923
2838.0,0.009670443441529135
2837.0,0.009653867694959265
2836.0,0.009628980807010638
2835.0,0.009595129425757245
2834.0,0.009563167162695107
2833.0,0.00953965314321698
2832.0,0.009513987705335347
2831.0,0.00946675447875923
2830.0,0.009392293988148124
2829.0,0.009304743921114017
2828.0,0.00922285123283805
2827.0,0.009157916694064357
2826.0,0.009115576949386946
2825.0,0.009098123847468836
2824.0,0.009098354825773102
2823.0,0.00909868876749309
2822.0,0.009082286442775934
2821.0,0.009043025031821554
2820.0,0.008985373325152188
2819.0,0.008920113985206096
2818.0,0.00886025418403356
2817.0,0.008810909890575647
2816.0,0.00876305218493356
2815.0,0.008704788434577278
2814.0,0.008636659365175024
2813.0,0.00856844541435164
2812.0,0.008503789963062258
2811.0,0.008440541190268127
2810.0,0.00838582145877049
2809.0,0.008354107074133407
2808.0,0.008345674329019805
2807.0,0.00834043290357747
2806.0,0.008319968509832335
2805.0,0.008285905769369382
2804.0,0.00825104422739066
2803.0,0.008222790712973794
2802.0,0.008200970768346293
2801.0,0.008182201246792264
2800.0,0.008159915065602274
2799.0,0.008127636221584529
2798.0,0.008088204518686533
2797.0,0.008053762217359515
2796.0,0.008030588007024194
2795.0,0.008009288839995507
2794.0,0.007975997110665298
2793.0,0.00792971988942352
2792.0,0.007884949288305049
2791.0,0.007858117430617468
2790.0,0.007851001447425147
2789.0,0.0078466882517893
2788.0,0.007826701151007006
2787.0,0.007795869170342149
2786.0,0.007781786850101776
2785.0,0.007800252746548081
2784.0,0.007828584708811969
2783.0,0.007826889626426477
2782.0,0.007783666559315075
2781.0,0.007726448668280397
2780.0,0.007686667327172485
2779.0,0.007667471925213413
2778.0,0.007649890630314205
2777.0,0.007618159964651211
2776.0,0.007573468277773979
2775.0,0.007533286247263796
2774.0,0.007519988103282381
2773.0,0.007540184540836745
2772.0,0.007572744097718475
2771.0,0.007584354769338044
2770.0,0.007558874738928585
2769.0,0.0075084555856691475
2768.0,0.007459234493303896
2767.0,0.007431677402121684
2766.0,0.007431484919858053
2765.0,0.0074491184552778235
2764.0,0.007467936825323238
2763.0,0.007479583995182488
2762.0,0.007488948841099094
2761.0,0.007497869729208854
2760.0,0.0074924026185808346
2759.0,0.007459037531728711
2758.0,0.007406321226253879
2757.0,0.007356173258818171
2756.0,0.00731859785184325
2755.0,0.007289094994439783
2754.0,0.007265505270230524
2753.0,0.0072491731193525515
2752.0,0.007232571602881948
2751.0,0.007205280275642191
2750.0,0.0071727151216208485
2749.0,0.007152081173821153
2748.0,0.007148170117143065
2747.0,0.007148131824104457
2746.0,0.007141667620238603
2745.0,0.007131477337751532
2744.0,0.007123012681335738
2743.0,0.007118338590351081
2742.0,0.007120588215212413
2741.0,0.007130518323430228
2740.0,0.007138564712800496
2739.0,0.007134934892970044
2738.0,0.007126495510796306
2737.0,0.0071266181107243805
2736.0,0.00712936339434579
2735.0,0.007112867591105005
2734.0,0.007071578727008237
2733.0,0.0070265959545806975
2732.0,0.006997360101853593
2731.0,0.006979947984147491
2730.0,0.00696022421362469
2729.0,0.00693443128995473
2728.0,0.006909239118756943
2727.0,0.006891052080422691
2726.0,0.006881603321733879
2725.0,0.006877268699072989
2724.0,0.006870734290294516
2723.0,0.006860322891287837
2722.0,0.006854292594939524
2721.0,0.006856803174964038
2720.0,0.006855946520784372
2719.0,0.006840213491961787
2718.0,0.006820776748963857
2717.0,0.006817440523148139
2716.0,0.006825387526115856
2715.0,0.006817618217223462
2714.0,0.0067820976738698965
2713.0,0.006736942640983063
2712.0,0.006704830854640966
2711.0,0.006690630041853217
2710.0,0.0066883758069244525
2709.0,0.006692172600579062
2708.0,0.006694936398486895
2707.0,0.0066912836674635195
2706.0,0.006685612836953731
2705.0,0.006683844685431078
2704.0,0.006676980744112835
2703.0,0.00664970833617706
2702.0,0.006606304428101099
2701.0,0.006569134517736113
2700.0,0.006548999161076596
2699.0,0.006537107374704144
2698.0,0.006529065613483925
2697.0,0.006535007996025823
2696.0,0.006558380138049136
2695.0,0.006584107341490161
2694.0,0.0065969581678833765
2693.0,0.006594484614418927
2692.0,0.006576555323883378
2691.0,0.006541032092044666
2690.0,0.006498481900351874
2689.0,0.006473720040489434
2688.0,0.006480680347626992
2687.0,0.006507429023711555
2686.0,0.006532451326546327
2685.0,0.006542753733876365
2684.0,0.0065324304464920505
2683.0,0.00650109898667458
2682.0,0.006461538531872798
2681.0,0.006434138344162218
2680.0,0.0064251489161651285
2679.0,0.0064238865618298
2678.0,0.006425224452162629
2677.0,0.006437553472237502
2676.0,0.0064622017465097705
2675.0,0.006482717753417059
2674.0,0.00648525767372718
2673.0,0.006475311764509266
2672.0,0.0064658486950159915
2671.0,0.006462970539803675
2670.0,0.0064710398176642476
2669.0,0.006496714843501474
2668.0,0.006536864067100367
2667.0,0.006575498071911048
2666.0,0.006602150611824537
2665.0,0.0066233412935761925
2664.0,0.006649392773549773
2663.0,0.006682267047401637
2662.0,0.006722840090385696
2661.0,0.006775470759519351
2660.0,0.006835981872882408
2659.0,0.0068866651025606546
2658.0,0.006912478290708389
2657.0,0.006913301932850283
2656.0,0.006896341831343269
2655.0,0.006869407102933753
2654.0,0.0068457820902467666
2653.0,0.006838607129417635
2652.0,0.006842102157809232
2651.0,0.006835253641274238
2650.0,0.006812876806166648
2649.0,0.0067959413575730005
2648.0,0.006800099140048019
2647.0,0.006811725063404217
2646.0,0.006809824757026106
2645.0,0.006795985003743961
2644.0,0.006785982742002705
2643.0,0.006783281351524178
2642.0,0.006777390728515083
2641.0,0.006759291347993819
2640.0,0.006725052024930969
2639.0,0.006673423248736258
2638.0,0.006613437366270989
2637.0,0.006566701870134854
2636.0,0.006549507787248675
2635.0,0.006557940945880019
2634.0,0.006578299872852491
2633.0,0.006601201225558528
2632.0,0.006616271307249119
2631.0,0.006606330183250684
2630.0,0.006561368573535219
2629.0,0.006492357174141972
2628.0,0.006420071759630259
2627.0,0.006357775588229586
2626.0,0.006313728279189168
2625.0,0.00629905694528797
2624.0,0.006316848543894974
2623.0,0.006347482402893071
2622.0,0.0063582418841570424
2621.0,0.00633162465612567
2620.0,0.006281039114178315
2619.0,0.006237604625471848
2618.0,0.006221070508411388
2617.0,0.006220222201433604
2616.0,0.006205230314396666
2615.0,0.006163631696439281
2614.0,0.006117638213009354
2613.0,0.006095947960452982
2612.0,0.006097368581198228
2611.0,0.006097591772408444
2610.0,0.006084578464794337
2609.0,0.006068046190962073
2608.0,0.006057589750232197
2607.0,0.006051652118676446
2606.0,0.006047224260297642
2605.0,0.006039981175520239
2604.0,0.006015919706147707
2603.0,0.005964267019714291
2602.0,0.005901955129594077
2601.0,0.005866343040413779
2600.0,0.005877897548435465
2599.0,0.005920777514411312
2598.0,0.005956423715728552
2597.0,0.005946496557830043
2596.0,0.0058791367539024805
2595.0,0.0057933606923545235
2594.0,0.00576073933926362
2593.0,0.0058111790165166636
2592.0,0.005885284997929265
2591.0,0.005895061019987033
2590.0,0.005824835575334136
2589.0,0.005738588280205266
2588.0,0.00569585807987608
2587.0,0.0056995928484857425
2586.0,0.005722827507133453
2585.0,0.0057403031590116905
2584.0,0.005727655638847874
2583.0,0.005673469933386041
2582.0,0.0056047189544826785
2581.0,0.005566243842978708
2580.0,0.005567615710881091
2579.0,0.005582747194378251
2578.0,0.005600993068474771
2577.0,0.005635632641797161
2576.0,0.005676068547941757
2575.0,0.00567978990114004
2574.0,0.00562878970104362
2573.0,0.005554673680395518
2572.0,0.005490209999445725
2571.0,0.005434382469360339
2570.0,0.0053837156314183905
2569.0,0.0053589699020715805
2568.0,0.005375812650623854
2567.0,0.005418080670244427
2566.0,0.005460915649637472
2565.0,0.0054956503969526066
2564.0,0.005516613145229852
2563.0,0.005510703783412217
2562.0,0.005475961158741123
2561.0,0.00542710310924104
2560.0,0.005372340259101231
2559.0,0.005309468639398392
2558.0,0.005250897022514572
2557.0,0.005221733053402999
2556.0,0.0052242976190883285
2555.0,0.005235465637639387
2554.0,0.005246874317714674
2553.0,0.005273523141819599
2552.0,0.00531353043415992
2551.0,0.005336122572129563
2550.0,0.0053241846652151035
2549.0,0.005299311580244534
2548.0,0.005292505966415059
2547.0,0.005316559341646879
2546.0,0.005371343652495181
2545.0,0.005442908042886669
2544.0,0.005493282118754533
2543.0,0.005489336625914782
2542.0,0.0054489914235751466
2541.0,0.005421548555328598
2540.0,0.005418118139145406
2539.0,0.005404538179443455
2538.0,0.005367880735693218
2537.0,0.005339833581988487
2536.0,0.005340684040428209
2535.0,0.005349974104399833
2534.0,0.005353068404431518
2533.0,0.0053677376955939445
2532.0,0.005398056454274692
2531.0,0.005406260060945829
2530.0,0.005362591919603353
2529.0,0.005290533255449825
2528.0,0.005235759321488043
2527.0,0.005219277379496459
2526.0,0.005242456741775852
2525.0,0.005302791017338712
2524.0,0.005376948125641272
2523.0,0.005417498006994783
2522.0,0.005394294090966642
2521.0,0.005322387119897009
2520.0,0.005237108053844492
2519.0,0.005165720583740124
2518.0,0.005130640626750038
2517.0,0.005144647464562924
2516.0,0.005187592938297
2515.0,0.005219987319770556
2514.0,0.005231268722764725
2513.0,0.005241453840985838
2512.0,0.005249298039249316
2511.0,0.00522386586381523
2510.0,0.005162765511489687
2509.0,0.005112608658913334
2508.0,0.005107567765133552
2507.0,0.0051278679215344585
2506.0,0.0051411461193249615
2505.0,0.005142163153929467
2504.0,0.005127125808577811
2503.0,0.005075216493810579
2502.0,0.004991094558812165
2501.0,0.004928298899936077
2500.0,0.00493211178154955
2499.0,0.004986167782912545
2498.0,0.005046308941951872
2497.0,0.0050976811646023445
2496.0,0.00514686328665429
2495.0,0.005186295407274614
2494.0,0.00520386643886687
2493.0,0.005209029317156132
2492.0,0.005217466493560568
2491.0,0.005224048625577903
2490.0,0.005215113695696016
2489.0,0.005191200665844354
2488.0,0.005157713131779106
2487.0,0.005113154586595457
2486.0,0.005066777582211778
2485.0,0.0050458894497814
2484.0,0.005062871830897694
2483.0,0.005093803371345445
2482.0,0.005109554587167621
2481.0,0.005108198058953675
2480.0,0.00509795958232749
2479.0,0.005071174336947836
2478.0,0.005020391255890902
2477.0,0.004964574446643427
2476.0,0.004935466153432957
2475.0,0.004946447273322788
2474.0,0.00498795360969318
2473.0,0.005040042501810112
2472.0,0.005079287503382802
2471.0,0.0050907047232248825
2470.0,0.005084158965823403
2469.0,0.005082555166623719
2468.0,0.0050853527075085826
2467.0,0.0050640219187265655
2466.0,0.005004536576998359
2465.0,0.0049346476603452346
2464.0,0.004896454329282354
2463.0,0.004907434584569905
2462.0,0.004956095132020141
2461.0,0.0050175225507351024
2460.0,0.005065583429202913
2459.0,0.005087656064332488
2458.0,0.00509488244082707
2457.0,0.005105115205790258
2456.0,0.005116472906954399
2455.0,0.00511454376303953
2454.0,0.005100197207892034
2453.0,0.005086158748940469
2452.0,0.005070814913959115
2451.0,0.005043564156083071
2450.0,0.00501205816217064
2449.0,0.004992795675407452
2448.0,0.004978698544624171
2447.0,0.004951686285522535
2446.0,0.004924628321231038
2445.0,0.004930248683970704
2444.0,0.0049659120472821585
2443.0,0.004990244551541891
2442.0,0.004981028782300466
2441.0,0.004957733329422464
2440.0,0.004940111186307943
2439.0,0.00492479594268948
2438.0,0.004912582538553572
2437.0,0.004918500807263798
2436.0,0.004941313055451404
2435.0,0.004959068517199313
2434.0,0.004966663820848544
2433.0,0.004982892280961734
2432.0,0.005010062669216796
2431.0,0.0050230871168748725
2430.0,0.005010885703523471
2429.0,0.0049941026111079735
2428.0,0.004989702466494442
2427.0,0.004990049614376057
2426.0,0.004986647477628386
2425.0,0.004983073060282844
2424.0,0.004978137288558979
2423.0,0.0049688183349719
2422.0,0.004972312410524928
2421.0,0.005007848331601284
2420.0,0.005054580336528874
2419.0,0.005069015761976513
2418.0,0.0050478728647232384
2417.0,0.005030778935562113
2416.0,0.005036247313148425
2415.0,0.005041645420675756
2414.0,0.005036161954833994
2413.0,0.005042531664633259
2412.0,0.005066324928282
2411.0,0.00506997335716008
2410.0,0.005023475339756925
2409.0,0.004945932692727154
2408.0,0.004876151325260375
2407.0,0.004834711060682266
2406.0,0.004830276916934372
2405.0,0.004865526855968574
2404.0,0.0049179810154080525
2403.0,0.004947964247716649
2402.0,0.0049424397721465115
2401.0,0.004923508002156253
2400.0,0.004904989393218401
2399.0,0.004875947515109511
2398.0,0.004838258124996081
2397.0,0.004820280611274339
2396.0,0.0048342974931040355
2395.0,0.0048542790088688505
2394.0,0.004853717460904051
2393.0,0.00483702510361226
2392.0,0.004822050654525834
2391.0,0.0048205295344605935
2390.0,0.0048431084450078175
2389.0,0.004889884184631337
2388.0,0.004926647265829405
2387.0,0.004907334434910374
2386.0,0.004833537350884256
2385.0,0.0047599199623762625
2384.0,0.004728926175811613
2383.0,0.0047310598974492244
2382.0,0.004741807967986527
2381.0,0.0047599591987131495
2380.0,0.0047851881161702645
2379.0,0.004795559856635929
2378.0,0.004780410989078425
2377.0,0.004753851957187144
2376.0,0.004700377846229719
2375.0,0.004563980805519084
2374.0,0.004361947290296195
2373.0,0.004250178678908871
2372.0,0.004371411480829499
2371.0,0.004673230722186491
2370.0,0.004975314449963883
2369.0,0.005154085389036437
2368.0,0.005161362476503491
2367.0,0.004970792278261572
2366.0,0.004667573642817149
2365.0,0.0044794144721597255
2364.0,0.0045395509975297765
2363.0,0.004728887432915051
2362.0,0.004895743980995698
2361.0,0.005057326444541568
2360.0,0.005209460539388773
2359.0,0.005217998439299752
2358.0,0.0050918825036152466
2357.0,0.005019190572495103
2356.0,0.005048104168271457
2355.0,0.005034415485541806
2354.0,0.004963140420375165
2353.0,0.004980068195516231
2352.0,0.005078953562747424
2351.0,0.005106886432297578
2350.0,0.005022428674627039
2349.0,0.004939453718083712
2348.0,0.0049575761241499846
2347.0,0.0050394465892125324
2346.0,0.005119954913685799
2345.0,0.005207939731773117
2344.0,0.00532516641346355
2343.0,0.0053999231484167225
2342.0,0.005425825396243477
2341.0,0.005521201245910426
2340.0,0.00568431723177491
2339.0,0.005759850561906031
2338.0,0.005666476636936386
2337.0,0.005532775881932407
2336.0,0.005483552591533169
2335.0,0.005494088905044357
2334.0,0.005482798560256416
2333.0,0.005465158634219212
2332.0,0.005460541303676196
2331.0,0.005453662548927862
2330.0,0.005445494881614934
2329.0,0.005541440826762611
2328.0,0.005827085205134752
2327.0,0.006242200999166304
2326.0,0.006653388729440842
2325.0,0.006933576650163556
2324.0,0.0070116237539177015
2323.0,0.00688624085305487
2322.0,0.006660406126542528
2321.0,0.006491486199384085
2320.0,0.006428485588809443
2319.0,0.006403775651605752
2318.0,0.006346615119714441
2317.0,0.00628459649260238
2316.0,0.006237465747512708
2315.0,0.0061656880317783125
2314.0,0.0060123793509677175
2313.0,0.0058152103244545365
2312.0,0.005669380589119235
2311.0,0.005645949500453752
2310.0,0.005732880132674695
2309.0,0.005865221964652368
2308.0,0.005954500928576168
2307.0,0.005946907095394567
2306.0,0.005864184608218981
2305.0,0.005785609331179299
2304.0,0.005762848370686213
2303.0,0.0057895978217056936
2302.0,0.005828743399360599
2301.0,0.0058548481441883906
2300.0,0.0058457815989002345
2299.0,0.005795805008309925
2298.0,0.005734539587403203
2297.0,0.0057094780980822156
2296.0,0.005731979151704397
2295.0,0.00577938936712339
2294.0,0.005849169964190004
2293.0,0.005957335612900617
2292.0,0.0060828173941937
2291.0,0.006169742607117543
2290.0,0.006205942543934296
2289.0,0.006238270974101419
2288.0,0.006292331611103471
2287.0,0.006329663263122193
2286.0,0.00631478706954736
2285.0,0.006263232484160646
2284.0,0.006194520523927333
2283.0,0.006094058561780525
2282.0,0.005960718129902135
2281.0,0.005837651468107279
2280.0,0.00575338370859434
2279.0,0.005686419687955709
2278.0,0.005629311598248737
2277.0,0.005628132759694072
2276.0,0.005699776649680499
2275.0,0.005767686051691237
2274.0,0.0057422591125641
2273.0,0.0056207357697941225
2272.0,0.005465937786056439
2271.0,0.005332916261518222
2270.0,0.005262781545206016
2269.0,0.005279946926030845
2268.0,0.00533837312854447
2267.0,0.005331288339230324
2266.0,0.005218767087260541
2265.0,0.00509663943357809
2264.0,0.005077540154714088
2263.0,0.005147974632605299
2262.0,0.0052052118982164365
2261.0,0.005186600178743074
2260.0,0.0051113798140216575
2259.0,0.005029964022986739
2258.0,0.004985689261873733
2257.0,0.0049960676279380105
2256.0,0.0050324316355311125
2255.0,0.00504590983753556
2254.0,0.0050300065353148975
2253.0,0.005017173571632016
2252.0,0.0050111254093716685
2251.0,0.004988055850714733
2250.0,0.004968779850245034
2249.0,0.0050067879627296915
2248.0,0.005084041479285622
2247.0,0.0051103915770592465
2246.0,0.0050558958380714225
2245.0,0.0049945202524927625
2244.0,0.004980750534557209
2243.0,0.004974147762396117
2242.0,0.004935156871928512
2241.0,0.0049022832308913316
2240.0,0.004919181550414198
2239.0,0.004961797437360573
2238.0,0.004988669219978462
2237.0,0.00499182841134762
2236.0,0.004960805229485794
2235.0,0.0048779149716406045
2234.0,0.004784082134531781
2233.0,0.004760085467232226
2232.0,0.004800883515701283
2231.0,0.004802566481115184
2230.0,0.004710430229306831
2229.0,0.004580253095311975
2228.0,0.004465073256059438
2227.0,0.004354044214932409
2226.0,0.004267714603795681
2225.0,0.0042851214722561095
2224.0,0.004416053628987859
2223.0,0.004559820806570743
2222.0,0.004647864147378892
2221.0,0.00471678039837643
2220.0,0.004792937288835713
2219.0,0.004830277704826122
2218.0,0.004811527430086112
2217.0,0.004781719013866194
2216.0,0.004729997203959751
2215.0,0.004576175465142034
2214.0,0.004338635783900264
2213.0,0.004172989910725113
2212.0,0.004169336870390184
2211.0,0.00424934402428917
2210.0,0.004330427914015317
2209.0,0.004432622950913187
2208.0,0.004549608701750611
2207.0,0.004584379960660161
2206.0,0.004511966121993724
2205.0,0.004452666064742711
2204.0,0.004475733784224154
2203.0,0.004482343364827196
2202.0,0.0043885553530572515
2201.0,0.00427145232587387
2200.0,0.0042200619622325495
2199.0,0.0041869929579103566
2198.0,0.004115291660091628
2197.0,0.004073864130399539
2196.0,0.004135476863720426
2195.0,0.004244972141643546
2194.0,0.004323224643453802
2193.0,0.0043811036470532945
2192.0,0.004435885279300287
2191.0,0.0044486347632057156
2190.0,0.004443046573292076
2189.0,0.004530652849275509
2188.0,0.004703768047098259
2187.0,0.004764144551465673
2186.0,0.004586513078887195
2185.0,0.0042976265912117555
2184.0,0.004069928328309631
2183.0,0.003908988212624972
2182.0,0.0037903889131133566
2181.0,0.003808959195043796
2180.0,0.003991258227526226
2179.0,0.004137276971784271
2178.0,0.0040433492589620115
2177.0,0.0037696303224443602
2176.0,0.003543489731792044
2175.0,0.003498500570318863
2174.0,0.003650020503792656
2173.0,0.003983657030918998
2172.0,0.0044049909648575004
2171.0,0.004734842732314434
2170.0,0.004887482660749361
2169.0,0.004954690592565657
2168.0,0.005024517305854555
2167.0,0.005046640147486593
2166.0,0.004995436331446965
2165.0,0.004996804743452292
2164.0,0.005113811007420229
2163.0,0.0051365196908316054
2162.0,0.004753958352395925
2161.0,0.0038553899924262157
2160.0,0.002582653419629617
2159.0,0.0012437975836909474
2158.0,0.00027496530460344924
2157.0,1.664674129727517e-05
2156.0,0.00036398707522292817
2155.0,0.000866230310518708
2154.0,0.0012251677740910845
2153.0,0.0014973773083695866
2152.0,0.001823751176796948
2151.0,0.0021724301100627206
2150.0,0.0024545461876743307
2149.0,0.002672101042749713
2148.0,0.002821390897036791
2147.0,0.0028132717905351265
2146.0,0.0026247532866496507
2145.0,0.0024028783438833964
2144.0,0.0022942250583879603
2143.0,0.0022835607333401616
2142.0,0.002300210782187249
2141.0,0.002353435216351977
2140.0,0.0024650412545509427
2139.0,0.0025680754217263417
2138.0,0.002565146427024802
2137.0,0.0024176142365286073
2136.0,0.0021443857892654303
2135.0,0.0018225107764802766
2134.0,0.0016146176371139378
2133.0,0.0016723900176919535
2132.0,0.0019688201345768514
2131.0,0.002323378206622815
2130.0,0.002614486866218248
2129.0,0.002862853390090432
2128.0,0.0031057103778622044
2127.0,0.003304504457414316
2126.0,0.0034193392698798576
2125.0,0.0034723736694659696
2124.0,0.003490813454675826
2123.0,0.0034716945084514845
2122.0,0.003441419350047419
2121.0,0.003461218132204413
2120.0,0.0035319390014139297
2119.0,0.003584724026951619
2118.0,0.0036034371537060745
2117.0,0.0036626715896241214
2116.0,0.0037956763323973002
2115.0,0.0039214807388104345
2114.0,0.0039611035016335686
2113.0,0.003943940528351027
2112.0,0.003937417069462819
2111.0,0.003953613058232326
2110.0,0.003983437639831157
2109.0,0.00404125068131314
2108.0,0.004113850238571399
2107.0,0.004142674150196925
2106.0,0.004111343738186119
2105.0,0.004079795951260218
2104.0,0.004082047805573193
2103.0,0.004072936426526297
2102.0,0.004021970626143283
2101.0,0.003969480297666272
2100.0,0.003933458863573552
2099.0,0.0038519165784974404
2098.0,0.0036838145595219423
2097.0,0.0034887611395978814
2096.0,0.003344645216981083
2095.0,0.003263431717983126
2094.0,0.003241802820667841
2093.0,0.0033037605297980676
2092.0,0.003441772039404656
2091.0,0.0035955107815353396
2090.0,0.003731672759017246
2089.0,0.003870290456253518
2088.0,0.003996549656798369
2087.0,0.004041175601636454
2086.0,0.003993526598323731
2085.0,0.003945120554763528
2084.0,0.003964763221079755
2083.0,0.0040063798080384894
2082.0,0.003990208609034456
2081.0,0.0039040369793959225
2080.0,0.00378098498645382
2079.0,0.003659887571719838
2078.0,0.003606408546951269
2077.0,0.003684107931976725
2076.0,0.003847908467441821
2075.0,0.003949500190982358
2074.0,0.003893682439241059
2073.0,0.00371633451261898
2072.0,0.0034997975994880068
2071.0,0.0033022018673481046
2070.0,0.003187610300415042
2069.0,0.003202080766843774
2068.0,0.003282549839656065
2067.0,0.0033099042675547984
2066.0,0.003276619785362786
2065.0,0.0032826591702797623
2064.0,0.003348803369072747
2063.0,0.0033868959726075032
2062.0,0.0033766093386797128
2061.0,0.0033905281110557274
2060.0,0.0034357485792949225
2059.0,0.003443300458650207
2058.0,0.0034287715331430043
2057.0,0.003479081573268366
2056.0,0.0035580668725260925
2055.0,0.003538675689454135
2054.0,0.0034661026777469467
2053.0,0.0035529112860585473
2052.0,0.003826892104073721
2051.0,0.004009928053572362
2050.0,0.003857525351207239
2049.0,0.0034619827566868067
2048.0,0.0030753922665324907
2047.0,0.0028022507730295983
2046.0,0.002663028161050253
2045.0,0.002706980898643612
2044.0,0.0028729582130742437
2043.0,0.002971992321137086
2042.0,0.002972755186397383
2041.0,0.0030790717724607035
2040.0,0.003354485017870867
2039.0,0.0035240083623769873
2038.0,0.0033295246119123293
2037.0,0.002846102253748421
2036.0,0.0023142681339281927
2035.0,0.0018702733578960396
2034.0,0.0015924380909749102
2033.0,0.001560473218680065
2032.0,0.0016900077404548909
2031.0,0.0017637431005661343
2030.0,0.0017459083701824281
2029.0,0.0018016783973962163
2028.0,0.001944077434510316
2027.0,0.0019704681283407763
2026.0,0.0018338339607360593
2025.0,0.0017400303700046806
2024.0,0.0017767782617470074
2023.0,0.00179045211900084
2022.0,0.0017433702291885264
2021.0,0.0018111205881638781
2020.0,0.002004305432581832
2019.0,0.0020583450385515604
2018.0,0.0018526564774682735
2017.0,0.0016258532918607266
2016.0,0.0015767218501467695
2015.0,0.001612730047721281
2014.0,0.0016828017374414246
2013.0,0.0019193140382248192
2012.0,0.0023075511349309108
2011.0,0.0025709157212520923
2010.0,0.002546279914037613
2009.0,0.0023875919793314875
2008.0,0.002259615741945871
2007.0,0.0021239307221987535
2006.0,0.0019707781485649306
2005.0,0.0019056275818183908
2004.0,0.0018953026190282416
2003.0,0.0017772047775705337
2002.0,0.0016022426646558259
2001.0,0.001634688587067955
2000.0,0.001916838916434599
1999.0,0.0021761159214812626
1998.0,0.002270813800169012
1997.0,0.0023811108891590633
1996.0,0.0026058168713818967
1995.0,0.0027293098696177143
1994.0,0.0025789654217276635
1993.0,0.002344346083595903
1992.0,0.0023168960151076245
1991.0,0.002476680653809917
1990.0,0.0026550269898263164
1989.0,0.0028295375413932757
1988.0,0.0029844630732152296
1987.0,0.0029866792601805896
1986.0,0.0028145612772109453
1985.0,0.0026807145696902345
1984.0,0.0027571553870380187
1983.0,0.002986640096286121
1982.0,0.003262711352244493
1981.0,0.003528386484170065
1980.0,0.0035781407832350754
1979.0,0.0031191255279764667
1978.0,0.0022665668963923642
1977.0,0.0016157977714040981
1976.0,0.001495038480356036
1975.0,0.0015929027797508448
1974.0,0.001558713577847818
1973.0,0.0014685956887692353
1972.0,0.0014857792182335124
1971.0,0.001510294800401991
1970.0,0.0014320316097451353
1969.0,0.00137822397846056
1968.0,0.0014616845554564217
1967.0,0.001552307154965898
1966.0,0.0015608814214937063
1965.0,0.0016261657334355477
1964.0,0.0017708488081638208
1963.0,0.0017691702590735274
1962.0,0.0015050988564364663
1961.0,0.001170672859868925
1960.0,0.0009625378259112641
1959.0,0.0008526623052382328
1958.0,0.0008194601418613397
1957.0,0.0009722991010277342
1956.0,0.0012855838539017543
1955.0,0.0015161040803656658
1954.0,0.001550148472236475
1953.0,0.0015583877840313252
1952.0,0.001656810811101827
1951.0,0.0017086047129632382
1950.0,0.0016118266543536292
1949.0,0.0014851637203176903
1948.0,0.0014237000186163502
1947.0,0.0013339528774174874
1946.0,0.0011749838450017622
1945.0,0.0011192966047862524
1944.0,0.0012813789763982107
1943.0,0.0014872299832659266
1942.0,0.0015390668115819982
1941.0,0.0015301457142801902
1940.0,0.0015911467289041635
1939.0,0.001631300294389027
1938.0,0.0015494345396644908
1937.0,0.0014305335170794668
1936.0,0.0013911112526816599
1935.0,0.001391099741334474
1934.0,0.001355643862691993
1933.0,0.0013340042457651827
1932.0,0.0013822236471969854
1931.0,0.0014301096003308373
1930.0,0.0014148983039719274
1929.0,0.0013852384314344567
1928.0,0.001379209142761712
1927.0,0.0013425747222976683
1926.0,0.001257632123740803
1925.0,0.0012260675250988146
1924.0,0.0013060830042775388
1923.0,0.0014040691947284673
1922.0,0.0014309433662920029
1921.0,0.0014522333333149987
1920.0,0.00151488818022351
1919.0,0.0015424265676087204
1918.0,0.0015064010083804887
1917.0,0.0015117485926802923
1916.0,0.0015838763773468097
1915.0,0.0015977985812025636
1914.0,0.0014845835911254852
1913.0,0.0013372008499222105
1912.0,0.0012555652898152115
1911.0,0.0012139837699818262
1910.0,0.00117555098481136
1909.0,0.0011905658122857328
1908.0,0.0012778530552988963
1907.0,0.0013618677104022515
1906.0,0.0014170852002386137
1905.0,0.0015172451600426067
1904.0,0.0016561712474522216
1903.0,0.0017122979511986188
1902.0,0.0016410372339711234
1901.0,0.0015531532965667528
1900.0,0.0015288106828446058
1899.0,0.0015052704501026834
1898.0,0.0014311502583575254
1897.0,0.0013861060985317993
1896.0,0.001435344624544308
1895.0,0.0015046133143080962
1894.0,0.001520761628071761
1893.0,0.0015393685715798218
1892.0,0.0016090367312745347
1891.0,0.0016732221349006773
1890.0,0.0016843390548292587
1889.0,0.0016833085840345587
1888.0,0.001681456060309478
1887.0,0.001620364573634239
1886.0,0.0015169142051048852
1885.0,0.001497544451548546
1884.0,0.001606099526988188
1883.0,0.0017111122000285825
1882.0,0.0017063477717023118
1881.0,0.0016465554531260506
1880.0,0.0016136644919889321
1879.0,0.0015900922725351507
1878.0,0.0015486461123350777
1877.0,0.001544738440642395
1876.0,0.0015999389184681093
1875.0,0.0016263713656553547
1874.0,0.0015727954410548156
1873.0,0.0015121456442988026
1872.0,0.0015001379227024213
1871.0,0.0014790438525392469
1870.0,0.0014155565277782596
1869.0,0.0014351011657649567
1868.0,0.0015770682012809776
1867.0,0.0016542168180827123
1866.0,0.001607839964948217
1865.0,0.0015519661229916183
1864.0,0.0015404669001505573
1863.0,0.001516185597854977
1862.0,0.0014545460603053112
1861.0,0.0014340182582104274
1860.0,0.0014947590183101668
1859.0,0.0015554931674099993
1858.0,0.0015624735044901784
1857.0,0.0015732415378455992
1856.0,0.001619756346337201
1855.0,0.0016382832781575512
1854.0,0.001610255019262501
1853.0,0.001617871517028816
1852.0,0.0016889003848536048
1851.0,0.0017331952093230904
1850.0,0.0016833524649403327
1849.0,0.00162086819961411
1848.0,0.0016371686238190373
1847.0,0.0016935597225213464
1846.0,0.0017364051028173249
1845.0,0.001843781346096772
1844.0,0.002036803198070849
1843.0,0.0021104387223989367
1842.0,0.0020308283884800825
1841.0,0.0019779919863447248
1840.0,0.0020260404060706318
1839.0,0.0020961846539946996
1838.0,0.0021183665101140933
1837.0,0.0021449324481418418
1836.0,0.002215053349192392
1835.0,0.0022604010566854823
1834.0,0.002248787503863708
1833.0,0.0022633426715488745
1832.0,0.0023661704002448667
1831.0,0.0024985524216380598
1830.0,0.002581239975899173
1829.0,0.002654941261630928
1828.0,0.0027656776913652127
1827.0,0.0028482937861022883
1826.0,0.002874794531484712
1825.0,0.0029634135488715695
1824.0,0.0031470663781404213
1823.0,0.003269745591715359
1822.0,0.0032682233037869025
1821.0,0.003243743967748941
1820.0,0.0032606431889390655
1819.0,0.0032453678366328297
1818.0,0.003168621039477194
1817.0,0.0031618166146859103
1816.0,0.003288591743009389
1815.0,0.003424016438748609
1814.0,0.0034722917911880037
1813.0,0.003509711993521479
1812.0,0.003634041868097135
1811.0,0.003775221966413619
1810.0,0.0038601427468994568
1809.0,0.003980537002728462
1808.0,0.004183532064398921
1807.0,0.004360045613068249
1806.0,0.004447567158742169
1805.0,0.004532944261598297
1804.0,0.004680533143073495
1803.0,0.004824149129981634
1802.0,0.004931464896468315
1801.0,0.005128609973473069
1800.0,0.005462754536531514
1799.0,0.005744913009149387
1798.0,0.00590521572180387
1797.0,0.0061056180299376706
1796.0,0.006444410812391445
1795.0,0.006810874746075526
1794.0,0.007137043718441335
1793.0,0.007657862814071135
1792.0,0.008571717729165249
1791.0,0.009525643896944392
1790.0,0.010267614903356283
1789.0,0.011002869476655436
1788.0,0.011903255424099786
1787.0,0.012988139524541274
1786.0,0.014313993697242958
1785.0,0.01595519238194604
1784.0,0.017743920242638034
1783.0,0.01942230440295149
1782.0,0.021091888570768127
1781.0,0.0231231780481666
1780.0,0.02551513162167668
1779.0,0.02774293710141086
1778.0,0.029598337068766037
1777.0,0.031348003051985054
1776.0,0.03314884421147508
1775.0,0.03487994155718113
1774.0,0.03661006572518664
1773.0,0.039014484813867274
1772.0,0.04231012858977503
1771.0,0.04527848755959508
1770.0,0.047528034512557146
1769.0,0.049977876304868496
1768.0,0.053128507076453724
1767.0,0.056516671269401055
1766.0,0.05958237322088649
1765.0,0.062490088765578
1764.0,0.06580688649003547
1763.0,0.07009222695386087
1762.0,0.07547168350685943
1761.0,0.08101920900237229
1760.0,0.08563115088892029
1759.0,0.08934123147105488
1758.0,0.09308141748526513
1757.0,0.09750901398862909
1756.0,0.10185389684376149
1755.0,0.10491504059777754
1754.0,0.10686169519408471
1753.0,0.10862445157075683
1752.0,0.11069177976205215
1751.0,0.11265484226652452
1750.0,0.11397717734870057
1749.0,0.114884244102436
1748.0,0.11533436491309866
1747.0,0.11484761794128796
1746.0,0.11349850275431564
1745.0,0.11154156385645657
1744.0,0.10879092679456641
1743.0,0.10511629872533583
1742.0,0.10078701134069684
1741.0,0.09553627550938965
1740.0,0.0885449643361133
1739.0,0.08061480830932531
1738.0,0.07408839224632216
1737.0,0.06947324056519151
1736.0,0.06516300958706199
1735.0,0.058526255553988146
1734.0,0.049044352074246844
1733.0,0.041248383529840484
1732.0,0.036859997618390754
1731.0,0.03380115189333937
1730.0,0.031018195811503557
1729.0,0.02850249883718778
1728.0,0.02639448492048797
1727.0,0.024703262235289253
1726.0,0.02332261747848232
1725.0,0.02209810348093864
1724.0,0.02092612955817248
1723.0,0.019884578044084073
1722.0,0.019120977663485254
1721.0,0.018573757691135055
1720.0,0.018004155243243464
1719.0,0.01722255934913551
1718.0,0.01632172683353767
1717.0,0.015526508927725828
1716.0,0.014812129110803693
1715.0,0.014220891561846267
1714.0,0.013822879829001333
1713.0,0.013488233439009727
1712.0,0.013077780157269358
1711.0,0.012615758841655673
1710.0,0.01220764407932524
1709.0,0.011874284090758159
1708.0,0.011549881247540783
1707.0,0.011207237544922194
1706.0,0.010920024282274477
1705.0,0.010729383776638643
1704.0,0.010569375298434592
1703.0,0.010454309608612733
1702.0,0.01041556023071043
1701.0,0.010470880546373898
1700.0,0.010501737945590403
1699.0,0.010351198817747738
1698.0,0.010238816503563912
1697.0,0.010314512099809593
1696.0,0.01045406000615032
1695.0,0.010484773604280547
1694.0,0.010485099675996406
1693.0,0.010527123365349089
1692.0,0.01054953163840707
1691.0,0.010546143078793013
1690.0,0.010600763352801341
1689.0,0.010740574143977975
1688.0,0.01087788050209967
1687.0,0.0109591622868536
1686.0,0.011003732109198054
1685.0,0.011201508388052256
1684.0,0.011587404217188102
1683.0,0.011807060849496794
1682.0,0.011985129690455492
1681.0,0.012203825834862531
1680.0,0.012391455434019257
1679.0,0.012546555220509514
1678.0,0.012711839835619937
1677.0,0.012921397391263027
1676.0,0.013188609046253508
1675.0,0.0134756288398164
1674.0,0.013669826878946564
1673.0,0.013757790988490334
1672.0,0.013803938839368958
1671.0,0.013861372110012045
1670.0,0.014030961043990556
1669.0,0.014286762443838395
1668.0,0.014496325103376381
1667.0,0.014643628155773098
1666.0,0.014761601090300547
1665.0,0.014874642407476879
1664.0,0.015003962865220405
1663.0,0.015169791411294573
1662.0,0.015340330912932344
1661.0,0.015453108330442944
1660.0,0.015527403065784994
1659.0,0.0155809164173321
1658.0,0.01563215711903575
1657.0,0.015696274747806944
1656.0,0.015790483358015053
1655.0,0.015834814969758918
1654.0,0.015900275988159303
1653.0,0.016102741878905782
1652.0,0.016070853701321854
1651.0,0.016011253468302598
1650.0,0.016037117826137672
1649.0,0.016064806375871984
1648.0,0.016073528600799632
1647.0,0.01613737169188014
1646.0,0.01619071123160424
1645.0,0.01618949981869678
1644.0,0.016181234131892208
1643.0,0.016172971951014886
1642.0,0.01616373793715946
1641.0,0.016133810012565638
1640.0,0.01609034772516805
1639.0,0.016066565727215962
1638.0,0.016067693093407266
1637.0,0.01607801237977069
1636.0,0.01606277172753158
1635.0,0.015958118356318798
1634.0,0.015826310715473253
1633.0,0.015735837635957463
1632.0,0.01564200237628547
1631.0,0.015536440769747056
1630.0,0.015426598070741978
1629.0,0.015301341627822942
1628.0,0.015146737232527883
1627.0,0.014985184979032284
1626.0,0.014846172669601077
1625.0,0.014701706479524207
1624.0,0.014506611654489156
1623.0,0.014261547600792252
1622.0,0.014020873847214198
1621.0,0.01383462092531474
1620.0,0.013703642096983094
1619.0,0.013577635605769158
1618.0,0.01339860563902388
1617.0,0.01312460258853436
1616.0,0.01277538298246119
1615.0,0.01248889325126043
1614.0,0.012322753419257176
1613.0,0.012182012347767602
1612.0,0.011988228949679856
1611.0,0.011749975871460015
1610.0,0.011506558817611492
1609.0,0.011266562357430274
1608.0,0.011030063353883585
1607.0,0.0108203526585159
1606.0,0.010645216647361032
1605.0,0.010469600674591037
1604.0,0.010276463078722504
1603.0,0.010081128954619399
1602.0,0.009900908767713644
1601.0,0.009729855017993283
1600.0,0.009559387722857499
1599.0,0.009400399965869034
1598.0,0.009259952197171326
1597.0,0.009122245671463065
1596.0,0.008965674923306192
1595.0,0.008795247789107234
1594.0,0.008636996511889912
1593.0,0.008498470685971374
1592.0,0.00836881175889983
1591.0,0.008246076848633488
1590.0,0.00813640192628629
1589.0,0.0080321972189375
1588.0,0.007922701940060558
1587.0,0.007812238489018086
1586.0,0.007711204389611818
1585.0,0.007610917944530084
1584.0,0.007506612103549264
1583.0,0.0074180521620620995
1582.0,0.0073454705844946
1581.0,0.007274052768591726
1580.0,0.007202086874346288
1579.0,0.0071361749542632
1578.0,0.00705121685458002
1577.0,0.006940254419940879
1576.0,0.006813148295042631
1575.0,0.006698236014578753
1574.0,0.0066679478580412375
1573.0,0.0066961718514563125
1572.0,0.006703878866039674
1571.0,0.006668896472655792
1570.0,0.006644045114567607
1569.0,0.006629261138147465
1568.0,0.00658967036053632
1567.0,0.006543524677213626
1566.0,0.006497198619207695
1565.0,0.006446752989576851
1564.0,0.00641501110536092
1563.0,0.006428204392333388
1562.0,0.006490955502016869
1561.0,0.006512472100067904
1560.0,0.006430467449686346
1559.0,0.006457096421022615
1558.0,0.006549745463897045
1557.0,0.00662339493450014
1556.0,0.006677362574801143
1555.0,0.006701380681721858
1554.0,0.006706080046092664
1553.0,0.006705863471641486
1552.0,0.006698778260826346
1551.0,0.006702858817498001
1550.0,0.006736402227858226
1549.0,0.006796762820272426
1548.0,0.0068368970855723875
1547.0,0.0068368722808740835
1546.0,0.006793728622454838
1545.0,0.0067540003991911415
1544.0,0.0067590357720420866
1543.0,0.006784887982174064
1542.0,0.0067850115595591495
1541.0,0.006857382927979751
1540.0,0.006971494862084607
1539.0,0.006920270164427381
1538.0,0.006889783193715426
1537.0,0.006964653855037788
1536.0,0.0070537528456692655
1535.0,0.007105482912588119
1534.0,0.0071427182076666
1533.0,0.007210623498697515
1532.0,0.007265822794634702
1531.0,0.007283152499950086
1530.0,0.0072773443233871676
1529.0,0.007274810604073577
1528.0,0.007284270310883913
1527.0,0.007294400539386632
1526.0,0.007315236809506404
1525.0,0.007359129347493882
1524.0,0.007407090762083315
1523.0,0.00742329571442788
1522.0,0.007486509139173005
1521.0,0.007646420104591196
1520.0,0.007767233687195091
1519.0,0.007820618910690117
1518.0,0.007863350068468338
1517.0,0.007964660438869762
1516.0,0.008102296003062058
1515.0,0.008200731070888126
1514.0,0.00827582585472973
1513.0,0.008338492045026374
1512.0,0.008383431878482178
1511.0,0.008383795717791626
1510.0,0.008374040502244589
1509.0,0.008379562651747004
1508.0,0.00850518597097132
1507.0,0.00873935695787212
1506.0,0.008789684053051437
1505.0,0.008801169354938729
1504.0,0.008841354506762796
1503.0,0.008851643477858877
1502.0,0.008869608675965937
1501.0,0.008919277217614627
1500.0,0.009010105331996296
1499.0,0.009107034623998337
1498.0,0.00920181749429272
1497.0,0.009351956719742404
1496.0,0.009506303220242575
1495.0,0.009566823729238984
1494.0,0.009589385524658173
1493.0,0.009645386610173846
1492.0,0.00971947186901826
1491.0,0.00976785895205883
1490.0,0.009832265620947281
1489.0,0.00998534997407369
1488.0,0.010160425870559873
1487.0,0.010271791122446207
1486.0,0.010354128349344576
1485.0,0.010451515056573159
1484.0,0.010562743263977414
1483.0,0.01067278294042065
1482.0,0.010790641193381155
1481.0,0.01094807592894929
1480.0,0.011127696675514564
1479.0,0.01129314652056957
1478.0,0.01145587452924201
1477.0,0.011668782652415957
1476.0,0.01193635096182118
1475.0,0.012214223271669766
1474.0,0.012590075367850489
1473.0,0.013310093884211133
1472.0,0.014222292255380402
1471.0,0.014926808464439084
1470.0,0.015506353283988413
1469.0,0.016161949956970165
1468.0,0.016952844075617018
1467.0,0.017935073945951143
1466.0,0.019314611769043182
1465.0,0.021275344605652672
1464.0,0.02340387055356807
1463.0,0.025101290095032484
1462.0,0.026423494259971897
1461.0,0.027636902895334887
1460.0,0.028896771498534896
1459.0,0.03025664059701163
1458.0,0.032215538283578496
1457.0,0.03484045302473411
1456.0,0.03653323312897672
1455.0,0.03704800878544192
1454.0,0.037316244046705575
1453.0,0.037570390636277734
1452.0,0.037712073064519895
1451.0,0.037649171009076006
1450.0,0.03741609093688082
1449.0,0.03692092935504231
1448.0,0.035956117372821866
1447.0,0.0346025432355708
1446.0,0.0331532185137435
1445.0,0.0316520104609331
1444.0,0.029980001439512835
1443.0,0.028144822247570193
1442.0,0.026313732389841853
1441.0,0.024655645588694975
1440.0,0.02325719273461525
1439.0,0.022109889891991304
1438.0,0.021080078775409388
1437.0,0.019968113538834494
1436.0,0.018858168671988352
1435.0,0.018071065606432457
1434.0,0.017618768553502234
1433.0,0.017305480533203892
1432.0,0.017021930425399154
1431.0,0.01677308192229691
1430.0,0.016586720725603927
1429.0,0.016430213764507012
1428.0,0.016273776178924077
1427.0,0.016147356114312672
1426.0,0.016061816089722892
1425.0,0.015971439475924845
1424.0,0.015862009494447857
1423.0,0.01578498095561773
1422.0,0.0157802673167462
1421.0,0.015796804059183208
1420.0,0.015754627120332508
1419.0,0.015633802320481782
1418.0,0.01547658480629787
1417.0,0.01532689010347996
1416.0,0.015190881486151615
1415.0,0.01506490139777002
1414.0,0.014939386152292577
1413.0,0.014794816479808192
1412.0,0.014624519965693701
1411.0,0.014444287882963619
1410.0,0.01426124671472321
1409.0,0.014069989077928547
1408.0,0.01387624287228488
1407.0,0.013702199150196551
1406.0,0.013545721509142131
1405.0,0.013374148274655034
1404.0,0.013208118165571683
1403.0,0.013105443369696212
1402.0,0.013074331298612837
1401.0,0.013088223099402961
1400.0,0.013170708354380598
1399.0,0.013370743624343592
1398.0,0.01366538558748187
1397.0,0.014050006784115263
1396.0,0.014676425475933876
1395.0,0.015668296662042534
1394.0,0.0168213954207653
1393.0,0.017871633713369858
1392.0,0.018839162356574565
1391.0,0.019834923988258688
1390.0,0.020908641631420397
1389.0,0.02211745046747369
1388.0,0.02355902840165157
1387.0,0.02512876822308439
1386.0,0.02645475168075545
1385.0,0.02736227297521958
1384.0,0.02795145193391526
1383.0,0.028276434230428145
1382.0,0.02829167223057797
1381.0,0.027954213973946547
1380.0,0.027266521348871683
1379.0,0.02629196506063381
1378.0,0.025179249697901942
1377.0,0.02409595341289852
1376.0,0.02313579947072471
1375.0,0.02239761020099494
1374.0,0.022055616071253527
1373.0,0.022154929406040764
1372.0,0.022524706009473042
1371.0,0.023011657794302
1370.0,0.023559783440420805
1369.0,0.024101975173569247
1368.0,0.024536162276586154
1367.0,0.02481143016190869
1366.0,0.024964767201724723
1365.0,0.025044060547573296
1364.0,0.025074069290846705
1363.0,0.025084726204089792
1362.0,0.02510052377289101
1361.0,0.025097163363240554
1360.0,0.025030189729156323
1359.0,0.02488321507991256
1358.0,0.02465725917701141
1357.0,0.024342008439031802
1356.0,0.023918004295579
1355.0,0.023387909966186053
1354.0,0.022784268954933705
1353.0,0.022135991596895173
1352.0,0.021444494104270843
1351.0,0.020713287875359337
1350.0,0.019968973777505623
1349.0,0.019238256391394027
1348.0,0.018535192157720825
1347.0,0.01786929909842479
1346.0,0.0172548614808091
1345.0,0.016695070276786364
1344.0,0.016179914281968657
1343.0,0.01569943505281816
1342.0,0.015242172457429363
1341.0,0.014785549193718665
1340.0,0.014325051350862344
1339.0,0.013914462097580418
1338.0,0.013604236560602001
1337.0,0.013358080375378136
1336.0,0.013109435184831528
1335.0,0.012846028873353444
1334.0,0.012595911822543892
1333.0,0.012371726123772513
1332.0,0.012163784845957825
1331.0,0.011977477162689213
1330.0,0.011833084616158274
1329.0,0.011727274072470779
1328.0,0.011633855075494245
1327.0,0.011546161035090888
1326.0,0.011481157546045461
1325.0,0.01144094754084065
1324.0,0.011406369186405703
1323.0,0.01136637786839069
1322.0,0.011327678143995604
1321.0,0.011291322179270057
1320.0,0.011247180202150969
1319.0,0.011195675368883492
1318.0,0.01114980768674299
1317.0,0.011110449530252992
1316.0,0.011068653952874017
1315.0,0.011031931645484206
1314.0,0.011018516663698196
1313.0,0.011024144558076491
1312.0,0.011022357866174198
1311.0,0.011003788692134885
1310.0,0.010983329515176117
1309.0,0.010970295831088741
1308.0,0.01095830582309459
1307.0,0.010942730442592537
1306.0,0.010923221902064323
1305.0,0.010889279107532932
1304.0,0.010828765202129748
1303.0,0.010748216555247662
1302.0,0.010664418369712943
1301.0,0.010575006001408854
1300.0,0.010461379974322945
1299.0,0.010317361289007426
1298.0,0.01015038140925767
1297.0,0.009955841865670844
1296.0,0.009720170058356032
1295.0,0.009453210635182601
1294.0,0.00919100132046224
1293.0,0.008965900132455318
1292.0,0.008798050049292239
1291.0,0.008714182361060857
1290.0,0.00874766281580931
1289.0,0.008915509346088401
1288.0,0.009212256489151239
1287.0,0.009627723375158305
1286.0,0.010157774439777691
1285.0,0.010797339857210413
1284.0,0.011533878981123423
1283.0,0.012349258079744449
1282.0,0.01322287631757603
1281.0,0.014131602131688677
1280.0,0.015051094658517776
1279.0,0.01596149695031467
1278.0,0.01684990795635281
1277.0,0.017702497697471762
1276.0,0.01849770244613903
1275.0,0.0192182823677793
1274.0,0.019865933615554172
1273.0,0.020449481066244127
1272.0,0.02096042053860502
1271.0,0.021378195288267975
1270.0,0.02169774855198522
1269.0,0.02192974535606557
1268.0,0.022078231963539197
1267.0,0.022142299875113337
1266.0,0.02213241327685521
1265.0,0.022060209687459677
1264.0,0.02191928501203861
1263.0,0.02170005658914684
1262.0,0.021416205150623778
1261.0,0.021095476811416228
1260.0,0.02075433897114547
1259.0,0.020400207100728145
1258.0,0.020045189140262883
1257.0,0.01969846243776317
1256.0,0.019358484387775383
1255.0,0.019029771670286116
1254.0,0.018732404333778426
1253.0,0.018480266961446164
1252.0,0.018265442129436323
1251.0,0.018078900219047137
1250.0,0.017930383461032845
1249.0,0.01783259259746253
1248.0,0.01778000500131668
1247.0,0.0177586242804185
1246.0,0.0177663959287252
1245.0,0.017811005668359504
1244.0,0.017895464077834388
1243.0,0.018017801537219595
1242.0,0.018176716539860294
1241.0,0.018367020927586037
1240.0,0.01857810205393679
1239.0,0.018808095148635892
1238.0,0.019071927185972202
1237.0,0.019383458584643187
1236.0,0.0197372329037921
1235.0,0.020121053770836672
1234.0,0.020540154929499135
1233.0,0.02101424050441931
1232.0,0.021554638410918845
1231.0,0.022159748724287803
1230.0,0.02283035123175206
1229.0,0.023571566013068822
1228.0,0.02437876755099639
1227.0,0.025240469495005337
1226.0,0.026159474794232716
1225.0,0.027151165889015158
1224.0,0.028213126532317306
1223.0,0.029318114689656158
1222.0,0.03044707411478343
1221.0,0.03160497050880859
1220.0,0.032792598326768715
1219.0,0.033990055438520066
1218.0,0.035182167941205135
1217.0,0.03636828400006679
1216.0,0.03752979133650546
1215.0,0.03862526857848709
1214.0,0.039636322657249076
1213.0,0.040577822538386085
1212.0,0.04144532467877274
1211.0,0.04220191922515497
1210.0,0.042836912905882735
1209.0,0.04338200052153112
1208.0,0.043853993796497195
1207.0,0.04424383518624099
1206.0,0.04457688845718108
1205.0,0.044915766713555245
1204.0,0.04528497570826703
1203.0,0.04565990224816773
1202.0,0.04604775741865188
1201.0,0.046511354924081566
1200.0,0.04709341427608835
1199.0,0.04778498909770625
1198.0,0.048591124274905396
1197.0,0.049560743820736525
1196.0,0.05072324918345172
1195.0,0.05206063976579453
1194.0,0.05357458549149417
1193.0,0.05531764335440338
1192.0,0.05732153150905593
1191.0,0.059559567718957096
1190.0,0.06202288867815324
1189.0,0.0647584582426004
1188.0,0.06777211578968187
1187.0,0.07096693798721464
1186.0,0.07423952266696865
1185.0,0.07754195149288787
1184.0,0.08075713607828566
1183.0,0.08361346661374876
1182.0,0.08581395682608048
1181.0,0.08711876295381266
1180.0,0.08722189417162403
1179.0,0.08577092907042409
1178.0,0.08266239823883474
1177.0,0.07813041089364012
1176.0,0.07250491404620521
1175.0,0.06613099986306718
1174.0,0.05948952868885647
1173.0,0.0531003833730349
1172.0,0.047280012128019584
1171.0,0.04212914375588337
1170.0,0.037680411426506355
1169.0,0.033935956215262957
1168.0,0.03082532181155736
1167.0,0.028240030486360077
1166.0,0.026103777142303553
1165.0,0.02436410350335324
1164.0,0.022948469647791264
1163.0,0.021778912492411654
1162.0,0.02081140445113341
1161.0,0.020024353659265203
1160.0,0.01938669269027671
1159.0,0.01886759716085751
1158.0,0.018461152036248183
1157.0,0.018173204847389327
1156.0,0.017995728248344462
1155.0,0.017915293094092566
1154.0,0.017934161630127936
1153.0,0.01806475570217866
1152.0,0.018315612843217106
1151.0,0.018700142206973858
1150.0,0.01924869350348771
1149.0,0.019995667500893877
1148.0,0.02096325560033977
1147.0,0.02217052812088542
1146.0,0.02364713274541089
1145.0,0.025417742098058672
1144.0,0.027473119684061437
1143.0,0.02977393582298684
1142.0,0.032284230292371804
1141.0,0.03497322867883808
1140.0,0.03776954352680237
1139.0,0.04055429361118077
1138.0,0.043237089807219825
1137.0,0.045798480536995485
1136.0,0.04822160755063598
1135.0,0.050443841415412756
1134.0,0.05242545939571829
1133.0,0.05419408482959059
1132.0,0.055765502588598845
1131.0,0.0570954585056436
1130.0,0.058152016904121126
1129.0,0.05894129969207282
1128.0,0.05941542757568387
1127.0,0.05946202961930669
1126.0,0.05904220506068024
1125.0,0.05824270346065255
1124.0,0.05716536233024215
1123.0,0.05588343497296121
1122.0,0.054521183860793715
1121.0,0.05324387845192116
1120.0,0.05213892021294939
1119.0,0.05120045932420366
1118.0,0.05043087241890709
1117.0,0.04986359418710098
1116.0,0.0494925766670988
1115.0,0.0492838510995015
1114.0,0.0492703623223353
1113.0,0.04954298269857773
1112.0,0.05013127864698925
1111.0,0.05098091855346013
1110.0,0.05206739082505664
1109.0,0.053440091944121276
1108.0,0.055120347918433246
1107.0,0.057047619253984175
1106.0,0.059168139777803816
1105.0,0.06147738061732548
1104.0,0.06392211628280156
1103.0,0.06637376765782886
1102.0,0.06877523230019274
1101.0,0.07120124447742272
1100.0,0.07369268082860223
1099.0,0.07616161042607428
1098.0,0.07855326888627624
1097.0,0.0809549190669786
1096.0,0.08343269766982658
1095.0,0.08591567382597766
1094.0,0.08835993970968056
1093.0,0.0908567395636915
1092.0,0.09344906463793366
1091.0,0.0960223183579624
1090.0,0.09851022266799869
1089.0,0.10101057457271333
1088.0,0.10355255283554077
1087.0,0.10596120747081898
1086.0,0.10810419551951786
1085.0,0.11004226183842479
1084.0,0.11177736514602667
1083.0,0.1131222057530821
1082.0,0.11399027918822777
1081.0,0.11452104481988479
1080.0,0.11475644378748612
1079.0,0.11451388341615275
1078.0,0.1137236130801582
1077.0,0.11254679418023462
1076.0,0.11102630957644764
1075.0,0.1089724250511624
1074.0,0.10630959484415477
1073.0,0.10320244177027951
1072.0,0.09975733605323624
1071.0,0.09592957058664116
1070.0,0.0917802578961754
1069.0,0.08751637608715938
1068.0,0.08324562125199864
1067.0,0.07896084472460707
1066.0,0.07477399978070483
1065.0,0.0709337972450872
1064.0,0.06761205813742842
1063.0,0.06485144425088159
1062.0,0.0626964477414338
1061.0,0.06120936163467436
1060.0,0.060353001536171916
1059.0,0.0599822817524005
1058.0,0.0599733634166351
1057.0,0.06026772940148341
1056.0,0.06077913589726326
1055.0,0.06137587572339563
1054.0,0.06200051341954456
1053.0,0.06270533245750454
1052.0,0.06351833939184998
1051.0,0.06437945851886101
1050.0,0.06525981828270765
1049.0,0.0662036083352157
1048.0,0.06718776624694
1047.0,0.06809244992887413
1046.0,0.06885720871568289
1045.0,0.06950805998674225
1044.0,0.06999808821011935
1043.0,0.07018174167082351
1042.0,0.06998909351863662
1041.0,0.06947827963976758
1040.0,0.06867624836624327
1039.0,0.06752205942428471
1038.0,0.06600888564507189
1037.0,0.06423547091486215
1036.0,0.06228902928660769
1035.0,0.0602108580437255
1034.0,0.05808755658270667
1033.0,0.05605161793500596
1032.0,0.054178136071440966
1031.0,0.05247211849533235
1030.0,0.05094373063283015
1029.0,0.04960154148564585
1028.0,0.04838488862035443
1027.0,0.04719593051353918
1026.0,0.04599604094386917
1025.0,0.044792495303640836
1024.0,0.043546281616518884
1023.0,0.042182546849153825
1022.0,0.0406874802229446
1021.0,0.039113567410667585
1020.0,0.037492978738975974
1019.0,0.03582024308454755
1018.0,0.03411477624673417
1017.0,0.03242959824726569
1016.0,0.030797573792613338
1015.0,0.029224372042744043
1014.0,0.02772869828319844
1013.0,0.02634187032596156
1012.0,0.025073502417168173
1011.0,0.023913306977059248
1010.0,0.022857226327184142
1009.0,0.02190383121418674
1008.0,0.021038495022148523
1007.0,0.02024680990044725
1006.0,0.019530752053827087
1005.0,0.018889351835002687
1004.0,0.018298052255730182
1003.0,0.01773036904555334
1002.0,0.017187369039390436
1001.0,0.01668411519535553
1000.0,0.01621964671095033
999.0,0.015780863201952336
998.0,0.015363553999030912
997.0,0.014969444661257311
996.0,0.014592861311763398
995.0,0.014228381444702311
994.0,0.013882380688671096
993.0,0.013560963041188236
992.0,0.013254809626075937
991.0,0.012950203291368763
990.0,0.012646872623321172
989.0,0.012352152516303238
988.0,0.012066477459301408
987.0,0.011786626023805681
986.0,0.011514173090483765
985.0,0.011250010736800667
984.0,0.010989070032978807
983.0,0.010728490938279354
982.0,0.010471676631570268
981.0,0.01021864777986703
980.0,0.009964113736616254
979.0,0.009710401367275596
978.0,0.009468152719060794
977.0,0.009237871699590405
976.0,0.009006533535101762
975.0,0.008770533102261047
974.0,0.008546199339093504
973.0,0.008347979053729766
972.0,0.008170556416713604
971.0,0.00800170652820829
970.0,0.007839994113956073
969.0,0.00769243192827344
968.0,0.007568072052550823
967.0,0.007482432659954328
966.0,0.007456131651288694
965.0,0.007499824612621147
964.0,0.007608413227898004
963.0,0.007773623094431713
962.0,0.007991142404872757
961.0,0.008250505401937891
960.0,0.008527136951540094
959.0,0.008787964708248878
958.0,0.008996545526917348
957.0,0.009112514139221203
956.0,0.009103489844307634
955.0,0.008971181174083138
954.0,0.008756472504195333
953.0,0.00850555372766839
952.0,0.00823784204642048
951.0,0.007954344640135724
950.0,0.007661795128259357
949.0,0.00737453547455634
948.0,0.007103337448382378
947.0,0.006854365870177018
946.0,0.0066316192386507156
945.0,0.006433568946253002
944.0,0.006255746473205728
943.0,0.00609975676323175
942.0,0.005969554599408029
941.0,0.005857983264186404
940.0,0.005750533951661132
939.0,0.005644484465865454
938.0,0.005549932577737197
937.0,0.005469426970844758
936.0,0.005392679560675087
935.0,0.0053159169975095545
934.0,0.005250010715205464
933.0,0.005202514670904343
932.0,0.0051658994454845016
931.0,0.005130290071563881
930.0,0.005095116034732738
929.0,0.005062286197973645
928.0,0.005030327197460039
927.0,0.005001618048164817
926.0,0.004984245085761164
925.0,0.004980783495457709
924.0,0.004984715652850793
923.0,0.004990803223307928
922.0,0.004997937212413752
921.0,0.005000249134962175
920.0,0.004989373630651451
919.0,0.004969227591451627
918.0,0.004954435221191926
917.0,0.004948772463490904
916.0,0.004938024457676424
915.0,0.004909218113497652
914.0,0.0048646775182809195
913.0,0.00481276288647103
912.0,0.004758162535597028
911.0,0.004706537844309577
910.0,0.004664561598151019
909.0,0.0046290518262691645
908.0,0.00458909331659586
907.0,0.004543617962231992
906.0,0.004503012219150839
905.0,0.004470001326881641
904.0,0.004435589749024178
903.0,0.00439904976934192
902.0,0.004374786433663657
901.0,0.004371844648245336
900.0,0.004381877995962194
899.0,0.004394709707787362
898.0,0.004410135606319608
897.0,0.004426035474250375
896.0,0.00442912411875185
895.0,0.004407139686057418
894.0,0.004359291944131762
893.0,0.004287652650181353
892.0,0.004191259088740693
891.0,0.004076792074734414
890.0,0.003963025362297486
889.0,0.0038688006717423704
888.0,0.003810156681024496
887.0,0.0038134912180098537
886.0,0.003914135940490809
885.0,0.004134929188401302
884.0,0.004481931325027076
883.0,0.004967027608426719
882.0,0.0056167016051856915
881.0,0.006445109313474091
880.0,0.00742540628853277
879.0,0.008495140345042639
878.0,0.009586030394180541
877.0,0.010643303177227947
876.0,0.011622566447532023
875.0,0.012485341336187901
874.0,0.013199339895249178
873.0,0.01372580318995905
872.0,0.014013134190409806
871.0,0.014036990365189413
870.0,0.013847914409699479
869.0,0.013544352984650794
868.0,0.013198691372462185
867.0,0.012835926291890669
866.0,0.012467245731876051
865.0,0.012102695883159958
864.0,0.01173121395629716
863.0,0.011320139682947625
862.0,0.010839930507987164
861.0,0.010271788709926566
860.0,0.009599363173313006
859.0,0.0088220638683946
858.0,0.007978682526522486
857.0,0.007138302842533008
856.0,0.006366987831867593
855.0,0.0057091236252425764
854.0,0.005184857478835098
853.0,0.004791546829128376
852.0,0.004515562737525057
851.0,0.004344120610119044
850.0,0.004253595892406092
849.0,0.004191135187310572
848.0,0.004091612886888909
847.0,0.003921786365556271
846.0,0.0036938881918222918
845.0,0.0034330129254525298
844.0,0.003152786736606272
843.0,0.0028691815293338304
842.0,0.002609233592483424
841.0,0.0023883033732365073
840.0,0.0021981579662154367
839.0,0.002031482998735514
838.0,0.0018983822659864244
837.0,0.0018033216956321076
836.0,0.0017244267360570463
835.0,0.001634304469187874
834.0,0.0015304273445148307
833.0,0.0014298664105702446
832.0,0.0013440734085044207
831.0,0.0012739590165617848
830.0,0.0012214196095796156
829.0,0.0011907198806170843
828.0,0.001181548621242678
827.0,0.0011880645001737349
826.0,0.001198852754353743
825.0,0.0011968442248154847
824.0,0.001174024859272758
823.0,0.001147119415206975
822.0,0.001138146546998316
821.0,0.0011411091511767408
820.0,0.00113464043255696
819.0,0.0011239107693682571
818.0,0.0011377813531645783
817.0,0.0011813161069477284
816.0,0.00122135373226895
815.0,0.0012309412421402065
814.0,0.0012233658996789864
813.0,0.001225001829307789
812.0,0.0012368830872262794
811.0,0.0012450671558498355
810.0,0.001249270404664965
809.0,0.0012563732656262535
808.0,0.0012606995771460763
807.0,0.0012573789903052041
806.0,0.0012638854742040434
805.0,0.0013004886768507064
804.0,0.001356917602655723
803.0,0.001403991575719795
802.0,0.0014336394622364561
801.0,0.0014623115994099635
800.0,0.001497480350609648
799.0,0.0015277192818305904
798.0,0.0015475260080962047
797.0,0.0015674075260898902
796.0,0.0015952749866794472
795.0,0.0016296962537326216
794.0,0.0016758224942731992
793.0,0.0017473143476350265
792.0,0.0018462260156998263
791.0,0.0019582776064111292
790.0,0.002074010766145589
789.0,0.0021993812233133004
788.0,0.00234120082732751
787.0,0.0024981845011678976
786.0,0.00267041746080097
785.0,0.0028597938358757534
784.0,0.0030543755834957116
783.0,0.0032303391324756976
782.0,0.0033797208987011735
781.0,0.0035209516397334793
780.0,0.0036730826252657136
779.0,0.0038355740584431787
778.0,0.004002819006935299
777.0,0.004182020813600097
776.0,0.004383905408281702
775.0,0.004608112804778113
774.0,0.00484826657296881
773.0,0.005100754603739821
772.0,0.0053609305796112165
771.0,0.005623943677579162
770.0,0.0058987433675504915
769.0,0.006207348529845686
768.0,0.006560290892728898
767.0,0.00694549875857867
766.0,0.007348913818935328
765.0,0.007771310290375869
764.0,0.008216823009398435
763.0,0.008682118939981949
762.0,0.009163839349900504
761.0,0.009654604002455398
760.0,0.010121715988289155
759.0,0.010514497902325018
758.0,0.010808277883630254
757.0,0.011018557924802035
756.0,0.011159859413760458
755.0,0.01122033231836771
754.0,0.01119194169179618
753.0,0.011093225694042096
752.0,0.010944088731752358
751.0,0.010750120905373861
750.0,0.0105268615969598
749.0,0.010303552688951056
748.0,0.010086120969989502
747.0,0.009852807916330284
746.0,0.009606544553824148
745.0,0.009394014986495735
744.0,0.00924154903105253
743.0,0.00910125025502136
742.0,0.008895244354050473
741.0,0.008594046328525243
740.0,0.008223642745873855
739.0,0.007817762674831332
738.0,0.007397226376422199
737.0,0.006981032102947614
736.0,0.006580088324853708
735.0,0.006179262020845483
734.0,0.0057506516511915545
733.0,0.005291839351777516
732.0,0.0048407720919181885
731.0,0.004453123811670918
730.0,0.004169257482269094
729.0,0.003995309727027068
728.0,0.00390926240688215
727.0,0.003886485472597916
726.0,0.0039220327080545375
725.0,0.00402464018432803
724.0,0.004189910275299767
723.0,0.0043954248214055185
722.0,0.004627710050777854
721.0,0.004894655553911421
720.0,0.005196998277754366
719.0,0.005507922787689395
718.0,0.005807207516179372
717.0,0.006111226889529732
716.0,0.006436731227431942
715.0,0.006754619047875516
714.0,0.007009324847156752
713.0,0.007176333136427654
712.0,0.00727334449133929
711.0,0.0073235116863856545
710.0,0.007338322589350341
709.0,0.007330085622831346
708.0,0.0073142125336361045
707.0,0.007296811430841047
706.0,0.0072752038399939226
705.0,0.007250870943998525
704.0,0.007228343838473733
703.0,0.007204154823550114
702.0,0.007174344793139154
701.0,0.007148992516619431
700.0,0.007141370872913316
699.0,0.0071424063058773
698.0,0.007120043286036347
697.0,0.007053563430763778
696.0,0.00695833716666663
695.0,0.006866630313616583
694.0,0.006792482704518793
693.0,0.006722255551235772
692.0,0.006641155035254417
691.0,0.006562289596683344
690.0,0.006514051338290274
689.0,0.006495300614752512
688.0,0.006460274151423553
687.0,0.006374200318101177
686.0,0.006271219936807581
685.0,0.0062175400452797736
684.0,0.006229219225226158
683.0,0.006259706157082552
682.0,0.0062578481221312356
681.0,0.0062085094234330535
680.0,0.006119130896533657
679.0,0.006003963177710538
678.0,0.005891034888454289
677.0,0.005815219023464702
676.0,0.005785058209546126
675.0,0.005769641953723058
674.0,0.0057364253340433
673.0,0.005692645193632783
672.0,0.005666053999909305
671.0,0.00568161074640644
670.0,0.0057441836391659284
669.0,0.005844325629179838
668.0,0.00588006039843832
667.0,0.0057664761186965105
666.0,0.005615357110309166
665.0,0.00551311515378446
664.0,0.005437175518786048
663.0,0.00536030811555949
662.0,0.005273307584401074
661.0,0.005190905825245534
660.0,0.005127599993623163
659.0,0.0050842464704906574
658.0,0.005047950837862792
657.0,0.004997226073116499
656.0,0.004915736895122317
655.0,0.004808493694323578
654.0,0.004706083502668882
653.0,0.004636688485541086
652.0,0.004595496486957493
651.0,0.004556533038929188
650.0,0.0045099367822494
649.0,0.004466418038438554
648.0,0.0044236648740131924
647.0,0.004353217981191579
646.0,0.004233247931718084
645.0,0.0040763809541310425
644.0,0.0039134978518606985
643.0,0.003768518797850725
642.0,0.003653699165371803
641.0,0.0035720859991451095
640.0,0.003518151542327541
639.0,0.0034798793596520564
638.0,0.003440662430293038
637.0,0.0033809718895074364
636.0,0.0032849119853334274
635.0,0.0031586199606198663
634.0,0.0030390039667610932
633.0,0.002955551632425543
632.0,0.002890187759950369
631.0,0.002804346814222994
630.0,0.0026998110066935466
629.0,0.0026235971824133068
628.0,0.002604435098744768
627.0,0.002608122778903703
626.0,0.0025744434883233133
625.0,0.0024907036379863204
624.0,0.0024013360542209303
623.0,0.0023438854470546437
622.0,0.0023055289346130686
621.0,0.0022475768747684394
620.0,0.002150150208612993
619.0,0.0020248778711036922
618.0,0.0018937126625605538
617.0,0.0017624509404188145
616.0,0.0016223530086635178
615.0,0.0014764339957208678
614.0,0.0013472533793058208
613.0,0.00125696237481953
612.0,0.0012110774002907707
611.0,0.0011978359140432486
610.0,0.0011966827478953612
609.0,0.001192314896571874
608.0,0.001189381782212024
607.0,0.001211868823681815
606.0,0.0012736629771139159
605.0,0.0013478287267162728
604.0,0.00138107221328055
603.0,0.001346620425131756
602.0,0.0012675011553449477
601.0,0.0011813149008419455
600.0,0.0011089331689403993
