cm-1,A
4000.0,0.002019896580904179
3999.0,0.0020168825204076564
3998.0,0.002021637952644074
3997.0,0.0020375565991012684
3996.0,0.0020584222856440955
3995.0,0.002073065354689648
3994.0,0.0020764639385268038
3993.0,0.002074374675282536
3992.0,0.0020776844828931675
3991.0,0.002090833306319987
3990.0,0.0021071015535123793
3989.0,0.0021146684540621226
3988.0,0.0021065407827607703
3987.0,0.0020859315419592623
3986.0,0.002062466701166863
3985.0,0.0020450680813879686
3984.0,0.002037261661743983
3983.0,0.002038383645211883
3982.0,0.0020471412776319827
3981.0,0.002062157276697481
3980.0,0.0020801592761326153
3979.0,0.0020951491406924223
3978.0,0.0021010998996625705
3977.0,0.0020965551385161312
3976.0,0.002086068860868934
3975.0,0.002077151912658641
3974.0,0.002076144954806411
3973.0,0.0020848715046932575
3972.0,0.002099704446580423
3971.0,0.002113408578327706
3970.0,0.00211929148007104
3969.0,0.002115188287157711
3968.0,0.0021050692025846437
3967.0,0.002097006423918891
3966.0,0.002097670158283855
3965.0,0.002107238716026718
3964.0,0.0021193326839782094
3963.0,0.002126644508713255
3962.0,0.0021270671974739975
3961.0,0.002123925576335696
3960.0,0.0021210390578433862
3959.0,0.002118745034219267
3958.0,0.0021153715537180107
3957.0,0.002110312486890455
3956.0,0.0021056918338179
3955.0,0.002105844151634959
3954.0,0.0021147073124642597
3953.0,0.002130978254806348
3952.0,0.0021468911226302264
3951.0,0.002152190873014042
3950.0,0.002141639428921374
3949.0,0.0021210558608639116
3948.0,0.0021044864570155274
3947.0,0.0021041179370680932
3946.0,0.002119407907336467
3945.0,0.002139387415843137
3944.0,0.0021545485831156127
3943.0,0.0021628485906077357
3942.0,0.0021669913741419054
3941.0,0.002166460767906163
3940.0,0.0021578405212891397
3939.0,0.002144466431242834
3938.0,0.0021373604088668363
3937.0,0.002143622570175779
3936.0,0.0021590998703847272
3935.0,0.0021732152361233934
3934.0,0.0021796284939895536
3933.0,0.0021791182913032396
3932.0,0.002174141908107794
3931.0,0.0021668925515221783
3930.0,0.0021609725317424024
3929.0,0.002160236698764635
3928.0,0.0021636974180809167
3927.0,0.0021649008683295723
3926.0,0.0021621661105874195
3925.0,0.0021649106392886584
3924.0,0.0021806120315087103
3923.0,0.002200215201070387
3922.0,0.0022085522471436874
3921.0,0.002202560444524669
3920.0,0.002188863696971592
3919.0,0.002170087740446803
3918.0,0.0021462109285830945
3917.0,0.002125491996705712
3916.0,0.0021210697680880265
3915.0,0.0021360062964098773
3914.0,0.0021612686467285575
3913.0,0.002188451465722123
3912.0,0.0022165377860785362
3911.0,0.0022463198916741543
3910.0,0.0022786129868820216
3909.0,0.002310404516685338
3908.0,0.0023333652367971513
3907.0,0.002333601422787067
3906.0,0.0023028193443604492
3905.0,0.002250383140409487
3904.0,0.0022036415161244593
3903.0,0.002183135970027496
3902.0,0.0021799580167643036
3901.0,0.0021741297509911286
3900.0,0.0021632560844967287
3899.0,0.002159338064929186
3898.0,0.002165929565926011
3897.0,0.002174626198598507
3896.0,0.00218424676927212
3895.0,0.0022023811699991474
3894.0,0.0022252488404186617
3893.0,0.0022341916102417165
3892.0,0.002225270280767998
3891.0,0.002227362796236395
3890.0,0.0022635379752773705
3889.0,0.0023045087512869383
3888.0,0.0023087977317788003
3887.0,0.002275187892918548
3886.0,0.0022471979737081443
3885.0,0.002270693901188114
3884.0,0.0023277321415479993
3883.0,0.002348301199608557
3882.0,0.0022986767060047385
3881.0,0.002211466067521002
3880.0,0.002151690609464179
3879.0,0.002155695013670463
3878.0,0.0021948445929742947
3877.0,0.0022215813985221916
3876.0,0.002222682386916229
3875.0,0.0022176184478389996
3874.0,0.002236033277977306
3873.0,0.0022750744542275204
3872.0,0.002289110899817622
3871.0,0.0022525708754185434
3870.0,0.002209516904968847
3869.0,0.002224031200071274
3868.0,0.0022812734054765806
3867.0,0.0023124538170139685
3866.0,0.002302114505611137
3865.0,0.0022817445389602562
3864.0,0.002270990253107406
3863.0,0.0022643714383243263
3862.0,0.002253052650723352
3861.0,0.0022494525516340196
3860.0,0.0022751261160643245
3859.0,0.0023320915587053976
3858.0,0.0024063096817155505
3857.0,0.002472001339295674
3856.0,0.002498303714363123
3855.0,0.0024553805291609634
3854.0,0.002363130874458859
3853.0,0.0023233035152596736
3852.0,0.0023646052184116387
3851.0,0.0023821857118125245
3850.0,0.002338541704231911
3849.0,0.002296870792153948
3848.0,0.0022969891921047363
3847.0,0.002329453473907658
3846.0,0.002373163020828997
3845.0,0.002416343562911849
3844.0,0.002455436365219652
3843.0,0.002490524332096048
3842.0,0.002517322636486394
3841.0,0.0025233063578047124
3840.0,0.002505929078468086
3839.0,0.0024800462517008083
3838.0,0.002466267361952239
3837.0,0.002468188157015451
3836.0,0.0024712786145843365
3835.0,0.0024602570817853216
3834.0,0.0024380488906488107
3833.0,0.0024192683449132083
3832.0,0.0024175458420193294
3831.0,0.0024366603407493586
3830.0,0.002462271436273773
3829.0,0.0024712229664911327
3828.0,0.0024571145426886547
3827.0,0.002443719902509492
3826.0,0.0024661476092777495
3825.0,0.0025248947949061103
3824.0,0.002576651737615382
3823.0,0.0025759698643579272
3822.0,0.002525687506069393
3821.0,0.0024956183313794805
3820.0,0.002541687752480943
3819.0,0.002604122295179998
3818.0,0.0026068924204626885
3817.0,0.0025640146425939185
3816.0,0.0025374454188847317
3815.0,0.002561984315616403
3814.0,0.002590659224573092
3813.0,0.0025701838931848162
3812.0,0.0025309556985893588
3811.0,0.0025280789405075946
3810.0,0.0025604324348960906
3809.0,0.0025866769620723246
3808.0,0.0025828405194035027
3807.0,0.0025771696091537615
3806.0,0.0026068003091313133
3805.0,0.00264267331310137
3804.0,0.0026276016276841232
3803.0,0.002562391498593297
3802.0,0.002508745558262498
3801.0,0.0025397659045795313
3800.0,0.002637316491950925
3799.0,0.0026921325880261476
3798.0,0.0026645560014764663
3797.0,0.002612210056647933
3796.0,0.0025940179216651415
3795.0,0.002615927695050108
3794.0,0.0026425730805346315
3793.0,0.002652741936104036
3792.0,0.0026592045670845734
3791.0,0.0026800340247022563
3790.0,0.002715623315301858
3789.0,0.0027552976547828116
3788.0,0.0027870174950846427
3787.0,0.002801910765629308
3786.0,0.002799231912950574
3785.0,0.00279240615496648
3784.0,0.0027983515462239243
3783.0,0.002818583394968947
3782.0,0.002837598525751056
3781.0,0.002842904988012991
3780.0,0.0028384824791961023
3779.0,0.0028400183786962876
3778.0,0.002854204887930073
3777.0,0.002866182554193524
3776.0,0.0028662879277059684
3775.0,0.0028694049079906066
3774.0,0.0028942114190626204
3773.0,0.002935523117678862
3772.0,0.0029698891004019214
3771.0,0.0029832828754285745
3770.0,0.002988888172537444
3769.0,0.003003818250191637
3768.0,0.0030155653065484884
3767.0,0.0030018250713638576
3766.0,0.0029732242728785054
3765.0,0.0029662548453208933
3764.0,0.0029973545101132423
3763.0,0.0030420906166544644
3762.0,0.0030722329736270295
3761.0,0.003088412263904805
3760.0,0.0031027824011353156
3759.0,0.003118146089004986
3758.0,0.0031338417420877325
3757.0,0.0031564315636794507
3756.0,0.003192205728832154
3755.0,0.003233454158804565
3754.0,0.0032672799363663873
3753.0,0.0032833021111469437
3752.0,0.003273899222205381
3751.0,0.0032520494092344488
3750.0,0.0032578949739669877
3749.0,0.003312068302641085
3748.0,0.003377708910840484
3747.0,0.003394214874220561
3746.0,0.0033350199100875733
3745.0,0.003235235379447369
3744.0,0.003194880018328429
3743.0,0.0032458902361072618
3742.0,0.0032854896422495512
3741.0,0.0032771691823669513
3740.0,0.003288438248503457
3739.0,0.0033430865417128745
3738.0,0.003398046205111361
3737.0,0.0034040555715877416
3736.0,0.003357260234497452
3735.0,0.0032920580632274732
3734.0,0.0032336902562774385
3733.0,0.003193690754917749
3732.0,0.0031965258616316887
3731.0,0.003255217355092179
3730.0,0.0033374554773748216
3729.0,0.0033976939246747107
3728.0,0.003422965883030871
3727.0,0.0034302225113426923
3726.0,0.0034397020386340176
3725.0,0.0034536694074709775
3724.0,0.003461698913313509
3723.0,0.0034680929292469458
3722.0,0.0034859695301009868
3721.0,0.0035151039194551005
3720.0,0.0035436760796855988
3719.0,0.0035684692622545903
3718.0,0.003604672374893181
3717.0,0.0036660464827804142
3716.0,0.003743931341820796
3715.0,0.00381587453360696
3714.0,0.0038699365620660535
3713.0,0.003905941443364017
3712.0,0.003924273432826453
3711.0,0.003929762267692881
3710.0,0.00393149428963426
3709.0,0.003937645951592991
3708.0,0.003959241445842481
3707.0,0.0040035159018473425
3706.0,0.0040636586026675196
3705.0,0.004120840426166198
3704.0,0.004160404466674084
3703.0,0.0041852437387482466
3702.0,0.004217007742262733
3701.0,0.0042765949936521995
3700.0,0.00435736980204178
3699.0,0.004432378631887053
3698.0,0.004490005754346817
3697.0,0.004544968546959865
3696.0,0.00461388258667616
3695.0,0.004693817165749706
3694.0,0.004773340414758035
3693.0,0.004851904969487709
3692.0,0.004932629196173418
3691.0,0.005007289103124142
3690.0,0.005065373708639202
3689.0,0.00511838616171351
3688.0,0.005191997965831169
3687.0,0.005282730799432679
3686.0,0.005360836801296267
3685.0,0.005422075978128675
3684.0,0.0054938322604725694
3683.0,0.00559386723704708
3682.0,0.005714838440773067
3681.0,0.005842447044573716
3680.0,0.005977343260297105
3679.0,0.006123892164417539
3678.0,0.006268379903144511
3677.0,0.006391118604776394
3676.0,0.006498041208169507
3675.0,0.006632901619855457
3674.0,0.006798048358408609
3673.0,0.006929147802719009
3672.0,0.007013476630743965
3671.0,0.007096576456095864
3670.0,0.007213987936796458
3669.0,0.0073706256667209384
3668.0,0.007525540080475648
3667.0,0.007648437739392954
3666.0,0.007766116392755446
3665.0,0.007911225485403926
3664.0,0.008084624540108349
3663.0,0.008269040406687264
3662.0,0.008452247461158365
3661.0,0.00863308097157146
3660.0,0.008812480631160148
3659.0,0.008988395064389358
3658.0,0.009163174030541243
3657.0,0.009347588089717003
3656.0,0.009549346844044742
3655.0,0.009757602588392665
3654.0,0.009946095819213198
3653.0,0.01011219891887387
3652.0,0.01028498954699238
3651.0,0.010486829260545448
3650.0,0.010716618390651156
3649.0,0.010956991353435246
3648.0,0.011182794101371461
3647.0,0.011384625957283815
3646.0,0.011577793963128377
3645.0,0.011779748529791781
3644.0,0.011998408196605083
3643.0,0.012235087482958812
3642.0,0.012486124422858198
3641.0,0.012741441351924338
3640.0,0.012988970103158373
3639.0,0.01322496951115158
3638.0,0.013455800537885448
3637.0,0.013683390934222944
3636.0,0.013902464534829538
3635.0,0.014116308655557625
3634.0,0.014339844708129388
3633.0,0.014577368153514379
3632.0,0.014814244337264942
3631.0,0.015046695931046643
3630.0,0.015296072764731395
3629.0,0.015577973747181069
3628.0,0.015867601141150173
3627.0,0.016109926918364558
3626.0,0.016291361816351026
3625.0,0.016468459602858858
3624.0,0.016689124412404065
3623.0,0.01694816509323229
3622.0,0.01721945783864914
3621.0,0.017489519241604447
3620.0,0.01775863136232508
3619.0,0.01802581075907615
3618.0,0.018284642589706912
3617.0,0.01852742479875039
3616.0,0.01875659487889756
3615.0,0.01899057241673198
3614.0,0.01924801100472362
3613.0,0.019526227915633843
3612.0,0.019799576622386943
3611.0,0.02004898336648596
3610.0,0.02028619324793028
3609.0,0.020536542194291216
3608.0,0.020802593523259312
3607.0,0.021062306188606217
3606.0,0.021300849993701177
3605.0,0.02152744304550045
3604.0,0.02176213989457126
3603.0,0.022017362928521217
3602.0,0.022294136340191097
3601.0,0.02258206114529428
3600.0,0.022860372882019985
3599.0,0.02311120066421768
3598.0,0.02333807120577456
3597.0,0.023561412806114193
3596.0,0.023792050477214374
3595.0,0.02402526413343707
3594.0,0.024256374334863037
3593.0,0.024488735691706353
3592.0,0.024723140495935696
3591.0,0.024957041625405765
3590.0,0.025193115094055578
3589.0,0.025444684913096743
3588.0,0.025723848007127365
3587.0,0.026022621443631263
3586.0,0.02631313970596024
3585.0,0.02657481392889826
3584.0,0.026814837639968857
3583.0,0.027056623900801963
3582.0,0.027316250216447343
3581.0,0.027590315735855225
3580.0,0.02786350756633276
3579.0,0.028127418023783327
3578.0,0.028388852791087053
3577.0,0.028656890860562525
3576.0,0.028926776402883072
3575.0,0.029185681177344044
3574.0,0.02942851039549956
3573.0,0.029661052510072658
3572.0,0.02989052445117061
3571.0,0.03012267189204711
3570.0,0.030365062740848367
3569.0,0.030625622291496325
3568.0,0.0309038344499262
3567.0,0.0311877692733655
3566.0,0.031464784487817775
3565.0,0.03173019062089522
3564.0,0.03198913945897488
3563.0,0.03225468582944528
3562.0,0.032537364575050416
3561.0,0.03283379411817583
3560.0,0.03312732516559224
3559.0,0.033405428465407776
3558.0,0.03367399652740749
3557.0,0.033948551725861566
3556.0,0.034235047524202686
3555.0,0.03452547255949075
3554.0,0.034809766449589545
3553.0,0.03508570189744592
3552.0,0.035358096816839234
3551.0,0.03563298183129391
3550.0,0.03591357498929583
3549.0,0.036198551589363026
3548.0,0.036483179987163425
3547.0,0.03676445106140087
3546.0,0.03704542272086891
3545.0,0.03732940237846221
3544.0,0.03761359428196796
3543.0,0.03789491561181269
3542.0,0.0381765397289193
3541.0,0.03846126594781075
3540.0,0.03874440109867514
3539.0,0.03902051169890961
3538.0,0.039293954868163276
3537.0,0.039574358401973625
3536.0,0.03986348873737025
3535.0,0.04015482961250547
3534.0,0.04044528383064031
3533.0,0.04073892517104315
3532.0,0.04103901331985959
3531.0,0.041342015077830425
3530.0,0.04163951226733781
3529.0,0.041924408955395155
3528.0,0.04219747014194621
3527.0,0.042470082413070355
3526.0,0.04275519835087605
3525.0,0.04305247782513088
3524.0,0.04334656551563461
3523.0,0.04362452154011377
3522.0,0.04388962917578778
3521.0,0.044153706530957196
3520.0,0.044425001172514855
3519.0,0.044708736978900564
3518.0,0.04500929311988527
3517.0,0.04532300589984101
3516.0,0.04563643009119033
3515.0,0.04594090102944154
3514.0,0.04624177654414696
3513.0,0.04654579143088097
3512.0,0.0468470379393012
3511.0,0.0471352284720779
3510.0,0.04741109578272511
3509.0,0.047684003521971455
3508.0,0.04795907784377384
3507.0,0.04823740529448561
3506.0,0.048524812753686204
3505.0,0.048829696420052825
3504.0,0.04915192968635347
3503.0,0.04948107906771615
3502.0,0.049804180882063766
3501.0,0.05011090624668098
3500.0,0.050396849977520905
3499.0,0.050670089403335124
3498.0,0.05094966563362056
3497.0,0.0512480403550577
3496.0,0.05155835618014797
3495.0,0.051866656744012765
3494.0,0.05217047508750153
3493.0,0.05247578037383982
3492.0,0.05278294683882472
3491.0,0.053087887260272415
3490.0,0.05339223614757481
3489.0,0.05369954784257223
3488.0,0.05400349027242534
3487.0,0.05429151170106285
3486.0,0.054561338304718904
3485.0,0.054826849331022554
3484.0,0.055108388698001186
3483.0,0.05542057568960225
3482.0,0.055762883201441835
3481.0,0.056115780890380135
3480.0,0.056452448442212935
3479.0,0.05676309626731317
3478.0,0.057063584702801526
3477.0,0.05737467030230613
3476.0,0.057698312851868466
3475.0,0.05802018885227134
3474.0,0.05832946656519436
3473.0,0.058627938817794434
3472.0,0.05892430307456555
3471.0,0.059227809284604235
3470.0,0.05954325546400374
3469.0,0.059863539017117405
3468.0,0.06017181371252275
3467.0,0.060459300791533874
3466.0,0.06073644689961328
3465.0,0.06101996133335871
3464.0,0.061315343375449145
3463.0,0.06161870110343737
3462.0,0.061928213294075524
3461.0,0.06224409155763321
3460.0,0.06256173192668736
3459.0,0.06287473420370866
3458.0,0.06318204945542974
3457.0,0.0634851890277016
3456.0,0.0637830992784939
3455.0,0.06407620303209492
3454.0,0.06437006218585493
3453.0,0.06466819623086949
3452.0,0.0649661076500238
3451.0,0.06525957581824465
3450.0,0.06555436948831468
3449.0,0.0658600352727723
3448.0,0.06617599716003973
3447.0,0.06649065602850375
3446.0,0.06679327041943876
3445.0,0.06708271962593867
3444.0,0.06736781210685754
3443.0,0.06766294714187805
3442.0,0.06797791914076946
3441.0,0.0683073740876035
3440.0,0.06863589712414349
3439.0,0.0689558133879696
3438.0,0.06927164491345662
3437.0,0.06958493335278616
3436.0,0.0698870839196439
3435.0,0.07017408474939069
3434.0,0.0704578291484939
3433.0,0.07075370613550783
3432.0,0.07106372041753498
3431.0,0.07137936559715835
3430.0,0.07169347432734881
3429.0,0.07200081536668713
3428.0,0.07229410855003918
3427.0,0.07257011555304803
3426.0,0.07283587564353444
3425.0,0.07310167553295858
3424.0,0.07337236383839978
3423.0,0.07365051817124756
3422.0,0.07393990888828776
3421.0,0.07423754772631647
3420.0,0.07453028864223941
3419.0,0.07480942860148589
3418.0,0.07508254297319877
3417.0,0.07536254902669376
3416.0,0.0756514327230338
3415.0,0.07594244177134371
3414.0,0.0762311662029895
3413.0,0.07651478288737934
3412.0,0.0767864946071074
3411.0,0.07704168504995734
3410.0,0.0772865265732615
3409.0,0.07753228815699556
3408.0,0.07778398772640731
3407.0,0.07804062562933275
3406.0,0.078301088609145
3405.0,0.07856180308216977
3404.0,0.07881366537827965
3403.0,0.07905039355948162
3402.0,0.07927754334911175
3401.0,0.07950682038600419
3400.0,0.07974441135070387
3399.0,0.07998894780994398
3398.0,0.08023455392300399
3397.0,0.08047086922887782
3396.0,0.08068811627231202
3395.0,0.08088961926421454
3394.0,0.08109314373308664
3393.0,0.08131294726493271
3392.0,0.08154497154445015
3391.0,0.08177383071939714
3390.0,0.08198686780034946
3389.0,0.08217741144493015
3388.0,0.08234566561707402
3387.0,0.08250487469541418
3386.0,0.08267719044382751
3385.0,0.0828721523908932
3384.0,0.08307463744340751
3383.0,0.08326277040450167
3382.0,0.08343161861466764
3381.0,0.08359250504661421
3380.0,0.08375689856590646
3379.0,0.08392874024433016
3378.0,0.08410604267541041
3377.0,0.08428176796280436
3376.0,0.08444771580397238
3375.0,0.08460385400257514
3374.0,0.08475899987342563
3373.0,0.08491875676522022
3372.0,0.08507991051842567
3371.0,0.08523953311851887
3370.0,0.08539920796746413
3369.0,0.08555469533731493
3368.0,0.08569274763933138
3367.0,0.08580725186851343
3366.0,0.08590940772527626
3365.0,0.08601318634814384
3364.0,0.08611973617269483
3363.0,0.08622431715978762
3362.0,0.0863290427720686
3361.0,0.08643897097307476
3360.0,0.08655314066697282
3359.0,0.08666885531793907
3358.0,0.08678783196306253
3357.0,0.08690862179765027
3356.0,0.08701974510144564
3355.0,0.08711086476510467
3354.0,0.08718618863907526
3353.0,0.08725887644044235
3352.0,0.08733684421408236
3351.0,0.08741969031151738
3350.0,0.08750283531468361
3349.0,0.08757782551395134
3348.0,0.08763568987201337
3347.0,0.08767789642287695
3346.0,0.08771830731287161
3345.0,0.08776775715622992
3344.0,0.0878229367510722
3343.0,0.08787544602775325
3342.0,0.08792232403388567
3341.0,0.08796089006717119
3340.0,0.08798383672617019
3339.0,0.08799002648919377
3338.0,0.08799244339035261
3337.0,0.08800409181769353
3336.0,0.08802135004490101
3335.0,0.08803149359719568
3334.0,0.08803114828507881
3333.0,0.0880266280989344
3332.0,0.08802134910368643
3331.0,0.08801432654176335
3330.0,0.0880075668309794
3329.0,0.08800400888187263
3328.0,0.08799895106267282
3327.0,0.08798193664359635
3326.0,0.08794793406454478
3325.0,0.08790179059756534
3324.0,0.0878524907699928
3323.0,0.08780656163226012
3322.0,0.0877641139779321
3321.0,0.08771768546419105
3320.0,0.08765907043539509
3319.0,0.0875909389682667
3318.0,0.08752658105120771
3317.0,0.0874744411972267
3316.0,0.08742914108345189
3315.0,0.0873819614487147
3314.0,0.08733268519994558
3313.0,0.08728516056899137
3312.0,0.08723829736148553
3311.0,0.08718912994763675
3310.0,0.08713913576349759
3309.0,0.08708930062692004
3308.0,0.08703367971559314
3307.0,0.08696709659432485
3306.0,0.08689695596904685
3305.0,0.08683901065987394
3304.0,0.08680100304241696
3303.0,0.08677477381164146
3302.0,0.08674347951550912
3301.0,0.0866942410258135
3300.0,0.08662783200443903
3299.0,0.08656031523342113
3298.0,0.0865113720943316
3297.0,0.08648582341772694
3296.0,0.08646856376716901
3295.0,0.08644046326910293
3294.0,0.08639578175149082
3293.0,0.0863416062883128
3292.0,0.08628554931474228
3291.0,0.08622885163048287
3290.0,0.08616854756721705
3289.0,0.08610270141687322
3288.0,0.08603510380427108
3287.0,0.08597505894926985
3286.0,0.08592736736912672
3285.0,0.08588092591164091
3284.0,0.0858140849977996
3283.0,0.08571631454161406
3282.0,0.08560071140764006
3281.0,0.08549166010401905
3280.0,0.08540422832145277
3279.0,0.08533713088038918
3278.0,0.08527832120055717
3277.0,0.08521275823963892
3276.0,0.08513091501835446
3275.0,0.08503611360486062
3274.0,0.08494103728281666
3273.0,0.08485384658309965
3272.0,0.0847710904082537
3271.0,0.08468543391054564
3270.0,0.0845940196273438
3269.0,0.0844964427547832
3268.0,0.08439100847515345
3267.0,0.0842774145767862
3266.0,0.0841583607471487
3265.0,0.08403486066006338
3264.0,0.08390478687969177
3263.0,0.08376945707337956
3262.0,0.08363584428041339
3261.0,0.08350740906897522
3260.0,0.08337764379631016
3259.0,0.08323785535606733
3258.0,0.08308800069634881
3257.0,0.08293611073688663
3256.0,0.08279023097108532
3255.0,0.08265362092934586
3254.0,0.08252419438684172
3253.0,0.08239534626145995
3252.0,0.08225971693638663
3251.0,0.08211407762449058
3250.0,0.08195856770734027
3249.0,0.08179250965348436
3248.0,0.08161697271832045
3247.0,0.08144164087061535
3246.0,0.0812810022522994
3245.0,0.08113922724656052
3244.0,0.08100355310164854
3243.0,0.08085627148672087
3242.0,0.08068948777672164
3241.0,0.08050738175208663
3240.0,0.08032104756736358
3239.0,0.0801434566895869
3238.0,0.07998205921722482
3237.0,0.07983149092463286
3236.0,0.07967750568553564
3235.0,0.07951061750341352
3234.0,0.0793319240779553
3233.0,0.07914538879114408
3232.0,0.07895219530528468
3231.0,0.07875573135018707
3230.0,0.07856422826019997
3229.0,0.07838270211881398
3228.0,0.07820714615720242
3227.0,0.07803076057268318
3226.0,0.07785096871343085
3225.0,0.07766659025216746
3224.0,0.07747355733294847
3223.0,0.07726866579208802
3222.0,0.07705377066653532
3221.0,0.07683197718894279
3220.0,0.07660366974718978
3219.0,0.07637066169142336
3218.0,0.0761401225906703
3217.0,0.0759190464440239
3216.0,0.07570681876418059
3215.0,0.07549676693130924
3214.0,0.07528342283515953
3213.0,0.07506569987501198
3212.0,0.07484452754292782
3211.0,0.07461966826070222
3210.0,0.07438824134386113
3209.0,0.07414638021045228
3208.0,0.07389431385973688
3207.0,0.07363852993285609
3206.0,0.07338449618793887
3205.0,0.07312765633029279
3204.0,0.07285768163812266
3203.0,0.0725735633433636
3202.0,0.07228901101850248
3201.0,0.0720200063685837
3200.0,0.07177101399380513
3199.0,0.07153447281516252
3198.0,0.07129762708048676
3197.0,0.07104662068449705
3196.0,0.0707700512077387
3195.0,0.07046564158187259
3194.0,0.07014377349324918
3193.0,0.06982216252855307
3192.0,0.06951622984661347
3191.0,0.06923171591327165
3190.0,0.06896127142762755
3189.0,0.06868752306825876
3188.0,0.06839503972170079
3187.0,0.06808299640872012
3186.0,0.06776391217117494
3185.0,0.06744923693433025
3184.0,0.06714038900812183
3183.0,0.06683432946307233
3182.0,0.0665307689214185
3181.0,0.06622949209738255
3180.0,0.06592572167264216
3179.0,0.0656143059849225
3178.0,0.0652972719955377
3177.0,0.06498308157962936
3176.0,0.0646780867378272
3175.0,0.06437992952180102
3174.0,0.06407817890742581
3173.0,0.06376090957774114
3172.0,0.06342379717653227
3171.0,0.06307514539520755
3170.0,0.0627302213022038
3169.0,0.06239870620223728
3168.0,0.06207834391123542
3167.0,0.061760330798317574
3166.0,0.06143785413020388
3165.0,0.06110950011592272
3164.0,0.06077876536254657
3163.0,0.06045193640396041
3162.0,0.06013319193071936
3161.0,0.05981987283623578
3160.0,0.05950473748273374
3159.0,0.05918388594729553
3158.0,0.058860032138732955
3157.0,0.05853770354371469
3156.0,0.05821896662464896
3155.0,0.057904845567721366
3154.0,0.05759657058707339
3153.0,0.057292918267948356
3152.0,0.056989163230949685
3151.0,0.05668099737860486
3150.0,0.056368040373789174
3149.0,0.05605257965764321
3148.0,0.05573710162329204
3147.0,0.05542351131130394
3146.0,0.05511161033980037
3145.0,0.054798202454772425
3144.0,0.054481957017255465
3143.0,0.05416933702612327
3142.0,0.05386993109700703
3141.0,0.053583658585671
3140.0,0.05329769646138794
3139.0,0.053000031952859794
3138.0,0.05269212465194958
3137.0,0.052383900441887996
3136.0,0.05208059855064402
3135.0,0.05177953797310942
3134.0,0.05147646072173848
3133.0,0.05116991182881539
3132.0,0.050860649247274535
3131.0,0.05055113854130821
3130.0,0.05024552603106553
3129.0,0.049946925380784504
3128.0,0.04965503830018174
3127.0,0.04936839296407818
3126.0,0.04908697144728831
3125.0,0.0488102464805738
3124.0,0.048534801874915
3123.0,0.04825741455235931
3122.0,0.04797977150322749
3121.0,0.047706326626040706
3120.0,0.047437710810209595
3119.0,0.04717006431462785
3118.0,0.04690097213653294
3117.0,0.046632814021816314
3116.0,0.04636932796454917
3115.0,0.04611082270462341
3114.0,0.04585394117475701
3113.0,0.04559533200593374
3112.0,0.0453349823501186
3111.0,0.045076072350320066
3110.0,0.04482134979338763
3109.0,0.044570003409153076
3108.0,0.04431939984388417
3107.0,0.04406960173845064
3106.0,0.043823292148433085
3105.0,0.04358042416534952
3104.0,0.043336485363175456
3103.0,0.0430882891824036
3102.0,0.04283868779937167
3101.0,0.04259224849450469
3100.0,0.04234819627196005
3099.0,0.04210291856032949
3098.0,0.04185860369297719
3097.0,0.04162311336736395
3096.0,0.04139972857900448
3095.0,0.0411807325381074
3094.0,0.0409544975527369
3093.0,0.04071740730988392
3092.0,0.040476047574464755
3091.0,0.04023921514832815
3090.0,0.04001012120988358
3089.0,0.03978577191053905
3088.0,0.03956135772124352
3087.0,0.03933380884221757
3086.0,0.03910235656097006
3085.0,0.03886838204474049
3084.0,0.03863607812373435
3083.0,0.03841175447486871
3082.0,0.038199673857306
3081.0,0.037997229509964064
3080.0,0.03779557561147715
3079.0,0.03758647043417521
3078.0,0.037368431030570054
3077.0,0.0371462857552689
3076.0,0.036925885456708295
3075.0,0.03670960085906511
3074.0,0.03649523143291245
3073.0,0.03627791934757776
3072.0,0.03605360433844193
3071.0,0.03582175367388804
3070.0,0.03558553821179919
3069.0,0.03534987773246417
3068.0,0.03511941976068215
3067.0,0.0348966466193531
3066.0,0.034680136858877844
3065.0,0.03446581293663328
3064.0,0.03425207782307982
3063.0,0.03404218924250344
3062.0,0.03383805126860135
3061.0,0.033633187574614455
3060.0,0.03341673446366128
3059.0,0.03318609417187196
3058.0,0.03295076002049383
3057.0,0.032720682918392766
3056.0,0.032495455606514054
3055.0,0.032267895828043264
3054.0,0.03203528594198959
3053.0,0.03180246464581008
3052.0,0.031575759465162875
3051.0,0.03135785273419847
3050.0,0.03114686563957967
3049.0,0.030937169897297882
3048.0,0.030722574501977087
3047.0,0.030502248611718446
3046.0,0.030282429193048507
3045.0,0.030069712158162717
3044.0,0.02986347266836604
3043.0,0.0296577878585867
3042.0,0.029448928564932534
3041.0,0.02923736783248628
3040.0,0.02902427555980881
3039.0,0.0288103884065809
3038.0,0.028598532603244395
3037.0,0.028393181464528027
3036.0,0.028196312537278487
3035.0,0.028005796355962818
3034.0,0.027818002276627684
3033.0,0.027629991308829226
3032.0,0.0274398058035518
3031.0,0.027247591936576915
3030.0,0.02705664084464799
3029.0,0.026870934169567522
3028.0,0.026691625596901396
3027.0,0.026517305851775055
3026.0,0.026346728582876934
3025.0,0.026178600636485253
3024.0,0.026008962398836526
3023.0,0.02583226472783661
3022.0,0.025646834657434833
3021.0,0.025458687189173122
3020.0,0.025278616114178545
3019.0,0.02511527181954674
3018.0,0.02496989576759119
3017.0,0.02483646780090966
3016.0,0.024707483096861438
3015.0,0.024579305588522338
3014.0,0.024451418109265127
3013.0,0.024321681873131364
3012.0,0.024186539260553357
3011.0,0.024047275869385955
3010.0,0.02391204708979478
3009.0,0.02378891198846207
3008.0,0.023678927640678936
3007.0,0.023578044457808586
3006.0,0.02348239281411096
3005.0,0.023388944121413607
3004.0,0.023294142233941235
3003.0,0.023195955013752958
3002.0,0.023095881203158763
3001.0,0.022995808723053533
3000.0,0.022894840567472027
2999.0,0.022792421206703727
2998.0,0.022692265955046916
2997.0,0.022598974976154245
2996.0,0.022511701397299813
2995.0,0.022424604340779145
2994.0,0.02233212091652812
2993.0,0.02223100291336779
2992.0,0.02211924060093105
2991.0,0.021997227640985655
2990.0,0.02186928130077421
2989.0,0.021740854741115943
2988.0,0.021615549222374505
2987.0,0.021497145681547012
2986.0,0.021390931468336427
2985.0,0.021298129899197975
2984.0,0.021211677381566492
2983.0,0.02112320347319203
2982.0,0.021033410962768968
2981.0,0.0209506156133429
2980.0,0.02088070860411697
2979.0,0.020823911389061558
2978.0,0.020779640871319886
2977.0,0.02074786643843395
2976.0,0.02072554690656184
2975.0,0.02070808271965164
2974.0,0.020694889411158993
2973.0,0.02068747964777366
2972.0,0.020681557576847233
2971.0,0.020667542165884553
2970.0,0.020640902476477267
2969.0,0.02060629481219256
2968.0,0.02056985174061779
2967.0,0.02053282192252485
2966.0,0.020494740006481008
2965.0,0.02045613482248675
2964.0,0.020414829951184616
2963.0,0.020365443270556175
2962.0,0.020306656046349587
2961.0,0.02024459835274176
2960.0,0.020184527024453378
2959.0,0.020123908482849662
2958.0,0.020057947815878843
2957.0,0.019987934196452745
2956.0,0.01991832272009905
2955.0,0.019848937892997687
2954.0,0.019776813177913473
2953.0,0.01970498295084482
2952.0,0.01964320972309511
2951.0,0.019597937128524777
2950.0,0.019565253265494277
2949.0,0.01953524684554728
2948.0,0.019501745574982472
2947.0,0.019466523741040076
2946.0,0.019435979494184616
2945.0,0.019415171546578285
2944.0,0.019404609885911018
2943.0,0.01940090535308813
2942.0,0.01939903342706543
2941.0,0.01939462603228452
2940.0,0.01938676008949744
2939.0,0.01938032885673017
2938.0,0.019383743494290125
2937.0,0.019401121134877464
2936.0,0.01942698951334793
2935.0,0.019451545909351824
2934.0,0.0194704481805838
2933.0,0.019486518012829905
2932.0,0.019501301823998805
2931.0,0.019508941698117566
2930.0,0.019500482285011368
2929.0,0.019472516245034634
2928.0,0.01942973309409073
2927.0,0.019379431368948433
2926.0,0.019324102777537926
2925.0,0.01925886390723219
2924.0,0.019175550330090933
2923.0,0.019068965030986575
2922.0,0.01893708740057346
2921.0,0.018775480597491623
2920.0,0.018575865644012642
2919.0,0.0183341783071923
2918.0,0.018058684543051748
2917.0,0.017765303113584846
2916.0,0.017466348923993697
2915.0,0.01716738147090961
2914.0,0.016873964819286782
2913.0,0.016595035831062456
2912.0,0.01633696458384187
2911.0,0.016098394352894996
2910.0,0.01587395905171473
2909.0,0.015661755855197346
2908.0,0.015464319894656034
2907.0,0.015283459149142635
2906.0,0.015116277804676356
2905.0,0.01495708203764482
2904.0,0.014802672162022348
2903.0,0.014654346341360841
2902.0,0.014514031610663983
2901.0,0.014379110430554952
2900.0,0.014243403773190522
2899.0,0.01410426654958051
2898.0,0.013966478619305354
2897.0,0.01383725598710036
2896.0,0.01371880222644324
2895.0,0.013607107585734524
2894.0,0.013496124833671061
2893.0,0.013381466619909113
2892.0,0.013261914829329384
2891.0,0.013140594327308144
2890.0,0.01302382575798177
2889.0,0.012916317446813985
2888.0,0.012817466970208637
2887.0,0.01272397288826075
2886.0,0.012634945299329448
2885.0,0.01255278105962157
2884.0,0.012479919136885743
2883.0,0.012416243851822243
2882.0,0.012358802690995613
2881.0,0.012302948566839984
2880.0,0.012245885512811323
2879.0,0.012189987139764779
2878.0,0.012140393462671711
2877.0,0.012097742628396094
2876.0,0.012056346378801085
2875.0,0.012011399337820389
2874.0,0.011963321462100085
2873.0,0.011911757687688831
2872.0,0.01185019070939706
2871.0,0.011772743900241845
2870.0,0.01168441601472792
2869.0,0.011598011541705564
2868.0,0.011521582394901983
2867.0,0.011454869927711827
2866.0,0.011397474265989627
2865.0,0.01135503707172535
2864.0,0.011335276896851536
2863.0,0.011341333082289424
2862.0,0.01137001981125778
2861.0,0.011413249733362616
2860.0,0.011462094655498157
2859.0,0.011512539970620479
2858.0,0.011566908879602768
2857.0,0.011625938479304996
2856.0,0.011680041164026995
2855.0,0.011712019122496645
2854.0,0.011706567531185296
2853.0,0.01165396121037751
2852.0,0.011546894732670301
2851.0,0.011380824988971245
2850.0,0.011159465787307093
2849.0,0.010896494942866873
2848.0,0.01061075324687518
2847.0,0.010321902919272213
2846.0,0.010047537591541152
2845.0,0.009798474103772919
2844.0,0.009575320620540643
2843.0,0.009372849155816376
2842.0,0.009188304332452588
2841.0,0.009022765683833185
2840.0,0.00887607096612732
2839.0,0.00874488229911079
2838.0,0.00862561551309222
2837.0,0.008515567173593364
2836.0,0.008411211495833326
2835.0,0.00830941194398294
2834.0,0.008210674301353678
2833.0,0.008118098251241317
2832.0,0.008033370748015306
2831.0,0.00795671441823964
2830.0,0.007889140634006496
2829.0,0.007830039610601304
2828.0,0.007773443046895362
2827.0,0.007711707628173196
2826.0,0.007643487347685721
2825.0,0.007573470868650277
2824.0,0.007504465864254763
2823.0,0.007435470424086876
2822.0,0.00736783326233833
2821.0,0.007306922288084034
2820.0,0.007254661426633687
2819.0,0.007204995964100472
2818.0,0.0071502678781533765
2817.0,0.007089580068743174
2816.0,0.007028323774054119
2815.0,0.006971540583831284
2814.0,0.006920097291920588
2813.0,0.00687161359168455
2812.0,0.006823198770825496
2811.0,0.006774145833907594
2810.0,0.006726236692140083
2809.0,0.006680307955634794
2808.0,0.006633375314705548
2807.0,0.006581696758941418
2806.0,0.006526286749099959
2805.0,0.006472448239829212
2804.0,0.00642375628010885
2803.0,0.006379001256066852
2802.0,0.006335315210322692
2801.0,0.00629159838366567
2800.0,0.006248148365005218
2799.0,0.0062056479068331675
2798.0,0.006165447574268831
2797.0,0.0061288395805263775
2796.0,0.006095471327136879
2795.0,0.006063586718658208
2794.0,0.006031401035688371
2793.0,0.005997002669612144
2792.0,0.0059581101066150405
2791.0,0.005914181727561969
2790.0,0.005867620762331361
2789.0,0.0058206619785266004
2788.0,0.005772969790895746
2787.0,0.00572522633689104
2786.0,0.005682886737651915
2785.0,0.0056513874686401665
2784.0,0.005628005205006552
2783.0,0.005602970388875453
2782.0,0.005569376616781098
2781.0,0.005529159212998134
2780.0,0.0054891647047051175
2779.0,0.005454261110589691
2778.0,0.005424808810123278
2777.0,0.005397551204694186
2776.0,0.005367989139315256
2775.0,0.005334479524940447
2774.0,0.0053006105660649205
2773.0,0.005271905373881992
2772.0,0.005250084478621599
2771.0,0.0052320399524721905
2770.0,0.00521335618255251
2769.0,0.005190752799863877
2768.0,0.005162731176181532
2767.0,0.0051306835158691725
2766.0,0.005098636784911053
2765.0,0.005069465971628127
2764.0,0.005041976069434709
2763.0,0.0050135855569202505
2762.0,0.004984051949821087
2761.0,0.004953942850509762
2760.0,0.004922153931985641
2759.0,0.004889007632019665
2758.0,0.004859579453831829
2757.0,0.004838770112681268
2756.0,0.004823921352934081
2755.0,0.004806930927724223
2754.0,0.004783566792258406
2753.0,0.0047567985871809155
2752.0,0.004731179381821988
2751.0,0.004707811467609306
2750.0,0.004685225563423934
2749.0,0.0046616348941675425
2748.0,0.004635806982003152
2747.0,0.00460817996888206
2746.0,0.004580742695111402
2745.0,0.004553808511640383
2744.0,0.0045246259014182005
2743.0,0.0044923258596705805
2742.0,0.004462044860756882
2741.0,0.004439771523952847
2740.0,0.004424642847431428
2739.0,0.004410627088495599
2738.0,0.004394123447460974
2737.0,0.004375107719417444
2736.0,0.004352408654781515
2735.0,0.004324194132836593
2734.0,0.0042935570871377405
2733.0,0.0042677423492550924
2732.0,0.004250086333976485
2731.0,0.004236882650568533
2730.0,0.00422281012126661
2729.0,0.004205354092052944
2728.0,0.0041835012160205175
2727.0,0.0041570743971857255
2726.0,0.0041290515119181935
2725.0,0.004104727001298968
2724.0,0.004086650403596823
2723.0,0.00407251622703205
2722.0,0.004058399287165271
2721.0,0.004041207833035621
2720.0,0.0040183630529012785
2719.0,0.003988948071020881
2718.0,0.003955910356301295
2717.0,0.003924256516025384
2716.0,0.003896618096457292
2715.0,0.0038729493094702503
2714.0,0.003853608196962905
2713.0,0.003839052631900079
2712.0,0.00382660556891516
2711.0,0.0038116479991940682
2710.0,0.0037929755407135925
2709.0,0.003773932068723236
2708.0,0.003757864305697435
2707.0,0.0037449622453996642
2706.0,0.003733366309882912
2705.0,0.0037205294795952942
2704.0,0.003703859299701966
2703.0,0.0036830181992582806
2702.0,0.0036613211108334305
2701.0,0.0036422216556942257
2700.0,0.003625431972327256
2699.0,0.003609288160035016
2698.0,0.0035950180521982554
2697.0,0.003584686731961856
2696.0,0.0035764728035958867
2695.0,0.0035667929430359107
2694.0,0.0035562199840501445
2693.0,0.0035479737680835536
2692.0,0.0035408185206101507
2691.0,0.003528823603838809
2690.0,0.003509142920770904
2689.0,0.0034856202187268604
2688.0,0.003463776379602275
2687.0,0.0034459754380438967
2686.0,0.0034321165116911177
2685.0,0.0034208947196340865
2684.0,0.0034094160395880505
2683.0,0.0033952069411081545
2682.0,0.003379686291838313
2681.0,0.003366755418454575
2680.0,0.003357329243936955
2679.0,0.003348222395803279
2678.0,0.0033364956701778317
2677.0,0.003321966499132643
2676.0,0.0033055870151277103
2675.0,0.0032885050556132516
2674.0,0.0032727438506830625
2673.0,0.003259707982919828
2672.0,0.0032484723117713523
2671.0,0.0032386163746367398
2670.0,0.0032338394582371354
2669.0,0.003239136614904987
2668.0,0.0032549929861596127
2667.0,0.003278376234478009
2666.0,0.003308427963184743
2665.0,0.0033463601843946676
2664.0,0.003390118886066703
2663.0,0.003434388392928654
2662.0,0.003476761271185104
2661.0,0.0035194582718473142
2660.0,0.0035636826266538836
2659.0,0.0036061016892198726
2658.0,0.003642063713759915
2657.0,0.003668984144542145
2656.0,0.003686130853374614
2655.0,0.0036949276639259582
2654.0,0.003700296088753636
2653.0,0.0037077593159121737
2652.0,0.0037173772573394466
2651.0,0.003723504540437457
2650.0,0.0037217942746485735
2649.0,0.0037142731650715837
2648.0,0.0037071008137371467
2647.0,0.0037055577295645997
2646.0,0.003711115517521209
2645.0,0.0037205217804782012
2644.0,0.003728032542381827
2643.0,0.0037308655540848005
2642.0,0.0037313271150580694
2641.0,0.003731133873136029
2640.0,0.0037263488540116756
2639.0,0.0037129420829446124
2638.0,0.003695108911125243
2637.0,0.003681745454269016
2636.0,0.003675291046060288
2635.0,0.003670043544896742
2634.0,0.0036616011701070816
2633.0,0.003651431267891226
2632.0,0.0036415254006210117
2631.0,0.0036313322674365375
2630.0,0.0036219331549380875
2629.0,0.0036173295969107438
2628.0,0.003618269789110079
2627.0,0.0036190792745583993
2626.0,0.003613057030632817
2625.0,0.003598091588590452
2624.0,0.0035762347331392084
2623.0,0.0035515187645736865
2622.0,0.0035291799562190253
2621.0,0.003512923470148606
2620.0,0.0035012732719898023
2619.0,0.00348965385186122
2618.0,0.003476264345409234
2617.0,0.0034628711203042372
2616.0,0.003450681643566679
2615.0,0.0034394997223345354
2614.0,0.0034301855731577215
2613.0,0.0034231866503345943
2612.0,0.003415399056060936
2611.0,0.003403529027152016
2610.0,0.0033898283100608304
2609.0,0.0033791257283703087
2608.0,0.0033706425428926953
2607.0,0.0033587498981668944
2606.0,0.003341613344440866
2605.0,0.003323098951581295
2604.0,0.003306048149885833
2603.0,0.0032897323996509326
2602.0,0.0032745131350897217
2601.0,0.003263034952442104
2600.0,0.0032558787048327905
2599.0,0.0032513200224819332
2598.0,0.003249415467289423
2597.0,0.0032505944718885884
2596.0,0.0032500501509053013
2595.0,0.0032398778537578656
2594.0,0.0032178780684210713
2593.0,0.0031892153770046046
2592.0,0.0031597161808541254
2591.0,0.003132970109666874
2590.0,0.0031132163374059845
2589.0,0.0031040138303260758
2588.0,0.0031030714316796306
2587.0,0.003104473877713497
2586.0,0.0031062291528550084
2585.0,0.0031094103977372437
2584.0,0.0031102499266872645
2583.0,0.0031009922606161037
2582.0,0.003080508398055959
2581.0,0.0030577889085686536
2580.0,0.0030426884055981085
2579.0,0.00303800190713293
2578.0,0.0030406959998936435
2577.0,0.0030447674298265987
2576.0,0.0030424450619573294
2575.0,0.003029096663828454
2574.0,0.0030090495045814796
2573.0,0.0029922127595023414
2572.0,0.0029838398208666276
2571.0,0.0029811073276284766
2570.0,0.0029786100903589495
2569.0,0.002972098934880226
2568.0,0.0029583471169094063
2567.0,0.0029378301071207287
2566.0,0.002917223694023632
2565.0,0.0029034675445188895
2564.0,0.0028959668539914715
2563.0,0.0028899571545019536
2562.0,0.0028856082173986906
2561.0,0.002887107976303118
2560.0,0.0028940904390957096
2559.0,0.0029008139739583674
2558.0,0.0029029810229471574
2557.0,0.002899295047165131
2556.0,0.0028886323541082253
2555.0,0.0028730318449352588
2554.0,0.0028611501542174116
2553.0,0.002859983407591107
2552.0,0.0028643336867460807
2551.0,0.002862865417951446
2550.0,0.0028530846622023126
2549.0,0.0028415936601442716
2548.0,0.002831101537303272
2547.0,0.0028179188725285698
2546.0,0.0028030805474634412
2545.0,0.0027951626513202355
2544.0,0.0027985431433944895
2543.0,0.0028063778042900786
2542.0,0.0028080066606060794
2541.0,0.0027982047001877544
2540.0,0.002779079998405951
2539.0,0.0027590905460809956
2538.0,0.0027493977797676773
2537.0,0.0027536785096063496
2536.0,0.0027617012794576602
2535.0,0.002760119786519985
2534.0,0.0027486561610179728
2533.0,0.0027380451065218076
2532.0,0.0027341065394379405
2531.0,0.0027338519499390864
2530.0,0.002736185233428037
2529.0,0.0027447773510206044
2528.0,0.0027585381747644907
2527.0,0.002769332360665053
2526.0,0.002772098163530924
2525.0,0.0027691066945865635
2524.0,0.0027626452241189133
2523.0,0.00275246954838762
2522.0,0.002742498075466834
2521.0,0.002740696183926535
2520.0,0.0027487328383128777
2519.0,0.002759029961449476
2518.0,0.0027646417911247473
2517.0,0.0027651080195428145
2516.0,0.002760942671191482
2515.0,0.002750962257260672
2514.0,0.002738499434066274
2513.0,0.0027324476475381406
2512.0,0.0027375398173228377
2511.0,0.002748774501797426
2510.0,0.0027581715964297504
2509.0,0.0027618677046256125
2508.0,0.0027587730361297953
2507.0,0.0027484219364235446
2506.0,0.002733437457516723
2505.0,0.0027197585116328265
2504.0,0.0027116573285439274
2503.0,0.0027090629449972366
2502.0,0.0027096117243246526
2501.0,0.0027094402095384487
2500.0,0.002703345054793596
2499.0,0.0026900908126639353
2498.0,0.002677315201383514
2497.0,0.0026752633065752884
2496.0,0.0026850110845284014
2495.0,0.0026976860201831667
2494.0,0.002704859261183463
2493.0,0.002704693168359487
2492.0,0.002698989054479132
2491.0,0.0026902642512020686
2490.0,0.002681565924495536
2489.0,0.0026739866768130146
2488.0,0.0026651342565376032
2487.0,0.0026546183869182874
2486.0,0.002648421970691349
2485.0,0.0026516745587203826
2484.0,0.0026595803777044675
2483.0,0.0026623478331657706
2482.0,0.002656868815738923
2481.0,0.002646688539601092
2480.0,0.0026333738133279437
2479.0,0.0026163204657062475
2478.0,0.0025992138625856487
2477.0,0.0025879010548851794
2476.0,0.002582683156260793
2475.0,0.0025806967673257615
2474.0,0.0025842104422509828
2473.0,0.0025973049066907433
2472.0,0.0026153057399755215
2471.0,0.0026274964367367258
2470.0,0.0026311189774685796
2469.0,0.0026341847021859287
2468.0,0.002643801792973088
2467.0,0.0026595711986894172
2466.0,0.0026783323273220703
2465.0,0.002696710893275003
2464.0,0.002708636881039419
2463.0,0.0027096258725333136
2462.0,0.002705665616254161
2461.0,0.002710295966151162
2460.0,0.002730646202098456
2459.0,0.002762028807531459
2458.0,0.002796269006382616
2457.0,0.0028283415353385862
2456.0,0.00285458864687646
2455.0,0.0028716314212576975
2454.0,0.002878360662805184
2453.0,0.002874335084678638
2452.0,0.002858103889386307
2451.0,0.002833356802616218
2450.0,0.0028130694084228607
2449.0,0.002807475721970718
2448.0,0.0028092103668235563
2447.0,0.0028012529020643166
2446.0,0.002780112662325463
2445.0,0.0027605501235103895
2444.0,0.002755754312351627
2443.0,0.002763054019501437
2442.0,0.00277184329434006
2441.0,0.002775912109276821
2440.0,0.002774167754831326
2439.0,0.0027676853190694213
2438.0,0.002760686346076721
2437.0,0.0027580224509115916
2436.0,0.0027577033321646216
2435.0,0.002750960781427208
2434.0,0.0027324775815085003
2433.0,0.0027063624578000903
2432.0,0.0026811386850188195
2431.0,0.0026637574650662994
2430.0,0.0026583227919887583
2429.0,0.0026637462631937513
2428.0,0.0026714810618469922
2427.0,0.002672195675793936
2426.0,0.002666234700288935
2425.0,0.0026616505808757115
2424.0,0.002661230337959836
2423.0,0.002658517738766747
2422.0,0.0026486401939590375
2421.0,0.0026360422356222057
2420.0,0.0026278510310329332
2419.0,0.0026246089957268795
2418.0,0.002621258790162394
2417.0,0.002614323521998796
2416.0,0.0026058288260316195
2415.0,0.0026021102486429946
2414.0,0.002609530528354873
2413.0,0.0026292306445766917
2412.0,0.002655051614732395
2411.0,0.002676422671414479
2410.0,0.0026816238840250417
2409.0,0.0026598629385657644
2408.0,0.0026083477639588207
2407.0,0.0025421248932183792
2406.0,0.002489829127425517
2405.0,0.0024708104063623387
2404.0,0.0024783231636887506
2403.0,0.0024903184961384997
2402.0,0.0024926908999997927
2401.0,0.0024864437451359153
2400.0,0.0024777543006035824
2399.0,0.002470416332831367
2398.0,0.0024661472714706083
2397.0,0.0024639528339777247
2396.0,0.0024595137467089694
2395.0,0.002451322130338305
2394.0,0.002445478051922797
2393.0,0.0024478452245912056
2392.0,0.0024536809531233955
2391.0,0.002452091336026555
2390.0,0.0024390948931423094
2389.0,0.0024198983285734603
2388.0,0.0023999809908009915
2387.0,0.0023805177210368036
2386.0,0.0023607551374111853
2385.0,0.002337518665180468
2384.0,0.0023032695652187556
2383.0,0.002251531540197418
2382.0,0.002184036585689831
2381.0,0.0021070471709445098
2380.0,0.0020221548736071315
2379.0,0.0019275688921575
2378.0,0.0018274282031963793
2377.0,0.001731221836130874
2376.0,0.0016429971327295958
2375.0,0.0015598846078376041
2374.0,0.001483809396449653
2373.0,0.001424566877413892
2372.0,0.001389437168012527
2371.0,0.0013748332801537383
2370.0,0.0013705924260176145
2369.0,0.0013671167256553605
2368.0,0.0013611650138535584
2367.0,0.001361296558834961
2366.0,0.0013850515161513044
2365.0,0.0014391678648213216
2364.0,0.0015047429122969098
2363.0,0.0015535775341367765
2362.0,0.0015820964770155111
2361.0,0.0016068028916788458
2360.0,0.0016298513969635726
2359.0,0.0016453921017455888
2358.0,0.0016562511314906795
2357.0,0.0016656957101600345
2356.0,0.0016712320626046922
2355.0,0.0016636763079975001
2354.0,0.0016525982554222345
2353.0,0.0016506665489879036
2352.0,0.001659511121789207
2351.0,0.0016738028492310113
2350.0,0.0016893996960079204
2349.0,0.0017239046455930947
2348.0,0.0017912960957436235
2347.0,0.0018807903341915436
2346.0,0.001960251618844256
2345.0,0.0019980880676313127
2344.0,0.00200621298358557
2343.0,0.0020080168399536167
2342.0,0.0020292036696898143
2341.0,0.0020734522131963568
2340.0,0.0021274803503138467
2339.0,0.002179688897790551
2338.0,0.0022203443483192918
2337.0,0.0022545969587538226
2336.0,0.002281939038770971
2335.0,0.0023023133109949844
2334.0,0.0023084602243540445
2333.0,0.0023035225506289675
2332.0,0.0022830226917765575
2331.0,0.002260693325695615
2330.0,0.00226067285136618
2329.0,0.0023513246448633226
2328.0,0.0025812884796480723
2327.0,0.0029513248078482874
2326.0,0.0033733298669729834
2325.0,0.0037025447030187312
2324.0,0.003822931137904673
2323.0,0.003720160576218147
2322.0,0.0034991408623543784
2321.0,0.003285391243406729
2320.0,0.003138138396371451
2319.0,0.0030576962389746738
2318.0,0.0030246120165881717
2317.0,0.003031812321086629
2316.0,0.003053312026146422
2315.0,0.0030697682511786725
2314.0,0.003069594694951185
2313.0,0.0030668792400724556
2312.0,0.0030616769260834948
2311.0,0.0030561608588231736
2310.0,0.0030532684809068205
2309.0,0.003068967228129918
2308.0,0.0031016382806911447
2307.0,0.0031429127843375874
2306.0,0.003185498873798587
2305.0,0.0032359846667971526
2304.0,0.0032942529732645806
2303.0,0.0033563484747256038
2302.0,0.0034158524059717038
2301.0,0.0034735475443988554
2300.0,0.0035242454636203926
2299.0,0.0035690973131021816
2298.0,0.0036166163951190386
2297.0,0.003680544841821236
2296.0,0.0037578949846870336
2295.0,0.003839158871031938
2294.0,0.00392273734879957
2293.0,0.004015971899350312
2292.0,0.004115237971749397
2291.0,0.00420612029439849
2290.0,0.004283134176928024
2289.0,0.004354082829848363
2288.0,0.00442320404618465
2287.0,0.004479327340508957
2286.0,0.0045081448792899164
2285.0,0.004501668120307844
2284.0,0.00445949073116375
2283.0,0.004390313237419262
2282.0,0.004317441789325907
2281.0,0.00426531971746973
2280.0,0.0042374065953703875
2279.0,0.004216768589283921
2278.0,0.0041892212592943
2277.0,0.004154515885596178
2276.0,0.004116251310099071
2275.0,0.004079391087125771
2274.0,0.004056059134994461
2273.0,0.004057537951771902
2272.0,0.0040750822050495935
2271.0,0.0040846142507385795
2270.0,0.0040714931764341475
2269.0,0.004037272471000543
2268.0,0.003985342760505697
2267.0,0.003919190448474495
2266.0,0.0038557426689298825
2265.0,0.0038196897947916355
2264.0,0.003818756234348939
2263.0,0.0038405216376347943
2262.0,0.0038753597538380624
2261.0,0.003925298596244874
2260.0,0.003988271484279931
2259.0,0.004046597682952705
2258.0,0.004074889515573853
2257.0,0.004049132941367046
2256.0,0.003959909208704392
2255.0,0.0038337327080158953
2254.0,0.0037329696157143632
2253.0,0.0037069254477795615
2252.0,0.0037439489371675905
2251.0,0.0037925526051839154
2250.0,0.0038237972451447833
2249.0,0.003847782500641022
2248.0,0.003876248656990918
2247.0,0.0039029876872284366
2246.0,0.003923814176902462
2245.0,0.003945179890978005
2244.0,0.003964219079890289
2243.0,0.003966651126357677
2242.0,0.003952835458154379
2241.0,0.003941887484733569
2240.0,0.00394290947748904
2239.0,0.00394499227687845
2238.0,0.003942318650905432
2237.0,0.003945668116821477
2236.0,0.0039607026797658235
2235.0,0.00397646911058012
2234.0,0.003984656332540606
2233.0,0.0039913830485464276
2232.0,0.004002848247969012
2231.0,0.004016465306780061
2230.0,0.004030585429327601
2229.0,0.004045879005984094
2228.0,0.004055268645986735
2227.0,0.004051281342008819
2226.0,0.004042992821323013
2225.0,0.004045475156689836
2224.0,0.004053716674736782
2223.0,0.004050467544593078
2222.0,0.004038448063047467
2221.0,0.004038184800628441
2220.0,0.00405164871168731
2219.0,0.004055998991549243
2218.0,0.0040388735464103685
2217.0,0.00401539764669398
2216.0,0.004005515644247196
2215.0,0.004016643149037782
2214.0,0.004051671927104056
2213.0,0.004107588023670834
2212.0,0.004161440929032744
2211.0,0.004182589377638573
2210.0,0.004165887403156388
2209.0,0.004136101045932207
2208.0,0.004117399684526833
2207.0,0.004116669539136853
2206.0,0.004132982097046079
2205.0,0.004158725454717291
2204.0,0.004173201030981589
2203.0,0.004160959045587065
2202.0,0.004137929980060165
2201.0,0.004135359006952609
2200.0,0.004158815670801808
2199.0,0.004188349971267567
2198.0,0.004215163971046826
2197.0,0.00425031095174315
2196.0,0.004297732270328341
2195.0,0.004347141438516549
2194.0,0.004395034503404355
2193.0,0.004446480236958436
2192.0,0.00449566361398445
2191.0,0.004530519125200896
2190.0,0.004556486438351111
2189.0,0.004591413001774564
2188.0,0.004638298023404415
2187.0,0.004683869745543655
2186.0,0.004714390217748058
2185.0,0.004705064522964322
2184.0,0.004610412555534326
2183.0,0.004412814097393455
2182.0,0.0041838050808965235
2181.0,0.004048881303618729
2180.0,0.004067546333215394
2179.0,0.004174374401462713
2178.0,0.004247407710846736
2177.0,0.004214774195394246
2176.0,0.0041033812477496
2175.0,0.00401165883375722
2174.0,0.004033978850333351
2173.0,0.004189395572726892
2172.0,0.004420687267927736
2171.0,0.004668088479728733
2170.0,0.0049184973922953845
2169.0,0.005165274253573266
2168.0,0.005359674466460793
2167.0,0.005448861433747787
2166.0,0.005458036586502048
2165.0,0.005494956585300585
2164.0,0.005643360594810336
2163.0,0.005842320203683537
2162.0,0.005852317590272316
2161.0,0.005368329536490238
2160.0,0.004285487789603668
2159.0,0.0029214510523832863
2158.0,0.0018608936521877233
2157.0,0.0014555661487769159
2156.0,0.001574894116008886
2155.0,0.0018796602686183433
2154.0,0.0021709341428189726
2153.0,0.0024174913798383677
2152.0,0.0026101677135773383
2151.0,0.0027208743778548124
2150.0,0.002758419285732161
2149.0,0.0027630775036822227
2148.0,0.0027441255466269733
2147.0,0.0026857249809154227
2146.0,0.0026038256165881444
2145.0,0.002539692585503313
2144.0,0.002506528183362917
2143.0,0.002493841144909499
2142.0,0.0025093649931938224
2141.0,0.002562649503678175
2140.0,0.0026208125884725204
2139.0,0.002629547695443926
2138.0,0.002567221999214942
2137.0,0.002440576871780513
2136.0,0.0022556810233447166
2135.0,0.002042671585654463
2134.0,0.0018851537498547274
2133.0,0.0018594950385346287
2132.0,0.001955814996694174
2131.0,0.0021047770297421956
2130.0,0.0022658448265075095
2129.0,0.0024377456243313087
2128.0,0.0026059386521095265
2127.0,0.0027378455465199986
2126.0,0.0028292163895305773
2125.0,0.0029077618650889467
2124.0,0.002987718251087798
2123.0,0.0030589074427812735
2122.0,0.003121998420439014
2121.0,0.003196293638831857
2120.0,0.003288754122732879
2119.0,0.0033889446862085245
2118.0,0.003495270760584138
2117.0,0.0036127344988547624
2116.0,0.0037240118446595864
2115.0,0.0037979944115185517
2114.0,0.003831296708726454
2113.0,0.003849684738179561
2112.0,0.0038655186358606255
2111.0,0.003866156115036971
2110.0,0.0038489869905773385
2109.0,0.003833851599427049
2108.0,0.0038322714277679937
2107.0,0.0038346928793433132
2106.0,0.0038347909613407763
2105.0,0.003837814946538352
2104.0,0.0038398307799907185
2103.0,0.003829133471894756
2102.0,0.0038132019313173848
2101.0,0.0038134508107550086
2100.0,0.003825473028603898
2099.0,0.0038115545991508487
2098.0,0.0037401673420048576
2097.0,0.003614037765836216
2096.0,0.0034622587478628022
2095.0,0.003330286443714788
2094.0,0.003271550644980908
2093.0,0.0033111492777101867
2092.0,0.0034161397571172416
2091.0,0.0035275264506042184
2090.0,0.003619357161833479
2089.0,0.0037014454331399287
2088.0,0.003775336452242241
2087.0,0.0038247448378153307
2086.0,0.003847925401357976
2085.0,0.0038640774792184874
2084.0,0.0038841121337880704
2083.0,0.0039038711974965857
2082.0,0.003926004012500056
2081.0,0.003957046856444211
2080.0,0.0039839992049253425
2079.0,0.003987484321760309
2078.0,0.003977192594569632
2077.0,0.00398000573743272
2076.0,0.003994997950365455
2075.0,0.003997321749537715
2074.0,0.003985090718476491
2073.0,0.0039806858331129505
2072.0,0.003984207040672873
2071.0,0.003968302458855495
2070.0,0.003926256419183605
2069.0,0.003886661457778662
2068.0,0.003872376614335285
2067.0,0.0038775720172506854
2066.0,0.0038884600523087457
2065.0,0.0038930084806857055
2064.0,0.0038743499787810285
2063.0,0.0038305235185817138
2062.0,0.0037950526189500277
2061.0,0.0038030740215163573
2060.0,0.00384618366252743
2059.0,0.003893675593647095
2058.0,0.003937961067020839
2057.0,0.003977930667115118
2056.0,0.0039943546487109715
2055.0,0.004007719088103057
2054.0,0.004123537992244288
2053.0,0.004417740027512285
2052.0,0.004782204079404823
2051.0,0.00498156462192727
2050.0,0.004890402405802746
2049.0,0.0046185004684911836
2048.0,0.004368998654389519
2047.0,0.004234035099832806
2046.0,0.0041873548465549
2045.0,0.004190557221277221
2044.0,0.004219839056118982
2043.0,0.004247691009588531
2042.0,0.0042699053556890685
2041.0,0.00431780377784312
2040.0,0.004402958787227835
2039.0,0.004487713692198181
2038.0,0.004536320733357348
2037.0,0.00454507017702376
2036.0,0.0045048393950019895
2035.0,0.004394174370329443
2034.0,0.0042374267072163895
2033.0,0.0041094382001956725
2032.0,0.004046057428477886
2031.0,0.004007336851016316
2030.0,0.003952988607965589
2029.0,0.0038903359499657753
2028.0,0.0038308701038761916
2027.0,0.0037666778575025234
2026.0,0.003711579357429753
2025.0,0.0036990802172270996
2024.0,0.003718251746015611
2023.0,0.003714787654812793
2022.0,0.0036697243279607576
2021.0,0.003616261838042459
2020.0,0.0035721601796132405
2019.0,0.0035230723834749266
2018.0,0.0034815307933100514
2017.0,0.0034882145100854087
2016.0,0.0035381878607452346
2015.0,0.0035798186810213333
2014.0,0.0035992172376355354
2013.0,0.003634976552409481
2012.0,0.003701089262920834
2011.0,0.0037567504560032253
2010.0,0.003756246490552592
2009.0,0.003670806429781668
2008.0,0.0034753364808931663
2007.0,0.003191242103178955
2006.0,0.0029352780809784682
2005.0,0.0028364020104460364
2004.0,0.0028969039979377625
2003.0,0.0030134110664539067
2002.0,0.0031195313070875646
2001.0,0.003223884562782789
2000.0,0.003323866846864379
1999.0,0.0033791102831211535
1998.0,0.003386110106489467
1997.0,0.003396771208862213
1996.0,0.0034382102659498677
1995.0,0.0034813447270333015
1994.0,0.003507092870613208
1993.0,0.0035393576644624433
1992.0,0.0035916736939522924
1991.0,0.0036410824545585717
1990.0,0.0036784537642460405
1989.0,0.0037246743612131704
1988.0,0.0037845333157129494
1987.0,0.0038424662439405614
1986.0,0.0039109878733694725
1985.0,0.004028036561006823
1984.0,0.004204026005997198
1983.0,0.004424205806319598
1982.0,0.004681796322445914
1981.0,0.004926682796075741
1980.0,0.0049986099954687415
1979.0,0.004731969794129265
1978.0,0.0041737113029709965
1977.0,0.003597534714934233
1976.0,0.003228915466514391
1975.0,0.0030637466226087913
1974.0,0.0029996221790917765
1973.0,0.002986520812493077
1972.0,0.0029973994238268473
1971.0,0.0029862233052061673
1970.0,0.0029432951692399323
1969.0,0.0029115343444179407
1968.0,0.002906306246752263
1967.0,0.0028892447722947685
1966.0,0.0028493208205949807
1965.0,0.0028238994007375217
1964.0,0.0028110781909193986
1963.0,0.0027486064473216114
1962.0,0.0026051158787915593
1961.0,0.0024246735832833028
1960.0,0.0022624297415901017
1959.0,0.002144084386624291
1958.0,0.0021012912955842627
1957.0,0.0021619374159914224
1956.0,0.002284053421465133
1955.0,0.002374991503193525
1954.0,0.0023970387353438507
1953.0,0.0023931266000178863
1952.0,0.002397717397769794
1951.0,0.0023924213246834724
1950.0,0.00236573783942626
1949.0,0.002346213900923932
1948.0,0.002350270890146407
1947.0,0.0023537623305994963
1946.0,0.002338233969118437
1945.0,0.0023146305127246395
1944.0,0.0022853304683849436
1943.0,0.0022363033803606434
1942.0,0.0021844096045051443
1941.0,0.002172024059389696
1940.0,0.0021971308602176196
1939.0,0.0022127777278552426
1938.0,0.002197661418970678
1937.0,0.002174235286774787
1936.0,0.0021567511287386614
1935.0,0.0021325654675131162
1934.0,0.0021033735365452574
1933.0,0.0020922158624606534
1932.0,0.0020977373218191995
1931.0,0.002092306370718841
1930.0,0.002073904554389127
1929.0,0.0020707095506082938
1928.0,0.002087035622512537
1927.0,0.0020936645035932156
1926.0,0.0020810380576712184
1925.0,0.0020739298029557804
1924.0,0.0020861713232059923
1923.0,0.0021034460099458394
1922.0,0.0021202552011605996
1921.0,0.0021485425711955655
1920.0,0.0021799736373907504
1919.0,0.002186915126418533
1918.0,0.0021698146945146966
1917.0,0.0021616708862111046
1916.0,0.0021692683607090384
1915.0,0.00216594890078727
1914.0,0.0021475464721708764
1913.0,0.002138527732929782
1912.0,0.002141887086728057
1911.0,0.0021320676124372377
1910.0,0.002105281279309984
1909.0,0.0020897011942303512
1908.0,0.0020942262273033405
1907.0,0.0020960907133732347
1906.0,0.0020892835666054027
1905.0,0.0020938111852527273
1904.0,0.002109929096933374
1903.0,0.0021119383346609706
1902.0,0.0020957384268147443
1901.0,0.0020878837134906815
1900.0,0.0020975900040842237
1899.0,0.0021043811842024365
1898.0,0.002102655073224827
1897.0,0.002110899770489374
1896.0,0.0021275628286902323
1895.0,0.002124040494505103
1894.0,0.0020967137393516047
1893.0,0.002076557154988174
1892.0,0.0020744078877212744
1891.0,0.0020671454022741028
1890.0,0.0020468500946008382
1889.0,0.002039914926137235
1888.0,0.002055447989949674
1887.0,0.0020653292472732777
1886.0,0.0020558345904300684
1885.0,0.002049292228738509
1884.0,0.0020598796788775598
1883.0,0.002070878197463571
1882.0,0.0020700904363499346
1881.0,0.0020677320384636785
1880.0,0.0020653989197193406
1879.0,0.002048237954906493
1878.0,0.0020219341475410002
1877.0,0.0020162527397900414
1876.0,0.002037336966085744
1875.0,0.002058223111242402
1874.0,0.0020664173069148434
1873.0,0.0020783187426977596
1872.0,0.0020976645999575775
1871.0,0.0021018014620979956
1870.0,0.0020820323648486493
1869.0,0.0020646565724692545
1868.0,0.0020650124384466854
1867.0,0.0020612441186726557
1866.0,0.0020436904493516058
1865.0,0.0020362532923181194
1864.0,0.002051517735793225
1863.0,0.002068373496127307
1862.0,0.0020684918753957446
1861.0,0.0020609394328435977
1860.0,0.002053157098484816
1859.0,0.002034530924768007
1858.0,0.002007302539973076
1857.0,0.001996020444849318
1856.0,0.002008064668690566
1855.0,0.0020203755958774815
1854.0,0.002020574717728994
1853.0,0.0020237586018377234
1852.0,0.0020359832293465334
1851.0,0.0020382902195934544
1850.0,0.002025969819513587
1849.0,0.002023121277989904
1848.0,0.0020391406834610686
1847.0,0.0020511627856093888
1846.0,0.002046099214122333
1845.0,0.002043551584472959
1844.0,0.002057554799251667
1843.0,0.0020690139075878796
1842.0,0.0020610258572004566
1841.0,0.0020439057419154457
1840.0,0.0020322454587767182
1839.0,0.002023807883257083
1838.0,0.002017227296015463
1837.0,0.0020258471747807267
1836.0,0.0020501292948407143
1835.0,0.00206856397968618
1834.0,0.002072650728768291
1833.0,0.002077597723231488
1832.0,0.0020881735451083946
1831.0,0.0020867582620697307
1830.0,0.0020755122106582828
1829.0,0.002089813580155679
1828.0,0.002131209369119886
1827.0,0.002155691184465633
1826.0,0.0021486589368922876
1825.0,0.00214626589004937
1824.0,0.002170482148250198
1823.0,0.0021930699155039875
1822.0,0.0021869165832555265
1821.0,0.002159296208896003
1820.0,0.002116743057529382
1819.0,0.0020468728691585367
1818.0,0.001960883525870588
1817.0,0.001910155512716039
1816.0,0.0019268028705952964
1815.0,0.0019844032259916213
1814.0,0.002043368213905784
1813.0,0.0020949937191613805
1812.0,0.0021418475326117022
1811.0,0.0021748066962247003
1810.0,0.002194746734373249
1809.0,0.002221471353566446
1808.0,0.002259729384386965
1807.0,0.0022913905664729683
1806.0,0.0023122276742114554
1805.0,0.0023408881588391777
1804.0,0.0023816795511971533
1803.0,0.0024123125804541416
1802.0,0.002425089245561581
1801.0,0.0024487489913040724
1800.0,0.002500933437738331
1799.0,0.002558029393961178
1798.0,0.00260086537390297
1797.0,0.002642586419347644
1796.0,0.0026942792456559977
1795.0,0.0027455870267657136
1794.0,0.0027958774893731457
1793.0,0.0028710321752377617
1792.0,0.0029798505429832357
1791.0,0.0030889173773326886
1790.0,0.0031801829294420035
1789.0,0.0032759271955848995
1788.0,0.0033952028015364604
1787.0,0.0035328674311290607
1786.0,0.003688083932946255
1785.0,0.003879789064099086
1784.0,0.0041085184681927
1783.0,0.004342533924168815
1782.0,0.0045679976928225926
1781.0,0.0048071533346704
1780.0,0.005064827214464222
1779.0,0.005311729324078869
1778.0,0.005538761988762901
1777.0,0.005771246397942899
1776.0,0.006023297114976334
1775.0,0.0062833604882417795
1774.0,0.0065574822153396835
1773.0,0.006877730712279678
1772.0,0.007231561663184526
1771.0,0.007552163599273498
1770.0,0.007826352488945192
1769.0,0.008115500587525587
1768.0,0.008464950560576178
1767.0,0.008853547840465338
1766.0,0.009250352989522084
1765.0,0.009668905904093939
1764.0,0.010139261677715386
1763.0,0.01066486959222746
1762.0,0.011218624294395628
1761.0,0.01176735605278146
1760.0,0.012279596865415209
1759.0,0.012739567878080015
1758.0,0.013170089727947299
1757.0,0.013601053966773764
1756.0,0.014014363952924868
1755.0,0.014373579544138385
1754.0,0.014689653010649676
1753.0,0.01500071059739811
1752.0,0.015296301606783896
1751.0,0.015513977226687958
1750.0,0.01564312946453958
1749.0,0.015733825694936806
1748.0,0.015797031331745884
1747.0,0.015810666009567913
1746.0,0.015784024912888647
1745.0,0.015733548854374127
1744.0,0.015632392642453714
1743.0,0.015446428199811381
1742.0,0.015186179426258141
1741.0,0.014859512951820971
1740.0,0.014430524106179513
1739.0,0.013920438523231967
1738.0,0.013451940639078641
1737.0,0.013095362388052565
1736.0,0.012782547434350755
1735.0,0.012338816775210882
1734.0,0.011712032559913129
1733.0,0.011146682578080417
1732.0,0.01075140993062914
1731.0,0.010397163588520227
1730.0,0.010035984716753172
1729.0,0.009724722121047594
1728.0,0.009496485468444121
1727.0,0.0093233894929916
1726.0,0.009179677076246631
1725.0,0.009072799245722235
1724.0,0.009001657539638955
1723.0,0.00894567217198119
1722.0,0.008902037442259363
1721.0,0.008891681438262161
1720.0,0.008924448419732582
1719.0,0.008980007418689099
1718.0,0.009039643039810108
1717.0,0.009122287207673328
1716.0,0.009219125490147624
1715.0,0.009273512548683955
1714.0,0.009286481328974895
1713.0,0.00931776866027341
1712.0,0.009390938616588013
1711.0,0.009480675160055255
1710.0,0.009575793018525968
1709.0,0.009700051201612535
1708.0,0.009865558800316929
1707.0,0.010053971173595628
1706.0,0.010258680535597746
1705.0,0.010488440673657874
1704.0,0.010719345831314911
1703.0,0.01092535386468662
1702.0,0.011163940245110323
1701.0,0.011559594908526288
1700.0,0.012086289116204676
1699.0,0.012516665683705372
1698.0,0.012787110536279137
1697.0,0.013071611529031375
1696.0,0.013509875035059547
1695.0,0.013998095695747826
1694.0,0.014371894160265061
1693.0,0.014633596758445805
1692.0,0.01488852006505366
1691.0,0.015216307371297925
1690.0,0.015616700224627213
1689.0,0.016043628358031713
1688.0,0.01644787461152814
1687.0,0.01682197067473068
1686.0,0.017243373874084297
1685.0,0.017852181202124177
1684.0,0.018606756653457086
1683.0,0.019211638864826915
1682.0,0.01958566852591123
1681.0,0.019886784108655322
1680.0,0.020233382962759623
1679.0,0.020616900036029357
1678.0,0.020999564678583178
1677.0,0.021430602224551086
1676.0,0.021979689922598192
1675.0,0.022583928428003084
1674.0,0.02309677501053808
1673.0,0.023495937720092643
1672.0,0.023868936193143595
1671.0,0.024296199508495805
1670.0,0.024803006295822078
1669.0,0.0253554439806943
1668.0,0.025873242968487063
1667.0,0.02628780371967947
1666.0,0.02662207700700282
1665.0,0.026977540711677902
1664.0,0.02743285664528852
1663.0,0.0279554690667503
1662.0,0.028446082191358
1661.0,0.02887305141933909
1660.0,0.029262427564091927
1659.0,0.029620133739542732
1658.0,0.029942395196441367
1657.0,0.030243023420082997
1656.0,0.03055380729191435
1655.0,0.030917026646724168
1654.0,0.031398148764466685
1653.0,0.03199004879776481
1652.0,0.03249126545231195
1651.0,0.03272317725357535
1650.0,0.03271510659760544
1649.0,0.03267381822634178
1648.0,0.032765471087698096
1647.0,0.032966148417460324
1646.0,0.03316250702770064
1645.0,0.03331329902224638
1644.0,0.03340949519097572
1643.0,0.0334342095828142
1642.0,0.03341183409956692
1641.0,0.033394414062926134
1640.0,0.03340396525667901
1639.0,0.03341143395603239
1638.0,0.0333886903966314
1637.0,0.033346776888022955
1636.0,0.0332973168269421
1635.0,0.03321687381077017
1634.0,0.03308342790592711
1633.0,0.032892515645193486
1632.0,0.03266170809988783
1631.0,0.03241515651543643
1630.0,0.03215206057183936
1629.0,0.031866026748697776
1628.0,0.031562841202968595
1627.0,0.031246589574005633
1626.0,0.030910819356491565
1625.0,0.03054387535672729
1624.0,0.030127660042868744
1623.0,0.029660249963381187
1622.0,0.029189519079430806
1621.0,0.02876415494501143
1620.0,0.02837716150484711
1619.0,0.027987573559109268
1618.0,0.02754137239608613
1617.0,0.027017810337860867
1616.0,0.026486831204186954
1615.0,0.02600400034394097
1614.0,0.025531956043045617
1613.0,0.025042182108624203
1612.0,0.024551260131403435
1611.0,0.024073486885574997
1610.0,0.023606448418539035
1609.0,0.023146952311917473
1608.0,0.02270193035216429
1607.0,0.02227911137711332
1606.0,0.02187517341677461
1605.0,0.021480208479636304
1604.0,0.02108859585113378
1603.0,0.020703038884569338
1602.0,0.020328951637274852
1601.0,0.019967905948885048
1600.0,0.019620516273048352
1599.0,0.01928865750733204
1598.0,0.018969963892091816
1597.0,0.018656842720607435
1596.0,0.018345966718512737
1595.0,0.018042960530901035
1594.0,0.01775277723857652
1593.0,0.017472894907509723
1592.0,0.01720147788677594
1591.0,0.01694299028337061
1590.0,0.016699352020553615
1589.0,0.016465102701026142
1588.0,0.016238010921020733
1587.0,0.016024812972555254
1586.0,0.01582928537838666
1585.0,0.015644963089204763
1584.0,0.015465868713213548
1583.0,0.015295671245575793
1582.0,0.015142677712724747
1581.0,0.015007480969895605
1580.0,0.014885366033726664
1579.0,0.014778993176785986
1578.0,0.014695967127077946
1577.0,0.014628624683862845
1576.0,0.014566943641883507
1575.0,0.014515336536618802
1574.0,0.014452042264727322
1573.0,0.014355272631286452
1572.0,0.014252806855670288
1571.0,0.014179693294955217
1570.0,0.014137717043428977
1569.0,0.014109989364363387
1568.0,0.014083758057934999
1567.0,0.014052249332119005
1566.0,0.014018726913237096
1565.0,0.01399395512050278
1564.0,0.013986084039344357
1563.0,0.014003653923074792
1562.0,0.014060201357295656
1561.0,0.014166910471527138
1560.0,0.014304405686474245
1559.0,0.01441699897435025
1558.0,0.014497044179698618
1557.0,0.014544134640746564
1556.0,0.01451255937923093
1555.0,0.014444893272216736
1554.0,0.014411736251011633
1553.0,0.014409548714177982
1552.0,0.014399540935250588
1551.0,0.01436468559199285
1550.0,0.01432091786519682
1549.0,0.01428502472574774
1548.0,0.014260215243653278
1547.0,0.014236236831355862
1546.0,0.014201941598937735
1545.0,0.014150552816974488
1544.0,0.014087485923471737
1543.0,0.014033256109746296
1542.0,0.013997675064834542
1541.0,0.013950700909507011
1540.0,0.013857987577392535
1539.0,0.013752336734837507
1538.0,0.01365058466189082
1537.0,0.013505027777232805
1536.0,0.013319519475063712
1535.0,0.013134677221286303
1534.0,0.012957606313493606
1533.0,0.012794031396427753
1532.0,0.012661023136458865
1531.0,0.012546863454855693
1530.0,0.012428857246074329
1529.0,0.01230188756041252
1528.0,0.012167598431541254
1527.0,0.012029783044537851
1526.0,0.011899822975179495
1525.0,0.011791269189606591
1524.0,0.01170279557230582
1523.0,0.011621398572938984
1522.0,0.01153502738488649
1521.0,0.011450230177188957
1520.0,0.011375869303947768
1519.0,0.011281406705953375
1518.0,0.011139961915607465
1517.0,0.010966774477646612
1516.0,0.010796861217545915
1515.0,0.010648958535045296
1514.0,0.010505747803212246
1513.0,0.010350290378930148
1512.0,0.01018915833818171
1511.0,0.010037970273089907
1510.0,0.009905783204802
1509.0,0.009792296711404368
1508.0,0.009677252971241813
1507.0,0.00954068935376078
1506.0,0.009446551293372626
1505.0,0.009424526295460551
1504.0,0.009368557011587989
1503.0,0.009239074881177912
1502.0,0.00909987827356365
1501.0,0.009000163388116175
1500.0,0.008945234375143274
1499.0,0.008915131214834142
1498.0,0.00889454702176114
1497.0,0.008880869904223442
1496.0,0.008872368321902383
1495.0,0.00885649959701744
1494.0,0.008822359713391651
1493.0,0.008782069094090888
1492.0,0.00875650383565724
1491.0,0.008745359696423424
1490.0,0.00873337759826708
1489.0,0.008716818040994617
1488.0,0.00869844110790104
1487.0,0.008677291399806237
1486.0,0.008659536941550581
1485.0,0.008655820704355291
1484.0,0.008666665940145195
1483.0,0.008685810476213689
1482.0,0.008717250449706393
1481.0,0.008770766431279227
1480.0,0.008843908066801055
1479.0,0.008926967121615281
1478.0,0.009023384631180395
1477.0,0.009143647836122207
1476.0,0.009283412919137054
1475.0,0.00943321133547846
1474.0,0.009607345344930927
1473.0,0.009828939320943938
1472.0,0.010074978778098707
1471.0,0.010291614823207134
1470.0,0.010462138123134367
1469.0,0.010611399012497235
1468.0,0.010772221599766289
1467.0,0.010968717132654274
1466.0,0.01122156962394261
1465.0,0.011532766840372407
1464.0,0.0118566809758717
1463.0,0.012143844729622419
1462.0,0.012397186465499341
1461.0,0.012649604935620385
1460.0,0.01292653750009529
1459.0,0.013242677038274558
1458.0,0.01361407870568523
1457.0,0.014005832353720746
1456.0,0.014310739016200544
1455.0,0.014468728848002651
1454.0,0.014515021758030187
1453.0,0.014520000999825703
1452.0,0.014521678215483284
1451.0,0.014519297599198743
1450.0,0.014505061618517525
1449.0,0.01446364347660591
1448.0,0.014374806077793224
1447.0,0.014240490419336685
1446.0,0.014080742333404849
1445.0,0.013898732930564029
1444.0,0.013682528783749662
1443.0,0.013438860515495515
1442.0,0.013196275931579921
1441.0,0.01297725176945028
1440.0,0.01278699954486369
1439.0,0.0126255208095685
1438.0,0.012489252239578814
1437.0,0.01236621268795026
1436.0,0.01225762290987643
1435.0,0.012172408938271775
1434.0,0.012098943060100783
1433.0,0.012028195406500096
1432.0,0.011967063938771547
1431.0,0.011922567639353052
1430.0,0.011896555864983348
1429.0,0.011882646421822698
1428.0,0.011870139199063205
1427.0,0.011851741188905213
1426.0,0.01182545219986983
1425.0,0.01179113230016278
1424.0,0.011749356522646935
1423.0,0.011710511261691769
1422.0,0.01168874779273511
1421.0,0.01168600716890257
1420.0,0.011687401460364621
1419.0,0.0116724371893651
1418.0,0.011634327781356996
1417.0,0.011572620207572246
1416.0,0.011490406311063479
1415.0,0.011407340932800662
1414.0,0.011340987470400611
1413.0,0.011284566791221001
1412.0,0.011219002565001784
1411.0,0.011137494155531521
1410.0,0.011045407089019339
1409.0,0.010941391615651452
1408.0,0.010817463439564549
1407.0,0.010672994385077295
1406.0,0.010513757848744304
1405.0,0.01034291297490068
1404.0,0.010166379426851734
1403.0,0.009998096972969888
1402.0,0.009842760602120698
1401.0,0.009687952191965365
1400.0,0.009522809465295188
1399.0,0.009359002833309945
1398.0,0.009219279866372648
1397.0,0.009108039357484677
1396.0,0.009021336919704696
1395.0,0.008968579094766225
1394.0,0.008958099752756318
1393.0,0.00897652156834109
1392.0,0.009003226330632675
1391.0,0.00903578571655618
1390.0,0.009085253374582597
1389.0,0.009157527311184676
1388.0,0.009248116457544102
1387.0,0.009344285473258796
1386.0,0.009427225559837415
1385.0,0.00948052631362637
1384.0,0.009498694394638628
1383.0,0.009484021678302184
1382.0,0.009435420493011975
1381.0,0.00934478628236185
1380.0,0.00920593329145296
1379.0,0.009025345325340233
1378.0,0.008822284962790453
1377.0,0.008616606541181382
1376.0,0.008421928981268133
1375.0,0.008253070116727518
1374.0,0.008130515249370755
1373.0,0.008067258732654778
1372.0,0.008055943640932822
1371.0,0.008076131139137943
1370.0,0.008105152014381755
1369.0,0.008122143907311034
1368.0,0.008117156977420121
1367.0,0.008096169121342256
1366.0,0.008067244511251258
1365.0,0.008028953212840698
1364.0,0.007977904956325938
1363.0,0.00792113442858363
1362.0,0.007873476035198378
1361.0,0.00784030806256052
1360.0,0.007812539884549573
1359.0,0.007778947633228695
1358.0,0.007732572899904391
1357.0,0.007669024351377592
1356.0,0.0075883559713669484
1355.0,0.007496386894936058
1354.0,0.0073988721669261265
1353.0,0.0072966596216030005
1352.0,0.007189711132830968
1351.0,0.007081128413577133
1350.0,0.006973545037268103
1349.0,0.006867168736661241
1348.0,0.006763939838601315
1347.0,0.006668119289755525
1346.0,0.0065798190541724675
1345.0,0.006493721224931229
1344.0,0.006406890057487461
1343.0,0.006320913610117673
1342.0,0.006233983735293236
1341.0,0.006138942556627348
1340.0,0.006035103153633231
1339.0,0.005935456281621837
1338.0,0.00585221394226294
1337.0,0.005782567244085329
1336.0,0.005717725448613547
1335.0,0.005654487596677112
1334.0,0.005591374671475351
1333.0,0.005524922574712486
1332.0,0.005456783164536516
1331.0,0.005396488853630156
1330.0,0.0053502387298582105
1329.0,0.005313365869966448
1328.0,0.0052794787515105124
1327.0,0.005249800834072376
1326.0,0.0052278444500419435
1325.0,0.005212247852697626
1324.0,0.0052005611555403525
1323.0,0.0051931316022504614
1322.0,0.00518757211079866
1321.0,0.005175946593626286
1320.0,0.005154065876488673
1319.0,0.005128886521066391
1318.0,0.00511003612435105
1317.0,0.005097995748698762
1316.0,0.005086786610284864
1315.0,0.0050728181419950665
1314.0,0.005054850514743142
1313.0,0.005030671497935313
1312.0,0.0050002702428137025
1311.0,0.004968327583699405
1310.0,0.004938336848559495
1309.0,0.004908282042950124
1308.0,0.0048762518174421
1307.0,0.004845818144325154
1306.0,0.004821026600272409
1305.0,0.004800091812377082
1304.0,0.004778695922103015
1303.0,0.004755681398926164
1302.0,0.004731355455115532
1301.0,0.004703999805628821
1300.0,0.004672560340948238
1299.0,0.004639571569372005
1298.0,0.00460736904456234
1297.0,0.004574317275467362
1296.0,0.004538206551685178
1295.0,0.004500265341795701
1294.0,0.004463082725189315
1293.0,0.004428796988326881
1292.0,0.004402472612816521
1291.0,0.004392709573125948
1290.0,0.004404978735729802
1289.0,0.004437883405910083
1288.0,0.0044889763529428785
1287.0,0.004559883017960781
1286.0,0.004652242764197949
1285.0,0.00476258803649646
1284.0,0.004884604835357929
1283.0,0.005013601430049447
1282.0,0.005146859054716648
1281.0,0.0052827320037471676
1280.0,0.00542114809905998
1279.0,0.005562078575858829
1278.0,0.0057019836025441455
1277.0,0.005834633869286782
1276.0,0.005957002423744449
1275.0,0.006071660651817799
1274.0,0.006181825158210131
1273.0,0.006286987595057608
1272.0,0.0063855334647878355
1271.0,0.006478845369708464
1270.0,0.006569463896300674
1269.0,0.006656654303677028
1268.0,0.0067369467765891755
1267.0,0.0068082718777061225
1266.0,0.00687127668570154
1265.0,0.006927585949784315
1264.0,0.0069792538454225405
1263.0,0.007029146407894956
1262.0,0.007078898754722387
1261.0,0.007126518107255489
1260.0,0.007168466447489757
1259.0,0.007203983373553114
1258.0,0.0072351206546026545
1257.0,0.007263174079178435
1256.0,0.007288354026623157
1255.0,0.007313312254146567
1254.0,0.007343811570527277
1253.0,0.00738444588618856
1252.0,0.007435295012321208
1251.0,0.007493445876596646
1250.0,0.00755637503956888
1249.0,0.007623581392660776
1248.0,0.007696431536918678
1247.0,0.007776881682544307
1246.0,0.007865099131995849
1245.0,0.007957965432733225
1244.0,0.008051243968181042
1243.0,0.008143789457808312
1242.0,0.008238383238249937
1241.0,0.008337816838876551
1240.0,0.008441584548807057
1239.0,0.00854717465984548
1238.0,0.008652971216341617
1237.0,0.008758698297435617
1236.0,0.008864746729352512
1235.0,0.008973112091582726
1234.0,0.009087736372574783
1233.0,0.009211579936115936
1232.0,0.009344083949002227
1231.0,0.009483524375512817
1230.0,0.009630828183659406
1229.0,0.009788421554076058
1228.0,0.009955991947736952
1227.0,0.010130403124612584
1226.0,0.010309697157914174
1225.0,0.010494396924744367
1224.0,0.010685067827026707
1223.0,0.010881742986954112
1222.0,0.011085451368607974
1221.0,0.01129642056256757
1220.0,0.011510572441387253
1219.0,0.011721830155297062
1218.0,0.011928232438277914
1217.0,0.012131416583261483
1216.0,0.012330055425026958
1215.0,0.012519259452502818
1214.0,0.012696934100358284
1213.0,0.012864969358199602
1212.0,0.013023388805435611
1211.0,0.013169145142777412
1210.0,0.013301264638206297
1209.0,0.013421287586852362
1208.0,0.01352895369465509
1207.0,0.013624149163453107
1206.0,0.013712355524782584
1205.0,0.013800689921881094
1204.0,0.013889455714763337
1203.0,0.013975632046435985
1202.0,0.014063720948801397
1201.0,0.014164199780794785
1200.0,0.014281452819115654
1199.0,0.014411978694263763
1198.0,0.014554846698592954
1197.0,0.014715661388436403
1196.0,0.014899931376448034
1195.0,0.015111196392912831
1194.0,0.015356038619449779
1193.0,0.01564182725812945
1192.0,0.015968341965816632
1191.0,0.016329999267564912
1190.0,0.016726752841932042
1189.0,0.017162858732335712
1188.0,0.01763399893984111
1187.0,0.018126723887183737
1186.0,0.018631574914285735
1185.0,0.019142862039048265
1184.0,0.019641988377160684
1183.0,0.02009504435439005
1182.0,0.02047099064111909
1181.0,0.0207474585837147
1180.0,0.020896727301184477
1179.0,0.020888375605745364
1178.0,0.020714281323275387
1177.0,0.020393905471803284
1176.0,0.01995280675281055
1175.0,0.01941505130236379
1174.0,0.018815474070012012
1173.0,0.018196339572459527
1172.0,0.01758741330574767
1171.0,0.017003484127719477
1170.0,0.01645915892058579
1169.0,0.01597069436241818
1168.0,0.015544010875454668
1167.0,0.015173909051800712
1166.0,0.014855820516591012
1165.0,0.014588384521155635
1164.0,0.014365997369711943
1163.0,0.014180267575643678
1162.0,0.014029740900475707
1161.0,0.01391902814639515
1160.0,0.013847728151062076
1159.0,0.013808591239880142
1158.0,0.013796802113848941
1157.0,0.013812448197508705
1156.0,0.013852931908674194
1155.0,0.01391160051498555
1154.0,0.013985943882597184
1153.0,0.014080159458262832
1152.0,0.014198691598818581
1151.0,0.014344520047641671
1150.0,0.014524088472406802
1149.0,0.014745561313335754
1148.0,0.0150112451092024
1147.0,0.015319550771503494
1146.0,0.015674645567351684
1145.0,0.016084771531392882
1144.0,0.01654961475009911
1143.0,0.017059073349914314
1142.0,0.01760608025181973
1141.0,0.018188903599147307
1140.0,0.01879715279858578
1139.0,0.019408398427562368
1138.0,0.020003854448066606
1137.0,0.020574949573437785
1136.0,0.021112016702771543
1135.0,0.021604600369625655
1134.0,0.022058456884480177
1133.0,0.022493371822328165
1132.0,0.022917713092458693
1131.0,0.0233219798058441
1130.0,0.023699473818822817
1129.0,0.024051228312511122
1128.0,0.024366022374887206
1127.0,0.024619766798500677
1126.0,0.02480242892358342
1125.0,0.024924191055623095
1124.0,0.0249921139226173
1123.0,0.02500673607450677
1122.0,0.0249848245256268
1121.0,0.024957262491182353
1120.0,0.024939192941535092
1119.0,0.024926565351011967
1118.0,0.02492300923296912
1117.0,0.02494338486189098
1116.0,0.024989319807850408
1115.0,0.02504993488234286
1114.0,0.02513130610597815
1113.0,0.02525761301374853
1112.0,0.025438413939946537
1111.0,0.025662494828757723
1110.0,0.02592839797396681
1109.0,0.02625094761716322
1108.0,0.026630153579145485
1107.0,0.027043133140535282
1106.0,0.02747552974805926
1105.0,0.027932265823356332
1104.0,0.028409277632258978
1103.0,0.028885678059866277
1102.0,0.029354093673968205
1101.0,0.029828568114416733
1100.0,0.03031250411359214
1099.0,0.030789814687390747
1098.0,0.031255590931059674
1097.0,0.03172106256311949
1096.0,0.03218079394701841
1095.0,0.03261287737297077
1094.0,0.03302066956232806
1093.0,0.03343455737260348
1092.0,0.03386328107733156
1091.0,0.03428403320668653
1090.0,0.03468867096721062
1089.0,0.035095853140020124
1088.0,0.03550648593877256
1087.0,0.035891564752684076
1086.0,0.03623690498339232
1085.0,0.0365557390877318
1084.0,0.0368457501234561
1083.0,0.03707997325063004
1082.0,0.037250302952977994
1081.0,0.03737210950996516
1080.0,0.037437638838323586
1079.0,0.03741544276785642
1078.0,0.03730402322958057
1077.0,0.03713483848322453
1076.0,0.036915268261888845
1075.0,0.03662005316300871
1074.0,0.0362444922267236
1073.0,0.03581351266563442
1072.0,0.03533319715163836
1071.0,0.03478568724520912
1070.0,0.034177152657441895
1069.0,0.03354165603431726
1068.0,0.0328946936868685
1067.0,0.03222954092165216
1066.0,0.03155987324720043
1065.0,0.03092051626038271
1064.0,0.030324280163747115
1063.0,0.029758837723669815
1062.0,0.02922854340070352
1061.0,0.028762404486891872
1060.0,0.028377228733627483
1059.0,0.028065167339410328
1058.0,0.0278181224266751
1057.0,0.02763189547754208
1056.0,0.027485580192342866
1055.0,0.02735072348631848
1054.0,0.027226844820028323
1053.0,0.027138348194957918
1052.0,0.027090142077513153
1051.0,0.027057276991100034
1050.0,0.027025432183496748
1049.0,0.027003499020736142
1048.0,0.026986660144609036
1047.0,0.02694706842488047
1046.0,0.026867975481287207
1045.0,0.026751824880297648
1044.0,0.026593425629361532
1043.0,0.02637723373705824
1042.0,0.02610194566939092
1041.0,0.025779590364313668
1040.0,0.025410040204047288
1039.0,0.024982833479206414
1038.0,0.024503367538299452
1037.0,0.02399177052743874
1036.0,0.02345858040833926
1035.0,0.022907190981427687
1034.0,0.02235736766514356
1033.0,0.021839425811801427
1032.0,0.02136373655718904
1031.0,0.020917374685533407
1030.0,0.020489634181579456
1029.0,0.020080816334212777
1028.0,0.019687933310052627
1027.0,0.01930237069123964
1026.0,0.018922110764229075
1025.0,0.018548598246005556
1024.0,0.018171923114085536
1023.0,0.017775592774290947
1022.0,0.017356331316031405
1021.0,0.01692513150862057
1020.0,0.01649011255550556
1019.0,0.0160524404438402
1018.0,0.015616923499969123
1017.0,0.015191871856624583
1016.0,0.01477884291966149
1015.0,0.014374385329537203
1014.0,0.01398073852296695
1013.0,0.013604510761852914
1012.0,0.013246901985951659
1011.0,0.012904697126071348
1010.0,0.012578134513582973
1009.0,0.012268463340367478
1008.0,0.011970258932772176
1007.0,0.011675460878341107
1006.0,0.011383657463976838
1005.0,0.011100431556058506
1004.0,0.01082744897143554
1003.0,0.010561925521018995
1002.0,0.010303970697404307
1001.0,0.010057093685333928
1000.0,0.009822657254050654
999.0,0.009599491963485432
998.0,0.009386829018351615
997.0,0.00918222886351381
996.0,0.008979309210012599
995.0,0.008773289392926955
994.0,0.00856681459945902
993.0,0.008365536976821818
992.0,0.00817091119244433
991.0,0.007982814272785289
990.0,0.007806185908078203
989.0,0.0076481340887180685
988.0,0.007508476032362878
987.0,0.007376943436773928
986.0,0.007239492437290763
985.0,0.007086414476422765
984.0,0.006918105546406169
983.0,0.006746214283584585
982.0,0.006585540335316107
981.0,0.006440820025669118
980.0,0.0063038173215047115
979.0,0.006164945286513325
978.0,0.00602293949738026
977.0,0.0058807953079700916
976.0,0.005738918703924584
975.0,0.005597657131067446
974.0,0.005461397792915103
973.0,0.0053340898137600075
972.0,0.005214205726253441
971.0,0.005099277402415114
970.0,0.004991969113941511
969.0,0.004896397165832459
968.0,0.0048114331043587685
967.0,0.004733162776746912
966.0,0.004662064625818783
965.0,0.004602951081446628
964.0,0.004559460867233318
963.0,0.004532675327337959
962.0,0.0045226097339115725
961.0,0.004525939829734789
960.0,0.004533781242268036
959.0,0.004536607463135807
958.0,0.00453058132748565
957.0,0.0045151430263054605
956.0,0.004486667203190638
955.0,0.004440521455461531
954.0,0.004378592719043187
953.0,0.004308705585703659
952.0,0.004236337315126862
951.0,0.004161969964483404
950.0,0.004086164351910674
949.0,0.004011400003937651
948.0,0.003938206927895675
947.0,0.0038647887103382267
946.0,0.0037920008390987005
945.0,0.003724448853631941
944.0,0.0036650929131005483
943.0,0.0036123249185484024
942.0,0.0035640167671245893
941.0,0.0035213980358856194
940.0,0.003486871354138832
939.0,0.0034600725253203235
938.0,0.0034379987725305858
937.0,0.0034175889063225405
936.0,0.0033963772146479564
935.0,0.0033713013691497856
934.0,0.0033384344710685257
933.0,0.003294636527822291
932.0,0.0032402169253752024
931.0,0.003180594922478252
930.0,0.003124162780510583
929.0,0.0030767332593823853
928.0,0.003038134422032452
927.0,0.0030046421389428313
926.0,0.002973519771724234
925.0,0.0029441888193988026
924.0,0.0029166114877176227
923.0,0.0028909784629140532
922.0,0.0028688221949050643
921.0,0.002852480371899146
920.0,0.002842612193471001
919.0,0.002836504865012567
918.0,0.002829057934722856
917.0,0.0028162624690177673
916.0,0.0027989833315315293
915.0,0.0027828829597701717
914.0,0.0027725893485772406
913.0,0.002766084943416479
912.0,0.002757508172484293
911.0,0.00274534512650906
910.0,0.0027338110357438255
909.0,0.00272519320092216
908.0,0.002715938711349959
907.0,0.0027031323879454314
906.0,0.00268980342865785
905.0,0.002679364611553969
904.0,0.0026690061637828985
903.0,0.00265426198161375
902.0,0.0026372574029625093
901.0,0.0026242042893537577
900.0,0.002616100077691263
899.0,0.002607813057664058
898.0,0.00259592983171642
897.0,0.0025820043759592955
896.0,0.002567720982225406
895.0,0.0025518670204154378
894.0,0.0025329546861158504
893.0,0.002510623419287837
892.0,0.002483754402013181
891.0,0.0024513555672618717
890.0,0.0024167333492884652
889.0,0.0023880221225926826
888.0,0.0023741941747041917
887.0,0.002383327473935961
886.0,0.002424534557622513
885.0,0.002507789167052644
884.0,0.002640424331189434
883.0,0.0028257000984747965
882.0,0.003064894518671143
881.0,0.0033568588655325683
880.0,0.0036919581150261904
879.0,0.004047277583083252
878.0,0.00439070622362364
877.0,0.004691029026430007
876.0,0.00492635990301513
875.0,0.005088424150260465
874.0,0.005180363488730634
873.0,0.005206884294110927
872.0,0.005169392386929683
871.0,0.00507783138448306
870.0,0.004962433255556294
869.0,0.004861069308379342
868.0,0.00479351703157139
867.0,0.00475466859461373
866.0,0.004730309421920714
865.0,0.0047108056788854845
864.0,0.004690399571229723
863.0,0.00466382529024011
862.0,0.004627995981240812
861.0,0.004581325196002128
860.0,0.00451967734086701
859.0,0.004439154468113672
858.0,0.004344382011259255
857.0,0.004247664517684458
856.0,0.0041581138342905635
855.0,0.004076833895788137
854.0,0.004003498594837417
853.0,0.003942046826841952
852.0,0.0038983914681859147
851.0,0.00387651993444494
850.0,0.003876514269267106
849.0,0.003891631126002236
848.0,0.003908308801619348
847.0,0.003915466720630607
846.0,0.0039142328182290645
845.0,0.003912720717751783
844.0,0.003912391025608046
843.0,0.003907619504869692
842.0,0.0038986223092891577
841.0,0.0038954140580358156
840.0,0.003906348192087995
839.0,0.003930382880986672
838.0,0.003963101174356819
837.0,0.004002749513749038
836.0,0.004046913710364091
835.0,0.00409029685092868
834.0,0.004130371437814157
833.0,0.004170081327303664
832.0,0.004211633052870152
831.0,0.004252868403317438
830.0,0.0042925651007165964
829.0,0.004333637756472622
828.0,0.004378394255991066
827.0,0.004426770150768235
826.0,0.004480999204298357
825.0,0.004543473101533583
824.0,0.004608463180440793
823.0,0.004667763596437273
822.0,0.004725854524524823
821.0,0.004794745689968039
820.0,0.004872752814171244
819.0,0.004943793095808046
818.0,0.004999879357167655
817.0,0.005051111837178162
816.0,0.005109724363183556
815.0,0.0051753591393484625
814.0,0.0052412957512390276
813.0,0.0053054919554990036
812.0,0.0053689133025028295
811.0,0.005430858047198209
810.0,0.005492235484940718
809.0,0.005556851899863942
808.0,0.005624305229035703
807.0,0.005688049878539797
806.0,0.005744558932322428
805.0,0.005797354392075727
804.0,0.005848854041012859
803.0,0.005896788856241035
802.0,0.005942397789150823
801.0,0.005992861246792349
800.0,0.006050477698739946
799.0,0.006107498415398739
798.0,0.0061564220383422685
797.0,0.006198003457798945
796.0,0.006235676062047557
795.0,0.006271089151791118
794.0,0.00630929156358731
793.0,0.006358631526487905
792.0,0.00642006037231253
791.0,0.00648454936231194
790.0,0.006545275095923845
789.0,0.0066042339340515
788.0,0.006663610257356817
787.0,0.006720487338437376
786.0,0.006774801464457213
785.0,0.006833132852195015
784.0,0.006899371525488498
783.0,0.006969566337257902
782.0,0.007039677570256472
781.0,0.007109867508998901
780.0,0.007178243566939087
779.0,0.007240431529194898
778.0,0.007298847893605624
777.0,0.00736200226588225
776.0,0.007431083563458101
775.0,0.007497784028066196
774.0,0.007558861396466242
773.0,0.007621849716478817
772.0,0.007692880017552528
771.0,0.007770538865797264
770.0,0.007855042862713376
769.0,0.007950617625690656
768.0,0.008054700526405511
767.0,0.008158636729082156
766.0,0.008264669920511652
765.0,0.008388021201743145
764.0,0.008535061973923716
763.0,0.008692302506228787
762.0,0.008843841993803874
761.0,0.008987476603277044
760.0,0.009127228517335786
759.0,0.009263488339323295
758.0,0.009397763721048481
757.0,0.00953328413627445
756.0,0.009662809495760226
755.0,0.009769321134047361
754.0,0.009847139799102563
753.0,0.009909068659568445
752.0,0.009965384407018683
751.0,0.010010985348946316
750.0,0.0100415143517162
749.0,0.010066541079983959
748.0,0.010096182614229083
747.0,0.010127841230593314
746.0,0.010157021330437006
745.0,0.010189415071859487
744.0,0.01023111691347348
743.0,0.010276246101561505
742.0,0.01031341500826366
741.0,0.010336410028508342
740.0,0.010342283125595896
739.0,0.010328991419072127
738.0,0.010301110380814455
737.0,0.010267629396312698
736.0,0.010229155105343148
735.0,0.010177330973842904
734.0,0.010109993693884309
733.0,0.010036047620713327
732.0,0.009963668717315813
731.0,0.00989689670966028
730.0,0.009845456392997661
729.0,0.009822148323088125
728.0,0.0098262346422105
727.0,0.009844118386763884
726.0,0.009870515815583916
725.0,0.009913112868796516
724.0,0.009973063861486827
723.0,0.01003965218850688
722.0,0.01010950910042499
721.0,0.010192532277344419
720.0,0.010291243746911483
719.0,0.01039280064179645
718.0,0.010490562150959226
717.0,0.01059385273491292
716.0,0.010706709373439292
715.0,0.010814782343906433
714.0,0.010902397112392322
713.0,0.010967567912570954
712.0,0.011013221747650279
711.0,0.011041250822875555
710.0,0.011062394459127819
709.0,0.011093173177983813
708.0,0.0111349763393849
707.0,0.011172619842836906
706.0,0.011200016080267074
705.0,0.011229008193533358
704.0,0.011266114634794513
703.0,0.011301177674444374
702.0,0.011327012028038597
701.0,0.011349838905118495
700.0,0.011372419679729254
699.0,0.011387000486728822
698.0,0.011392552520428707
697.0,0.01139836083037353
696.0,0.011403488566907337
695.0,0.011395144873875086
694.0,0.01137441054409331
693.0,0.011360501738199257
692.0,0.011362032322150797
691.0,0.011367008084895502
690.0,0.01136922705188383
689.0,0.011379060892746203
688.0,0.011397425418738494
687.0,0.011408230520432525
686.0,0.01140915586769669
685.0,0.011416726266232677
684.0,0.011430776723677868
683.0,0.011429810094316595
682.0,0.011410939265513235
681.0,0.01140107113475038
680.0,0.011415847645735687
679.0,0.011438167935452218
678.0,0.011450823705898425
677.0,0.01146261918306038
676.0,0.011482033902139387
675.0,0.011499930414844796
674.0,0.011511191482991973
673.0,0.011519346576060553
672.0,0.011511111916964738
671.0,0.011467047231090311
670.0,0.011401721501977689
669.0,0.011381739018647332
668.0,0.01145984974988095
667.0,0.011579783225646328
666.0,0.011640780700026717
665.0,0.011636677174968253
664.0,0.011618422150701396
663.0,0.011607460341717564
662.0,0.011600350721206572
661.0,0.011597835398198707
660.0,0.01159557527923799
659.0,0.011575101761177615
658.0,0.011534655414387092
657.0,0.011499344925374192
656.0,0.011475424444366233
655.0,0.011436508158146948
654.0,0.011376719808866877
653.0,0.011329085657653386
652.0,0.011309501340357925
651.0,0.011289243578930856
650.0,0.01124897168312989
649.0,0.011211269992348186
648.0,0.011188097958542899
647.0,0.01114616936854788
646.0,0.011060131198560065
645.0,0.010952711268533196
644.0,0.010849958232893548
643.0,0.010745085390318026
642.0,0.010634800777531893
641.0,0.010542186662223296
640.0,0.010471797640180653
639.0,0.010389017288313967
638.0,0.01027908623509148
637.0,0.01017821471807322
636.0,0.010107877509262321
635.0,0.010031224522509558
634.0,0.009917115444540454
633.0,0.009796741872633418
632.0,0.00971382313939239
631.0,0.00966502730896647
630.0,0.009620581521924382
629.0,0.009560526677106964
628.0,0.009462597995662961
627.0,0.00930021386138535
626.0,0.00908707521076206
625.0,0.008874714866513714
624.0,0.00867677078406157
623.0,0.008455760103446789
622.0,0.008207560918156026
621.0,0.007985028958752933
620.0,0.007815678347613486
619.0,0.007676743772831025
618.0,0.007572781480895671
617.0,0.007552781897841428
616.0,0.007615185843263098
615.0,0.007678803936520942
614.0,0.007691343005227114
613.0,0.0076884581142400155
612.0,0.007710852564611827
611.0,0.007750546448518185
610.0,0.007808022623891117
609.0,0.00791513664924285
608.0,0.008063344046012784
607.0,0.008186480424361032
606.0,0.008257038026117249
605.0,0.008316192570109782
604.0,0.008370180802883372
603.0,0.008365546144005285
602.0,0.008304136032769343
601.0,0.008270191658081828
600.0,0.008300448411479585
599.0,0.008321652880184823
598.0,0.00826152823154393
597.0,0.008135162097486236
596.0,0.007976164344766775
595.0,0.007784204555818193
594.0,0.007582773977771337
593.0,0.007429044341523819
592.0,0.007319778416405152
591.0,0.007172057593389961
590.0,0.006945859596660459
589.0,0.006693505670302486
588.0,0.0064537196586651815
587.0,0.006209329230389419
586.0,0.00596814455435981
585.0,0.005773678746108419
584.0,0.005601852254720992
583.0,0.0053537084469795805
582.0,0.005004131410003044
581.0,0.004649443646293792
580.0,0.004359338679233729
579.0,0.004102045394985501
578.0,0.0038474476394046546
577.0,0.003626230601403855
576.0,0.0034428660606536654
575.0,0.0032450761129535315
574.0,0.0030418142179312914
573.0,0.0029341672818757377
572.0,0.002975084349347507
571.0,0.003084694331460665
570.0,0.003142227180502515
569.0,0.0031165602948036684
568.0,0.0030368148382355405
567.0,0.0029147075796041155
566.0,0.0027765366294248035
565.0,0.002674486959927603
564.0,0.002618541776413026
563.0,0.0025741393181921424
562.0,0.0025483318187430135
561.0,0.002602710617985936
560.0,0.002742703193728418
559.0,0.0028625034089395356
558.0,0.0028647207150859586
557.0,0.00277276882696402
556.0,0.002656528747295427
555.0,0.002546471208536516
554.0,0.0024590480051290345
553.0,0.002401449448639433
552.0,0.002317425136339788
551.0,0.0021195137506347626
550.0,0.0018160783694570228
