cm-1,A
4000.0,-0.0012785395483788098
3999.0,-0.0012376172532770138
3998.0,-0.0011831596574897896
3997.0,-0.0011310975912742346
3996.0,-0.0011234303703771794
3995.0,-0.0011832523860073217
3994.0,-0.001280061636755172
3993.0,-0.0013522598155471782
3992.0,-0.0013632546072572336
3991.0,-0.0013278488156191152
3990.0,-0.0012839999315735042
3989.0,-0.001254290504356468
3988.0,-0.0012348755122988768
3987.0,-0.0012118291283094848
3986.0,-0.001181079703903922
3985.0,-0.001153359200660022
3984.0,-0.0011464719453805174
3983.0,-0.001166978017282069
3982.0,-0.0011990534909214765
3981.0,-0.001217968365748597
3980.0,-0.0012107392276400298
3979.0,-0.0011814590723294603
3978.0,-0.0011419049218320378
3977.0,-0.001104575154669495
3976.0,-0.001085834674324845
3975.0,-0.0011042731992222223
3974.0,-0.0011566626075295832
3973.0,-0.0012001297833433315
3972.0,-0.0011863023666128176
3971.0,-0.0011117310968423487
3970.0,-0.001023703123480932
3969.0,-0.0009686000165827864
3968.0,-0.0009510599624162177
3967.0,-0.0009500027793155792
3966.0,-0.000955725200631005
3965.0,-0.000975039256471368
3964.0,-0.0010052887046719155
3963.0,-0.0010243945019911818
3962.0,-0.0010102023561872212
3961.0,-0.0009654428813373837
3960.0,-0.0009204216019285741
3959.0,-0.0008988567989180107
3958.0,-0.0009018473827467014
3957.0,-0.0009100768417829065
3956.0,-0.0009101033320232108
3955.0,-0.000911176580591231
3954.0,-0.0009181290714188042
3953.0,-0.0009168104886557891
3952.0,-0.0008904633673632823
3951.0,-0.00084271087726952
3950.0,-0.00079343127193259
3949.0,-0.000755648484089393
3948.0,-0.0007248810849598934
3947.0,-0.0006831859775036989
3946.0,-0.000621743794154082
3945.0,-0.0005862515013938512
3944.0,-0.0006424638225874437
3943.0,-0.0007725931029304058
3942.0,-0.0008775376595550584
3941.0,-0.0008902507252662529
3940.0,-0.000856805610587966
3939.0,-0.0008711151749106758
3938.0,-0.0009624388310522309
3937.0,-0.00104875410994674
3936.0,-0.0010239756502447676
3935.0,-0.0008931681551656847
3934.0,-0.0007574759804263942
3933.0,-0.0006927884514870124
3932.0,-0.0006734195868427668
3931.0,-0.0006452006949614255
3930.0,-0.0006095982594444948
3929.0,-0.0005898714675256003
3928.0,-0.0005953111545136721
3927.0,-0.0006342051777784106
3926.0,-0.0007371637170058088
3925.0,-0.0008751878277850015
3924.0,-0.0009366033860096871
3923.0,-0.0008666422239211463
3922.0,-0.0007350947811524443
3921.0,-0.0006511814145121154
3920.0,-0.000627209535184671
3919.0,-0.000581295837352027
3918.0,-0.0005080425933630846
3917.0,-0.0004985558928313743
3916.0,-0.0005966197498980946
3915.0,-0.0007340625896317026
3914.0,-0.0008511066801959073
3913.0,-0.0009544455049497365
3912.0,-0.001055307578668483
3911.0,-0.0011014738428392866
3910.0,-0.0010530259592843195
3909.0,-0.0009104298598834144
3908.0,-0.000700802189342019
3907.0,-0.0004792550617564676
3906.0,-0.00034023441895151066
3905.0,-0.0003576480560023975
3904.0,-0.00044657311355260874
3903.0,-0.0004281190595585658
3902.0,-0.0002642171278591666
3901.0,-0.00012803249330338613
3900.0,-0.00020599500381701663
3899.0,-0.0004581101589699963
3898.0,-0.0006878982395552508
3897.0,-0.0007901925554377716
3896.0,-0.0008277829043835307
3895.0,-0.0008627799635837641
3894.0,-0.0008770252747422932
3893.0,-0.0008272936293124899
3892.0,-0.0007590483609684487
3891.0,-0.000761372237899881
3890.0,-0.0007963767343460984
3889.0,-0.0006793260431160976
3888.0,-0.00043600601580688625
3887.0,-0.00039435376674829166
3886.0,-0.0006662437659035163
3885.0,-0.0008939933445418248
3884.0,-0.0007639379590011182
3883.0,-0.00035470368512905033
3882.0,-3.661041443110691e-05
3881.0,-7.892062875993963e-05
3880.0,-0.00037157288596418453
3879.0,-0.0006431442940686505
3878.0,-0.0007237159782308138
3877.0,-0.0006387784025019671
3876.0,-0.0006100845538912674
3875.0,-0.000774366704214137
3874.0,-0.0009364541832747953
3873.0,-0.0008199237134145889
3872.0,-0.0004936097120741972
3871.0,-0.0003696700165732522
3870.0,-0.0006436376729886699
3869.0,-0.0009766805139383794
3868.0,-0.001018758490289655
3867.0,-0.0008568678472216521
3866.0,-0.0008847810133785772
3865.0,-0.0011498254036965945
3864.0,-0.001219365423477092
3863.0,-0.0009374778481359546
3862.0,-0.0006629949886854019
3861.0,-0.0006299522007967183
3860.0,-0.0007650493783214049
3859.0,-0.000904572339288234
3858.0,-0.0009618121950826205
3857.0,-0.0009191335770927477
3856.0,-0.0008553415352076732
3855.0,-0.0010167679558184877
3854.0,-0.0013622525217056435
3853.0,-0.001471152829700527
3852.0,-0.0013701661625955116
3851.0,-0.0012126887802948972
3850.0,-0.0010685972246526013
3849.0,-0.0010253509760296577
3848.0,-0.001041933226062569
3847.0,-0.0010103183053105933
3846.0,-0.0009295192463569741
3845.0,-0.0008407256440106422
3844.0,-0.0007613624136151489
3843.0,-0.0006896766830771159
3842.0,-0.0006111518451298167
3841.0,-0.0005329780132862878
3840.0,-0.00054526524733132
3839.0,-0.0006850693812938237
3838.0,-0.0008774691751384693
3837.0,-0.001020880880181355
3836.0,-0.0010462672786726778
3835.0,-0.0009357736112583261
3834.0,-0.0007636353105037836
3833.0,-0.0006694415955834174
3832.0,-0.0007271043175787759
3831.0,-0.000847543828450292
3830.0,-0.00089200243710056
3829.0,-0.0008227536995901877
3828.0,-0.000758260478463552
3827.0,-0.0008242937053340189
3826.0,-0.0009457773849369513
3825.0,-0.000885962763082236
3824.0,-0.0005742384299251557
3823.0,-0.0003036847558438695
3822.0,-0.0004059374957656771
3821.0,-0.0006892905217546893
3820.0,-0.000781167405129032
3819.0,-0.0006027671330314033
3818.0,-0.0003564054899158134
3817.0,-0.0004259986883467801
3816.0,-0.0008179545174523458
3815.0,-0.0010849748758820109
3814.0,-0.0010265262794653908
3813.0,-0.0008972079885031627
3812.0,-0.0009820525942643285
3811.0,-0.0012326260667237018
3810.0,-0.0013486973618083813
3809.0,-0.001230941165018931
3808.0,-0.0011364365188824416
3807.0,-0.0012430482723258677
3806.0,-0.0013498255910779798
3805.0,-0.0011572198020676121
3804.0,-0.000719492351782894
3803.0,-0.00048178427151195514
3802.0,-0.0006878485207496635
3801.0,-0.0009718985566865308
3800.0,-0.0009558953604070887
3799.0,-0.0006952919543968886
3798.0,-0.0004893539984792954
3797.0,-0.0005491955890264801
3796.0,-0.000742074558430875
3795.0,-0.0008284344857458874
3794.0,-0.0007888830588505414
3793.0,-0.0007683986393412631
3792.0,-0.0008227057133276747
3791.0,-0.0008455556460949558
3790.0,-0.0007469255141272675
3789.0,-0.0005890075771141411
3788.0,-0.0004936437982089861
3787.0,-0.000503135496786441
3786.0,-0.00058632995060848
3785.0,-0.000695963303040106
3784.0,-0.0007793478331134729
3783.0,-0.0007805226786652556
3782.0,-0.0007108825557850598
3781.0,-0.0006679795900323901
3780.0,-0.0007070663050333702
3779.0,-0.0007460407165429056
3778.0,-0.0007195868063372326
3777.0,-0.0006712360725901175
3776.0,-0.0007031331841916358
3775.0,-0.0008467500434015188
3774.0,-0.0009599387712227918
3773.0,-0.0008811065957767634
3772.0,-0.0006814950041132521
3771.0,-0.0005874572824768462
3770.0,-0.0006272714394091111
3769.0,-0.0006001170370044688
3768.0,-0.00043065420632145985
3767.0,-0.00029732951452414273
3766.0,-0.00039646045721244624
3765.0,-0.000654679599927736
3764.0,-0.0007985273130771279
3763.0,-0.0006944272948208579
3762.0,-0.0005219944881599912
3761.0,-0.0005099720054881534
3760.0,-0.0005824931021058324
3759.0,-0.0005115224229734535
3758.0,-0.0003513306499626119
3757.0,-0.00030280624830448296
3756.0,-0.00035498832186248164
3755.0,-0.00041485131736331785
3754.0,-0.0005321760599308455
3753.0,-0.0007902941967628512
3752.0,-0.0009909254525858387
3751.0,-0.0008951172055684485
3750.0,-0.0007863592434562139
3749.0,-0.0009293153586563789
3748.0,-0.0009940527927868844
3747.0,-0.0006710138958132645
3746.0,-0.0003116874317357285
3745.0,-0.0004590680557347189
3744.0,-0.0008669356883385798
3743.0,-0.0009323215451264629
3742.0,-0.000607832615253239
3741.0,-0.0002837592358482634
3740.0,-0.00023999196241997894
3739.0,-0.0003361905228183174
3738.0,-0.00036079755612614117
3737.0,-0.000379989216637666
3736.0,-0.0004246977232106267
3735.0,-0.0003471888855595094
3734.0,-0.00019724350467179887
3733.0,-0.0002582038778450122
3732.0,-0.0005971621973164757
3731.0,-0.0009287819630144946
3730.0,-0.000951694918645777
3729.0,-0.0006886531214568481
3728.0,-0.00044478589559536225
3727.0,-0.00043197124545749435
3726.0,-0.0005159324306948463
3725.0,-0.0005001343469987832
3724.0,-0.0004291753948206462
3723.0,-0.00043092336364541645
3722.0,-0.0004851951742771924
3721.0,-0.0004963794086329642
3720.0,-0.0004706232483696572
3719.0,-0.00048146217580980616
3718.0,-0.0005709426651064487
3717.0,-0.000659038435077532
3716.0,-0.0006098721941384432
3715.0,-0.00043268177925241593
3714.0,-0.000305299472067218
3713.0,-0.0003358542315782184
3712.0,-0.00037292225558347835
3711.0,-0.00026727859732379733
3710.0,-0.00013855606222694036
3709.0,-9.673035990038093e-05
3708.0,-0.00011720244980240567
3707.0,-0.00014415281361692366
3706.0,-0.0001248116235735893
3705.0,-4.617281224474426e-05
3704.0,4.0105422432448745e-05
3703.0,7.468587333894858e-05
3702.0,8.558068585531181e-05
3701.0,0.00014245147438009947
3700.0,0.00027471832770570304
3699.0,0.000459446331552954
3698.0,0.0006022646128444591
3697.0,0.0006137702774462375
3696.0,0.0005545853355016298
3695.0,0.0005493986692123101
3694.0,0.0005989136342031565
3693.0,0.0006390493150249515
3692.0,0.000696835132290477
3691.0,0.0008974205928221225
3690.0,0.0012375800807387337
3689.0,0.001491341068963344
3688.0,0.001498646812333448
3687.0,0.0014285910245074793
3686.0,0.0015097920681919844
3685.0,0.0017013753654104378
3684.0,0.0018380671911315347
3683.0,0.0018854358461905737
3682.0,0.0019159133273185368
3681.0,0.0019190908209980144
3680.0,0.0018753322489389983
3679.0,0.00191871443626959
3678.0,0.0021825530134637113
3677.0,0.002457863770365127
3676.0,0.0025021057388639138
3675.0,0.00246905706769583
3674.0,0.0025858920406587674
3673.0,0.0029558012351491355
3672.0,0.003347281046280152
3671.0,0.003388983504519754
3670.0,0.0032613197368521543
3669.0,0.0033809832170604414
3668.0,0.003688356290189404
3667.0,0.003966821839948375
3666.0,0.004133873858980022
3665.0,0.004212498394197595
3664.0,0.004275810730643719
3663.0,0.004359919757309523
3662.0,0.0044535212831299815
3661.0,0.004561062259738008
3660.0,0.004746738154094637
3659.0,0.005024141294917664
3658.0,0.005293803193564806
3657.0,0.005433317553232991
3656.0,0.005503155429239355
3655.0,0.005686993677803722
3654.0,0.006077929084562691
3653.0,0.0065601846973980405
3652.0,0.0068542972571820765
3651.0,0.006921152027982646
3650.0,0.007210530880398492
3649.0,0.007911008544125568
3648.0,0.008480575833094141
3647.0,0.008608926441945063
3646.0,0.008525775924966148
3645.0,0.008480896624722855
3644.0,0.00853390306834309
3643.0,0.008648656717253053
3642.0,0.008817880867860346
3641.0,0.009055188287660543
3640.0,0.00931561340180602
3639.0,0.009513745836116947
3638.0,0.009661123497680169
3637.0,0.009862332184706644
3636.0,0.010152780263970443
3635.0,0.01041427677877639
3634.0,0.010572650491158919
3633.0,0.010755812915095381
3632.0,0.011114819176323648
3631.0,0.011542854915709833
3630.0,0.011787478784208976
3629.0,0.011957222281315238
3628.0,0.012237874904390919
3627.0,0.01250980643007784
3626.0,0.012704886128791757
3625.0,0.012803911231927492
3624.0,0.012847543722443077
3623.0,0.01298604870843487
3622.0,0.013292849425064649
3621.0,0.013673148468542572
3620.0,0.014033093374144621
3619.0,0.014384619226656629
3618.0,0.014701615346751004
3617.0,0.014944251531513821
3616.0,0.015135112559387758
3615.0,0.015281283088044318
3614.0,0.01540498064637041
3613.0,0.015595790728827795
3612.0,0.015906168379483394
3611.0,0.016270138778160703
3610.0,0.01656068847118995
3609.0,0.016713133068123158
3608.0,0.016791750722406466
3607.0,0.016871092407622072
3606.0,0.016943049145200915
3605.0,0.016981398487458037
3604.0,0.016999762592641198
3603.0,0.017056976859460338
3602.0,0.01723771192581745
3601.0,0.017576070455406587
3600.0,0.01802612637898175
3599.0,0.018468102147789257
3598.0,0.018787278733087814
3597.0,0.018959968096297904
3596.0,0.019076453643701075
3595.0,0.019244267771908036
3594.0,0.01949831945626834
3593.0,0.01979478064417842
3592.0,0.020082302929109657
3591.0,0.02034512812766737
3590.0,0.020561918778704884
3589.0,0.02074995597496395
3588.0,0.021041282742093347
3587.0,0.021468110830945093
3586.0,0.02182488322057696
3585.0,0.021987397038014944
3584.0,0.022034364042416828
3583.0,0.02207505195752648
3582.0,0.022177146555732198
3581.0,0.022355892612986285
3580.0,0.02259791236360418
3579.0,0.022885039111556607
3578.0,0.023195925550575043
3577.0,0.02350286360148797
3576.0,0.02378488433798645
3575.0,0.024051146028396534
3574.0,0.024327946178777603
3573.0,0.024628317107110193
3572.0,0.024940593097025225
3571.0,0.025266049524581558
3570.0,0.025625488465190263
3569.0,0.026043857868809882
3568.0,0.02658030702565782
3567.0,0.027227307155297843
3566.0,0.02777417769200874
3565.0,0.02805032246082973
3564.0,0.02813610305310342
3563.0,0.028198724440069163
3562.0,0.028345302758811572
3561.0,0.028595700399534234
3560.0,0.028881346152416068
3559.0,0.02911896324122948
3558.0,0.029299118835235026
3557.0,0.029473986057041664
3556.0,0.029679147431044092
3555.0,0.02991160999398454
3554.0,0.030166139330483344
3553.0,0.030454634749668127
3552.0,0.03075632913372755
3551.0,0.031010156863264735
3550.0,0.03120356015143326
3549.0,0.03141282462917367
3548.0,0.03173967303561835
3547.0,0.03221407682367839
3546.0,0.03272891366103975
3545.0,0.033112353229343895
3544.0,0.03329142879134074
3543.0,0.033333967945503744
3542.0,0.033352014987667135
3541.0,0.033435810429460616
3540.0,0.03363785503605038
3539.0,0.033953826114543104
3538.0,0.03431878481770397
3537.0,0.03464461524742004
3536.0,0.03488572294375365
3535.0,0.03505618416068324
3534.0,0.035203415103547166
3533.0,0.035367929534749556
3532.0,0.03556487679924093
3531.0,0.03578478596561946
3530.0,0.036010339339912614
3529.0,0.036241142865807645
3528.0,0.036493458945514944
3527.0,0.03677054265984457
3526.0,0.03704555878185776
3525.0,0.03730016746588967
3524.0,0.037560721853358084
3523.0,0.03786133237373175
3522.0,0.03818449186727463
3521.0,0.03847762048826592
3520.0,0.03871351680961508
3519.0,0.03890071556600356
3518.0,0.03905469837381551
3517.0,0.03918193413592706
3516.0,0.039295375876905445
3515.0,0.03942499884881044
3514.0,0.039613451426642174
3513.0,0.0398922495990708
3512.0,0.04025527698602603
3511.0,0.04065306812909288
3510.0,0.04101317079496105
3509.0,0.04127588742514165
3508.0,0.04143359083586987
3507.0,0.04154080387893093
3506.0,0.04167850903394557
3505.0,0.041914943544373744
3504.0,0.042279965148982475
3503.0,0.04272387572711709
3502.0,0.04312276568930721
3501.0,0.0433871072691691
3500.0,0.04354059709071062
3499.0,0.043678090852667606
3498.0,0.04387932910026696
3497.0,0.04416033253116716
3496.0,0.04448501440216956
3495.0,0.044805388088908125
3494.0,0.04509529693030952
3493.0,0.045359982968011185
3492.0,0.04561583085732667
3491.0,0.045869116776959755
3490.0,0.0461232379685524
3489.0,0.046394772796210355
3488.0,0.04670346876623281
3487.0,0.04703929254608404
3486.0,0.047355022982642075
3485.0,0.047608318840751625
3484.0,0.04780638238502455
3483.0,0.0479989538116044
3482.0,0.048233467275216844
3481.0,0.048523519701640525
3480.0,0.048853859720908575
3479.0,0.04919999488878646
3478.0,0.04954015722399842
3477.0,0.04986667859778938
3476.0,0.05019464297087136
3475.0,0.05054352105424214
3474.0,0.05090064754288781
3473.0,0.05122445415176523
3472.0,0.0514880694452407
3471.0,0.0517008204442189
3470.0,0.051890085214622746
3469.0,0.052083226186948314
3468.0,0.05231368474395711
3467.0,0.05262272896151802
3466.0,0.053023556896181136
3465.0,0.05346648723720862
3464.0,0.05386953365396363
3463.0,0.05419420514368572
3462.0,0.054477954232230945
3461.0,0.05478276355150109
3460.0,0.05512881433300984
3459.0,0.05549054423044685
3458.0,0.055842839933882935
3457.0,0.05618606510397444
3456.0,0.05653117252503485
3455.0,0.056882739746132296
3454.0,0.05724001254002613
3453.0,0.05759408378442095
3452.0,0.05792840644170549
3451.0,0.058238116267798054
3450.0,0.058552742479170514
3449.0,0.05892951176344999
3448.0,0.05940415728519263
3447.0,0.059932886767657734
3446.0,0.060403263378781144
3445.0,0.060737158502494976
3444.0,0.06096393562915911
3443.0,0.06118231689756114
3442.0,0.061463467591237664
3441.0,0.061784532922800575
3440.0,0.0620626564502499
3439.0,0.06225149667493768
3438.0,0.062394732620281085
3437.0,0.06259447583070181
3436.0,0.06293391538957789
3435.0,0.06341393745211311
3434.0,0.06394907007749043
3433.0,0.06442328330950635
3432.0,0.06477280289677818
3431.0,0.06502687902513499
3430.0,0.06526210044884213
3429.0,0.06552345516148417
3428.0,0.06580089518967061
3427.0,0.06606890560016375
3426.0,0.06631398712909828
3425.0,0.06652625586319154
3424.0,0.06669673366177747
3423.0,0.06683713867562707
3422.0,0.06698515167262216
3421.0,0.0671679819335703
3420.0,0.06736444175261223
3419.0,0.06751828531584951
3418.0,0.06758663636512596
3417.0,0.06757033265413534
3416.0,0.06751378845249191
3415.0,0.06748683920598356
3414.0,0.06754808910201414
3413.0,0.06770034281192182
3412.0,0.06788254501786736
3411.0,0.06802430635736549
3410.0,0.06811274612187593
3409.0,0.06819640294686052
3408.0,0.06832022721680842
3407.0,0.06846802709198417
3406.0,0.06857574033147947
3405.0,0.06859330263841301
3404.0,0.06852963011010271
3403.0,0.06844670147715384
3402.0,0.06841810148369622
3401.0,0.06848223449624143
3400.0,0.06862085992142004
3399.0,0.06878036498808675
3398.0,0.06892123048918787
3397.0,0.0690422334967757
3396.0,0.06914887617596577
3395.0,0.06922114197029866
3394.0,0.06924282208654024
3393.0,0.0692528816909659
3392.0,0.06932326277883567
3391.0,0.06947256059970766
3390.0,0.06963637912157619
3389.0,0.06973975602486654
3388.0,0.0697733016037972
3387.0,0.06977938761716203
3386.0,0.06978513285424133
3385.0,0.06977799276187442
3384.0,0.06974003184608557
3383.0,0.06967581824577722
3382.0,0.06960311508412967
3381.0,0.06953420735003979
3380.0,0.06947120308171875
3379.0,0.06940851031439951
3378.0,0.06933826849770319
3377.0,0.06926162734540463
3376.0,0.06919433640249055
3375.0,0.06915659585505737
3374.0,0.06915285287866725
3373.0,0.06915770748192158
3372.0,0.06912003002359446
3371.0,0.06899375311321829
3370.0,0.06878333538203303
3369.0,0.06855745760829754
3368.0,0.06839757658180812
3367.0,0.0683279531024685
3366.0,0.06830991890950419
3365.0,0.0682998881861201
3364.0,0.06828485253938976
3363.0,0.06825630299592104
3362.0,0.06818781114710722
3361.0,0.06806856916167109
3360.0,0.06793818212141453
3359.0,0.06784959450192653
3358.0,0.06779928202205225
3357.0,0.06772266788309754
3356.0,0.06756242367213863
3355.0,0.0673248067085167
3354.0,0.06706893588254155
3353.0,0.06685920013476614
3352.0,0.0667281410481611
3351.0,0.06666336381467225
3350.0,0.06661958404609354
3349.0,0.0665541119274806
3348.0,0.06646055315633274
3347.0,0.0663657774429713
3346.0,0.06629514608147931
3345.0,0.06624589261918909
3344.0,0.06619018846543522
3343.0,0.06609353883112211
3342.0,0.06593499946058283
3341.0,0.06572445998751181
3340.0,0.06550263617722457
3339.0,0.06531433612506901
3338.0,0.0651756291919381
3337.0,0.06506779555515622
3336.0,0.06495976495702212
3335.0,0.0648310511365929
3334.0,0.0646769533133274
3333.0,0.06450173561522585
3332.0,0.06430883723483599
3331.0,0.06409345543709001
3330.0,0.0638471868898832
3329.0,0.06357489390978108
3328.0,0.0633019478017703
3327.0,0.0630565817962895
3326.0,0.0628499446580484
3325.0,0.06268212380909799
3324.0,0.06255821945254766
3323.0,0.062479510499332744
3322.0,0.06242229716336771
3321.0,0.062343854375411664
3320.0,0.06221355866200076
3319.0,0.06203083869720065
3318.0,0.06181629368825363
3317.0,0.06159796163945394
3316.0,0.06140290144917944
3315.0,0.06124365605237564
3314.0,0.061106015454058915
3313.0,0.060958020506598945
3312.0,0.06077358848950244
3311.0,0.060544264813944745
3310.0,0.060277809542140515
3309.0,0.060003224646161576
3308.0,0.05977099849543517
3307.0,0.0596202659133524
3306.0,0.059536696764382724
3305.0,0.059460418885263294
3304.0,0.05934381046923727
3303.0,0.05918884412774153
3302.0,0.059023560847467765
3301.0,0.058861531003272016
3300.0,0.058699420646464315
3299.0,0.05853823520694465
3298.0,0.058384783938176865
3297.0,0.05823547239307192
3296.0,0.0580755081280611
3295.0,0.05789515313088857
3294.0,0.057697805388484624
3293.0,0.05749447742219242
3292.0,0.05729926279960078
3291.0,0.05712968230278055
3290.0,0.05699997906458399
3289.0,0.056907191041366975
3288.0,0.05682672661183654
3287.0,0.056725715036872
3286.0,0.05658473986646994
3285.0,0.05641314082438918
3284.0,0.05624368011521001
3283.0,0.05610498002578673
3282.0,0.05599621741398079
3281.0,0.055891495894603196
3280.0,0.055764647996329055
3279.0,0.05560395737113384
3278.0,0.05541226432124998
3277.0,0.05521178885148774
3276.0,0.05504865178060707
3275.0,0.05496396002037552
3274.0,0.05494155403323948
3273.0,0.054902400690605216
3272.0,0.054774746679685064
3271.0,0.05456334104244939
3270.0,0.05433381239790198
3269.0,0.054141468395946975
3268.0,0.053999137967260004
3267.0,0.05390423361369092
3266.0,0.053858258118826635
3265.0,0.053845595790280684
3264.0,0.053819334442963565
3263.0,0.053734774467011276
3262.0,0.053592655654512836
3261.0,0.05343334353619843
3260.0,0.05329188016150538
3259.0,0.05317628972453083
3258.0,0.053085981005109695
3257.0,0.05302670262376126
3256.0,0.05299841693345505
3255.0,0.05298068102587136
3254.0,0.05294148335592109
3253.0,0.05285971528324978
3252.0,0.05273781263903094
3251.0,0.05259755518310199
3250.0,0.052467246946916166
3249.0,0.05236587474403671
3248.0,0.052293077877319835
3247.0,0.052236374886951244
3246.0,0.05218563944465677
3245.0,0.05213215665821974
3244.0,0.05205437147064011
3243.0,0.051922693308481975
3242.0,0.051731437621707343
3241.0,0.0515152313280585
3240.0,0.05131641177169895
3239.0,0.05113626213775185
3238.0,0.05093080893321551
3237.0,0.05066057020562729
3236.0,0.050341128736601584
3235.0,0.05004066550467301
3234.0,0.04982432703199098
3233.0,0.049696144357638264
3232.0,0.04959421931981088
3231.0,0.04944748652937472
3230.0,0.04923950909991602
3229.0,0.04900950366388058
3228.0,0.04879282439645491
3227.0,0.048580437681273
3226.0,0.04834626384654973
3225.0,0.04809572234578072
3224.0,0.04786404350147517
3223.0,0.047671817566296314
3222.0,0.04750419025263206
3221.0,0.04733306896022839
3220.0,0.04713855273135776
3219.0,0.04690874002376933
3218.0,0.04664336809849003
3217.0,0.046366065266358995
3216.0,0.046113292159413115
3215.0,0.04589889845298915
3214.0,0.04570033521761585
3213.0,0.04549050033253414
3212.0,0.04527324659059463
3211.0,0.04507307414186761
3210.0,0.04489866710955657
3209.0,0.04473432281936968
3208.0,0.04456611301137028
3207.0,0.04439878588053277
3206.0,0.04423778431509133
3205.0,0.04406661056623071
3204.0,0.043856661882136105
3203.0,0.04359930810043089
3202.0,0.04331745449195735
3201.0,0.04304087696819598
3200.0,0.04277914483301103
3199.0,0.04252871609143673
3198.0,0.042298127681102346
3197.0,0.0421040212531381
3196.0,0.04193617077087873
3195.0,0.04174740395598619
3194.0,0.041497660842618175
3193.0,0.041201234932721265
3192.0,0.04091421588703705
3191.0,0.04067385212657729
3190.0,0.0404631572940591
3189.0,0.0402395717131715
3188.0,0.039984776614719234
3187.0,0.0397158763118042
3186.0,0.039456380955034745
3185.0,0.03921123643964071
3184.0,0.03897356447135372
3183.0,0.03874683947693496
3182.0,0.038544757087865034
3181.0,0.038364734737852825
3180.0,0.03817755674500319
3179.0,0.03795967801939388
3178.0,0.0377291302774022
3177.0,0.037525855846142694
3176.0,0.03735391650980905
3175.0,0.03716912205276436
3174.0,0.036936529118054444
3173.0,0.03667919273007435
3172.0,0.03645013351669861
3171.0,0.03626870352972102
3170.0,0.03610743734980712
3169.0,0.03593316568834261
3168.0,0.03573407115805323
3167.0,0.03550735306671601
3166.0,0.03524978038262047
3165.0,0.034971518101172834
3164.0,0.0346995560866348
3163.0,0.03445599183056198
3162.0,0.034242736977716605
3161.0,0.034052965747003686
3160.0,0.03388340707472508
3159.0,0.033723890240653205
3158.0,0.03354708609228401
3157.0,0.03332670375494483
3156.0,0.03306607086338014
3155.0,0.032797254799378374
3154.0,0.03255146198594423
3153.0,0.03233913381141489
3152.0,0.032156804278163684
3151.0,0.03199854385906135
3150.0,0.03185219182515747
3149.0,0.031693930503680336
3148.0,0.03150354055581197
3147.0,0.0312891761350879
3146.0,0.03108521037353002
3145.0,0.030914364695280777
3144.0,0.0307561907290846
3143.0,0.030567093215230663
3142.0,0.030334523200610947
3141.0,0.030100626293302866
3140.0,0.029925590962631095
3139.0,0.02983204375292347
3138.0,0.029790244907059983
3137.0,0.02974841045389883
3136.0,0.02966626686731555
3135.0,0.029528825006723006
3134.0,0.029347549801452925
3133.0,0.02915131895330523
3132.0,0.028965171554792155
3131.0,0.02879528535228422
3130.0,0.028638173195908175
3129.0,0.028496799158665993
3128.0,0.028375562835091364
3127.0,0.02826139546772883
3126.0,0.028123900956393423
3125.0,0.027941127461111596
3124.0,0.027721244702153133
3123.0,0.027495565110020735
3122.0,0.02729041995037209
3121.0,0.027108293022963727
3120.0,0.026934616998342077
3119.0,0.026759618305325826
3118.0,0.026595427963729764
3117.0,0.0264699623013274
3116.0,0.026398973483821694
3115.0,0.026365268931945008
3114.0,0.02632922852635969
3113.0,0.026259642574548533
3112.0,0.02615266291324511
3111.0,0.026025988899855995
3110.0,0.025904176385851335
3109.0,0.02580916447849173
3108.0,0.02575349599439596
3107.0,0.025730485528607246
3106.0,0.025707119785149977
3105.0,0.0256350099500399
3104.0,0.0254833690415976
3103.0,0.02526619341250292
3102.0,0.025031356180277464
3101.0,0.02482148087224314
3100.0,0.024643969956387114
3099.0,0.024476570341228725
3098.0,0.02429725505718067
3097.0,0.02410429249033051
3096.0,0.023913102013013377
3095.0,0.023740916912972847
3094.0,0.023594960106352425
3093.0,0.023471822743035105
3092.0,0.023364659035989496
3091.0,0.02326987805871413
3090.0,0.023186888639598648
3089.0,0.02311233047342028
3088.0,0.02303926092796056
3087.0,0.0229656845105433
3086.0,0.022900517007435044
3085.0,0.022853102271292648
3084.0,0.02281599015831781
3083.0,0.022764986325544096
3082.0,0.022679160995159285
3081.0,0.02255871785464416
3080.0,0.02242165733888567
3079.0,0.022288021614508043
3078.0,0.0221706228654779
3077.0,0.022072313812276066
3076.0,0.021983135180183678
3075.0,0.021882989247252224
3074.0,0.021756460185568455
3073.0,0.021608705708324297
3072.0,0.021465528470138637
3071.0,0.02135580057736613
3070.0,0.021290288470669074
3069.0,0.021251518093094272
3068.0,0.02119957601677273
3067.0,0.021094469681911737
3066.0,0.020926667310260876
3065.0,0.020731173054642726
3064.0,0.020565127612165387
3063.0,0.02046208359574147
3062.0,0.02040579409924393
3061.0,0.02035055127735601
3060.0,0.020264229559507504
3059.0,0.020152422960364253
3058.0,0.020046129615062303
3057.0,0.019969726036080864
3056.0,0.01991816206848195
3055.0,0.01985501154479376
3054.0,0.019730025470654184
3053.0,0.01950750832101419
3052.0,0.019192804358051922
3051.0,0.01883551394238924
3050.0,0.018497084776136388
3049.0,0.018206004927789333
3048.0,0.017942130039610673
3047.0,0.017668389243557747
3046.0,0.017371658684038754
3045.0,0.017068276296191013
3044.0,0.016781454344575054
3043.0,0.01652654125850429
3042.0,0.016317481826473607
3041.0,0.01616673101579674
3040.0,0.016066710023227487
3039.0,0.015982516480803514
3038.0,0.015877820540471557
3037.0,0.015747215436007482
3036.0,0.015613837277436905
3035.0,0.015499176768929868
3034.0,0.01540654445799729
3033.0,0.015334867069467496
3032.0,0.01529308669704682
3031.0,0.015291743656219475
3030.0,0.015324467552801615
3029.0,0.015363434216588433
3028.0,0.015374398122817538
3027.0,0.015338241276922078
3026.0,0.015265898757660826
3025.0,0.015194002883342567
3024.0,0.01516012080851514
3023.0,0.015178004096242967
3022.0,0.015234704887531973
3021.0,0.01530755588948696
3020.0,0.01538099842673752
3019.0,0.015449432359924721
3018.0,0.015513299978939306
3017.0,0.015580333613622207
3016.0,0.01566842690860594
3015.0,0.015797833083662102
3014.0,0.015973403513824144
3013.0,0.016174053741957944
3012.0,0.016364521695267708
3011.0,0.016521521436796176
3010.0,0.01664677340110485
3009.0,0.016753134000406286
3008.0,0.016841897021157765
3007.0,0.016902638190258733
3006.0,0.016936015744217953
3005.0,0.01696809863810867
3004.0,0.017032514236129333
3003.0,0.017137040116808774
3002.0,0.017254262763287825
3001.0,0.01734656533249563
3000.0,0.01739983843866319
2999.0,0.01743082334546235
2998.0,0.01746564638530394
2997.0,0.017514950581189976
2996.0,0.01757021897815714
2995.0,0.01762300739736079
2994.0,0.017680764205039542
2993.0,0.017759971843047645
2992.0,0.017868796284568358
2991.0,0.018006141466224708
2990.0,0.01817615798925971
2989.0,0.018388444485729214
2988.0,0.018636329535333316
2987.0,0.01888878918802211
2986.0,0.019120257381085064
2985.0,0.019344093621393818
2984.0,0.019598355207958905
2983.0,0.01989894720674598
2982.0,0.0202230873090013
2981.0,0.02054331086268033
2980.0,0.0208604192426272
2979.0,0.02118852080808745
2978.0,0.021520382828258928
2977.0,0.021827376675511108
2976.0,0.02209187495811622
2975.0,0.022321455395197455
2974.0,0.02252571280721082
2973.0,0.02269416356893524
2972.0,0.022808493572513206
2971.0,0.02287052274614767
2970.0,0.022903941478108335
2969.0,0.02292523175079736
2968.0,0.022918948087582634
2967.0,0.02284878752044891
2966.0,0.022694331727671102
2965.0,0.022472392485499103
2964.0,0.02222187480037574
2963.0,0.02197013040029631
2962.0,0.021716892742798706
2961.0,0.0214443013466897
2960.0,0.021135921809101208
2959.0,0.02078642834018871
2958.0,0.0204006624318341
2957.0,0.019987288354723753
2956.0,0.01955004611422401
2955.0,0.019085855905954463
2954.0,0.018596148821066496
2953.0,0.018099875035881383
2952.0,0.01762624061313157
2951.0,0.017188336559241634
2950.0,0.01676781193622804
2949.0,0.01633377717456216
2948.0,0.015878263039807317
2947.0,0.015428480100555881
2946.0,0.015022596310614658
2945.0,0.014678630661993479
2944.0,0.01438940253636907
2943.0,0.014141694578390287
2942.0,0.013929007142757775
2941.0,0.013744317627814282
2940.0,0.013570778093698777
2939.0,0.013390862854056072
2938.0,0.013205727560982348
2937.0,0.013039081957777213
2936.0,0.012920364176308267
2935.0,0.012862304865712281
2934.0,0.012851280496833158
2933.0,0.012855153287229883
2932.0,0.012845328738374347
2931.0,0.012818841806566957
2930.0,0.012800416454730883
2929.0,0.012819728870348126
2928.0,0.012886421160044379
2927.0,0.012987950133055263
2926.0,0.013105228836550749
2925.0,0.013224570862185633
2924.0,0.013339186190208376
2923.0,0.01344846889925132
2922.0,0.013554374911024195
2921.0,0.013651804711297417
2920.0,0.013725439221543411
2919.0,0.013766227476092172
2918.0,0.013790742185085844
2917.0,0.013835101565985795
2916.0,0.013926212786218799
2915.0,0.014061147863005594
2914.0,0.014212051687903925
2913.0,0.014342349777939845
2912.0,0.014422491095152395
2911.0,0.01444375948492771
2910.0,0.01442006749411636
2909.0,0.01436955950715
2908.0,0.014288402902187788
2907.0,0.014149209925588942
2906.0,0.013929764855760713
2905.0,0.01363702460692507
2904.0,0.013300719712663278
2903.0,0.01295283219747002
2902.0,0.012617673402230366
2901.0,0.012310159193811121
2900.0,0.012033591973479706
2899.0,0.011780759117044166
2898.0,0.011548275413473148
2897.0,0.011345764846598758
2896.0,0.011184838672354053
2895.0,0.011062296599744987
2894.0,0.010961917289158464
2893.0,0.010869317641667054
2892.0,0.01077770980532763
2891.0,0.010682883927445829
2890.0,0.01058159025612887
2889.0,0.010476630217999513
2888.0,0.010375994752039612
2887.0,0.01028430985060713
2886.0,0.010198590627414812
2885.0,0.010110982052839982
2884.0,0.010012262973439682
2883.0,0.009894952921710677
2882.0,0.009761189238094048
2881.0,0.009627543673840045
2880.0,0.009514534542669761
2879.0,0.009427184570479533
2878.0,0.00935010326098914
2877.0,0.009264685546596903
2876.0,0.00916656017508732
2875.0,0.009065419184374028
2874.0,0.008973065846134422
2873.0,0.008897818662244142
2872.0,0.008844259217661559
2871.0,0.008808253590354476
2870.0,0.008771937225644027
2869.0,0.008714474690915807
2868.0,0.008633914686800498
2867.0,0.00855247065438449
2866.0,0.008491833062851438
2865.0,0.008445407458670545
2864.0,0.008388434587483737
2863.0,0.008315110758373568
2862.0,0.008255535141831112
2861.0,0.008248181675884423
2860.0,0.00829981250633733
2859.0,0.00838131418563781
2858.0,0.008454837970030875
2857.0,0.00849978575432549
2856.0,0.008516173136287629
2855.0,0.008512236724377549
2854.0,0.00849112967442289
2853.0,0.00844275518515302
2852.0,0.008350499424927901
2851.0,0.008209027075997386
2850.0,0.008032760107688391
2849.0,0.007843972556277033
2848.0,0.0076525918946372
2847.0,0.007453267281740238
2846.0,0.007239696539115787
2845.0,0.007016927580929552
2844.0,0.006802057414259979
2843.0,0.006613232341225649
2842.0,0.006453923621497397
2841.0,0.006306100444297788
2840.0,0.006148046722951127
2839.0,0.005987609487388568
2838.0,0.005865063864518738
2837.0,0.005809156642749549
2836.0,0.005798485570604984
2835.0,0.005780368078572927
2834.0,0.005727533532070613
2833.0,0.005656748418637161
2832.0,0.005592024490192452
2831.0,0.005534707220441113
2830.0,0.0054749449434800725
2829.0,0.005414868986712883
2828.0,0.005366081189796687
2827.0,0.005332868907901765
2826.0,0.005311325060352404
2825.0,0.0052984895198271605
2824.0,0.005290046605029155
2823.0,0.005274030075746521
2822.0,0.005238643795594657
2821.0,0.005187092419899677
2820.0,0.005138438349509578
2819.0,0.005111466284561689
2818.0,0.005111267429397503
2817.0,0.005127293511689784
2816.0,0.005140995589928712
2815.0,0.005140647951438487
2814.0,0.00513073788009482
2813.0,0.005123936205095962
2812.0,0.0051219987413443566
2811.0,0.005110430416437819
2810.0,0.005078002021110627
2809.0,0.005034879705044883
2808.0,0.005002144899849724
2807.0,0.004987312381763552
2806.0,0.004978981400214405
2805.0,0.004962910511414904
2804.0,0.004933916022205394
2803.0,0.004891034106451038
2802.0,0.004830718246214666
2801.0,0.004752968414113016
2800.0,0.004671242513447421
2799.0,0.004609548896333001
2798.0,0.004585604600277339
2797.0,0.004594630830644501
2796.0,0.004611455233696497
2795.0,0.004610572440677979
2794.0,0.004586296540230525
2793.0,0.004552556830564113
2792.0,0.004522751197326045
2791.0,0.0044950609091719855
2790.0,0.004459117567760027
2789.0,0.004412692080953572
2788.0,0.004366718061253932
2787.0,0.004334355637917962
2786.0,0.004319030511821507
2785.0,0.004312854914137619
2784.0,0.004304311264968975
2783.0,0.004286815244139617
2782.0,0.00426183818477066
2781.0,0.004235318063526508
2780.0,0.004209811728138535
2779.0,0.004179337808764407
2778.0,0.004133353160260075
2777.0,0.004068838277915756
2776.0,0.0039984423934122555
2775.0,0.003943412981739501
2774.0,0.003915798111938421
2773.0,0.003907757145887476
2772.0,0.0039024089690791715
2771.0,0.0038947823178205956
2770.0,0.0038952254590236693
2769.0,0.003911149988965819
2768.0,0.003933455207692913
2767.0,0.0039457816743455835
2766.0,0.0039416279909608104
2765.0,0.003925659749059769
2764.0,0.003902944539037275
2763.0,0.0038755079442886146
2762.0,0.003846846493182789
2761.0,0.003820927186142491
2760.0,0.003796500961446683
2759.0,0.0037706868987545617
2758.0,0.0037493528257933366
2757.0,0.003745067524377783
2756.0,0.0037612838282196333
2755.0,0.0037850242084589876
2754.0,0.0037994956616566634
2753.0,0.0037994502099939174
2752.0,0.0037899143146662784
2751.0,0.003773945806697436
2750.0,0.0037482085323514713
2749.0,0.0037108767364474275
2748.0,0.0036705990115248367
2747.0,0.0036439998798652815
2746.0,0.003640326184276509
2745.0,0.0036484019273307364
2744.0,0.003643734867996477
2743.0,0.003613536630991377
2742.0,0.0035735053833437424
2741.0,0.0035544793668871805
2740.0,0.0035716268509653924
2739.0,0.0036104896063583044
2738.0,0.003641082427527755
2737.0,0.0036416976899839738
2736.0,0.003610518125519148
2735.0,0.003562515910970325
2734.0,0.003517835374623828
2733.0,0.003487814821954595
2732.0,0.0034695468470264043
2731.0,0.00345444569848538
2730.0,0.0034392277678263247
2729.0,0.0034245231818094326
2728.0,0.00340703208736314
2727.0,0.0033826215012620515
2726.0,0.0033572151551046273
2725.0,0.0033453146865454917
2724.0,0.003353208679630509
2723.0,0.0033690005609642894
2722.0,0.003374472764002133
2721.0,0.0033628072728582644
2720.0,0.0033409459508270565
2719.0,0.003318254696049173
2718.0,0.0032984878252633716
2717.0,0.0032825860417141847
2716.0,0.003273500137276732
2715.0,0.0032740218737146234
2714.0,0.003280994322861567
2713.0,0.0032858074557815453
2712.0,0.003284230002270164
2711.0,0.003283917511409498
2710.0,0.003296692559058384
2709.0,0.0033223141556939255
2708.0,0.0033445877044091287
2707.0,0.0033471737120571816
2706.0,0.0033289302186062146
2705.0,0.0033014922169175686
2704.0,0.0032762819987287636
2703.0,0.0032571321612244967
2702.0,0.0032410348010511025
2701.0,0.003221383249293235
2700.0,0.003194838765594449
2699.0,0.0031696308986574008
2698.0,0.0031620001638830147
2697.0,0.0031776444660833025
2696.0,0.003201076347009356
2695.0,0.003209754727312942
2694.0,0.0031962258096216055
2693.0,0.0031704647491869005
2692.0,0.0031463278757807665
2691.0,0.0031337333777432643
2690.0,0.0031382267652035585
2689.0,0.0031567073826941974
2688.0,0.003174486106990706
2687.0,0.003177194326317423
2686.0,0.003165860938206369
2685.0,0.0031529812649747843
2684.0,0.0031455386361099067
2683.0,0.003140476889607043
2682.0,0.003134608820630146
2681.0,0.003128347312265421
2680.0,0.003120501519416464
2679.0,0.003111279749477105
2678.0,0.003111602943654388
2677.0,0.003136949778351025
2676.0,0.003186538875921462
2675.0,0.0032364729388414436
2674.0,0.0032586980237025867
2673.0,0.0032429279937291238
2672.0,0.0032001363231162787
2671.0,0.0031534217661589115
2670.0,0.0031279153838183913
2669.0,0.0031407372255458756
2668.0,0.003192947609261189
2667.0,0.0032737307275069764
2666.0,0.0033727517031487625
2665.0,0.0034840155608538486
2664.0,0.003599393253381952
2663.0,0.003707268879568265
2662.0,0.0038007736058500727
2661.0,0.003879632990041613
2660.0,0.003940843308433311
2659.0,0.0039760881652719906
2658.0,0.003984633947481268
2657.0,0.003983802179594746
2656.0,0.00399787329494555
2655.0,0.004035568468879993
2654.0,0.004080997076826551
2653.0,0.004106774583086947
2652.0,0.004097350625384473
2651.0,0.0040621509409752565
2650.0,0.004027093989072331
2649.0,0.0040109339908320765
2648.0,0.004009232011871436
2647.0,0.004003428450845688
2646.0,0.003982601914632471
2645.0,0.003953491204993363
2644.0,0.0039319886850224485
2643.0,0.0039299181414212386
2642.0,0.003947160665002405
2641.0,0.003970103879217347
2640.0,0.00397889594528502
2639.0,0.003963076031315226
2638.0,0.003929761930939106
2637.0,0.003893072650763791
2636.0,0.003859201875238797
2635.0,0.0038262632773214964
2634.0,0.0037930601556492097
2633.0,0.003759484890569825
2632.0,0.003723344656773841
2631.0,0.0036866657056572657
2630.0,0.0036610921508717347
2629.0,0.003656144073525207
2628.0,0.003664985310010801
2627.0,0.0036718903157848355
2626.0,0.0036693184868879574
2625.0,0.003656881653247762
2624.0,0.0036293603344293946
2623.0,0.0035801792067848203
2622.0,0.0035147108560507883
2621.0,0.003446851138933677
2620.0,0.0033842285618645943
2619.0,0.0033279062621998385
2618.0,0.0032808943614950174
2617.0,0.003243185991118028
2616.0,0.0032065638463612076
2615.0,0.003171275596252283
2614.0,0.003158670577380903
2613.0,0.0031837671045517324
2612.0,0.0032237041477300513
2611.0,0.003240160511081523
2610.0,0.0032274758551703317
2609.0,0.003207025825394968
2608.0,0.003176793520420532
2607.0,0.00310730784500958
2606.0,0.0029985068606539255
2605.0,0.002902737675175509
2604.0,0.0028707510229473467
2603.0,0.0029029359902315085
2602.0,0.0029708275715912237
2601.0,0.003054734917455673
2600.0,0.003133852768015694
2599.0,0.003167425556051504
2598.0,0.0031237221265340157
2597.0,0.003022548795106896
2596.0,0.00292391437597645
2595.0,0.0028773588287919474
2594.0,0.002897375809871835
2593.0,0.002972313882327278
2592.0,0.0030712609852343075
2591.0,0.0031499911514983265
2590.0,0.0031755499515403116
2589.0,0.0031510473653333995
2588.0,0.003106546274987734
2587.0,0.0030672409642636417
2586.0,0.003040385376794948
2585.0,0.0030266644650454528
2584.0,0.0030284011374547446
2583.0,0.003044532053730062
2582.0,0.0030648164593049592
2581.0,0.003070731391053001
2580.0,0.003044530314840058
2579.0,0.0029866279760403574
2578.0,0.002925117739592707
2577.0,0.002894223443738503
2576.0,0.0028984168018138514
2575.0,0.002910430858464033
2574.0,0.002907379568392712
2573.0,0.002892153126574014
2572.0,0.0028730792543586276
2571.0,0.0028438525512949255
2570.0,0.002798481125824293
2569.0,0.00274987987235487
2568.0,0.0027158454335580694
2567.0,0.0026955856061843314
2566.0,0.0026738107887826316
2565.0,0.0026411705647570068
2564.0,0.0026016818613851713
2563.0,0.002570110862353297
2562.0,0.00256915165706281
2561.0,0.002613458333619448
2560.0,0.0026845549540948036
2559.0,0.0027358479949671135
2558.0,0.0027360562229068134
2557.0,0.0026975440783621263
2556.0,0.002651432290771664
2555.0,0.0026100815443145338
2554.0,0.0025709180904962157
2553.0,0.00254141516334284
2552.0,0.0025336069558624143
2551.0,0.0025377850339725694
2550.0,0.0025253506511197007
2549.0,0.0024846373640349754
2548.0,0.0024403589045798105
2547.0,0.002428901257784535
2546.0,0.0024589450447330304
2545.0,0.0025018175283689987
2544.0,0.0025224448612273277
2543.0,0.0025183008171887067
2542.0,0.0025193545140264582
2541.0,0.0025441318463137966
2540.0,0.0025695006779814953
2539.0,0.0025614649081839042
2538.0,0.002526295290608131
2537.0,0.0025052372543502236
2536.0,0.002518605598061124
2535.0,0.0025433608594045126
2534.0,0.0025535237048861653
2533.0,0.0025529959230068235
2532.0,0.0025524632595624666
2531.0,0.002540570492437004
2530.0,0.002502950362320613
2529.0,0.002454341462308823
2528.0,0.002426668651064061
2527.0,0.0024305529511018794
2526.0,0.002445882922965964
2525.0,0.0024450515677638092
2524.0,0.0024127695550102846
2523.0,0.002351500198528894
2522.0,0.0022825610371271544
2521.0,0.0022374869196068823
2520.0,0.00223505647789477
2519.0,0.002266842398326351
2518.0,0.0023086779918305095
2517.0,0.0023394549508406314
2516.0,0.002346791710519586
2515.0,0.002327213237450789
2514.0,0.0022873925975726347
2513.0,0.002235343055688844
2512.0,0.0021681849870614674
2511.0,0.0020838198193039656
2510.0,0.0020069334456773126
2509.0,0.0019797650363220067
2508.0,0.0020142196759026596
2507.0,0.002073207518159912
2506.0,0.0021147600604363532
2505.0,0.002137163963445855
2504.0,0.0021647015927680462
2503.0,0.002206655336619436
2502.0,0.002251123870538241
2501.0,0.0022864954566581717
2500.0,0.002306870519557691
2499.0,0.002302798740554589
2498.0,0.0022662260167693174
2497.0,0.002203350512382735
2496.0,0.0021304564965313535
2495.0,0.002060839268221866
2494.0,0.002004734200812323
2493.0,0.0019731195391834394
2492.0,0.001969514255799725
2491.0,0.001984865301638363
2490.0,0.0020094274600516143
2489.0,0.0020405424986227965
2488.0,0.0020713084004854864
2487.0,0.0020851926750378395
2486.0,0.0020731771432027676
2485.0,0.002044033110208369
2484.0,0.0020073994610014167
2483.0,0.0019620392445118674
2482.0,0.0019133404504386737
2481.0,0.001883728937090615
2480.0,0.0018864842142223737
2479.0,0.00190535136836685
2478.0,0.0019215360467303099
2477.0,0.0019442871509405928
2476.0,0.00198663406799104
2475.0,0.0020239198654101328
2474.0,0.0020133443593692455
2473.0,0.001955389589746869
2472.0,0.001901843181682089
2471.0,0.0018921541822329384
2470.0,0.0019090054709844824
2469.0,0.0019126098844563081
2468.0,0.0018986420675790737
2467.0,0.0019009974349694352
2466.0,0.0019456929428182928
2465.0,0.0020209201316803843
2464.0,0.002093211406794475
2463.0,0.0021404248967122844
2462.0,0.0021632018049061613
2461.0,0.002171154723945296
2460.0,0.0021683970202655456
2459.0,0.002158010490369592
2458.0,0.0021565373461683354
2457.0,0.0021917759732822824
2456.0,0.002276466764440466
2455.0,0.0023857626132477603
2454.0,0.002468732526257249
2453.0,0.0024876246286205748
2452.0,0.0024485049619197966
2451.0,0.002394496071647348
2450.0,0.00236675008740318
2449.0,0.0023671455121078494
2448.0,0.0023593828970097162
2447.0,0.002311946610462085
2446.0,0.0022375251217886197
2445.0,0.0021803988799722236
2444.0,0.00216559966888332
2443.0,0.0021747375448148416
2442.0,0.0021764878565930035
2441.0,0.002163601987302783
2440.0,0.0021458403951850093
2439.0,0.0021196111455731
2438.0,0.002068691764777102
2437.0,0.001997700067248394
2436.0,0.0019459027450464102
2435.0,0.001954414009933758
2434.0,0.0020242556171053724
2433.0,0.0021148541921411196
2432.0,0.002182279799537533
2431.0,0.002211126677108206
2430.0,0.002208195681294579
2429.0,0.002178745676248313
2428.0,0.002124461969783578
2427.0,0.0020623877647289158
2426.0,0.002026533421921312
2425.0,0.0020388303368224807
2424.0,0.0020869799672086336
2423.0,0.002140551130470655
2422.0,0.002180355947692724
2421.0,0.0022029906183934768
2420.0,0.002209801962275424
2419.0,0.0022082058824402584
2418.0,0.0022145898914478746
2417.0,0.002235631752855084
2416.0,0.002251829365770265
2415.0,0.002242582488960682
2414.0,0.002227618817693323
2413.0,0.0022575590280773323
2412.0,0.0023521048133346486
2411.0,0.002465189055397669
2410.0,0.00252442613334498
2409.0,0.002495922220224934
2408.0,0.002403945603893184
2407.0,0.00229874236257113
2406.0,0.002216728006683028
2405.0,0.002166980291402572
2404.0,0.0021459550429366596
2403.0,0.0021593299138441377
2402.0,0.002220822154231397
2401.0,0.0023229247370419068
2400.0,0.002421419744624026
2399.0,0.002469825541137498
2398.0,0.002466862456228314
2397.0,0.002450914172360845
2396.0,0.0024497917194204934
2395.0,0.0024586369813933808
2394.0,0.002467944960009244
2393.0,0.0024826366631645015
2392.0,0.0024996566262200986
2391.0,0.0024918231321647195
2390.0,0.002436882589551714
2389.0,0.0023520392798054473
2388.0,0.0022792603522633153
2387.0,0.0022397296222660674
2386.0,0.0022163214301602558
2385.0,0.0021765384050050013
2384.0,0.002100638823220797
2383.0,0.0019895857445081174
2382.0,0.001855741046126055
2381.0,0.0017064096166654625
2380.0,0.0015351884288896025
2379.0,0.0013338401633588644
2378.0,0.001113902073122724
2377.0,0.0009098697252614167
2376.0,0.0007477689787688494
2375.0,0.0006258650323728993
2374.0,0.0005354657408625824
2373.0,0.0004832206821793008
2372.0,0.0004794360299873756
2371.0,0.0005153478444292251
2370.0,0.0005703639106270208
2369.0,0.0006356231106052642
2368.0,0.0007198746519098778
2367.0,0.0008303483985702216
2366.0,0.000936346610376361
2365.0,0.0009766960593160395
2364.0,0.0009200651564545111
2363.0,0.0008104476016283764
2362.0,0.0008186008942141756
2361.0,0.0010873226602523271
2360.0,0.0014693747445008254
2359.0,0.0016461236974239751
2358.0,0.0014661373534091303
2357.0,0.0011324937309153452
2356.0,0.0009385773137687366
2355.0,0.0009426523328952682
2354.0,0.001027590638977444
2353.0,0.001062486017716463
2352.0,0.0010668709571211017
2351.0,0.0011126858355428194
2350.0,0.001221546969727419
2349.0,0.0013673023934130772
2348.0,0.0014244910334690886
2347.0,0.0013607306697444215
2346.0,0.0013023186221963515
2345.0,0.0014417404720710749
2344.0,0.001756100663362323
2343.0,0.0019843575471063172
2342.0,0.002043714871706109
2341.0,0.002009265018715052
2340.0,0.001979465698181183
2339.0,0.0019701937422767425
2338.0,0.0019904031481318136
2337.0,0.002054685914522437
2336.0,0.0021517440730761724
2335.0,0.0022350263538994004
2334.0,0.0022906204518530838
2333.0,0.002310292924971024
2332.0,0.0023062723811198074
2331.0,0.002319319323582837
2330.0,0.0024258974228740975
2329.0,0.002790273334597815
2328.0,0.00342689064077785
2327.0,0.004238072806079263
2326.0,0.0049776032542479835
2325.0,0.005438641075767667
2324.0,0.005530268944883286
2323.0,0.005302001947498764
2322.0,0.0049386906834396034
2321.0,0.00459708662639178
2320.0,0.004364523141287811
2319.0,0.004216325944452729
2318.0,0.004112433799594484
2317.0,0.004022525874657214
2316.0,0.00392777579633413
2315.0,0.003838279265990086
2314.0,0.003785594931508887
2313.0,0.003817935464341669
2312.0,0.003911706440769781
2311.0,0.004014091512282531
2310.0,0.004076329318067107
2309.0,0.004125842333998167
2308.0,0.00418743404203336
2307.0,0.004267324994246851
2306.0,0.00433963930303482
2305.0,0.004400398682210127
2304.0,0.004454443286128128
2303.0,0.0045064577538946726
2302.0,0.004539996695440836
2301.0,0.0045408178615986144
2300.0,0.0045037533616076875
2299.0,0.004471369303313647
2298.0,0.0045066263987887205
2297.0,0.004652584722741104
2296.0,0.004864302748009452
2295.0,0.0050696940674395796
2294.0,0.0052425291791873664
2293.0,0.005426028468261389
2292.0,0.005638854347735868
2291.0,0.005839448313613108
2290.0,0.0059803385792401844
2289.0,0.006073316257457964
2288.0,0.006152872168651848
2287.0,0.006210449379924083
2286.0,0.006206033860412423
2285.0,0.006120645467205918
2284.0,0.005964355911421202
2283.0,0.005745413176081728
2282.0,0.005487050604106272
2281.0,0.005252223495862208
2280.0,0.0051104679794808875
2279.0,0.005069436918284891
2278.0,0.005080911170077632
2277.0,0.005100964553507942
2276.0,0.005110051108798591
2275.0,0.005085505219723975
2274.0,0.004997311706904189
2273.0,0.0048398182582732605
2272.0,0.004637076384725648
2271.0,0.004425681437259795
2270.0,0.004254374514055687
2269.0,0.004176112713520443
2268.0,0.004193797622311549
2267.0,0.004231251919012065
2266.0,0.004202972242967065
2265.0,0.004113380694415505
2264.0,0.00404234967190801
2263.0,0.004050309661871864
2262.0,0.004131882978633608
2261.0,0.004248961966318781
2260.0,0.004354965227313414
2259.0,0.004392931745347407
2258.0,0.004331354432753452
2257.0,0.004210808720028282
2256.0,0.004113815407858398
2255.0,0.004074576762206929
2254.0,0.004055966036782223
2253.0,0.00401995363310471
2252.0,0.003975421430074384
2251.0,0.003951177333641722
2250.0,0.003956742325967377
2249.0,0.003983194248759329
2248.0,0.004007415869210299
2247.0,0.003991838822969329
2246.0,0.003910374980818035
2245.0,0.0037874236129703505
2244.0,0.003684095270062477
2243.0,0.0036398789400520735
2242.0,0.0036511304803649777
2241.0,0.0036974345214728912
2240.0,0.0037559008969586857
2239.0,0.003791348685222357
2238.0,0.003774457613201443
2237.0,0.003718296506792361
2236.0,0.003668039919679198
2235.0,0.0036427763104817726
2234.0,0.0036187721393495563
2233.0,0.003575535652866825
2232.0,0.0035298237131918897
2231.0,0.003513418900754354
2230.0,0.0035404421692586175
2229.0,0.003601106694443079
2228.0,0.003662361989776511
2227.0,0.0036743967578112416
2226.0,0.003603274742394918
2225.0,0.0034690329619484926
2224.0,0.0033342697058743624
2223.0,0.003250774002646309
2222.0,0.0032354641243917646
2221.0,0.0032842538183195376
2220.0,0.0033770682861328162
2219.0,0.0034672383191994226
2218.0,0.0034988875893196118
2217.0,0.003450530220162748
2216.0,0.0033514101532848817
2215.0,0.0032459235177439687
2214.0,0.003157906340453631
2213.0,0.0030919037424809344
2212.0,0.003054200239714975
2211.0,0.003062285255826098
2210.0,0.003129516505414217
2209.0,0.003232878985374436
2208.0,0.0033082610120982407
2207.0,0.0033049463488122365
2206.0,0.003240502149764381
2205.0,0.0031751152050921152
2204.0,0.0031299346622555204
2203.0,0.003078607664203745
2202.0,0.003028426613999766
2201.0,0.0030474245421001724
2200.0,0.0031728320117171693
2199.0,0.0033414717504470226
2198.0,0.0034527922391570935
2197.0,0.0034593324605870987
2196.0,0.0033648607618733278
2195.0,0.003189910788855077
2194.0,0.003007896713723311
2193.0,0.0029650721380258846
2192.0,0.003161328692468212
2191.0,0.0035228426181290445
2190.0,0.00385748921662624
2189.0,0.004030416199604608
2188.0,0.004042056748381373
2187.0,0.003954593089739197
2186.0,0.0038176963337776537
2185.0,0.0036518010971022643
2184.0,0.0034257716581042523
2183.0,0.0030705219179418073
2182.0,0.002613434139629998
2181.0,0.00227299781668835
2180.0,0.002265622885014916
2179.0,0.0025052451989231368
2178.0,0.0026244263390740883
2177.0,0.002363472443839998
2176.0,0.001868230922685633
2175.0,0.0015075873162931658
2174.0,0.0014790191645348719
2173.0,0.001711470548051848
2172.0,0.0020882905053654
2171.0,0.0026239861648688968
2170.0,0.003356885878472311
2169.0,0.004158600884953388
2168.0,0.0047656773913477765
2167.0,0.005020173497328105
2166.0,0.005024715228578865
2165.0,0.005045673513947812
2164.0,0.005237828662740622
2163.0,0.00541040644953876
2162.0,0.005042140631151486
2161.0,0.0036415144608280196
2160.0,0.0013113201389329265
2159.0,-0.0010831689507169108
2158.0,-0.002552712249809263
2157.0,-0.002799360251418831
2156.0,-0.002304887557592614
2155.0,-0.0017087274777596755
2154.0,-0.0012649294979118213
2153.0,-0.0008877700299926484
2152.0,-0.0004913251355599792
2151.0,-0.00016465236446298924
2150.0,-2.5483916659271854e-05
2149.0,-5.214933357232854e-05
2148.0,-0.0001108314264270156
2147.0,-0.00010023376512341553
2146.0,-1.986560951126992e-05
2145.0,6.431656621022741e-05
2144.0,9.399754435471629e-05
2143.0,8.247412966885177e-05
2142.0,0.00011581153220355922
2141.0,0.00026185755780040634
2140.0,0.00046887005927322427
2139.0,0.000587758069201811
2138.0,0.00049467663050409
2137.0,0.00017370018029510452
2136.0,-0.0002871394670735807
2135.0,-0.0007276314324694777
2134.0,-0.0009511054724976993
2133.0,-0.0008262437953177051
2132.0,-0.000402101111239958
2131.0,0.00011473309597439195
2130.0,0.0005313830551668225
2129.0,0.0007940855496535405
2128.0,0.0009663051154365217
2127.0,0.0011216680563170586
2126.0,0.0012886780345435012
2125.0,0.0014671354869891032
2124.0,0.0016565740666528712
2123.0,0.001859199930990105
2122.0,0.0020718228108184533
2121.0,0.0022794032188757835
2120.0,0.002462558010319249
2119.0,0.002623543176272236
2118.0,0.0028022914000680596
2117.0,0.0030417348442668265
2116.0,0.003321678300372533
2115.0,0.0035454680574748144
2114.0,0.0036150052695749875
2113.0,0.0035212819932695363
2112.0,0.0033531137188645447
2111.0,0.003221643189452441
2110.0,0.0031804613695469684
2109.0,0.0031998639853782814
2108.0,0.003198675815282015
2107.0,0.003120297927170039
2106.0,0.0029908370015627357
2105.0,0.0028955433364222074
2104.0,0.002882621815034628
2103.0,0.0029130392277815827
2102.0,0.0029178053735476454
2101.0,0.0028795140175651244
2100.0,0.0028227825494593294
2099.0,0.002740931293690832
2098.0,0.002575951772047054
2097.0,0.0022896406918406333
2096.0,0.0019371749447924104
2095.0,0.001652683770347461
2094.0,0.001559854775175869
2093.0,0.001684878186117525
2092.0,0.0019418701607383745
2091.0,0.0022058238819696123
2090.0,0.0023998023957631552
2089.0,0.002524952201340001
2088.0,0.002619621836451065
2087.0,0.0027110333709909344
2086.0,0.0028014749616291114
2085.0,0.0028763190374419727
2084.0,0.002913100168397218
2083.0,0.0028972913955877208
2082.0,0.002843104963473507
2081.0,0.0027907891582586116
2080.0,0.002778120345772618
2079.0,0.0028180002792353607
2078.0,0.0028988325476889424
2077.0,0.002982845931962958
2076.0,0.0030082129718213045
2075.0,0.0029302379060853296
2074.0,0.0027701083190576517
2073.0,0.0026004506718100436
2072.0,0.0024693798895264454
2071.0,0.002360456378158518
2070.0,0.0022407735553889125
2069.0,0.002108599567285719
2068.0,0.00197450966516013
2067.0,0.0018351980115250228
2066.0,0.0016981281856397641
2065.0,0.001602353815377734
2064.0,0.0015736202451440457
2063.0,0.0015781177121829836
2062.0,0.0015579846547477813
2061.0,0.001504013306586222
2060.0,0.0014730082333553572
2059.0,0.0015297463098470129
2058.0,0.001668055326951161
2057.0,0.0018019148262384721
2056.0,0.001874606550147981
2055.0,0.0019924230943251624
2054.0,0.002370400163873992
2053.0,0.0030522126056345533
2052.0,0.0037235143186887774
2051.0,0.00391774268472534
2050.0,0.0034519093572713292
2049.0,0.0026355380428496975
2048.0,0.0019462480397686127
2047.0,0.0015583103785029532
2046.0,0.0013456557209038118
2045.0,0.0011785330753801685
2044.0,0.0010460149669004755
2043.0,0.0009730800215996746
2042.0,0.0009692407128145965
2041.0,0.0010361651290032659
2040.0,0.001129705815384685
2039.0,0.0011538659053842173
2038.0,0.0010561868594514976
2037.0,0.0008815601637341968
2036.0,0.0006759880371988004
2035.0,0.0004098233862046979
2034.0,8.271841432397234e-05
2033.0,-0.0001905329266086418
2032.0,-0.0003231323057273439
2031.0,-0.00039526679155241847
2030.0,-0.0005212046938583453
2029.0,-0.0006734128516909869
2028.0,-0.0007657086081270619
2027.0,-0.0008257284672676054
2026.0,-0.0009465719509860128
2025.0,-0.001114033382956886
2024.0,-0.0012116591415369934
2023.0,-0.0011678595664591333
2022.0,-0.000991675087041492
2021.0,-0.0007288173837384605
2020.0,-0.0004879542674176429
2019.0,-0.0004419009577425574
2018.0,-0.0006685516762366732
2017.0,-0.000988418503679864
2016.0,-0.0011013633211229405
2015.0,-0.0009018331274034103
2014.0,-0.0005251816006831618
2013.0,-0.00014993573413140727
2012.0,0.00011887048282604746
2011.0,0.0002058025974010704
2010.0,3.135249357755893e-05
2009.0,-0.00040114108140824737
2008.0,-0.0009357013063892954
2007.0,-0.0013510726996225646
2006.0,-0.0015026401460736182
2005.0,-0.0013843456592930255
2004.0,-0.0011124293635069145
2003.0,-0.0008407347704097925
2002.0,-0.0006515791368424191
2001.0,-0.0005243528703581784
2000.0,-0.0003944492159072277
1999.0,-0.00023538692269477364
1998.0,-6.881853013579594e-05
1997.0,8.421658785984416e-05
1996.0,0.00023065167839348387
1995.0,0.00039676398998169304
1994.0,0.0006133543049120977
1993.0,0.0008856220593759798
1992.0,0.001144761348988491
1991.0,0.0012773681914838401
1990.0,0.0012488816530977919
1989.0,0.0011501602796461729
1988.0,0.0010954526475556968
1987.0,0.0011122772546977608
1986.0,0.0011709777477900128
1985.0,0.0013018208805693648
1984.0,0.00161777455710429
1983.0,0.0021813026980402727
1982.0,0.0028500263880257897
1981.0,0.0032555159403010988
1980.0,0.00301038623959593
1979.0,0.0020347597178432637
1978.0,0.000723122986972398
1977.0,-0.00030925736883202597
1976.0,-0.0007606660229150073
1975.0,-0.0008101114990769042
1974.0,-0.0007508483356563449
1973.0,-0.0006742234918514251
1972.0,-0.0005412335330069221
1971.0,-0.0003724108027864659
1970.0,-0.00023457035844919472
1969.0,-0.00013040719901361649
1968.0,-2.428666634290977e-05
1967.0,6.280697313202407e-05
1966.0,9.191257309759194e-05
1965.0,9.833952433400007e-05
1964.0,0.00012741997562403873
1963.0,0.00012801879758125119
1962.0,1.5372759808338684e-05
1961.0,-0.00018843872054116946
1960.0,-0.00036968533726540855
1959.0,-0.0004650421990126637
1958.0,-0.0004886834380080794
1957.0,-0.0004440104091798273
1956.0,-0.0003105990710647684
1955.0,-0.00011125258600985224
1954.0,8.47854180323045e-05
1953.0,0.0002400078476285216
1952.0,0.00036357559010888763
1951.0,0.00045542344524230954
1950.0,0.0004955624322532299
1949.0,0.000484423323745594
1948.0,0.00044651218837699763
1947.0,0.00038591796777547776
1946.0,0.00028274584002497497
1945.0,0.00014108573263737698
1944.0,-2.964214287745799e-07
1943.0,-0.00010772885641572834
1942.0,-0.0001774240376660528
1941.0,-0.0002153677875095382
1940.0,-0.0002244776806447201
1939.0,-0.00022818382336408987
1938.0,-0.0002617309283246688
1937.0,-0.0003286849516237556
1936.0,-0.000400265906209704
1935.0,-0.000455575684333964
1934.0,-0.0004936140602532302
1933.0,-0.0005116518630062454
1932.0,-0.0005184233294850925
1931.0,-0.0005447428581408424
1930.0,-0.0006091518924430212
1929.0,-0.0006943119937795287
1928.0,-0.0007662505701800189
1927.0,-0.0008340828826277865
1926.0,-0.0009307515771654921
1925.0,-0.0010548742118455287
1924.0,-0.0011529500728948696
1923.0,-0.0011620837008065772
1922.0,-0.0010852762311593916
1921.0,-0.0009911021712477987
1920.0,-0.0009460353881560813
1919.0,-0.0009756579173602704
1918.0,-0.0010416797675705228
1917.0,-0.001084798003183209
1916.0,-0.001088334131642893
1915.0,-0.0010687183703087181
1914.0,-0.0010384590337389665
1913.0,-0.0009910290834839399
1912.0,-0.0009304560404554366
1911.0,-0.0008856528449693022
1910.0,-0.0008770137468479039
1909.0,-0.0008929648724064914
1908.0,-0.0009047292576299369
1907.0,-0.0009099244950906053
1906.0,-0.0009132503869423332
1905.0,-0.0009080752100905226
1904.0,-0.0009017229122839556
1903.0,-0.000923565128291998
1902.0,-0.0009973833921986127
1901.0,-0.001108896629546444
1900.0,-0.001210724287351711
1899.0,-0.0012742024991258725
1898.0,-0.0012980503320341355
1897.0,-0.0012873013494322327
1896.0,-0.0012537821030796426
1895.0,-0.0012195847441882238
1894.0,-0.001200727059751402
1893.0,-0.0011885845913096646
1892.0,-0.0011707041696393241
1891.0,-0.001160716585252653
1890.0,-0.001178320147535683
1889.0,-0.0012179917484020078
1888.0,-0.001256131113633842
1887.0,-0.0012783490176589796
1886.0,-0.0012907754835965956
1885.0,-0.0012966455235390105
1884.0,-0.0012874785663062494
1883.0,-0.0012621058414918245
1882.0,-0.0012365691687148798
1881.0,-0.0012249099237588083
1880.0,-0.001215564670000382
1879.0,-0.0011914704687701545
1878.0,-0.001155452537253632
1877.0,-0.0011235746723547767
1876.0,-0.0011163539986740472
1875.0,-0.0011425411894505008
1874.0,-0.0011757315719180485
1873.0,-0.0011692244716678935
1872.0,-0.0011101060090986273
1871.0,-0.0010477900055868086
1870.0,-0.0010410186289593016
1869.0,-0.0010706389255126388
1868.0,-0.001068389802212833
1867.0,-0.001019088340904291
1866.0,-0.0009632150324392652
1865.0,-0.0009411374720696081
1864.0,-0.0009586814208641394
1863.0,-0.0009882945426778179
1862.0,-0.0009938515906423003
1861.0,-0.0009543592935718427
1860.0,-0.0008745240709700018
1859.0,-0.000783376793156973
1858.0,-0.0007164711913454666
1857.0,-0.0006908425839543186
1856.0,-0.0006895227449338483
1855.0,-0.0006779563051353254
1854.0,-0.0006294913564591099
1853.0,-0.0005572530248375875
1852.0,-0.0004914115604875762
1851.0,-0.0004586088264172789
1850.0,-0.00045905985787672316
1849.0,-0.0004428933641968443
1848.0,-0.0003576266314395632
1847.0,-0.00022508701295896995
1846.0,-0.00014340224906266496
1845.0,-0.00017158032484166806
1844.0,-0.00022229020257465105
1843.0,-0.00018125335100585907
1842.0,-4.7697996367271e-05
1841.0,0.00011413262766241019
1840.0,0.0002527459295808042
1839.0,0.0003425105354474072
1838.0,0.0003886921376145135
1837.0,0.00041456628799428543
1836.0,0.00045034410942137266
1835.0,0.0005212142122257117
1834.0,0.0006275513219076469
1833.0,0.0007437863819733459
1832.0,0.0008381447915739287
1831.0,0.0008752013294373818
1830.0,0.0008645881926763735
1829.0,0.000864318177205863
1828.0,0.0009198954672114843
1827.0,0.0010210475479969314
1826.0,0.0011050047983616734
1825.0,0.0011473132625681153
1824.0,0.001180705403413895
1823.0,0.001222233062870128
1822.0,0.0012467671341509223
1821.0,0.0012243764712941497
1820.0,0.0011566357554316483
1819.0,0.0010557328660151044
1818.0,0.0009476221549050163
1817.0,0.0008871432912375792
1816.0,0.0009168018690253231
1815.0,0.001018120908994542
1814.0,0.0011274332369061047
1813.0,0.0012212598050292478
1812.0,0.0013266683637681437
1811.0,0.0014455589933799803
1810.0,0.0015322493026419127
1809.0,0.0015605575185415037
1808.0,0.0015685127194353995
1807.0,0.001596499185286546
1806.0,0.001626760864210701
1805.0,0.0016272195688586504
1804.0,0.00161138007079823
1803.0,0.0016288622036944572
1802.0,0.0016831266879069181
1801.0,0.0017407902737559787
1800.0,0.0017826087049291391
1799.0,0.0018097395097330052
1798.0,0.001821363835987506
1797.0,0.0018234267746507606
1796.0,0.0018484534345897478
1795.0,0.001914968663902442
1794.0,0.00196252546283098
1793.0,0.001932959055727281
1792.0,0.00188560945988014
1791.0,0.0018985298140488443
1790.0,0.0019514212112931133
1789.0,0.0019997746642177374
1788.0,0.0020436437698128345
1787.0,0.0021030942677650113
1786.0,0.0021688723016768593
1785.0,0.0022118039347104245
1784.0,0.002238654549875707
1783.0,0.002297247521265396
1782.0,0.0023668214426707437
1781.0,0.002408305419400995
1780.0,0.0024497312834567244
1779.0,0.002525420794939868
1778.0,0.002605351763562928
1777.0,0.00264641782359117
1776.0,0.002695454933593718
1775.0,0.002822445220396955
1774.0,0.0029725723938276785
1773.0,0.0030509492902789847
1772.0,0.003130798649413489
1771.0,0.0032889531805404774
1770.0,0.003450903374530286
1769.0,0.0035540277694648377
1768.0,0.003651839670627271
1767.0,0.0038364936304541002
1766.0,0.0040820627108522824
1765.0,0.004310974556141092
1764.0,0.004517804723539234
1763.0,0.004761452459914004
1762.0,0.005048133085042586
1761.0,0.005319409170629726
1760.0,0.005599507450651043
1759.0,0.005984848196518065
1758.0,0.0064614455638344285
1757.0,0.006943266294907763
1756.0,0.007453764138512202
1755.0,0.008063911468070784
1754.0,0.008753258880921518
1753.0,0.009478601572607005
1752.0,0.010372624575241528
1751.0,0.01168859466652564
1750.0,0.013442831085178922
1749.0,0.015439418556997719
1748.0,0.017664829697548252
1747.0,0.020209810023272066
1746.0,0.023059475084936255
1745.0,0.02627911186949129
1744.0,0.03004935485809406
1743.0,0.03434149733416764
1742.0,0.038901328479422646
1741.0,0.04378918620783326
1740.0,0.04939884178294318
1739.0,0.05547441686771016
1738.0,0.0609323788355383
1737.0,0.06541723327327832
1736.0,0.06986393672484563
1735.0,0.07613891427609387
1734.0,0.08506630598858306
1733.0,0.09377208737532032
1732.0,0.1004811314397185
1731.0,0.10680813597961766
1730.0,0.11396144891700462
1729.0,0.12168996243958347
1728.0,0.12937507624546413
1727.0,0.1370125533427983
1726.0,0.14492947235611342
1725.0,0.15330296891991593
1724.0,0.1622107595652666
1723.0,0.17153445438824405
1722.0,0.18062385927627772
1721.0,0.18876941593505606
1720.0,0.19629767229301534
1719.0,0.20490835450500103
1718.0,0.2157649022616667
1717.0,0.22605000666669028
1716.0,0.23256247937479452
1715.0,0.23654901498351444
1714.0,0.2388489751708107
1713.0,0.23815029890842754
1712.0,0.2340183267747185
1711.0,0.2273648984579411
1710.0,0.21886363926756464
1709.0,0.20867153784894193
1708.0,0.19706191661149605
1707.0,0.1839965890822802
1706.0,0.16934950493525391
1705.0,0.1550942817815853
1704.0,0.14423802175679368
1703.0,0.13682227661671473
1702.0,0.12994302346236994
1701.0,0.11966109208494954
1700.0,0.10680351116030141
1699.0,0.09742224496814136
1698.0,0.09216421190709967
1697.0,0.08736179634732323
1696.0,0.08108270639391223
1695.0,0.0749539010018011
1694.0,0.07088636064484498
1693.0,0.06836906503554831
1692.0,0.06621746487905879
1691.0,0.06383120421740443
1690.0,0.061282230193897086
1689.0,0.059026680467508405
1688.0,0.05736861586779415
1687.0,0.05617913937227621
1686.0,0.05502008379244131
1685.0,0.053342460870882916
1684.0,0.05125940915622171
1683.0,0.049592507756858584
1682.0,0.04849202359418179
1681.0,0.04753728540940567
1680.0,0.046489911002242416
1679.0,0.04541391377458163
1678.0,0.044430886685931495
1677.0,0.04344891484300102
1676.0,0.042233517846126674
1675.0,0.04083604687801439
1674.0,0.039634571597947726
1673.0,0.038802082542518275
1672.0,0.03812626213025932
1671.0,0.037302501920515915
1670.0,0.036231274584130155
1669.0,0.03508935267890099
1668.0,0.03407649993714817
1667.0,0.03323999522320967
1666.0,0.03252582079777104
1665.0,0.03182702212463411
1664.0,0.031002617395990556
1663.0,0.03004858265053923
1662.0,0.029148839550204357
1661.0,0.02842947482223917
1660.0,0.027858012371470037
1659.0,0.02735704207011945
1658.0,0.026913974324672768
1657.0,0.026551937401078675
1656.0,0.026288927048591655
1655.0,0.025994083103717175
1654.0,0.02553569366231531
1653.0,0.025143212640984992
1652.0,0.02482777335717561
1651.0,0.024620817100382025
1650.0,0.02457396013836044
1649.0,0.024539198805117807
1648.0,0.02443746802931405
1647.0,0.02434665100980449
1646.0,0.024283831051189236
1645.0,0.024180422076247148
1644.0,0.024064408341119788
1643.0,0.023969591885704
1642.0,0.023892178035489205
1641.0,0.023819324647392615
1640.0,0.02373491514042946
1639.0,0.023616465162931616
1638.0,0.02345036332984506
1637.0,0.023191570910029453
1636.0,0.02281193374207619
1635.0,0.02231451455255381
1634.0,0.021791093406095533
1633.0,0.021356652708512013
1632.0,0.02098418322765329
1631.0,0.02061565459236097
1630.0,0.020241319646202634
1629.0,0.019866550233943264
1628.0,0.01948735871863175
1627.0,0.019117693619936885
1626.0,0.018787976177965918
1625.0,0.018496944820972375
1624.0,0.018205483052214994
1623.0,0.01792305541364062
1622.0,0.017699829944596193
1621.0,0.017558263006318943
1620.0,0.01748662628085662
1619.0,0.017444355415613934
1618.0,0.017416625647931273
1617.0,0.017442149181467064
1616.0,0.017486176120121842
1615.0,0.017434182233689473
1614.0,0.017269791453882584
1613.0,0.017005211513574564
1612.0,0.016621780830192008
1611.0,0.016131039617035926
1610.0,0.015571287465398143
1609.0,0.014973370997249984
1608.0,0.014352394970533831
1607.0,0.01373967122652691
1606.0,0.013161323634098134
1605.0,0.012612544299688187
1604.0,0.012078556026617112
1603.0,0.011558739885075255
1602.0,0.011074786488211547
1601.0,0.010640033210566252
1600.0,0.010246144140965814
1599.0,0.009890714906818844
1598.0,0.009585991100725432
1597.0,0.009335956370007954
1596.0,0.009123380230543578
1595.0,0.008939379626732318
1594.0,0.008796153386500598
1593.0,0.008696396260376363
1592.0,0.008623134836983641
1591.0,0.008572757925710753
1590.0,0.008566368370801054
1589.0,0.008617527072799447
1588.0,0.008720531763100893
1587.0,0.008882377610648785
1586.0,0.009144511708339007
1585.0,0.009539679768340751
1584.0,0.010083957285034192
1583.0,0.01076707603600241
1582.0,0.011526725795090703
1581.0,0.012257373335882144
1580.0,0.012865141318622327
1579.0,0.013269493207134199
1578.0,0.013347954653846625
1577.0,0.012947818004099165
1576.0,0.012106837112257511
1575.0,0.011186668864559011
1574.0,0.010479560253766333
1573.0,0.009967619383821562
1572.0,0.009504679021852421
1571.0,0.008956056842682004
1570.0,0.008327043748216993
1569.0,0.007760938223345658
1568.0,0.007358891559383525
1567.0,0.007094661748641474
1566.0,0.006886056570797704
1565.0,0.006666466744346096
1564.0,0.006462226953341602
1563.0,0.006328887375417936
1562.0,0.006289585278495578
1561.0,0.006237013636559041
1560.0,0.0059551706587919525
1559.0,0.005746428960318326
1558.0,0.005766182397892228
1557.0,0.005716249392485294
1556.0,0.005657942351855292
1555.0,0.005605714704222567
1554.0,0.00552026958710118
1553.0,0.005434931542175869
1552.0,0.005367294076708454
1551.0,0.005309118599786855
1550.0,0.00526960994375319
1549.0,0.005260307115515948
1548.0,0.00525292371960602
1547.0,0.005222195511323564
1546.0,0.005159218549559386
1545.0,0.0051002547477833685
1544.0,0.005090370586862873
1543.0,0.005100111179268665
1542.0,0.00507065475360906
1541.0,0.005013547054249128
1540.0,0.0049959197081068125
1539.0,0.004965852832894583
1538.0,0.004941348158774063
1537.0,0.0050157250612525035
1536.0,0.005137587308857411
1535.0,0.005225559584596555
1534.0,0.005298669374356387
1533.0,0.005425240234231505
1532.0,0.00554087300849221
1531.0,0.005595991925013248
1530.0,0.005632561500149395
1529.0,0.005662152046062874
1528.0,0.005669435619650101
1527.0,0.00566116348442746
1526.0,0.005669323358489313
1525.0,0.0057023039219141775
1524.0,0.005721277773539125
1523.0,0.0056609021687513
1522.0,0.005532913927669154
1521.0,0.005424318439084901
1520.0,0.005351337807132811
1519.0,0.005310031300144322
1518.0,0.0053025667528404305
1517.0,0.0053518185503268565
1516.0,0.005470510041415825
1515.0,0.005640976193260918
1514.0,0.005905258806502929
1513.0,0.006316258831670614
1512.0,0.006914527903980686
1511.0,0.007692945094947935
1510.0,0.008700851533007665
1509.0,0.010095291478714224
1508.0,0.012442672662269512
1507.0,0.016036164719727082
1506.0,0.018844920624353504
1505.0,0.01932709601875768
1504.0,0.018379791793399235
1503.0,0.016740787590344676
1502.0,0.01470548389925521
1501.0,0.012565070742924872
1500.0,0.010576101382601205
1499.0,0.008876425345313622
1498.0,0.007473400053835863
1497.0,0.0064489322219201655
1496.0,0.005830872558873195
1495.0,0.005487892900785989
1494.0,0.005319914841050294
1493.0,0.005310251772422222
1492.0,0.005404708989352245
1491.0,0.0055483289906407655
1490.0,0.005822964383128284
1489.0,0.006320266449209879
1488.0,0.006919005756992865
1487.0,0.007481340200276203
1486.0,0.008043346183310847
1485.0,0.008661606565435308
1484.0,0.009333458891166903
1483.0,0.010045752062527929
1482.0,0.010831140364936556
1481.0,0.011689954072462629
1480.0,0.012504959854701111
1479.0,0.01317867427102273
1478.0,0.013745357165466286
1477.0,0.014292038011523296
1476.0,0.014813884011816783
1475.0,0.015234802206810765
1474.0,0.015521061226080216
1473.0,0.015692120365935546
1472.0,0.015719144542717656
1471.0,0.01559306249538887
1470.0,0.015428013885928342
1469.0,0.015315068297308203
1468.0,0.015262552567088646
1467.0,0.015275060526467613
1466.0,0.015394739306093027
1465.0,0.015660336664699556
1464.0,0.016005373169553437
1463.0,0.01631567781225182
1462.0,0.016598797094722964
1461.0,0.016891570939814558
1460.0,0.01717920975355321
1459.0,0.017416848290760647
1458.0,0.017647517878535322
1457.0,0.0179384344712434
1456.0,0.01812847913475488
1455.0,0.018154403420605217
1454.0,0.01811537427784167
1453.0,0.01800817035222872
1452.0,0.017803064647356478
1451.0,0.01752040399536246
1450.0,0.01720291433478231
1449.0,0.016863666095013573
1448.0,0.01649253033182159
1447.0,0.01613499125524192
1446.0,0.01584543672788254
1445.0,0.015625547172742976
1444.0,0.015437116603877199
1443.0,0.015236000125807565
1442.0,0.015017662204656886
1441.0,0.014803772861463681
1440.0,0.014599562950816991
1439.0,0.01435283473411562
1438.0,0.013969500884124374
1437.0,0.013403723327555267
1436.0,0.012763732806804259
1435.0,0.012198658132813223
1434.0,0.011727449043826728
1433.0,0.011277189096716142
1432.0,0.010798443923183427
1431.0,0.010307504053596987
1430.0,0.009858628840995424
1429.0,0.009509141206685653
1428.0,0.009283596547401563
1427.0,0.009178218088951213
1426.0,0.009172148073445019
1425.0,0.00928272820915494
1424.0,0.009567737959325806
1423.0,0.00999177168294263
1422.0,0.010492547880497423
1421.0,0.011160025839178932
1420.0,0.01230005453530102
1419.0,0.01420926162388855
1418.0,0.016736170467096183
1417.0,0.019605273993928626
1416.0,0.0228882493620124
1415.0,0.026733866972609488
1414.0,0.031208161525637518
1413.0,0.03631042340359925
1412.0,0.04174999661332156
1411.0,0.046770021907811994
1410.0,0.05054431414652044
1409.0,0.05266490539755779
1408.0,0.05295292698876456
1407.0,0.0512710494758596
1406.0,0.047775443135233193
1405.0,0.043113984358312964
1404.0,0.03827269397529383
1403.0,0.034058294149208516
1402.0,0.030665191002445157
1401.0,0.02779281974214049
1400.0,0.025081586122681604
1399.0,0.02252727279014604
1398.0,0.020431403389772496
1397.0,0.018883649877007264
1396.0,0.017646198946706597
1395.0,0.01652190235722276
1394.0,0.015550194283492306
1393.0,0.014834455270527857
1392.0,0.014347748817597882
1391.0,0.013987512130841814
1390.0,0.013689331200106042
1389.0,0.013449245596180444
1388.0,0.01328915557970044
1387.0,0.013219573454544897
1386.0,0.013228124892010654
1385.0,0.013295066518660869
1384.0,0.013398383663201365
1383.0,0.013507509990634822
1382.0,0.013612375872070332
1381.0,0.013731845443187517
1380.0,0.013883270556116739
1379.0,0.014062999878211097
1378.0,0.014257256703114302
1377.0,0.014459433155919754
1376.0,0.014665111697011016
1375.0,0.014867395473419531
1374.0,0.01504941895136367
1373.0,0.015179960350057628
1372.0,0.015220170271671624
1371.0,0.015130009344188664
1370.0,0.01486830782761515
1369.0,0.014416570145900184
1368.0,0.01380047673139163
1367.0,0.013076355201416059
1366.0,0.01230158310788658
1365.0,0.011504972629736748
1364.0,0.010693216050789212
1363.0,0.009910472517632662
1362.0,0.009268848354380854
1361.0,0.008856173713130189
1360.0,0.008651877080643803
1359.0,0.008583792512853725
1358.0,0.008613654743384418
1357.0,0.008752409766187252
1356.0,0.009022665876812615
1355.0,0.009432820164077402
1354.0,0.009994786689599227
1353.0,0.010743096982292113
1352.0,0.011714405065553407
1351.0,0.012946759054018816
1350.0,0.01449546574297221
1349.0,0.016424123705514732
1348.0,0.01877635548713697
1347.0,0.02158422600520198
1346.0,0.024904847585692516
1345.0,0.028764849634534573
1344.0,0.033032940832235944
1343.0,0.03743181804205661
1342.0,0.041707832533142135
1341.0,0.04567295807220818
1340.0,0.04897505053945322
1339.0,0.05098208828931464
1338.0,0.051201366773578554
1337.0,0.04963881538621518
1336.0,0.04656980160721651
1335.0,0.04230865647321834
1334.0,0.03725357339196786
1333.0,0.031902015788736464
1332.0,0.02675615055044573
1331.0,0.022227016476296577
1330.0,0.0185593462551584
1329.0,0.015797279907421583
1328.0,0.013844806885959359
1327.0,0.012560957640034735
1326.0,0.011798512935058677
1325.0,0.011415257430843984
1324.0,0.011299467441249145
1323.0,0.011377686373224363
1322.0,0.011594508616491389
1321.0,0.01190399496112592
1320.0,0.012281517644260574
1319.0,0.012721043119769352
1318.0,0.013214082395146157
1317.0,0.013745627099970428
1316.0,0.014313664538893496
1315.0,0.01493798490366607
1314.0,0.015646354392353373
1313.0,0.01645268417852186
1312.0,0.017343258624359446
1311.0,0.01828718137225367
1310.0,0.019261176048376447
1309.0,0.020257728496437234
1308.0,0.02126606853776635
1307.0,0.022264226732364105
1306.0,0.02324423919026005
1305.0,0.024234480782113127
1304.0,0.0252827978428855
1303.0,0.02643152094445636
1302.0,0.027722605417394366
1301.0,0.02920044015001203
1300.0,0.03088156524702121
1299.0,0.03273427359955408
1298.0,0.034710833447903974
1297.0,0.03677911684526408
1296.0,0.038900749219025046
1295.0,0.04101637765105146
1294.0,0.043092445880172685
1293.0,0.045145301908073754
1292.0,0.04718065234605253
1291.0,0.049155663674691145
1290.0,0.05104226770513603
1289.0,0.052872661546782926
1288.0,0.05467175799512315
1287.0,0.056404379617054565
1286.0,0.05804381976519962
1285.0,0.0596269704908568
1284.0,0.061188433215761326
1283.0,0.0627130410225816
1282.0,0.06420594654793337
1281.0,0.06573486744237751
1280.0,0.06735019638370025
1279.0,0.06904118723010608
1278.0,0.07082735039930144
1277.0,0.072807516273321
1276.0,0.07505743701870657
1275.0,0.07756881822504304
1274.0,0.0803548439529004
1273.0,0.08351841432292124
1272.0,0.08712637963855854
1271.0,0.09110071766326927
1270.0,0.0953290556535767
1269.0,0.09978263088667963
1268.0,0.10441307412187945
1267.0,0.10906020977411941
1266.0,0.11359871962446096
1265.0,0.11804021943193671
1264.0,0.1223480628152516
1263.0,0.12631589680892677
1262.0,0.12978597055336094
1261.0,0.1328034590498687
1260.0,0.135407223859289
1259.0,0.13750805589525883
1258.0,0.13914913400654236
1257.0,0.14062450832183795
1256.0,0.1421726206336343
1255.0,0.14380694043278733
1254.0,0.14557072176966931
1253.0,0.14767811533909322
1252.0,0.15023621073930618
1251.0,0.15308166071374882
1250.0,0.15605839029463053
1249.0,0.159193306525391
1248.0,0.1624227799488259
1247.0,0.16543910655634683
1246.0,0.1680152776657841
1245.0,0.1701760535384264
1244.0,0.17184535783218227
1243.0,0.1726915452632379
1242.0,0.17253503910180998
1241.0,0.17151410343750867
1240.0,0.1696748361748224
1239.0,0.16684022543869945
1238.0,0.16303674862163411
1237.0,0.1586123900575167
1236.0,0.15381763528725956
1235.0,0.14867559585276174
1234.0,0.14331197272716723
1233.0,0.13801924486400077
1232.0,0.13294214559676915
1231.0,0.1280205648636054
1230.0,0.12326763522819145
1229.0,0.11882037446183441
1228.0,0.11469821533814584
1227.0,0.11076538860833364
1226.0,0.10696065233139021
1225.0,0.10335405126652705
1224.0,0.09995218639449736
1223.0,0.09663674632646502
1222.0,0.09331875368671347
1221.0,0.08998882936734753
1220.0,0.08660473236285517
1219.0,0.0830904501014645
1218.0,0.07946579169367671
1217.0,0.075838474698602
1216.0,0.07226241802931285
1215.0,0.0687260785218083
1214.0,0.06526700993511522
1213.0,0.06197673456289461
1212.0,0.058893913208728485
1211.0,0.05598913030047972
1210.0,0.053246992712868244
1209.0,0.05067670217708014
1208.0,0.04825115402759986
1207.0,0.045915787806666636
1206.0,0.04365802822400042
1205.0,0.04150583375719952
1204.0,0.039464151551279
1203.0,0.03751014787221251
1202.0,0.03564245950122187
1201.0,0.03388138896442887
1200.0,0.0322238155846277
1199.0,0.030641018244230322
1198.0,0.029117559388821643
1197.0,0.027657230639085158
1196.0,0.026256817426774326
1195.0,0.024908511185832247
1194.0,0.023626748685658776
1193.0,0.022445902920082535
1192.0,0.021390870552874093
1191.0,0.02046516660621574
1190.0,0.01966356181885015
1189.0,0.018983914627895192
1188.0,0.01843184037477118
1187.0,0.01802472942312559
1186.0,0.017787272189226547
1185.0,0.01773457743536967
1184.0,0.017860739918902403
1183.0,0.018145282265032363
1182.0,0.018566365636826617
1181.0,0.019103777636589877
1180.0,0.019728898814410627
1179.0,0.020395891832846756
1178.0,0.021045836036920083
1177.0,0.02161692765153534
1176.0,0.022049528398275176
1175.0,0.02229197193316619
1174.0,0.0223092839132596
1173.0,0.022080963150283295
1172.0,0.021598231671719995
1171.0,0.020886144492056814
1170.0,0.02002727309943274
1169.0,0.019140867571884143
1168.0,0.018335452305849046
1167.0,0.017686520643728026
1166.0,0.01723742053478636
1165.0,0.0169966707224883
1164.0,0.016939393416950634
1163.0,0.01702522600196085
1162.0,0.01721689671994773
1161.0,0.017483290126346314
1160.0,0.01779971281181898
1159.0,0.01815987355793985
1158.0,0.01858085342869766
1157.0,0.019080181374629468
1156.0,0.019650974318834526
1155.0,0.020275445777022623
1154.0,0.020959477274932165
1153.0,0.02173331460172416
1152.0,0.022616181453616734
1151.0,0.023601888566683576
1150.0,0.024683694933788684
1149.0,0.025867081363547928
1148.0,0.02714600971501569
1147.0,0.028494383015184414
1146.0,0.02990178591616075
1145.0,0.03139407277399493
1144.0,0.032998253981369255
1143.0,0.034711624622479884
1142.0,0.036524818216074964
1141.0,0.03844482159234368
1140.0,0.04047128689652765
1139.0,0.042587218602451515
1138.0,0.044806363257058085
1137.0,0.0471926514561667
1136.0,0.04979828765053518
1135.0,0.05262353884813481
1134.0,0.055669464556328416
1133.0,0.058971095054955264
1132.0,0.06252858873194399
1131.0,0.06626695992694605
1130.0,0.07012345633383982
1129.0,0.07410785417156986
1128.0,0.07821317534040828
1127.0,0.08235618803683772
1126.0,0.08648586516081158
1125.0,0.09064219373113189
1124.0,0.0948103594890463
1123.0,0.09883948241367899
1122.0,0.10260679466032269
1121.0,0.10610332463761835
1120.0,0.10923893436396749
1119.0,0.11175856597347834
1118.0,0.11349003351619573
1117.0,0.114470847728949
1116.0,0.11473790328228198
1115.0,0.11428853302852005
1114.0,0.11338440441420683
1113.0,0.1126039258651581
1112.0,0.11245989221636954
1111.0,0.11317865775700262
1110.0,0.1148789040715261
1109.0,0.11767967143037703
1108.0,0.12150193459188871
1107.0,0.1259933747014088
1106.0,0.1308303684450405
1105.0,0.13590532034285563
1104.0,0.14105789485644626
1103.0,0.14591256017929757
1102.0,0.1502264987823268
1101.0,0.15408812259711552
1100.0,0.15751242874973703
1099.0,0.16020182778939515
1098.0,0.16197554336458575
1097.0,0.16301513444973664
1096.0,0.16341451828867545
1095.0,0.1629617535549844
1094.0,0.16160230728073052
1093.0,0.15961905017516018
1092.0,0.15717590230674378
1091.0,0.15419951049106284
1090.0,0.1508234208297082
1089.0,0.14742424620928288
1088.0,0.14412084095161648
1087.0,0.14069714874385875
1086.0,0.1370738641955577
1085.0,0.1334163067267458
1084.0,0.1297246165175193
1083.0,0.12575761084376916
1082.0,0.12143399839496255
1081.0,0.11692447452281221
1080.0,0.1123153727861362
1079.0,0.10755102582615
1078.0,0.1027248690576984
1077.0,0.09808514274497382
1076.0,0.09372874961185924
1075.0,0.08956309458364911
1074.0,0.08556871831108274
1073.0,0.08185672357849923
1072.0,0.0784586133732056
1071.0,0.07527139596560758
1070.0,0.07223267631824408
1069.0,0.06937828609724135
1068.0,0.06671216412041497
1067.0,0.0641730869258413
1066.0,0.06174540731453319
1065.0,0.05947325522154055
1064.0,0.057359095759063033
1063.0,0.05536216267898991
1062.0,0.05349415130358666
1061.0,0.05181028538716527
1060.0,0.05030891476646949
1059.0,0.04893933120625941
1058.0,0.04770841350616122
1057.0,0.046682614684802004
1056.0,0.04587653007606397
1055.0,0.04522624598038945
1054.0,0.04468580630538896
1053.0,0.044272135382047745
1052.0,0.043994620688023435
1051.0,0.04381656147217201
1050.0,0.043711497495196365
1049.0,0.043674344775066494
1048.0,0.04365376708176737
1047.0,0.043563869290572974
1046.0,0.04337895878872587
1045.0,0.043131806168377765
1044.0,0.042814825244860584
1043.0,0.042366001833362456
1042.0,0.04175752593304383
1041.0,0.041020993288662655
1040.0,0.040178966478289196
1039.0,0.03923086888347864
1038.0,0.03821420434325005
1037.0,0.037200014938534934
1036.0,0.036214412523328667
1035.0,0.035230761894895705
1034.0,0.03424960683197981
1033.0,0.03333225255914669
1032.0,0.032553999135430875
1031.0,0.03198927986379708
1030.0,0.0317644550803301
1029.0,0.032084277764825954
1028.0,0.0331889219921837
1027.0,0.035296469117732474
1026.0,0.038565840256410806
1025.0,0.04305788377580863
1024.0,0.048694628797637696
1023.0,0.05527663824481578
1022.0,0.06256626560749763
1021.0,0.07028199882275982
1020.0,0.07788425821088878
1019.0,0.0843895119774078
1018.0,0.08858675205204873
1017.0,0.08955522977816992
1016.0,0.08705244423197926
1015.0,0.08165568611778865
1014.0,0.07460231834846998
1013.0,0.06722470252594466
1012.0,0.060396151165034107
1011.0,0.05445109248593795
1010.0,0.04942350983486845
1009.0,0.045233631847696416
1008.0,0.041748247976661226
1007.0,0.038831135060228325
1006.0,0.0363928928975203
1005.0,0.034371806593562704
1004.0,0.03268241604137055
1003.0,0.031226096898795887
1002.0,0.02994392495236369
1001.0,0.028816753078662466
1000.0,0.027819229126328282
999.0,0.026914732046726578
998.0,0.026090978610227404
997.0,0.02535924853594943
996.0,0.0247182115372601
995.0,0.02415400794626863
994.0,0.023673777783706017
993.0,0.023300860589009022
992.0,0.023031195924284986
991.0,0.022826661360295007
990.0,0.0226586954364476
989.0,0.0225300535883433
988.0,0.022449781155148903
987.0,0.022420018350599757
986.0,0.02245565217708549
985.0,0.02258537940606318
984.0,0.02282183513443823
983.0,0.023155882475120557
982.0,0.023587239186794243
981.0,0.02413089888224442
980.0,0.02478019334093559
979.0,0.025490613390847336
978.0,0.02621651097990764
977.0,0.026938340124268233
976.0,0.027635945321453345
975.0,0.028262306254627265
974.0,0.028764659270849174
973.0,0.02910872888299633
972.0,0.029269984281285147
971.0,0.029232557682768633
970.0,0.02900973170242279
969.0,0.02863211468659367
968.0,0.028106375974648934
967.0,0.02742029963012757
966.0,0.026593501814810877
965.0,0.025684966627812486
964.0,0.024743679880061653
963.0,0.023785913534388657
962.0,0.02282167976120862
961.0,0.021866793948817007
960.0,0.02092617038071956
959.0,0.019997799848390528
958.0,0.01909601280597474
957.0,0.018244186561784413
956.0,0.017446083260920914
955.0,0.016689190870646176
954.0,0.01597183682056513
953.0,0.015301482209541622
952.0,0.014671424438134354
951.0,0.0140680059187007
950.0,0.0135002759527852
949.0,0.012994705152131636
948.0,0.012557086640458032
947.0,0.012162288937799411
946.0,0.011784719617214851
945.0,0.011419291392688418
944.0,0.011070187458755758
943.0,0.010738754810515515
942.0,0.0104274116920001
941.0,0.010139555012600738
940.0,0.009870572998535953
939.0,0.009610186142961694
938.0,0.009355057516264628
937.0,0.009108486464224158
936.0,0.008868948656996792
935.0,0.008630967049497625
934.0,0.008395735996779827
933.0,0.008169040024857663
932.0,0.007951066273539111
931.0,0.007739595768764564
930.0,0.007538822373817939
929.0,0.007351999436188281
928.0,0.00716933742496545
927.0,0.006977187943122413
926.0,0.006777579129898698
925.0,0.006586521479835749
924.0,0.006415252546450971
923.0,0.006264082682062504
922.0,0.006130146464838886
921.0,0.006009189856919759
920.0,0.005893832170184288
919.0,0.005781984109305801
918.0,0.005683703211704361
917.0,0.005610883234458634
916.0,0.0055682104133579005
915.0,0.005565080868460068
914.0,0.005624018141961826
913.0,0.005757726093214673
912.0,0.0059440699766973824
911.0,0.006144866536589803
910.0,0.006349730978238481
909.0,0.0065835560446913
908.0,0.0068709894453221065
907.0,0.007212475480113223
906.0,0.007593598411902679
905.0,0.007993718890173154
904.0,0.008380435323494861
903.0,0.008719514344308371
902.0,0.009000688435830077
901.0,0.009234953257225318
900.0,0.0094213497283945
899.0,0.009540194009731322
898.0,0.009584904550885849
897.0,0.009573473244210911
896.0,0.009520667740811457
895.0,0.009427821714993508
894.0,0.009311721538557
893.0,0.009216022603289829
892.0,0.009179091541534509
891.0,0.009211068677678999
890.0,0.009314429587564371
889.0,0.009509216883728393
888.0,0.009828751725972373
887.0,0.010311372078824238
886.0,0.01101139821505744
885.0,0.012000101896483498
884.0,0.013332774031267036
883.0,0.01501750633522379
882.0,0.01702723904564967
881.0,0.019329060783669916
880.0,0.0218802298716183
879.0,0.024617478209216608
878.0,0.027496281764586038
877.0,0.030523353908730982
876.0,0.03366984326634923
875.0,0.03670013022172177
874.0,0.039082715767017176
873.0,0.04010347045694127
872.0,0.039202705027858775
871.0,0.036405138356848846
870.0,0.03243759225232699
869.0,0.02828782323176699
868.0,0.02465178189295026
867.0,0.021783132586483733
866.0,0.019666075432529205
865.0,0.018185685991771817
864.0,0.017185912336145817
863.0,0.016505890960322102
862.0,0.016040153468284916
861.0,0.015753785308002897
860.0,0.01562468940438886
859.0,0.015603111844403748
858.0,0.015645831305355937
857.0,0.015752060879183575
856.0,0.015934572203323075
855.0,0.01618169199392785
854.0,0.01647981626136817
853.0,0.016852559384386307
852.0,0.01733998131512831
851.0,0.01793857879135515
850.0,0.018575455467603336
849.0,0.019133063764208258
848.0,0.019492633914622137
847.0,0.01958031511651792
846.0,0.019396619436033616
845.0,0.018992999877921773
844.0,0.018422369973165813
843.0,0.017735319863497828
842.0,0.017004073184818197
841.0,0.01629792117616071
840.0,0.015632643233579983
839.0,0.014981158695836036
838.0,0.014331054565067374
837.0,0.01369513855376385
836.0,0.01307212399872169
835.0,0.012443091336184705
834.0,0.011812739414901633
833.0,0.011214177269356935
832.0,0.010662811165492732
831.0,0.010139193142147118
830.0,0.00962851483877172
829.0,0.009148762870924507
828.0,0.008728681854451848
827.0,0.008381038897232528
826.0,0.008101713858515925
825.0,0.007867957600052607
824.0,0.007637802843261855
823.0,0.007387931861380821
822.0,0.0071535930510803515
821.0,0.006992585884110666
820.0,0.006912865718785938
819.0,0.006869086980926645
818.0,0.0068213344830215066
817.0,0.006764512708345043
816.0,0.0067050798140597286
815.0,0.006643953573954614
814.0,0.006587072948399282
813.0,0.0065420052143152115
812.0,0.00649476656187126
811.0,0.006416038517142581
810.0,0.006300293919280081
809.0,0.00617542886925742
808.0,0.006065704086196926
807.0,0.005967526598652812
806.0,0.00586761925091666
805.0,0.0057602759984756585
804.0,0.005638340927159407
803.0,0.005492092935675014
802.0,0.00533323389390172
801.0,0.005212932762370354
800.0,0.00521953747513549
799.0,0.005469636692871489
798.0,0.0060733428094757735
797.0,0.007050813180474801
796.0,0.008254238165462665
795.0,0.009393011812590706
794.0,0.010179745264037192
793.0,0.01047330517321651
792.0,0.010294868968559235
791.0,0.009758668526275788
790.0,0.009014413912059566
789.0,0.008203456334967447
788.0,0.007418342157833848
787.0,0.0067005558379834365
786.0,0.0060716346587070084
785.0,0.005545911064161569
784.0,0.005115967628147845
783.0,0.004753453288241425
782.0,0.004433301891653647
781.0,0.004142420653320138
780.0,0.00386638014363851
779.0,0.0035902796416773415
778.0,0.0033160910546659005
777.0,0.003058128379800653
776.0,0.0028186168323151746
775.0,0.002587899002692469
774.0,0.0023670628157266248
773.0,0.0021635105485008632
772.0,0.001961021396327235
771.0,0.0017233469504915992
770.0,0.0014393419160634302
769.0,0.0011417740808076053
768.0,0.0008689220526034262
767.0,0.0006258027719584502
766.0,0.00039351890356038866
765.0,0.00016026789321084076
764.0,-6.869103860500554e-05
763.0,-0.0002806065762884745
762.0,-0.0004665795323897208
761.0,-0.0006314080513772843
760.0,-0.0007930140161052836
759.0,-0.0009609988698345527
758.0,-0.0011164908270715063
757.0,-0.0012266851939449243
756.0,-0.001279515421164154
755.0,-0.001292555577042838
754.0,-0.001292285995570637
753.0,-0.0012991262512598422
752.0,-0.0013251008990295306
751.0,-0.0013611308863604298
750.0,-0.0013652139355337517
749.0,-0.0012859791430310345
748.0,-0.0011012319744675408
747.0,-0.0008145693738473986
746.0,-0.00041260017526189435
745.0,0.0001566233465400968
744.0,0.000966827964102801
743.0,0.0021040569691218036
742.0,0.0036772591133844394
741.0,0.0058066258399333825
740.0,0.008583903800110964
739.0,0.012056347653523865
738.0,0.01624185517593032
737.0,0.021110275739250103
736.0,0.026526623382247025
735.0,0.03227702739467979
734.0,0.03822513969711699
733.0,0.04441201334502949
732.0,0.05095710582123329
731.0,0.05794450898600238
730.0,0.06548201060449878
729.0,0.07374873351538078
728.0,0.08280059549361478
727.0,0.09229481840098783
726.0,0.10140078882824242
725.0,0.10885945599495532
724.0,0.1132253772125314
723.0,0.11360098400908647
722.0,0.11037226298850103
721.0,0.10488438806941289
720.0,0.09844736160034621
719.0,0.09185952599807425
718.0,0.08553583963258138
717.0,0.07966443256134034
716.0,0.0742537719884352
715.0,0.06923987858923555
714.0,0.06460707174856685
713.0,0.06037179599436712
712.0,0.05649980634243909
711.0,0.05292388748555843
710.0,0.04961497703910528
709.0,0.046566042903800065
708.0,0.04373578187272939
707.0,0.04107335347300038
706.0,0.03857970248550039
705.0,0.03628360637324051
704.0,0.03415925282668219
703.0,0.03211084304430507
702.0,0.03003500606770179
701.0,0.02786972150467632
700.0,0.025609379625440805
699.0,0.023324074077065722
698.0,0.021151336772348373
697.0,0.019221123590731838
696.0,0.017581287596748194
695.0,0.01620776667809329
694.0,0.015063587681375838
693.0,0.014114405418875604
692.0,0.013306589206474751
691.0,0.012579115493451708
690.0,0.011907803381553377
689.0,0.01131441720803801
688.0,0.01082322856636744
687.0,0.010432564678977692
686.0,0.010134462404359508
685.0,0.009926460377856758
684.0,0.009793800710004113
683.0,0.0097071525522172
682.0,0.009639081408582214
681.0,0.009557268647002445
680.0,0.009406068809759308
679.0,0.009126976385218678
678.0,0.00870884736438108
677.0,0.008197924216223527
676.0,0.007661153928678142
675.0,0.007152206473179712
674.0,0.006688325284376028
673.0,0.006255214582999324
672.0,0.005820319956995581
671.0,0.005370883472161917
670.0,0.0049324337665959984
669.0,0.004598288988966012
668.0,0.004464609018950839
667.0,0.004442107208919681
666.0,0.004381661793754019
665.0,0.004250024492321369
664.0,0.004063989702697751
663.0,0.0038341898121520765
662.0,0.003596505624818804
661.0,0.0033978765373441945
660.0,0.0032574707074888437
659.0,0.0031553602000782173
658.0,0.003069122840328977
657.0,0.0029843160342014376
656.0,0.0028831321686102612
655.0,0.0027576876317274256
654.0,0.0026313853262678703
653.0,0.0025383462268384616
652.0,0.0024722187418445944
651.0,0.0023849280314605023
650.0,0.002245607227132594
649.0,0.002074774431308799
648.0,0.0019126361853568537
647.0,0.001784553181539996
646.0,0.0017004688235841385
645.0,0.0016497945298467008
644.0,0.0015882392825569691
643.0,0.0014659590060666881
642.0,0.0012887315303194945
641.0,0.0011213312214800215
640.0,0.0010194781827497362
639.0,0.0009881470076613282
638.0,0.0010095068520367852
637.0,0.0010863821694305047
636.0,0.0012481334748553514
635.0,0.0015275982604517624
634.0,0.0019247138403451214
633.0,0.002355893591613707
632.0,0.0026384082094779403
631.0,0.0025937446231505124
630.0,0.0022220495860413476
629.0,0.001709680156831126
628.0,0.0012301967857964065
627.0,0.0008229441265039696
626.0,0.00047631899215170095
625.0,0.00023176267547848906
624.0,0.00014059574489465668
623.0,0.00016759309481515286
622.0,0.00021353339223388265
621.0,0.0002177354795791439
620.0,0.00017901284100935166
619.0,9.848169385566485e-05
618.0,-2.535936483758633e-05
617.0,-0.00015133150959864214
616.0,-0.0002182849312478384
615.0,-0.00022658293450587147
614.0,-0.0002464948139090893
613.0,-0.0003352671000001993
612.0,-0.0004759450236053418
611.0,-0.0006002760249914883
610.0,-0.0006567562970791023
609.0,-0.0006548451304921009
608.0,-0.0006499952759514496
607.0,-0.0006894533457996455
606.0,-0.000773167354011537
605.0,-0.0008758327481868111
604.0,-0.0009906559662020663
603.0,-0.0011187046350199445
602.0,-0.0012321706002416943
601.0,-0.0012945312198857188
600.0,-0.0013180256722316527
