cm-1,A
4000.0,0.0008802551197589215
3999.0,0.0009077741223647582
3998.0,0.0009016980715699577
3997.0,0.0008822062213471827
3996.0,0.0008812057844723971
3995.0,0.0009187948026855115
3994.0,0.0009808679290123192
3993.0,0.0010258265996635199
3992.0,0.001015708456588148
3991.0,0.0009581815177558597
3990.0,0.0009035891438321881
3989.0,0.0008960657363069023
3988.0,0.0009307094977672684
3987.0,0.0009602595973727361
3986.0,0.0009530325643727225
3985.0,0.0009237412819500116
3984.0,0.0009155152217633026
3983.0,0.0009595656971751873
3982.0,0.001046239444543873
3981.0,0.0011380651378650151
3980.0,0.0011937522027870486
3979.0,0.0011939386068246932
3978.0,0.0011505962747871915
3977.0,0.001095339827137466
3976.0,0.0010589721128750965
3975.0,0.001042030311708365
3974.0,0.0010225184303624948
3973.0,0.0009899624394949626
3972.0,0.0009619448958697275
3971.0,0.0009650747732617556
3970.0,0.0010011055789649528
3969.0,0.001052070363863204
3968.0,0.0011055651581220252
3967.0,0.001164617773219103
3966.0,0.0012261082138567726
3965.0,0.0012607432313696603
3964.0,0.001226920383718205
3963.0,0.001110356406850371
3962.0,0.0009544534135348887
3961.0,0.0008262601159426484
3960.0,0.0007576735470509934
3959.0,0.0007369594560134819
3958.0,0.0007410093587838767
3957.0,0.000780438192074435
3956.0,0.0008887549437823685
3955.0,0.0010748879965176029
3954.0,0.001305888376994883
3953.0,0.0015079598979445942
3952.0,0.0015924926265132944
3951.0,0.001499664562285721
3950.0,0.0012484272001336144
3949.0,0.0009665223210872913
3948.0,0.0008065862577811972
3947.0,0.0008426796249341572
3946.0,0.001044324754296313
3945.0,0.0012851055119996475
3944.0,0.001425181036100693
3943.0,0.0014248078257053228
3942.0,0.0013585003851632462
3941.0,0.0013104794197281201
3940.0,0.001286251668907083
3939.0,0.0012518705481177235
3938.0,0.0011900906007534257
3937.0,0.001128127486285331
3936.0,0.0011082289120182085
3935.0,0.0011270212030809355
3934.0,0.0011577821510102568
3933.0,0.0011924359558648599
3932.0,0.0012596850239776436
3931.0,0.0013536320658926798
3930.0,0.001424241759811715
3929.0,0.0014713739003788502
3928.0,0.0015386156861500874
3927.0,0.0016223446095229282
3926.0,0.001622906852001854
3925.0,0.0015018148827920241
3924.0,0.0013678190768347713
3923.0,0.0013174035497614499
3922.0,0.001316816479011492
3921.0,0.0012615758958073355
3920.0,0.0011357080693209223
3919.0,0.0010409957771088125
3918.0,0.0010422746022439935
3917.0,0.0011085937371990576
3916.0,0.0011747084770159805
3915.0,0.0012217076023401429
3914.0,0.0012390931051896913
3913.0,0.0011965436295847164
3912.0,0.001096160517116914
3911.0,0.0010183459663730245
3910.0,0.001029307996284489
3909.0,0.0011186561456542118
3908.0,0.0012158322245803925
3907.0,0.00123639661697809
3906.0,0.001115151844023391
3905.0,0.0008697333749509229
3904.0,0.0006688746239218125
3903.0,0.0006801897254122714
3902.0,0.0008720686437844885
3901.0,0.0010830541567721941
3900.0,0.0012078802486854088
3899.0,0.0012784973588899845
3898.0,0.0013563349074210583
3897.0,0.001433700027209512
3896.0,0.0014426724094914476
3895.0,0.0013810052151862536
3894.0,0.0013003564448985545
3893.0,0.0012083105796669383
3892.0,0.0010742759171902191
3891.0,0.0008938317284302635
3890.0,0.000714113306152191
3889.0,0.0006768985015158232
3888.0,0.000802365790113605
3887.0,0.0008659825415306783
3886.0,0.0007718947015213484
3885.0,0.0007833712671593968
3884.0,0.0010670802240991548
3883.0,0.001478105935890795
3882.0,0.0017141823262174479
3881.0,0.0016255856431666568
3880.0,0.0014261327946380516
3879.0,0.0013370207253093833
3878.0,0.001382927785263336
3877.0,0.0015251346754673566
3876.0,0.0016189171769830151
3875.0,0.0015396820159306393
3874.0,0.0014396207326583471
3873.0,0.0015495410380472543
3872.0,0.001784790573819508
3871.0,0.001787249999075929
3870.0,0.0014720703293895042
3869.0,0.0012215112847662364
3868.0,0.0012684192556079435
3867.0,0.0014625928295363714
3866.0,0.0014363647139178683
3865.0,0.001103263099910456
3864.0,0.0008586305987850415
3863.0,0.0009507940405306548
3862.0,0.0011342641467564753
3861.0,0.001176739709215154
3860.0,0.0010656317626109779
3859.0,0.000881930497619237
3858.0,0.0007252181061443959
3857.0,0.0007283171703480959
3856.0,0.000954677502582945
3855.0,0.001108631356376199
3854.0,0.0008274964316830691
3853.0,0.0006368773585163556
3852.0,0.0008263729017136817
3851.0,0.0010378650433186046
3850.0,0.0010941892827921853
3849.0,0.0010173824917630685
3848.0,0.0009395014855936596
3847.0,0.000978450431134449
3846.0,0.0011088317252375118
3845.0,0.00125578993172531
3844.0,0.0013767367711205753
3843.0,0.0014982877496636524
3842.0,0.0016567140391982116
3841.0,0.0018166216043995626
3840.0,0.0018601224951375782
3839.0,0.0017578532501318998
3838.0,0.0016315765162820172
3837.0,0.0015536879812529172
3836.0,0.0014918981210261997
3835.0,0.0014380851170339706
3834.0,0.0013823605962124726
3833.0,0.001291035054157631
3832.0,0.0011720537988812807
3831.0,0.0011025339071259804
3830.0,0.001134960608268701
3829.0,0.001238992131436874
3828.0,0.0012854251690112926
3827.0,0.0011705503295601338
3826.0,0.0009848957095318018
3825.0,0.0009444843271470688
3824.0,0.0011296947974403703
3823.0,0.001274859223952503
3822.0,0.000983297849788448
3821.0,0.000570661695941309
3820.0,0.0006358888624285325
3819.0,0.001123199834080055
3818.0,0.001644048125457086
3817.0,0.0017721035017762366
3816.0,0.0014908148073193026
3815.0,0.0012364547917770967
3814.0,0.001199154360709673
3813.0,0.0012034287909985803
3812.0,0.001073290283544838
3811.0,0.0008703360735136589
3810.0,0.0008287492088734621
3809.0,0.0009879731283537274
3808.0,0.0010709371845624123
3807.0,0.0009443417181227093
3806.0,0.0008708492427250518
3805.0,0.0011394414317852826
3804.0,0.0016729041419335199
3803.0,0.0019907062711234658
3802.0,0.0017896669508760338
3801.0,0.0014899123150811716
3800.0,0.0014564256033210016
3799.0,0.0015502843945199721
3798.0,0.0015732103471191852
3797.0,0.001473402977779828
3796.0,0.0014094614852093517
3795.0,0.0014914049029277447
3794.0,0.0015978241185022925
3793.0,0.001570934614178886
3792.0,0.0014097610974688323
3791.0,0.0012606663758034627
3790.0,0.0012467997132196837
3789.0,0.0013533644870126534
3788.0,0.0014875023958431386
3787.0,0.0015752566995687316
3786.0,0.0015772864054641091
3785.0,0.0015115622577979281
3784.0,0.001456061205250568
3783.0,0.001485139771863899
3782.0,0.0015778577764116392
3781.0,0.00158690965493499
3780.0,0.0014095076863432981
3779.0,0.0011883793663024613
3778.0,0.001108668665141985
3777.0,0.0011629889037046452
3776.0,0.0012098859532984948
3775.0,0.001146007342347155
3774.0,0.00103014687374033
3773.0,0.000998357665101762
3772.0,0.001051434733467112
3771.0,0.0010620283728016077
3770.0,0.001030349721311637
3769.0,0.0010945052780775818
3768.0,0.0012643592630353006
3767.0,0.001389096883892972
3766.0,0.0013663642448365765
3765.0,0.0012982659784998704
3764.0,0.0013617524743810014
3763.0,0.0015929095954540827
3762.0,0.0018111771039254227
3761.0,0.0018019879693750825
3760.0,0.001623609206010952
3759.0,0.0015398751028651908
3758.0,0.0016045023329107492
3757.0,0.0016399245833793067
3756.0,0.001612978273378425
3755.0,0.0015910664008724276
3754.0,0.0015101579533739863
3753.0,0.001198595083904427
3752.0,0.0007361217162536269
3751.0,0.0005529884800482988
3750.0,0.0007044947406135288
3749.0,0.0007812292399574875
3748.0,0.0007633138386273653
3747.0,0.0009384408073746043
3746.0,0.0011998757563925983
3745.0,0.0012056987196286152
3744.0,0.0011060631374609324
3743.0,0.0011728094618225163
3742.0,0.0013268257222725077
3741.0,0.0013931745592374103
3740.0,0.00133619368030383
3739.0,0.0013530886122729733
3738.0,0.0015965387145837487
3737.0,0.0018818579670944347
3736.0,0.002028536933631902
3735.0,0.0021276409441640777
3734.0,0.002172130446390727
3733.0,0.002003579602665239
3732.0,0.0016805357149197054
3731.0,0.001431515900703461
3730.0,0.0014037633437125078
3729.0,0.0015420210516770153
3728.0,0.0016407908210774426
3727.0,0.0015861063679370726
3726.0,0.0015292004273218729
3725.0,0.0016416605902833227
3724.0,0.0018586226268992962
3723.0,0.0020154992475965956
3722.0,0.0020547944539836436
3721.0,0.002015618996300347
3720.0,0.0019336526329012697
3719.0,0.0018280762847955774
3718.0,0.0016975314674915953
3717.0,0.0015696793500140308
3716.0,0.0015324210242354261
3715.0,0.00163581340910605
3714.0,0.0018178127880160875
3713.0,0.001962936431177834
3712.0,0.0020790571624524443
3711.0,0.0022491238798926505
3710.0,0.002356877138171104
3709.0,0.002312572286826046
3708.0,0.0022084680408443694
3707.0,0.0021526914107015006
3706.0,0.0021946281314952423
3705.0,0.0023303708374745845
3704.0,0.002489472696428372
3703.0,0.0025749081492163085
3702.0,0.0025830363749856063
3701.0,0.002597436799359457
3700.0,0.002650200197148106
3699.0,0.0026992137906042997
3698.0,0.0026627545368493027
3697.0,0.002495791273757684
3696.0,0.0022920720523719696
3695.0,0.0022024751123731114
3694.0,0.002276234715161315
3693.0,0.002485894662237518
3692.0,0.002778017911022633
3691.0,0.0030614282103104606
3690.0,0.0032217233403078506
3689.0,0.003253182542948512
3688.0,0.0032248332009169305
3687.0,0.00319103576188399
3686.0,0.003204173549304106
3685.0,0.0032425941052100825
3684.0,0.00326788979038116
3683.0,0.0033267929138055844
3682.0,0.0034534978718299067
3681.0,0.0035305425831008274
3680.0,0.0034683394202182647
3679.0,0.0034521231508763007
3678.0,0.003727647803498068
3677.0,0.004112010599962436
3676.0,0.004249777102147835
3675.0,0.004290050557939007
3674.0,0.004396577975906251
3673.0,0.004594272294591358
3672.0,0.004738854189802645
3671.0,0.004543075561111103
3670.0,0.0042088952883105445
3669.0,0.00424543508976562
3668.0,0.004559164973666895
3667.0,0.004873297614191231
3666.0,0.005102357609563495
3665.0,0.005271325924604076
3664.0,0.005435048391120766
3663.0,0.0056148214847952654
3662.0,0.00576527865091989
3661.0,0.005835270499555357
3660.0,0.005863977500570007
3659.0,0.005922348482422696
3658.0,0.006003718216520961
3657.0,0.0060389467638494315
3656.0,0.006095164015996224
3655.0,0.00629790165684509
3654.0,0.006667508262457258
3653.0,0.00712960691368897
3652.0,0.0074614539618787085
3651.0,0.0074855063625447645
3650.0,0.007519612772607612
3649.0,0.008092372549055486
3648.0,0.00889464286338911
3647.0,0.00936881896813897
3646.0,0.00950881400498663
3645.0,0.009534867136303997
3644.0,0.009562395664881181
3643.0,0.009632408654989431
3642.0,0.009796441925432066
3641.0,0.010087715121214345
3640.0,0.010447645813509642
3639.0,0.010746804269645463
3638.0,0.010930153256665487
3637.0,0.011057031668776125
3636.0,0.011185745297548656
3635.0,0.011281481131105546
3634.0,0.01130675097486745
3633.0,0.011344737012367545
3632.0,0.011535080659647402
3631.0,0.011888280178779005
3630.0,0.012220585175142738
3629.0,0.012578900145090943
3628.0,0.013114238756522671
3627.0,0.013587614518713338
3626.0,0.01390784790326774
3625.0,0.014127674530389496
3624.0,0.01427921140700298
3623.0,0.014414534002655584
3622.0,0.014592191195111962
3621.0,0.014816572910681895
3620.0,0.015104188969595513
3619.0,0.015523182025196515
3618.0,0.01600407977959204
3617.0,0.016394132560807594
3616.0,0.01666252291016524
3615.0,0.016845943026289004
3614.0,0.016992822287503137
3613.0,0.017157524050368248
3612.0,0.017355854691759993
3611.0,0.017575440917159058
3610.0,0.01784217013194565
3609.0,0.018207502400356783
3608.0,0.0186942676291828
3607.0,0.019195240734129645
3606.0,0.019531368316254405
3605.0,0.019656912862146547
3604.0,0.019677877650433474
3603.0,0.019740382529026865
3602.0,0.019956209913212834
3601.0,0.020329887447242234
3600.0,0.02076509176141931
3599.0,0.02114570921549846
3598.0,0.02144363875005746
3597.0,0.0217164458960763
3596.0,0.022023758404923426
3595.0,0.02235280328955975
3594.0,0.022644552453502515
3593.0,0.02284337616017432
3592.0,0.02295696214936832
3591.0,0.023088403233638522
3590.0,0.02335508874082643
3589.0,0.023800765919183058
3588.0,0.02440200931027702
3587.0,0.02502139352822303
3586.0,0.025408713726251076
3585.0,0.025521117757677986
3584.0,0.02555573200448599
3583.0,0.02567750875240238
3582.0,0.025918841253903573
3581.0,0.02622242524333469
3580.0,0.026525667758762188
3579.0,0.026821439389194995
3578.0,0.027141381245023417
3577.0,0.02749704452096744
3576.0,0.02785041421169835
3575.0,0.02814843057280229
3574.0,0.028362100588853745
3573.0,0.02849841102353492
3572.0,0.02859637544981075
3571.0,0.02875147326597243
3570.0,0.02907964128149005
3569.0,0.029613627034628845
3568.0,0.03029500384588716
3567.0,0.031030945733696087
3566.0,0.03162993819708971
3565.0,0.03192097230648588
3564.0,0.03197254668232785
3563.0,0.03197659222034734
3562.0,0.0320671434380281
3561.0,0.03228343923455082
3560.0,0.03258350257834312
3559.0,0.03289780102154933
3558.0,0.03319187453736886
3557.0,0.03346819542247032
3556.0,0.03372976405999162
3555.0,0.03398288264294349
3554.0,0.03425858394079814
3553.0,0.03459848558078659
3552.0,0.03497195195313667
3551.0,0.035269123967120536
3550.0,0.03543720725379852
3549.0,0.03556197506572336
3548.0,0.035793078468663385
3547.0,0.03621980970821875
3546.0,0.03678658450795536
3545.0,0.037333735302817125
3544.0,0.03774836233465692
3543.0,0.03805251997800099
3542.0,0.038316813929929625
3541.0,0.03856877572809366
3540.0,0.03880004048000693
3539.0,0.039011495015457615
3538.0,0.03924348921533146
3537.0,0.03954976446174965
3536.0,0.03994219200990561
3535.0,0.04036361458613356
3534.0,0.04074381239070662
3533.0,0.041053913815871555
3532.0,0.04131514308364252
3531.0,0.041571232212627936
3530.0,0.04186141420256623
3529.0,0.042200572408322215
3528.0,0.0425653637267603
3527.0,0.04291453438726775
3526.0,0.04322953780726857
3525.0,0.04353785870946956
3524.0,0.04388214517563111
3523.0,0.04425466622981698
3522.0,0.044585359091996596
3521.0,0.044822045195633424
3520.0,0.045003027786822386
3519.0,0.04522262474385755
3518.0,0.04554354100621805
3517.0,0.04593577362024398
3516.0,0.04630759597328115
3515.0,0.04659065842757898
3514.0,0.046799523016432
3513.0,0.04700154926741471
3512.0,0.04724788871092168
3511.0,0.047546123348837885
3510.0,0.04788657584232614
3509.0,0.04825519175159876
3508.0,0.048617631150475
3507.0,0.048939566865454524
3506.0,0.04923248722802093
3505.0,0.049557168485853204
3504.0,0.04998174070630508
3503.0,0.050500855676591884
3502.0,0.050999771922882915
3501.0,0.05136424036382573
3500.0,0.05159416391315337
3499.0,0.05177459950159504
3498.0,0.05198649977114777
3497.0,0.05225501908081344
3496.0,0.052560892377896636
3495.0,0.052881996341329146
3494.0,0.053217217102936226
3493.0,0.05357446113915566
3492.0,0.05394601508429063
3491.0,0.05431218746938139
3490.0,0.05467482526881067
3489.0,0.05505731921320028
3488.0,0.05545241053042549
3487.0,0.05579802243243948
3486.0,0.056040996591576395
3485.0,0.05621397432660648
3484.0,0.056423926209573816
3483.0,0.05675909568878298
3482.0,0.05721477690490077
3481.0,0.057701234032060185
3480.0,0.05811147584638196
3479.0,0.05839353219095134
3478.0,0.0585771482320327
3477.0,0.0587484847432315
3476.0,0.058999171020486275
3475.0,0.05937193803045451
3474.0,0.05983101485003969
3473.0,0.0602899761576151
3472.0,0.06067248806788497
3471.0,0.060954977826092674
3470.0,0.061176908148999926
3469.0,0.061411893723974015
3468.0,0.061707152589659336
3467.0,0.06205303311571796
3466.0,0.062415650448587046
3465.0,0.0627794950808167
3464.0,0.06314542365871198
3463.0,0.06350178899415952
3462.0,0.06382547280859838
3461.0,0.06411061464582196
3460.0,0.06437698330989455
3459.0,0.06464912784162576
3458.0,0.06494297729773706
3457.0,0.06526052278220958
3456.0,0.0655877793008456
3455.0,0.06590203261245624
3454.0,0.0661973863642441
3453.0,0.06648723778415569
3452.0,0.06677307353846364
3451.0,0.06703310687414825
3450.0,0.06726791830705549
3449.0,0.06754470515720822
3448.0,0.06795173194068047
3447.0,0.06847707822027468
3446.0,0.06897192606877875
3445.0,0.06929879485205333
3444.0,0.06947048137004137
3443.0,0.06960709283107946
3442.0,0.06981128146812952
3441.0,0.07010370892624489
3440.0,0.07045280205331242
3439.0,0.0708203495920293
3438.0,0.07116682595452316
3437.0,0.07145633376987699
3436.0,0.07169109487495176
3435.0,0.07192043118714211
3434.0,0.07219968437785707
3433.0,0.072542940610929
3432.0,0.07292050941745208
3431.0,0.07328688093068245
3430.0,0.07360377853214213
3429.0,0.07386006833480648
3428.0,0.07407763083998399
3427.0,0.07428254011420983
3426.0,0.07446623988606474
3425.0,0.07460028999899275
3424.0,0.07470041338121301
3423.0,0.07484877025236779
3422.0,0.07512452734661038
3421.0,0.0755148219916017
3420.0,0.07591984032622306
3419.0,0.07625141707742555
3418.0,0.07650847519579672
3417.0,0.0767551526265739
3416.0,0.077040516171138
3415.0,0.07734344686509924
3414.0,0.07759507445136586
3413.0,0.0777579741567361
3412.0,0.0778763344420661
3411.0,0.07803272972810821
3410.0,0.07825543406398562
3409.0,0.07848991627908519
3408.0,0.07866786821190576
3407.0,0.07877873771241603
3406.0,0.0788630793597842
3405.0,0.07896260715262927
3404.0,0.07909729183836185
3403.0,0.07927023851806356
3402.0,0.07947455734063111
3401.0,0.07969719540256771
3400.0,0.07992641543568141
3399.0,0.0801532416955863
3398.0,0.08036449386101296
3397.0,0.08054664772812736
3396.0,0.08070105292262406
3395.0,0.08084521970867037
3394.0,0.08099199969705807
3393.0,0.08113526195818391
3392.0,0.08126150176542596
3391.0,0.08136787569634331
3390.0,0.08146282041755754
3389.0,0.0815538160568093
3388.0,0.08164071288663408
3387.0,0.08171603219175833
3386.0,0.0817707132856839
3385.0,0.08180330199216458
3384.0,0.08182504668595335
3383.0,0.08184980609123671
3382.0,0.08188217234897675
3381.0,0.08191906686519941
3380.0,0.0819585344015411
3379.0,0.08200154923366297
3378.0,0.08204821977787764
3377.0,0.0820960083083722
3376.0,0.08213185043998052
3375.0,0.08212662651136125
3374.0,0.08205918111206274
3373.0,0.0819614034938701
3372.0,0.0819180946354034
3371.0,0.08199308195629988
3370.0,0.0821568733537744
3369.0,0.08230849085976975
3368.0,0.08236848731501052
3367.0,0.08233155973341837
3366.0,0.08223593598032945
3365.0,0.08211543735363283
3364.0,0.08199089999749276
3363.0,0.08187953049135244
3362.0,0.08179165470585681
3361.0,0.0817273867526146
3360.0,0.08168673810938454
3359.0,0.08167309762993041
3358.0,0.0816769963219414
3357.0,0.08166767653574422
3356.0,0.08161141392638555
3355.0,0.08149458792043746
3354.0,0.08132835600016929
3353.0,0.08114376631007793
3352.0,0.080984101988535
3351.0,0.08088419682756222
3350.0,0.08084328170268075
3349.0,0.08082474568497428
3348.0,0.08079035725886474
3347.0,0.08072603648896713
3346.0,0.0806340672724706
3345.0,0.0805174203609999
3344.0,0.08038273061145812
3343.0,0.08024602054004137
3342.0,0.08012392443365939
3341.0,0.08002330385991922
3340.0,0.07994207340450311
3339.0,0.07987173652966524
3338.0,0.07979607185486763
3337.0,0.07969883995455154
3336.0,0.079577422350403
3335.0,0.0794380799478354
3334.0,0.07927744644300877
3333.0,0.07908680290501069
3332.0,0.07887949503354069
3331.0,0.07869230065784813
3330.0,0.0785459841354419
3329.0,0.07842042277510286
3328.0,0.07828425362322641
3327.0,0.07813369990724356
3326.0,0.07798531740019528
3325.0,0.07784262876252947
3324.0,0.07769322959478234
3323.0,0.07753197985336849
3322.0,0.0773659898367559
3321.0,0.07719923986937469
3320.0,0.07703042830608514
3319.0,0.0768656516504615
3318.0,0.07671800407845818
3317.0,0.07658945693267613
3316.0,0.07645984980198109
3315.0,0.07629471233053457
3314.0,0.07606546636291615
3313.0,0.07577781585534363
3312.0,0.0754913297296477
3311.0,0.07529275519851705
3310.0,0.07521940358868771
3309.0,0.0752041134253295
3308.0,0.07511963631012275
3307.0,0.07489317454858424
3306.0,0.07456846165921237
3305.0,0.07425382512691536
3304.0,0.07402627795408662
3303.0,0.07388665361233086
3302.0,0.0737853391351761
3301.0,0.07367248096268389
3300.0,0.07352984667505956
3299.0,0.0733710372924448
3298.0,0.07322005586212872
3297.0,0.07308634471071267
3296.0,0.0729557834529857
3295.0,0.07280403467954476
3294.0,0.0726191682094608
3293.0,0.07241468553423891
3292.0,0.07222193300434097
3291.0,0.07206572960137478
3290.0,0.07194191942635307
3289.0,0.07181768161964441
3288.0,0.07165689091046151
3287.0,0.07144874447929342
3286.0,0.07121467830627842
3285.0,0.07099125981169561
3284.0,0.07080500899989382
3283.0,0.0706597997544345
3282.0,0.0705468963324679
3281.0,0.0704645645252831
3280.0,0.07041636404251875
3279.0,0.07038094090388192
3278.0,0.07029607518613522
3277.0,0.07009972212668286
3276.0,0.06980070063967167
3275.0,0.06949333754239889
3274.0,0.06928056521579277
3273.0,0.06918134600503119
3272.0,0.06912352170765941
3271.0,0.06902130661755278
3270.0,0.06884523277732549
3269.0,0.06862223494535226
3268.0,0.06839201164219574
3267.0,0.06817741965386159
3266.0,0.06798740455149938
3265.0,0.06782908549728905
3264.0,0.06770164940221896
3263.0,0.06758191327495702
3262.0,0.06743020644723663
3261.0,0.0672207726802854
3260.0,0.06696288391477752
3259.0,0.06668919022906401
3258.0,0.06643102030600359
3257.0,0.0662104036752244
3256.0,0.06604594598577945
3255.0,0.06594301914915567
3254.0,0.0658721987315323
3253.0,0.06577538215883276
3252.0,0.06561062372677325
3251.0,0.06538530408956081
3250.0,0.0651379913560307
3249.0,0.06489779196569835
3248.0,0.06467154089784351
3247.0,0.06446226941700597
3246.0,0.06428042326694028
3245.0,0.06413104528727889
3244.0,0.06400106887359244
3243.0,0.06386821059429014
3242.0,0.06371630876057087
3241.0,0.06353672082484293
3240.0,0.06332413738971136
3239.0,0.0630835747515488
3238.0,0.06283753102064206
3237.0,0.06261384992975272
3236.0,0.06242486723898938
3235.0,0.062262658901136206
3234.0,0.06211198950908141
3233.0,0.06195690769710427
3232.0,0.06177441991384608
3231.0,0.06153564969495204
3230.0,0.06122623627275284
3229.0,0.06086640613593289
3228.0,0.060506239386989
3227.0,0.06019884558895554
3226.0,0.05997159776685752
3225.0,0.05981240703165653
3224.0,0.05967843822749028
3223.0,0.059524895728309254
3222.0,0.059333934295943504
3221.0,0.05911671426985477
3220.0,0.058884747248047715
3219.0,0.0586297282380195
3218.0,0.058341495007175344
3217.0,0.05803632773357011
3216.0,0.05775034613700463
3215.0,0.05750366840224244
3214.0,0.05727929571475607
3213.0,0.05703974255909545
3212.0,0.056764179781143745
3211.0,0.05647244890891304
3210.0,0.05621403843163928
3209.0,0.05602529135139195
3208.0,0.05588726865727429
3207.0,0.05573198248301108
3206.0,0.055499532883154824
3205.0,0.05518801600979659
3204.0,0.05484337869713394
3203.0,0.05451064394617998
3202.0,0.05420640985146292
3201.0,0.05392992230563301
3200.0,0.05367652209281199
3199.0,0.05343555169548795
3198.0,0.05319092784091691
3197.0,0.05293095200847361
3196.0,0.05265104009534064
3195.0,0.05234899713487976
3194.0,0.052031776541387346
3193.0,0.05172500563703708
3192.0,0.05145569918103749
3191.0,0.05121792984179434
3190.0,0.05097179458632976
3189.0,0.05068816655353051
3188.0,0.05038024416144233
3187.0,0.050082653041785524
3186.0,0.049811914083486244
3185.0,0.04955723088895958
3184.0,0.049295588388108436
3183.0,0.04900517029657915
3182.0,0.048677606694510725
3181.0,0.04833191062117452
3180.0,0.048007182539491204
3179.0,0.04772383817917433
3178.0,0.04745790170889001
3177.0,0.04717128932823572
3176.0,0.04686054696396627
3175.0,0.04655233786401358
3174.0,0.04625605320794599
3173.0,0.04595158586141441
3172.0,0.04563035409247722
3171.0,0.045319070358986704
3170.0,0.04504440647483939
3169.0,0.04479448442278
3168.0,0.04453930596754659
3167.0,0.044278866878563486
3166.0,0.04404075074784166
3165.0,0.04382973293282786
3164.0,0.04360868166787091
3163.0,0.04334319866056043
3162.0,0.04304640073597428
3161.0,0.042760058313730726
3160.0,0.042500664846719514
3159.0,0.04224288090487636
3158.0,0.041955088701096245
3157.0,0.04163685239818992
3156.0,0.04131802505838289
3155.0,0.041029847413768854
3154.0,0.04078066912571459
3153.0,0.04055278313245629
3152.0,0.04031802031216395
3151.0,0.04006056247219614
3150.0,0.03978925990363302
3149.0,0.039526242397320506
3148.0,0.03928149258972548
3147.0,0.03904055817650415
3146.0,0.03877977366347592
3145.0,0.03849224052882395
3144.0,0.038195858983971626
3143.0,0.037915199740755134
3142.0,0.037661163248458834
3141.0,0.03742983007554112
3140.0,0.03721306445015937
3139.0,0.03700141427776389
3138.0,0.03678156606648267
3137.0,0.03654417885844971
3136.0,0.03629923923108022
3135.0,0.03607417111563785
3134.0,0.03588637169095346
3133.0,0.03571732989364404
3132.0,0.03552306587227482
3131.0,0.0352750882837262
3130.0,0.03498694955484054
3129.0,0.0347002450084015
3128.0,0.034451962115951675
3127.0,0.03425316635545228
3126.0,0.03408464363139689
3125.0,0.03390919372787473
3124.0,0.03370151277026348
3123.0,0.033473785188466935
3122.0,0.0332614847707085
3121.0,0.03307869475206162
3120.0,0.03290110587594656
3119.0,0.03270005147018077
3118.0,0.03247813239710442
3117.0,0.032256693891551017
3116.0,0.03204165982521367
3115.0,0.03182201288851638
3114.0,0.03159572973710207
3113.0,0.031374057604842145
3112.0,0.031160643725205585
3111.0,0.030947971015828704
3110.0,0.030736095151976173
3109.0,0.030534975319851054
3108.0,0.03034526151711204
3107.0,0.030154712317196512
3106.0,0.02995723097329689
3105.0,0.029761174244727455
3104.0,0.02957377999978758
3103.0,0.029391087179783344
3102.0,0.0292080932772577
3101.0,0.029029683426470065
3100.0,0.028863350699812898
3099.0,0.028706239606906252
3098.0,0.028548640527098882
3097.0,0.028385905961564237
3096.0,0.028220281720576997
3095.0,0.028052641843639214
3094.0,0.027877942837879297
3093.0,0.027690579150238242
3092.0,0.0274924722069663
3091.0,0.027294808409440683
3090.0,0.027112188724895393
3089.0,0.026954027547068125
3088.0,0.026820072810671402
3087.0,0.026702321555595234
3086.0,0.026587228726190053
3085.0,0.026457711843554967
3084.0,0.026300956826323902
3083.0,0.026120166959054187
3082.0,0.02593511324406722
3081.0,0.02576510514652232
3080.0,0.025612085502731845
3079.0,0.025464122396878515
3078.0,0.02531224367880975
3077.0,0.0251556040467672
3076.0,0.02499347413773812
3075.0,0.024821075053127903
3074.0,0.0246346836036254
3073.0,0.024435760823578227
3072.0,0.024232616934937383
3071.0,0.024044182452737196
3070.0,0.023896722828135736
3069.0,0.023804976558379768
3068.0,0.023751202888402
3067.0,0.023690490595824253
3066.0,0.023582697053223658
3065.0,0.023419073119535422
3064.0,0.023220125984445308
3063.0,0.023015847879213208
3062.0,0.022832655895946945
3061.0,0.022688384778708742
3060.0,0.022584069325502523
3059.0,0.022495640140410934
3058.0,0.022385278982315276
3057.0,0.02223441199521487
3056.0,0.02206452317612239
3055.0,0.021913862780261695
3054.0,0.02178985705695439
3053.0,0.021656479089869
3052.0,0.021480336821436807
3051.0,0.02128054116270714
3050.0,0.02111396524788179
3049.0,0.021010026763183223
3048.0,0.020933576812949533
3047.0,0.020825843031664213
3046.0,0.020668615740023127
3045.0,0.020493822085290114
3044.0,0.020342318844150005
3043.0,0.020228840729804267
3042.0,0.020144625859084126
3041.0,0.02007294971638903
3040.0,0.019994738448984938
3039.0,0.019892689389798785
3038.0,0.01976036312741901
3037.0,0.019604053192917265
3036.0,0.019433220030119453
3035.0,0.019255038550934418
3034.0,0.019079547511365362
3033.0,0.018920766075608875
3032.0,0.01878603198928544
3031.0,0.018672729705693326
3030.0,0.01857813885150728
3029.0,0.018502726071606242
3028.0,0.01843800758045752
3027.0,0.01836312850862109
3026.0,0.018264149289746748
3025.0,0.018148788688537754
3024.0,0.018031959675578222
3023.0,0.017915259653478642
3022.0,0.017792144667443773
3021.0,0.017667978565367948
3020.0,0.01755937860729666
3019.0,0.017473119486551947
3018.0,0.017400241683924064
3017.0,0.0173361337217103
3016.0,0.017293835303244773
3015.0,0.01728406411736393
3014.0,0.017290102577016235
3013.0,0.017277819212581744
3012.0,0.017234673914276036
3011.0,0.01718537862640668
3010.0,0.01716019783288588
3009.0,0.017156003877591187
3008.0,0.017140452289249198
3007.0,0.017094389606755613
3006.0,0.017033220018299326
3005.0,0.016982615902995258
3004.0,0.01694380740815202
3003.0,0.016898568037526387
3002.0,0.016843642136684222
3001.0,0.016805303350627687
3000.0,0.016816565144476048
2999.0,0.016886984916828537
2998.0,0.01699791758667538
2997.0,0.01711959073676949
2996.0,0.017233047730368666
2995.0,0.017343885176886335
2994.0,0.017478691639513367
2993.0,0.01766086929602704
2992.0,0.017884861169506973
2991.0,0.0181224521760407
2990.0,0.018354750845980653
2989.0,0.018590376554744697
2988.0,0.018848799728563945
2987.0,0.019141225541709186
2986.0,0.019479253894053253
2985.0,0.019889096887096766
2984.0,0.020395446860726148
2983.0,0.020993124437595285
2982.0,0.021653885311283684
2981.0,0.022369456647760733
2980.0,0.02317357512196028
2979.0,0.024113991815975414
2978.0,0.025214308464500648
2977.0,0.026475898947835096
2976.0,0.027909881563810236
2975.0,0.029552587083172634
2974.0,0.031448946954339654
2973.0,0.03362979321157159
2972.0,0.03610700217467939
2971.0,0.03888073805449611
2970.0,0.04194369681871795
2969.0,0.045282725423987195
2968.0,0.04887980609303983
2967.0,0.05270112494398952
2966.0,0.05667264186429312
2965.0,0.06066002471035278
2964.0,0.0644722280667752
2963.0,0.06789242855018111
2962.0,0.07073306071969296
2961.0,0.07291386294524664
2960.0,0.07452159476997416
2959.0,0.07579885169043332
2958.0,0.07707280665577512
2957.0,0.07867008846339156
2956.0,0.08084234153387403
2955.0,0.08370765693712576
2954.0,0.0871987235370393
2953.0,0.09103734928104683
2952.0,0.09474172470552625
2951.0,0.09768218063882049
2950.0,0.09921394795356886
2949.0,0.09885211651458768
2948.0,0.09642811092477033
2947.0,0.09213200710698594
2946.0,0.08644916234508426
2945.0,0.08005032561314866
2944.0,0.07364268421427365
2943.0,0.06781622459577742
2942.0,0.06295693571072779
2941.0,0.05925277649847146
2940.0,0.056744657721763125
2939.0,0.055371891763113606
2938.0,0.055011701992090524
2937.0,0.05553157132385222
2936.0,0.05683277589883055
2935.0,0.05885624725825682
2934.0,0.06154867515453921
2933.0,0.06483876324801069
2932.0,0.06864192264618706
2931.0,0.07286629223018236
2930.0,0.07739951832434298
2929.0,0.08209682764656712
2928.0,0.08680909159040642
2927.0,0.0914246354601717
2926.0,0.09589291824883284
2925.0,0.10023233791371133
2924.0,0.10451415286633113
2923.0,0.10880043233830496
2922.0,0.11308040003589212
2921.0,0.11723134191074823
2920.0,0.12100098331573533
2919.0,0.12399880104028693
2918.0,0.12574451900448974
2917.0,0.12583990541808202
2916.0,0.1241657264218302
2915.0,0.12094853083459144
2914.0,0.11665640382235143
2913.0,0.11185633724856583
2912.0,0.1070708374427731
2911.0,0.10264388759892373
2910.0,0.09869674260097135
2909.0,0.09518080315488357
2908.0,0.09197748447205159
2907.0,0.08895103063283008
2906.0,0.0859733082609707
2905.0,0.0829557845012662
2904.0,0.07987560980058961
2903.0,0.0767618082896053
2902.0,0.0736645444530955
2901.0,0.07063451934406
2900.0,0.06772500750189794
2899.0,0.06498320862688521
2898.0,0.062432411452345876
2897.0,0.06008413912022317
2896.0,0.0579644606357352
2895.0,0.05611939956260877
2894.0,0.054591350443954474
2893.0,0.05339839689166667
2892.0,0.05253378336068994
2891.0,0.051970471455915004
2890.0,0.05166498419004363
2889.0,0.05156674590456062
2888.0,0.051634284522564404
2887.0,0.051846400931246435
2886.0,0.05219968324735404
2885.0,0.052702892679827154
2884.0,0.05337114094265595
2883.0,0.05421211782157131
2882.0,0.0552055387859681
2881.0,0.056287950722965954
2880.0,0.05735112461188527
2879.0,0.058244315275704624
2878.0,0.05880264083441299
2877.0,0.05892080860079702
2876.0,0.058642109310674824
2875.0,0.05817730581039905
2874.0,0.05780682365533199
2873.0,0.05775170727566966
2872.0,0.05809013497700149
2871.0,0.058764317092992964
2870.0,0.059629908929089086
2869.0,0.060483076628585083
2868.0,0.06105071162944241
2867.0,0.06098699349771329
2866.0,0.05993716771975732
2865.0,0.05767698186194813
2864.0,0.05425357481663412
2863.0,0.05002033336378335
2862.0,0.045509226499932214
2861.0,0.04124540837779794
2860.0,0.037584702708765454
2859.0,0.03466388664077922
2858.0,0.032461429817934
2857.0,0.030897399913083004
2856.0,0.029890441891964936
2855.0,0.029367884923252114
2854.0,0.029257058677445245
2853.0,0.029477761459897726
2852.0,0.029953905567407207
2851.0,0.030633095874896002
2850.0,0.031509799521164575
2849.0,0.03263052026722394
2848.0,0.03406284640571969
2847.0,0.03585430188970916
2846.0,0.03801417686843982
2845.0,0.04052240744974271
2844.0,0.04333186255738369
2843.0,0.046339361336055346
2842.0,0.049353977064971556
2841.0,0.052111192398397364
2840.0,0.054318312700233844
2839.0,0.055690846105026205
2838.0,0.05597490085978866
2837.0,0.05499241382102123
2836.0,0.05272117691195247
2835.0,0.04934513908744231
2834.0,0.04522336161544048
2833.0,0.04080639663144089
2832.0,0.03651162990561732
2831.0,0.03263705176134618
2830.0,0.029327874025935882
2829.0,0.026602137743404527
2828.0,0.024404464413331314
2827.0,0.022646637880545877
2826.0,0.021231550726155984
2825.0,0.02006638856936077
2824.0,0.019077778206865743
2823.0,0.01822712662326332
2822.0,0.017510837636589564
2821.0,0.016930922804720652
2820.0,0.01646531985611273
2819.0,0.016065340880146918
2818.0,0.015683017068941114
2817.0,0.015301359865848317
2816.0,0.014935163351555487
2815.0,0.01460654298179092
2814.0,0.01432304994704323
2813.0,0.014071759576994029
2812.0,0.013829402937698528
2811.0,0.01357850009103834
2810.0,0.013315927613633514
2809.0,0.013049332675544326
2808.0,0.01278468175321859
2807.0,0.012517783855823144
2806.0,0.012240633006377273
2805.0,0.011954746865187042
2804.0,0.011674937323118733
2803.0,0.011419736438039852
2802.0,0.01119933930220975
2801.0,0.011010202151453234
2800.0,0.010837615695945556
2799.0,0.010664531855942157
2798.0,0.010485543910004948
2797.0,0.010315793888065401
2796.0,0.010177256717304307
2795.0,0.010069832297022043
2794.0,0.00996186936839573
2793.0,0.009818412588351068
2792.0,0.00963781814911078
2791.0,0.009452069153966309
2790.0,0.009292751922995578
2789.0,0.009167578683892114
2788.0,0.00906755752950493
2787.0,0.008978681628652143
2786.0,0.008881690460239306
2785.0,0.008758675188901973
2784.0,0.008612542894054458
2783.0,0.008469786155094063
2782.0,0.008350750436499896
2781.0,0.008245493589178955
2780.0,0.008132794625899588
2779.0,0.008012843611603593
2778.0,0.00790208639271294
2777.0,0.007803981898391633
2776.0,0.00770983918626009
2775.0,0.00762709822255076
2774.0,0.00757968174670492
2773.0,0.007570689530026504
2772.0,0.007566853296743694
2771.0,0.007535934074614352
2770.0,0.007483731491704561
2769.0,0.0074388283279604745
2768.0,0.007414126474261646
2767.0,0.007399733055618016
2766.0,0.007385141717183219
2765.0,0.007368074878951587
2764.0,0.007342152401831364
2763.0,0.007294404425345435
2762.0,0.007222462037129574
2761.0,0.007143932528674436
2760.0,0.007081247238504135
2759.0,0.0070423587194882245
2758.0,0.007020088218798792
2757.0,0.007006358139200574
2756.0,0.007001748156958285
2755.0,0.007007886293676704
2754.0,0.007013506656094359
2753.0,0.00699657637959329
2752.0,0.00694528357707019
2751.0,0.006873968693039472
2750.0,0.00681137254137032
2749.0,0.006775154960431977
2748.0,0.006766675319373533
2747.0,0.006784987004072016
2746.0,0.006828974079942417
2745.0,0.006882921831067515
2744.0,0.006917441382604101
2743.0,0.0069163743975919414
2742.0,0.006895249063071292
2741.0,0.006885331807579404
2740.0,0.006905303489158793
2739.0,0.00695534820552483
2738.0,0.007028000594188229
2737.0,0.0071111005203554935
2736.0,0.00718563949893861
2735.0,0.007235722405727165
2734.0,0.007263344541989866
2733.0,0.007286903599855623
2732.0,0.007324791568368535
2731.0,0.007384037766923637
2730.0,0.007462872755955639
2729.0,0.007559402154011807
2728.0,0.007676786552162489
2727.0,0.007816533034043187
2726.0,0.007963329158327285
2725.0,0.008080684350180405
2724.0,0.008131097044219231
2723.0,0.008104658578400753
2722.0,0.008020925988163372
2721.0,0.007904102328489175
2720.0,0.007766470412883879
2719.0,0.007616146805956339
2718.0,0.007464416042783719
2717.0,0.007317581330360125
2716.0,0.0071749916690065675
2715.0,0.007041357226315461
2714.0,0.006929275070260359
2713.0,0.0068419335172470504
2712.0,0.006766226438038559
2711.0,0.00669157408151656
2710.0,0.006621639301807057
2709.0,0.006556416876253775
2708.0,0.0064788640573572205
2707.0,0.0063770992958259495
2706.0,0.006267202202674775
2705.0,0.006176050504500417
2704.0,0.006110702889419406
2703.0,0.006061953921609699
2702.0,0.006028310718555211
2701.0,0.006014403683396727
2700.0,0.006010743502420984
2699.0,0.005998025386039745
2698.0,0.005971469734389851
2697.0,0.005943013152107159
2696.0,0.005919259357340251
2695.0,0.005895202088403958
2694.0,0.005870801678624223
2693.0,0.0058549280090574255
2692.0,0.00584991718845681
2691.0,0.005848280286997769
2690.0,0.005847608403557256
2689.0,0.005852679112704178
2688.0,0.005858771617122257
2687.0,0.005850232730464286
2686.0,0.0058232292969607104
2685.0,0.005795195850043125
2684.0,0.0057826658185006355
2683.0,0.005780823237077722
2682.0,0.005774789367271964
2681.0,0.005761454500364753
2680.0,0.005749952315585666
2679.0,0.005746621790641679
2678.0,0.005748652934183655
2677.0,0.005750965302262806
2676.0,0.00575284907828374
2675.0,0.005757133460092348
2674.0,0.005764017310893363
2673.0,0.005765989900538243
2672.0,0.0057529786489418575
2671.0,0.005726441727129276
2670.0,0.005702877886935738
2669.0,0.005695888061504904
2668.0,0.00570010934666256
2667.0,0.00570485364498053
2666.0,0.005719272816259461
2665.0,0.005765858775554893
2664.0,0.0058458050841282945
2663.0,0.0059261650645360715
2662.0,0.0059709833880011425
2661.0,0.005975898791526454
2660.0,0.005962874898010155
2659.0,0.005948982762649517
2658.0,0.005930995425506445
2657.0,0.0058989485863973
2656.0,0.005854971418998192
2655.0,0.005814482586686951
2654.0,0.0057910484304948195
2653.0,0.0057816684920840395
2652.0,0.005769453302317717
2651.0,0.005741957895974928
2650.0,0.005704196046250226
2649.0,0.005670799571156468
2648.0,0.005648463865635248
2647.0,0.0056304525197356115
2646.0,0.005604626445798343
2645.0,0.005562192597319506
2644.0,0.005503390244514495
2643.0,0.005440784422996514
2642.0,0.0053912010394168795
2641.0,0.005356866576958721
2640.0,0.005320436912460411
2639.0,0.005267914640339396
2638.0,0.005208319871491938
2637.0,0.005158875128133421
2636.0,0.0051202936933319254
2635.0,0.005084196645724674
2634.0,0.005058069209055329
2633.0,0.005058783859290313
2632.0,0.005081047179261805
2631.0,0.005095249057926142
2630.0,0.005082593253784941
2629.0,0.005054035102402606
2628.0,0.005028089179070111
2627.0,0.005008414795336141
2626.0,0.004991385664642363
2625.0,0.004978513014104548
2624.0,0.00497026137863749
2623.0,0.0049607605502442545
2622.0,0.00494907416291216
2621.0,0.0049451125219115094
2620.0,0.004955332004480359
2619.0,0.004970933388980035
2618.0,0.004976159015955368
2617.0,0.004959951244436486
2616.0,0.0049171005755501975
2615.0,0.004849907650686817
2614.0,0.004772376072156657
2613.0,0.0047000896464306306
2612.0,0.00463426699488943
2611.0,0.004570589075323883
2610.0,0.004522783277337365
2609.0,0.004512718571877928
2608.0,0.004529376163656558
2607.0,0.004524074640520608
2606.0,0.004464752639683054
2605.0,0.0043773583570190485
2604.0,0.004313425454535515
2603.0,0.004289370592322954
2602.0,0.004277227031460194
2601.0,0.004246305138066949
2600.0,0.004195282724940641
2599.0,0.0041465548556761265
2598.0,0.004122872285204026
2597.0,0.004126502610707768
2596.0,0.004132521094597112
2595.0,0.0041110528357569155
2594.0,0.004065518788316562
2593.0,0.004040292249406809
2592.0,0.004077866212919965
2591.0,0.004173392953047128
2590.0,0.004281587496212623
2589.0,0.004359571934442726
2588.0,0.004393127538034817
2587.0,0.004391704925120255
2586.0,0.004374881070924564
2585.0,0.004362593384371926
2584.0,0.004365293010681721
2583.0,0.0043803472174544335
2582.0,0.004401067433783579
2581.0,0.004423479238708034
2580.0,0.0044393565185329
2579.0,0.0044330423289664555
2578.0,0.004395792210709792
2577.0,0.0043364057741871916
2576.0,0.0042681911416750625
2575.0,0.0041935928985031515
2574.0,0.004112386471197627
2573.0,0.004035035278208069
2572.0,0.003971631158222759
2571.0,0.003913896117169772
2570.0,0.0038466244473153357
2569.0,0.0037758903627227863
2568.0,0.003728520463842893
2567.0,0.0037194179370114893
2566.0,0.0037330675021740953
2565.0,0.003743915581549394
2564.0,0.003744154641987652
2563.0,0.003742888967538961
2562.0,0.003744090401855241
2561.0,0.003735172673523102
2560.0,0.0036992548569789513
2559.0,0.003635175891814918
2558.0,0.0035636309493996734
2557.0,0.0035136612809269054
2556.0,0.003502160626122937
2555.0,0.0035248673518392566
2554.0,0.003563546439183448
2553.0,0.003596596018793183
2552.0,0.0036038267137729063
2551.0,0.003571128129049193
2550.0,0.0035006688726786587
2549.0,0.0034172701104289117
2548.0,0.0033563810672292797
2547.0,0.0033380194718536493
2546.0,0.003350905750366285
2545.0,0.003363966167239143
2544.0,0.0033551448222787035
2543.0,0.0033283375874600014
2542.0,0.0033023793331649533
2541.0,0.003289543979909582
2540.0,0.003290696714925532
2539.0,0.003304818309557254
2538.0,0.0033289807989007837
2537.0,0.003348402060130401
2536.0,0.0033433477563193344
2535.0,0.0033147305887340963
2534.0,0.003289005311876738
2533.0,0.003285663685257037
2532.0,0.0032919402154925953
2531.0,0.00328466117692451
2530.0,0.0032662621823976758
2529.0,0.003258788234790703
2528.0,0.0032673333688117865
2527.0,0.0032718296261043363
2526.0,0.00325657897689818
2525.0,0.003226978372667044
2524.0,0.0031919026136096986
2523.0,0.003149202990997982
2522.0,0.00309819583055333
2521.0,0.0030505881628212486
2520.0,0.0030164684437805935
2519.0,0.0029909776003119812
2518.0,0.002968237930211382
2517.0,0.002959645966666617
2516.0,0.002982100090552403
2515.0,0.00302988118325938
2514.0,0.003072247309866636
2513.0,0.0030839127602727513
2512.0,0.0030711906680655782
2511.0,0.0030625410251077434
2510.0,0.0030765844741989876
2509.0,0.0031060889643940246
2508.0,0.003133500232006671
2507.0,0.0031519564835539807
2506.0,0.003161244107075959
2505.0,0.0031510601066293458
2504.0,0.0031093126481371927
2503.0,0.003051295753874469
2502.0,0.0030181414824520325
2501.0,0.003028702448968766
2500.0,0.0030487069783137616
2499.0,0.0030335483433437307
2498.0,0.002994997506297787
2497.0,0.002995038221241834
2496.0,0.003066497103597631
2495.0,0.003165436558117459
2494.0,0.0032178013108275652
2493.0,0.0031963698510829542
2492.0,0.0031356108872773476
2491.0,0.0030849745575574133
2490.0,0.003069500438533747
2489.0,0.0030882435534212256
2488.0,0.003122753779393762
2487.0,0.0031394441728389323
2486.0,0.003105846162235793
2485.0,0.0030240512334007187
2484.0,0.002940471312756668
2483.0,0.002904702642249748
2482.0,0.0029188467818291254
2481.0,0.0029401363934801117
2480.0,0.0029331422766549113
2479.0,0.002903202584635819
2478.0,0.0028746229489167237
2477.0,0.002857363834364429
2476.0,0.00285036794081963
2475.0,0.0028595378567907934
2474.0,0.002887618241707288
2473.0,0.002915591949319797
2472.0,0.0029219401173214803
2471.0,0.002918091181284243
2470.0,0.00293644956280507
2469.0,0.0029807625645072644
2468.0,0.0030182482724482604
2467.0,0.003029076794439511
2466.0,0.0030317363692532974
2465.0,0.00304362586548604
2464.0,0.0030489110411425534
2463.0,0.0030321504202620187
2462.0,0.0030173089227881218
2461.0,0.0030374785198872926
2460.0,0.0030803939937501332
2459.0,0.003100825980152178
2458.0,0.0030820281011834936
2457.0,0.00305105611112428
2456.0,0.003032567107348428
2455.0,0.003020290852541818
2454.0,0.003003196997535347
2453.0,0.002991641153996442
2452.0,0.0030011541875274955
2451.0,0.0030275481042201335
2450.0,0.003052649905139917
2449.0,0.00306477617545317
2448.0,0.003064824732046301
2447.0,0.003060994582400129
2446.0,0.0030630241258706664
2445.0,0.0030724648189842585
2444.0,0.00307498429861317
2443.0,0.003053070181469995
2442.0,0.0030106222228222053
2441.0,0.0029737694852429845
2440.0,0.002961331955056613
2439.0,0.0029648394108130736
2438.0,0.0029652753337974036
2437.0,0.002960758189112827
2436.0,0.0029679866537528792
2435.0,0.002999963051051987
2434.0,0.0030500050600850365
2433.0,0.0030975755180255088
2432.0,0.0031257962453707273
2431.0,0.003131915749036932
2430.0,0.003122096585457904
2429.0,0.003100420056667252
2428.0,0.0030686465578832287
2427.0,0.0030352862412074966
2426.0,0.0030139054086766423
2425.0,0.0030061546481133542
2424.0,0.0029953560894890085
2423.0,0.0029669044490976027
2422.0,0.002929513921436357
2421.0,0.0029062197252651
2420.0,0.0029082424321044214
2419.0,0.0029272659889168317
2418.0,0.0029495142525182644
2417.0,0.002967080180192919
2416.0,0.0029791118594468292
2415.0,0.0029935303543434104
2414.0,0.0030254528148619614
2413.0,0.0030801077741843272
2412.0,0.0031347574728326387
2411.0,0.003150288739451679
2410.0,0.0031082432771233877
2409.0,0.0030305981718813696
2408.0,0.0029578170254636626
2407.0,0.002912492369134571
2406.0,0.0028907536214350603
2405.0,0.002884006951107098
2404.0,0.0028956999407991116
2403.0,0.0029292659669959984
2402.0,0.002965727972731354
2401.0,0.0029683911124680825
2400.0,0.0029192779881067527
2399.0,0.0028440592334839677
2398.0,0.002789267656470633
2397.0,0.002776937591894043
2396.0,0.002791298414155841
2395.0,0.002806570747809343
2394.0,0.0028135381645455902
2393.0,0.002818322185059039
2392.0,0.0028305200767117706
2391.0,0.0028574737424203827
2390.0,0.0028981228247651515
2389.0,0.0029377623785644454
2388.0,0.002960458855224756
2387.0,0.0029713343283692124
2386.0,0.002994634784388776
2385.0,0.0030442774672058926
2384.0,0.00310640434995982
2383.0,0.0031546793775705092
2382.0,0.0031693601313953043
2381.0,0.0031358512886385348
2380.0,0.003045869120256439
2379.0,0.002920185605103011
2378.0,0.0028138378527497046
2377.0,0.0027699251292661593
2376.0,0.002773076666911582
2375.0,0.002775783209867433
2374.0,0.002761733909473814
2373.0,0.00275016049836363
2372.0,0.0027458470246013254
2371.0,0.0027334774737126227
2370.0,0.0027282515916969697
2369.0,0.002783066763718309
2368.0,0.002933247665093139
2367.0,0.0031739440555974487
2366.0,0.003480468522394254
2365.0,0.0037813447747634486
2364.0,0.003925453648612306
2363.0,0.0037902909670314584
2362.0,0.0034458499515843287
2361.0,0.003119536254920461
2360.0,0.0029983639834554824
2359.0,0.0030981102011131212
2358.0,0.003266468826107756
2357.0,0.0033172803701077497
2356.0,0.003196598229790167
2355.0,0.003057429299819439
2354.0,0.0031042531950390083
2353.0,0.0033362445980667475
2352.0,0.003567931394389245
2351.0,0.003649775134463051
2350.0,0.003587090925870259
2349.0,0.0034649582269533135
2348.0,0.0033522090511903906
2347.0,0.00330762897391148
2346.0,0.003355400176789246
2345.0,0.003466939270314594
2344.0,0.003560850970508708
2343.0,0.0035915916526218913
2342.0,0.003592469680276121
2341.0,0.0035892343637455373
2340.0,0.003604239905696376
2339.0,0.00364254780276184
2338.0,0.0036831610286962198
2337.0,0.0036618505243570243
2336.0,0.0035174653633522615
2335.0,0.00326824399879798
2334.0,0.0030332832979536694
2333.0,0.002930627334473077
2332.0,0.0029802886907976953
2331.0,0.0031069726803090447
2330.0,0.003279066591113778
2329.0,0.0035650065082606956
2328.0,0.0040067887623521595
2327.0,0.00454139959581246
2326.0,0.005003764536435872
2325.0,0.005251765845424481
2324.0,0.005230202152945131
2323.0,0.004993291378315605
2322.0,0.004680489921379657
2321.0,0.004420755757063428
2320.0,0.004284527465499943
2319.0,0.004247081001076592
2318.0,0.004244319382316534
2317.0,0.00421669071708178
2316.0,0.004148764700518235
2315.0,0.004069674369588834
2314.0,0.004027460221451472
2313.0,0.004051134833004947
2312.0,0.004126562116327205
2311.0,0.0042124012811378215
2310.0,0.004259393831296703
2309.0,0.004232848848339775
2308.0,0.004127172980973513
2307.0,0.003983756392585905
2306.0,0.003869857340751259
2305.0,0.003833932146648146
2304.0,0.0038817016352681267
2303.0,0.003989109860192152
2302.0,0.004124136167473272
2301.0,0.00424929866462739
2300.0,0.004333629133119227
2299.0,0.004376868151565649
2298.0,0.00440251890432484
2297.0,0.004421748931037671
2296.0,0.004422505713233815
2295.0,0.004411933465075975
2294.0,0.004428776611224349
2293.0,0.00449691981559017
2292.0,0.004580794578169911
2291.0,0.004630092791024357
2290.0,0.00464679304950915
2289.0,0.004677699246952657
2288.0,0.004742781226479278
2287.0,0.004804038824539873
2286.0,0.004805552515162326
2285.0,0.004721040361806991
2284.0,0.004566625045611585
2283.0,0.004388859973921888
2282.0,0.004240896539286821
2281.0,0.00414288501991775
2280.0,0.0040685222301176105
2279.0,0.003986550414557023
2278.0,0.003908881816377594
2277.0,0.003869185631550448
2276.0,0.0038671670378685845
2275.0,0.0038701125941297734
2274.0,0.0038651741938510254
2273.0,0.0038707562057232973
2272.0,0.0038920050033480758
2271.0,0.003901309138038835
2270.0,0.003870942248638819
2269.0,0.0038031434330707877
2268.0,0.0037230723486765763
2267.0,0.003662744027028193
2266.0,0.0036501879368587174
2265.0,0.0036900884011825735
2264.0,0.0037530041053936147
2263.0,0.0038029596328942074
2262.0,0.0038304531198867803
2261.0,0.0038431490765220714
2260.0,0.0038383435299343465
2259.0,0.0038097914699937504
2258.0,0.0037690577468757073
2257.0,0.0037292294752815282
2256.0,0.0036751377569831517
2255.0,0.0035784670132897583
2254.0,0.0034422314193151334
2253.0,0.003306428424257129
2252.0,0.0032148635514537786
2251.0,0.003190811083820414
2250.0,0.003231130423493045
2249.0,0.003296496296741079
2248.0,0.0033298203117185297
2247.0,0.00331389860989291
2246.0,0.0032926361891126065
2245.0,0.0033100226164431783
2244.0,0.0033446589055694856
2243.0,0.003338073129398534
2242.0,0.0032721616460526636
2241.0,0.0031892865192061546
2240.0,0.0031499520767847115
2239.0,0.0031945726515548584
2238.0,0.003322070662883497
2237.0,0.0034772186068391994
2236.0,0.0035857343122319496
2235.0,0.003632981173557837
2234.0,0.003670655672032677
2233.0,0.0037153391809820503
2232.0,0.0036923069313788293
2231.0,0.0035347699839010744
2230.0,0.003300596006822745
2229.0,0.0031210141449523505
2228.0,0.003055315361517293
2227.0,0.003060545834777626
2226.0,0.003082796309138114
2225.0,0.0031052228798004746
2224.0,0.0031182005368671846
2223.0,0.0031155659154562293
2222.0,0.0031182997948120497
2221.0,0.0031413656750466554
2220.0,0.0031439506875787305
2219.0,0.003077093226675699
2218.0,0.002981430718902167
2217.0,0.0029714359141715277
2216.0,0.003103123840474465
2215.0,0.0033003751334662068
2214.0,0.0034217332508580697
2213.0,0.0033767039033814126
2212.0,0.003190995178232304
2211.0,0.002990362989078002
2210.0,0.0029089234618855137
2209.0,0.0029784445944050194
2208.0,0.003116956966187552
2207.0,0.0032358760226162413
2206.0,0.0033142493929810184
2205.0,0.0033491453356928567
2204.0,0.0033111621846765027
2203.0,0.003208503068386564
2202.0,0.00312709481372084
2201.0,0.003131093727439226
2200.0,0.0031735979727287394
2199.0,0.0031831427810148066
2198.0,0.0031814898876144464
2197.0,0.003224784696853654
2196.0,0.003280219489017656
2195.0,0.0032693404517576703
2194.0,0.0032018486321414162
2193.0,0.003157143806189285
2192.0,0.003155921451403643
2191.0,0.003153205849238966
2190.0,0.003139863037063922
2189.0,0.0031448368951355636
2188.0,0.0031467117870304915
2187.0,0.0030885844575993873
2186.0,0.002980040651395095
2185.0,0.002889491705845183
2184.0,0.0028389697222596195
2183.0,0.0027967501575094185
2182.0,0.002756431083333082
2181.0,0.002724297229025103
2180.0,0.0026594360831560253
2179.0,0.0025381849633510306
2178.0,0.0024458125566568607
2177.0,0.002477421172738765
2176.0,0.002571091087990123
2175.0,0.002584726096684785
2174.0,0.0025290113948275754
2173.0,0.0025716711018922795
2172.0,0.0028028795078944963
2171.0,0.0031378484170558967
2170.0,0.0034612288705859386
2169.0,0.0037289010043898277
2168.0,0.003907242849312214
2167.0,0.003950166294202055
2166.0,0.003903879041753336
2165.0,0.003929350041817911
2164.0,0.004117435199761288
2163.0,0.004327375211284336
2162.0,0.004262160158964747
2161.0,0.0036879144446034743
2160.0,0.0026371588031537953
2159.0,0.0014593336399801422
2158.0,0.0006009726136487329
2157.0,0.000261610342236884
2156.0,0.0002886351184972118
2155.0,0.00043258369563726497
2154.0,0.0006155970901519832
2153.0,0.0008926711462796273
2152.0,0.0012526320040034099
2151.0,0.001571273716427809
2150.0,0.0017383526113920744
2149.0,0.001737891791796343
2148.0,0.0016157442486783627
2147.0,0.0014447310564617674
2146.0,0.001315275606502985
2145.0,0.0012859904861053195
2144.0,0.001336195236833139
2143.0,0.0014141638514549486
2142.0,0.0015057595015360514
2141.0,0.0016039070004187955
2140.0,0.0016604576024846396
2139.0,0.0016408441567637572
2138.0,0.0015861427929398926
2137.0,0.0015418094793495669
2136.0,0.0014633216450880998
2135.0,0.0012892331155323752
2134.0,0.0010802897327605893
2133.0,0.0009798562937417266
2132.0,0.0010444925552820896
2131.0,0.0012071314316642117
2130.0,0.0013952889950611374
2129.0,0.0015909897721199007
2128.0,0.0017718783221094365
2127.0,0.0018840703813890478
2126.0,0.0019113295356688147
2125.0,0.0019180036363332723
2124.0,0.0019779637958729822
2123.0,0.0020876580366713526
2122.0,0.002181618936792207
2121.0,0.002220564861226653
2120.0,0.00224083704625681
2119.0,0.0023175131165840495
2118.0,0.002482223966045417
2117.0,0.002676889192824381
2116.0,0.0028022107386890902
2115.0,0.002819442914360616
2114.0,0.0027864603401361373
2113.0,0.0027820884098003974
2112.0,0.0028244185780322184
2111.0,0.002884848673193684
2110.0,0.0029450171370639716
2109.0,0.002996013950921224
2108.0,0.0030123040673981274
2107.0,0.0029802980679699033
2106.0,0.002938187499580447
2105.0,0.002937217605880847
2104.0,0.002969537888105413
2103.0,0.002980888921084576
2102.0,0.002947440534606057
2101.0,0.0028928440537260287
2100.0,0.002832567600802108
2099.0,0.002750090212641811
2098.0,0.002637924217267928
2097.0,0.0025266184443652738
2096.0,0.0024592047241339824
2095.0,0.0024573778068773854
2094.0,0.0025097875503102616
2093.0,0.0025759935635738464
2092.0,0.002619076961985448
2091.0,0.00265148407726712
2090.0,0.0027245389616571596
2089.0,0.0028508979219903727
2088.0,0.0029756551162466653
2087.0,0.003053564596691816
2086.0,0.0031049080931171377
2085.0,0.0031540644968967983
2084.0,0.0031661120248832465
2083.0,0.0031063781325425437
2082.0,0.003018709163440411
2081.0,0.0029715239698237905
2080.0,0.0029554916863440295
2079.0,0.002915677420448111
2078.0,0.002865948381258555
2077.0,0.002877063247074147
2076.0,0.002953207169812553
2075.0,0.003011557254744589
2074.0,0.002996763237572227
2073.0,0.002939328948779896
2072.0,0.0028875225959226545
2071.0,0.0028506137485964523
2070.0,0.002827136120183936
2069.0,0.002824103916928544
2068.0,0.002826436059927774
2067.0,0.002802639879182811
2066.0,0.0027548101996730996
2065.0,0.0027161495904175514
2064.0,0.0026916647474608643
2063.0,0.0026548858999197907
2062.0,0.002608272081321167
2061.0,0.0025861523567174533
2060.0,0.0025976179666046756
2059.0,0.0026173745514417868
2058.0,0.0026264501628310917
2057.0,0.0026199403505821495
2056.0,0.002599717629464825
2055.0,0.0026173504267290888
2054.0,0.0027858292741831598
2053.0,0.0031546362154985133
2052.0,0.0035807684272766084
2051.0,0.003806704406408094
2050.0,0.0036917299498274185
2049.0,0.003344585177334638
2048.0,0.0029930387457940658
2047.0,0.002760073878722055
2046.0,0.0026186598346019936
2045.0,0.002476827302166357
2044.0,0.002264499630229126
2043.0,0.0020103450187400665
2042.0,0.0018585412226044956
2041.0,0.0019510569903197568
2040.0,0.002271621201861472
2039.0,0.0026673164933594265
2038.0,0.002986872620972961
2037.0,0.00311575811498661
2036.0,0.0029720010168989104
2035.0,0.002595603506431969
2034.0,0.0021937196063589633
2033.0,0.0019608642792553867
2032.0,0.0018624635644318046
2031.0,0.001735047850569376
2030.0,0.0015601056391667135
2029.0,0.0014759637904203067
2028.0,0.0015462811707769987
2027.0,0.0016751495446806557
2026.0,0.0017499406237536225
2025.0,0.0017319923600601639
2024.0,0.0016166894512241882
2023.0,0.0014344633477146418
2022.0,0.0012931307204761887
2021.0,0.0012963520766870768
2020.0,0.0014192201054027132
2019.0,0.001569279665258167
2018.0,0.001736517738064311
2017.0,0.0019469641177913542
2016.0,0.0021099161608147915
2015.0,0.002095218823788275
2014.0,0.0019373752046730067
2013.0,0.0018099834305562712
2012.0,0.0018033927821841226
2011.0,0.0018273335019273317
2010.0,0.0017333125866601756
2009.0,0.0014483225656582498
2008.0,0.001019349274445663
2007.0,0.0006270544192848457
2006.0,0.0005169198104053184
2005.0,0.0007834472906964082
2004.0,0.001232351951670725
2003.0,0.0015621893111966243
2002.0,0.0016456034638774749
2001.0,0.0015696824110283674
2000.0,0.0014805276595604155
1999.0,0.0014702032419388134
1998.0,0.0015680036998698764
1997.0,0.001729431930186264
1996.0,0.0018514127152484561
1995.0,0.001890070857375133
1994.0,0.0019227597006263412
1993.0,0.0020150133688348077
1992.0,0.0020685898620910084
1991.0,0.0019452473024832136
1990.0,0.0017143890435828595
1989.0,0.0016011516954119035
1988.0,0.0017185296194379375
1987.0,0.0019861735400567727
1986.0,0.002287708701679907
1985.0,0.002582097148203591
1984.0,0.0028581625728296475
1983.0,0.003098667046750117
1982.0,0.003302749462044953
1981.0,0.0034406221747994375
1980.0,0.003393268515682738
1979.0,0.0030508340960215185
1978.0,0.0024888912103323696
1977.0,0.0019275293279899534
1976.0,0.0014892039624777764
1975.0,0.0011531068980389068
1974.0,0.0009358730791564347
1973.0,0.0009101226868322487
1972.0,0.0010283792043044187
1971.0,0.0011121282144676715
1970.0,0.0010552367249004975
1969.0,0.0009247538505395866
1968.0,0.0008459515202361735
1967.0,0.0008766052726814374
1966.0,0.001004743057200608
1965.0,0.0011747264427567476
1964.0,0.0012972008557159795
1963.0,0.0013032360299869053
1962.0,0.0012041572475228978
1961.0,0.0010637266841216524
1960.0,0.0009166881393314252
1959.0,0.0007693290221423933
1958.0,0.0006614782730962592
1957.0,0.000647181802213048
1956.0,0.000725997551456479
1955.0,0.0008603428292440801
1954.0,0.00103482977636615
1953.0,0.001234483441297531
1952.0,0.001394500554036456
1951.0,0.0014487668627976432
1950.0,0.0014117493885827531
1949.0,0.0013471392600095694
1948.0,0.0012835118306778546
1947.0,0.0012195251120708046
1946.0,0.0011759375485181872
1945.0,0.001175422159366992
1944.0,0.0011964647920304757
1943.0,0.0012183050972022621
1942.0,0.0012766997456612346
1941.0,0.0013843333379639194
1940.0,0.0014742720995772273
1939.0,0.0014950193842493036
1938.0,0.001475645511151946
1937.0,0.001462464461134771
1936.0,0.0014390666550949018
1935.0,0.0013622568957289535
1934.0,0.0012514624283356905
1933.0,0.0011728267346382175
1932.0,0.0011504787696030242
1931.0,0.0011703565301870494
1930.0,0.0012436684469586924
1929.0,0.0013666939420002306
1928.0,0.0014684827866835537
1927.0,0.0014819619164042606
1926.0,0.0014388282338465342
1925.0,0.0014194847913394175
1924.0,0.0014358278141582237
1923.0,0.001452357438505288
1922.0,0.0014722857993040004
1921.0,0.0015075798255401096
1920.0,0.0015203012988965975
1919.0,0.0014684977464324896
1918.0,0.00140801040308881
1917.0,0.0014463770729848508
1916.0,0.0015729323094729904
1915.0,0.0016915919531808737
1914.0,0.001759664194513772
1913.0,0.0017919208378375426
1912.0,0.0017922112260222293
1911.0,0.001747983163419833
1910.0,0.0016867378306183443
1909.0,0.0016565367829357185
1908.0,0.0016555138996788283
1907.0,0.0016504577413188073
1906.0,0.0016483369180502147
1905.0,0.0016667898735059608
1904.0,0.0016698444680570057
1903.0,0.001625107834072533
1902.0,0.0015777142141501649
1901.0,0.0015909401671868055
1900.0,0.001651479764449351
1899.0,0.0017006362061955725
1898.0,0.0017249466323748588
1897.0,0.0017416420778983283
1896.0,0.0017238597933935222
1895.0,0.0016441441768397912
1894.0,0.0015652583139891857
1893.0,0.0015711788778199755
1892.0,0.0016369858863955812
1891.0,0.0016492231748346047
1890.0,0.0015564957626689416
1889.0,0.0014409535577072144
1888.0,0.001383439257084088
1887.0,0.0013749378688540418
1886.0,0.001394080208890085
1885.0,0.0014402590460395337
1884.0,0.0014918934098341612
1883.0,0.0015158465761627602
1882.0,0.0015195249744475608
1881.0,0.001537700498149577
1880.0,0.0015771267121984494
1879.0,0.0016149479902496798
1878.0,0.001641533171997364
1877.0,0.0016609990724722108
1876.0,0.0016537768655664055
1875.0,0.0015993435321260338
1874.0,0.0015346644050267468
1873.0,0.0015234245799874068
1872.0,0.001572012962012803
1871.0,0.0016224059258934005
1870.0,0.0016173294749317864
1869.0,0.0015740988226966963
1868.0,0.0015500095961882474
1867.0,0.0015472163237367146
1866.0,0.0015497849756170622
1865.0,0.0015611536654366086
1864.0,0.0015668863937840162
1863.0,0.0015508546006629304
1862.0,0.0015302586344972135
1861.0,0.0015308921016859221
1860.0,0.0015390257266422493
1859.0,0.0015286539064620843
1858.0,0.0015175661336214235
1857.0,0.0015308404031244222
1856.0,0.0015430696082187655
1855.0,0.0015184970398786379
1854.0,0.0014797453913831349
1853.0,0.001473137348166661
1852.0,0.0014979926142409425
1851.0,0.0015185986644921088
1850.0,0.0015194743150636373
1849.0,0.0015118847718024442
1848.0,0.0014828629940543759
1847.0,0.0014062309841795123
1846.0,0.0012951213584240662
1845.0,0.0012124116718604577
1844.0,0.0012168134247584543
1843.0,0.0012994025799993088
1842.0,0.0014065131335670934
1841.0,0.0014960781521037429
1840.0,0.0015421801087758154
1839.0,0.0015291702215946184
1838.0,0.0014797860845793434
1837.0,0.0014395280415723834
1836.0,0.0014211010631875157
1835.0,0.0014182675969130992
1834.0,0.0014495841083570732
1833.0,0.0015338037830973225
1832.0,0.0016413045694504739
1831.0,0.0016810215813362118
1830.0,0.0016293990625031178
1829.0,0.0015979506452906828
1828.0,0.0016250246798579656
1827.0,0.0016357833326990459
1826.0,0.0015940604991843228
1825.0,0.0015438847945419888
1824.0,0.0015363295479962668
1823.0,0.0015479403603159874
1822.0,0.0015502814598184872
1821.0,0.0015537705662696812
1820.0,0.0015468373797809139
1819.0,0.0014903806184118152
1818.0,0.0014016634789117948
1817.0,0.001368440439235434
1816.0,0.0014267944278592401
1815.0,0.0015223845042065171
1814.0,0.0016045819543260027
1813.0,0.0016775032954719714
1812.0,0.0017390521102415304
1811.0,0.0017421845796004322
1810.0,0.0016836652728148176
1809.0,0.0016315305358551983
1808.0,0.0016242169040487295
1807.0,0.0016441554612620637
1806.0,0.00168351873622723
1805.0,0.0017547225699707774
1804.0,0.0018362839750999662
1803.0,0.001877611531598199
1802.0,0.0018620811539026417
1801.0,0.0018403488538086903
1800.0,0.0018461637798135532
1799.0,0.0018425643521803145
1798.0,0.0018231903941103543
1797.0,0.0018304477890667137
1796.0,0.0018678818594816808
1795.0,0.001892466596936991
1794.0,0.0018699831045349935
1793.0,0.0018142487289204822
1792.0,0.0017761325141612775
1791.0,0.0017789480924038687
1790.0,0.0018100027714173066
1789.0,0.001853676235892218
1788.0,0.0018791454515898554
1787.0,0.0018509940311225784
1786.0,0.0017888986845051623
1785.0,0.001769097038255198
1784.0,0.0018299868339919862
1783.0,0.0019241330771020146
1782.0,0.0019768735912224712
1781.0,0.0019661433386239063
1780.0,0.0019331373973464224
1779.0,0.001912821737052491
1778.0,0.0019183855450563858
1777.0,0.001956039494384611
1776.0,0.0020158348856522453
1775.0,0.002072915657281231
1774.0,0.0020882335334297983
1773.0,0.002032964823674321
1772.0,0.0019665578625997614
1771.0,0.001945577697461778
1770.0,0.0019343986629723454
1769.0,0.0019334548914354635
1768.0,0.0019778487967350507
1767.0,0.0020591467203944828
1766.0,0.0021431953365350915
1765.0,0.0022100980961266828
1764.0,0.002258116535753889
1763.0,0.0022748899900967533
1762.0,0.002276892264062001
1761.0,0.002323294207094632
1760.0,0.002407730725910444
1759.0,0.0024590863440232167
1758.0,0.002458685795169974
1757.0,0.002468338695236924
1756.0,0.0025606053072443824
1755.0,0.002688923410801177
1754.0,0.0027693850796212255
1753.0,0.0028074552626794263
1752.0,0.002874233753291957
1751.0,0.0030168435556083284
1750.0,0.0031937330892109067
1749.0,0.003339824813127213
1748.0,0.0034511103875249118
1747.0,0.00355098850405972
1746.0,0.00363451184258188
1745.0,0.003706625392399795
1744.0,0.0037841615947966974
1743.0,0.0038549137939653966
1742.0,0.0038856001917703907
1741.0,0.003869743024238645
1740.0,0.0038359529735402373
1739.0,0.0038241567204080323
1738.0,0.003830526882922811
1737.0,0.003820548119103418
1736.0,0.0037787440733007957
1735.0,0.00366603791450543
1734.0,0.0035714012817877998
1733.0,0.0036805199879204305
1732.0,0.003887081027521843
1731.0,0.004018255396010128
1730.0,0.004083931885161341
1729.0,0.00412719012277965
1728.0,0.004188260597435426
1727.0,0.004252860630475038
1726.0,0.00430658817312693
1725.0,0.004352030545137392
1724.0,0.004409054364009839
1723.0,0.004483052938694994
1722.0,0.004583962553800162
1721.0,0.004727538228766905
1720.0,0.0049233848135241485
1719.0,0.005065903118527595
1718.0,0.005023039443958043
1717.0,0.004973497015012995
1716.0,0.005064150618703299
1715.0,0.0051747430990554105
1714.0,0.005284754380208927
1713.0,0.005439376245003471
1712.0,0.005624313327725158
1711.0,0.005813487249962091
1710.0,0.006016721201319278
1709.0,0.006258015748173137
1708.0,0.00652121337771411
1707.0,0.006748868093182562
1706.0,0.006919513591142594
1705.0,0.007095663663285403
1704.0,0.00723814032234499
1703.0,0.007268141961810333
1702.0,0.007259982787338214
1701.0,0.007450166943498855
1700.0,0.007909648308320435
1699.0,0.008369184609993934
1698.0,0.008676932215856402
1697.0,0.008962790979336723
1696.0,0.00935604608598453
1695.0,0.00976481274745508
1694.0,0.01008147976460702
1693.0,0.01036668467789826
1692.0,0.010696166336520456
1691.0,0.011059428581215438
1690.0,0.011420968151118918
1689.0,0.011769984809251281
1688.0,0.012084464828078267
1687.0,0.012361974909747858
1686.0,0.012666329825307646
1685.0,0.013115893204161885
1684.0,0.013719805470893107
1683.0,0.01420876951788877
1682.0,0.014457028282067342
1681.0,0.014658820699864895
1680.0,0.014936394816729648
1679.0,0.015197281507494356
1678.0,0.015388890123476256
1677.0,0.01557859667389399
1676.0,0.015916831489121267
1675.0,0.01639562436727332
1674.0,0.01683953002759663
1673.0,0.01715844500665384
1672.0,0.017422140971699522
1671.0,0.017694900747268746
1670.0,0.018019086363148442
1669.0,0.018410229203493538
1668.0,0.018790473235246366
1667.0,0.01906557260856504
1666.0,0.01923539988577265
1665.0,0.01938874702561855
1664.0,0.019619526513979427
1663.0,0.01994136671810792
1662.0,0.02028596619249331
1661.0,0.020569813591570927
1660.0,0.020806141072117933
1659.0,0.021004580484334706
1658.0,0.021164415194256096
1657.0,0.02123126891744983
1656.0,0.021278991380735753
1655.0,0.02141177531920494
1654.0,0.021757693468211468
1653.0,0.022361230300212816
1652.0,0.022791738305180224
1651.0,0.02284814498286554
1650.0,0.02275607191574222
1649.0,0.02272074221965332
1648.0,0.022718843869993344
1647.0,0.022737766436398636
1646.0,0.02275173921173598
1645.0,0.022734840256124197
1644.0,0.02267860958477106
1643.0,0.0226195696256574
1642.0,0.02255128643134603
1641.0,0.022495460433775455
1640.0,0.02244780197882226
1639.0,0.022379614875997066
1638.0,0.02227658878045372
1637.0,0.022139709372092826
1636.0,0.021982216533742934
1635.0,0.021802189715219685
1634.0,0.021550525596083864
1633.0,0.021258819844702237
1632.0,0.020978048014220013
1631.0,0.020707374636683807
1630.0,0.02045045542059825
1629.0,0.020185260382450304
1628.0,0.019895075530958567
1627.0,0.01958424906263285
1626.0,0.019266929892822
1625.0,0.018951371482655396
1624.0,0.018632561538723395
1623.0,0.018324222188989953
1622.0,0.018048534770319737
1621.0,0.017783162236579476
1620.0,0.01751895795216468
1619.0,0.01726238490699727
1618.0,0.01697221030504406
1617.0,0.016602903651144047
1616.0,0.01622239448424818
1615.0,0.015914441759375376
1614.0,0.015654405175882107
1613.0,0.015401593046441793
1612.0,0.015135007781753161
1611.0,0.01486160232918713
1610.0,0.014592009854798485
1609.0,0.014318592716625923
1608.0,0.01404191683504339
1607.0,0.013788542978709045
1606.0,0.013567479071630643
1605.0,0.013349207068052406
1604.0,0.013114865963961445
1603.0,0.012878663011333141
1602.0,0.01266507878189683
1601.0,0.012474231227117247
1600.0,0.01229305309100059
1599.0,0.0121200393817161
1598.0,0.011953946090752614
1597.0,0.01178593087387694
1596.0,0.011608415500305544
1595.0,0.011429249280466874
1594.0,0.011260147301107824
1593.0,0.011091948350589123
1592.0,0.010913685215678013
1591.0,0.010742237142716363
1590.0,0.010603642722488793
1589.0,0.0104940489166244
1588.0,0.010392139034272493
1587.0,0.010296165044250332
1586.0,0.010215925763067015
1585.0,0.010138484874965343
1584.0,0.010047906201760534
1583.0,0.009959317708405782
1582.0,0.009894285837514099
1581.0,0.009853180796103068
1580.0,0.009823837151337477
1579.0,0.009808664705100778
1578.0,0.009795310456553604
1577.0,0.00972959663070149
1576.0,0.009621955598493773
1575.0,0.009557252412002953
1574.0,0.009527600240317936
1573.0,0.00949093721139301
1572.0,0.009461460168715945
1571.0,0.00944254339405105
1570.0,0.009430765503926183
1569.0,0.009427424573160788
1568.0,0.009437894584326435
1567.0,0.009453638183579579
1566.0,0.009481265420220555
1565.0,0.009505184572872576
1564.0,0.009497826994919908
1563.0,0.009468543001515131
1562.0,0.009439867865783623
1561.0,0.009550197342864511
1560.0,0.009722116652505901
1559.0,0.009625517274354485
1558.0,0.009542852736248424
1557.0,0.009516850337911158
1556.0,0.009422007455310992
1555.0,0.009444870352519865
1554.0,0.009509636965354219
1553.0,0.009637060199946272
1552.0,0.009722896327135454
1551.0,0.009764840097320256
1550.0,0.009760206293905258
1549.0,0.009746951339637997
1548.0,0.009725763174620546
1547.0,0.009702361532653173
1546.0,0.009681906292696886
1545.0,0.009653738600912707
1544.0,0.009610505796921916
1543.0,0.00957218010960747
1542.0,0.009546633340384445
1541.0,0.009511603487336802
1540.0,0.009508552860070074
1539.0,0.009539580356424597
1538.0,0.009504347565832554
1537.0,0.009415985327707248
1536.0,0.009343026062614262
1535.0,0.009268904703422861
1534.0,0.009180920456000101
1533.0,0.009112058584961398
1532.0,0.009094313596449587
1531.0,0.009062621347676065
1530.0,0.009010788964904155
1529.0,0.008952981219589314
1528.0,0.008869195132816315
1527.0,0.00874131625575432
1526.0,0.008613083956932215
1525.0,0.008542273116372588
1524.0,0.008511605298890536
1523.0,0.008433964686379912
1522.0,0.008298968057366308
1521.0,0.00828078264229741
1520.0,0.00840801493988826
1519.0,0.008525815031044503
1518.0,0.00856733072213839
1517.0,0.00854352734463563
1516.0,0.00848527140860548
1515.0,0.00838623335123765
1514.0,0.008260750642981443
1513.0,0.008181093386683465
1512.0,0.008177036635439526
1511.0,0.008212020999915375
1510.0,0.00824659841387454
1509.0,0.008280817159484082
1508.0,0.008228864802807743
1507.0,0.008064400839942084
1506.0,0.00795749255717477
1505.0,0.007919659258581416
1504.0,0.007907989684041588
1503.0,0.007915664896117882
1502.0,0.007898491056939358
1501.0,0.007914053412795212
1500.0,0.007959880208379858
1499.0,0.007994484521356735
1498.0,0.007952702962940695
1497.0,0.007906674244962757
1496.0,0.007951823477836111
1495.0,0.008033389647170432
1494.0,0.00808920919953977
1493.0,0.008146335785777547
1492.0,0.00822853060078787
1491.0,0.008301922298119652
1490.0,0.008371026218154144
1489.0,0.008518937307135264
1488.0,0.008689623404448387
1487.0,0.00877605149872401
1486.0,0.008837642223166782
1485.0,0.008947139349038175
1484.0,0.009096488007053977
1483.0,0.009252880293853027
1482.0,0.009430776813875089
1481.0,0.009674842013843147
1480.0,0.009964274969479707
1479.0,0.01025925817022371
1478.0,0.010606789940699505
1477.0,0.011082095356712333
1476.0,0.011636763360246419
1475.0,0.012193299954471921
1474.0,0.01290736725219144
1473.0,0.014163494490155488
1472.0,0.015942176860919904
1471.0,0.017691761976356996
1470.0,0.019233516231234107
1469.0,0.020772723602608057
1468.0,0.022419498846291543
1467.0,0.02422879488071701
1466.0,0.026331354152721392
1465.0,0.028726886118738824
1464.0,0.030951052543018887
1463.0,0.032543173402531336
1462.0,0.03360177779290135
1461.0,0.03439670054521646
1460.0,0.03500946956928551
1459.0,0.035392071777424344
1458.0,0.035546566015137386
1457.0,0.03565266406502557
1456.0,0.03576139173975747
1455.0,0.035762028724831946
1454.0,0.03565112258296583
1453.0,0.0354209805932609
1452.0,0.03497117667203475
1451.0,0.03425086180884585
1450.0,0.033202199480240537
1449.0,0.03168011328291785
1448.0,0.02962093823669367
1447.0,0.027358994838654824
1446.0,0.02532238559885486
1445.0,0.02360670233988267
1444.0,0.022127339133899155
1443.0,0.020874683825733712
1442.0,0.01990895849451841
1441.0,0.019227233108269282
1440.0,0.018760885291226697
1439.0,0.018473919862230483
1438.0,0.01838385668430426
1437.0,0.018428258366536637
1436.0,0.018363576592830094
1435.0,0.017983964039622928
1434.0,0.017288629398050055
1433.0,0.016366171308163063
1432.0,0.015343390772845137
1431.0,0.014392094612321518
1430.0,0.01362073212450838
1429.0,0.013042093118096516
1428.0,0.012646528143891389
1427.0,0.012410750300858659
1426.0,0.01225314038293673
1425.0,0.01207397478398054
1424.0,0.011876002916703727
1423.0,0.011727979228958779
1422.0,0.011616133877677558
1421.0,0.011485358856890336
1420.0,0.01133778615806096
1419.0,0.011214347780031459
1418.0,0.011127716976015172
1417.0,0.011035118494098516
1416.0,0.01092311726493539
1415.0,0.01081978049973906
1414.0,0.010707492915940527
1413.0,0.010550032858506518
1412.0,0.010361109904635676
1411.0,0.01019615030159459
1410.0,0.010059510230308483
1409.0,0.009914100980061265
1408.0,0.009758831171564203
1407.0,0.009618646145474235
1406.0,0.009469054599845516
1405.0,0.009263221101152179
1404.0,0.009049680371798229
1403.0,0.008905397830617364
1402.0,0.008806995552024724
1401.0,0.008685482247334833
1400.0,0.00853798536457997
1399.0,0.00843345115835023
1398.0,0.008378749742936918
1397.0,0.008293304756648585
1396.0,0.008165555480646739
1395.0,0.008084718900841564
1394.0,0.008076495352231169
1393.0,0.00808166569752689
1392.0,0.008100930211489728
1391.0,0.008179272593933586
1390.0,0.008320572856146588
1389.0,0.008517490342150442
1388.0,0.008855454104165477
1387.0,0.009494048119289845
1386.0,0.010482810808209314
1385.0,0.01180795053443052
1384.0,0.013620211192113561
1383.0,0.01616580657207806
1382.0,0.019576396195231164
1381.0,0.02391283836978145
1380.0,0.02928851951244578
1379.0,0.035567494518616974
1378.0,0.04190548601249489
1377.0,0.04692611351656235
1376.0,0.04924400387396523
1375.0,0.047782973958692763
1374.0,0.04272227185864691
1373.0,0.036070218116175584
1372.0,0.02985946830756861
1371.0,0.02471538869148572
1370.0,0.02052518913174632
1369.0,0.017235407021178293
1368.0,0.014908622189053627
1367.0,0.013472014344270034
1366.0,0.012692870383874087
1365.0,0.012354679719216784
1364.0,0.012324566492006306
1363.0,0.012536356963746779
1362.0,0.01294068526983307
1361.0,0.0134196903532018
1360.0,0.013793470624920222
1359.0,0.01390177988161971
1358.0,0.013652909352343444
1357.0,0.01304818097244084
1356.0,0.0121752219386084
1355.0,0.011174544287386403
1354.0,0.01020334009715479
1353.0,0.00937638864516975
1352.0,0.008712249460599996
1351.0,0.008166514683939138
1350.0,0.007703444819061189
1349.0,0.007310132685353047
1348.0,0.006976696565121678
1347.0,0.006686818268275533
1346.0,0.0064341286807108235
1345.0,0.0062227366759174795
1344.0,0.006053888712117428
1343.0,0.0059183511245137505
1342.0,0.005800760392235101
1341.0,0.005682884656883944
1340.0,0.005562710745577321
1339.0,0.00546805737675847
1338.0,0.005418626083896955
1337.0,0.005403644788662317
1336.0,0.005408961805298233
1335.0,0.005433650610344813
1334.0,0.005482362965516713
1333.0,0.0055504982977524365
1332.0,0.005619755299329921
1331.0,0.0056707287254387576
1330.0,0.0056928452481981185
1329.0,0.0056794860215460645
1328.0,0.005623292214145958
1327.0,0.005525432241219914
1326.0,0.005399644945408694
1325.0,0.005261132046681738
1324.0,0.005124107314703674
1323.0,0.005001818766485425
1322.0,0.004901933004291509
1321.0,0.00481996155893423
1320.0,0.004744468265612855
1319.0,0.004669089837147453
1318.0,0.004595557035777161
1317.0,0.0045267169319816135
1316.0,0.004463531294880066
1315.0,0.004407848124846986
1314.0,0.004363207436298141
1313.0,0.004334761359947143
1312.0,0.004327216829048772
1311.0,0.004343910128476295
1310.0,0.004391377354218979
1309.0,0.004485121802302931
1308.0,0.004641091109584099
1307.0,0.004852180684547288
1306.0,0.005072125243322402
1305.0,0.005233319556595405
1304.0,0.005292230594965714
1303.0,0.005255189998106306
1302.0,0.005167560396898975
1301.0,0.005080764028308713
1300.0,0.005027533827735187
1299.0,0.0050144237028859305
1298.0,0.005027295088944209
1297.0,0.00504169961641128
1296.0,0.005033164245578271
1295.0,0.004985670607502603
1294.0,0.004897982752409751
1293.0,0.004786500398244679
1292.0,0.00467555303411459
1291.0,0.004577544309077308
1290.0,0.004485125228304052
1289.0,0.0043892727985172224
1288.0,0.004299645016455914
1287.0,0.004235520722758136
1286.0,0.004199142371315391
1285.0,0.00417298576552423
1284.0,0.0041435534947022006
1283.0,0.004114013507465486
1282.0,0.004093923209869501
1281.0,0.00408677954505497
1280.0,0.004090326260706668
1279.0,0.00409999952010285
1278.0,0.004107588236577038
1277.0,0.004105931716703388
1276.0,0.004097718782206531
1275.0,0.004093981938099503
1274.0,0.004101067322248736
1273.0,0.004116299645408416
1272.0,0.004137395156493362
1271.0,0.004167935872755881
1270.0,0.004210628126050706
1269.0,0.004263398789154714
1268.0,0.004325877706624856
1267.0,0.004401406239585298
1266.0,0.004490142020317311
1265.0,0.004587680278816106
1264.0,0.004689982389582596
1263.0,0.004794574852692997
1262.0,0.0049009244032595795
1261.0,0.005015973348249086
1260.0,0.005154765247673568
1259.0,0.005323934697953657
1258.0,0.005502691530153883
1257.0,0.005649548608559802
1256.0,0.005725529672368987
1255.0,0.00571073518625694
1254.0,0.00561174324356116
1253.0,0.005463250959094078
1252.0,0.005315463969859529
1251.0,0.0052059375110954376
1250.0,0.0051381640185026445
1249.0,0.005092523764340185
1248.0,0.005055715370600865
1247.0,0.005029522493280085
1246.0,0.005015403453552631
1245.0,0.005008014420825905
1244.0,0.005004442246790412
1243.0,0.005006495219429167
1242.0,0.005012538347059508
1241.0,0.005018490999431115
1240.0,0.0050263020954631425
1239.0,0.005039845931503211
1238.0,0.005053473598378908
1237.0,0.005057550856058916
1236.0,0.005055651838551119
1235.0,0.00506329274748599
1234.0,0.005087777774579968
1233.0,0.005121279493861899
1232.0,0.005155945065017473
1231.0,0.005192892343820138
1230.0,0.0052332994497969725
1229.0,0.005273478971333078
1228.0,0.005313806696843344
1227.0,0.005363588126869087
1226.0,0.005432313985983787
1225.0,0.005520969607602148
1224.0,0.005622775274682154
1223.0,0.00572615841026646
1222.0,0.005817208727118063
1221.0,0.005886016049927882
1220.0,0.0059311110743660075
1219.0,0.005953686022015476
1218.0,0.005950757187305084
1217.0,0.005920961612304576
1216.0,0.0058730323151529595
1215.0,0.005819271250717456
1214.0,0.005762393189605834
1213.0,0.005698248518675548
1212.0,0.005630078132193125
1211.0,0.005568916707894974
1210.0,0.005519897394916661
1209.0,0.0054783612348361255
1208.0,0.0054402913073839845
1207.0,0.005407015908790176
1206.0,0.005379467201708789
1205.0,0.005356940080145985
1204.0,0.005341573129680066
1203.0,0.005335023292368506
1202.0,0.00533079534859035
1201.0,0.005319290197942032
1200.0,0.005300424029560024
1199.0,0.005282186861790878
1198.0,0.0052674321294931895
1197.0,0.005252811690986653
1196.0,0.005240031354121143
1195.0,0.00523692776280385
1194.0,0.0052466155005223905
1193.0,0.005266065433550826
1192.0,0.0052968832169059
1191.0,0.005345681569427463
1190.0,0.005410751304262952
1189.0,0.005479342326760887
1188.0,0.005542406485598632
1187.0,0.005603566011718176
1186.0,0.005670582325605834
1185.0,0.0057455955875824315
1184.0,0.005826206096629306
1183.0,0.00590952490071602
1182.0,0.00599377669487358
1181.0,0.006082054530064614
1180.0,0.006185874839269771
1179.0,0.006320055357899311
1178.0,0.006493999059974664
1177.0,0.006713532115840921
1176.0,0.006990136018609714
1175.0,0.0073419112501001745
1174.0,0.007785221563900196
1173.0,0.008327275471517355
1172.0,0.008958816369990278
1171.0,0.009641581958255518
1170.0,0.010304093397847665
1169.0,0.010859673836915374
1168.0,0.011235215862707225
1167.0,0.011395235643870176
1166.0,0.011356540995998199
1165.0,0.011182144965509368
1164.0,0.010950555657148947
1163.0,0.010722938780805179
1162.0,0.010531837299630635
1161.0,0.01038792099392261
1160.0,0.010289553565997867
1159.0,0.010229167528516405
1158.0,0.010200195511792937
1157.0,0.010201656962257987
1156.0,0.01023087460155689
1155.0,0.010271199809029132
1154.0,0.010295878742087067
1153.0,0.010287979900558986
1152.0,0.010248866654672699
1151.0,0.010183192883600598
1150.0,0.010085754293247817
1149.0,0.00995153106790257
1148.0,0.0097925134173008
1147.0,0.009634254886876088
1146.0,0.009495719631022869
1145.0,0.009379126468296514
1144.0,0.009278402681578113
1143.0,0.009189048307381415
1142.0,0.009108357645998358
1141.0,0.009034283114338406
1140.0,0.008967245360092548
1139.0,0.008907364561723707
1138.0,0.00884860484472024
1137.0,0.00878319693676884
1136.0,0.008715108229305362
1135.0,0.008662242295596017
1134.0,0.008639847906013834
1133.0,0.008645643857750728
1132.0,0.008664533284479855
1131.0,0.008682902304139496
1130.0,0.008695462723126681
1129.0,0.00870393081662385
1128.0,0.00871518720650757
1127.0,0.008739227157682022
1126.0,0.00878330719031583
1125.0,0.008845643362498011
1124.0,0.008915027983673319
1123.0,0.00897701226537323
1122.0,0.009022898838895036
1121.0,0.009055860925114933
1120.0,0.009087908471895048
1119.0,0.00912832709086252
1118.0,0.00917450777066703
1117.0,0.00921615229752099
1116.0,0.009248830569532879
1115.0,0.009281148431445825
1114.0,0.009327330865034929
1113.0,0.009394153768633446
1112.0,0.009476953262528984
1111.0,0.009568056299363635
1110.0,0.009666616352051724
1109.0,0.009779565895608735
1108.0,0.009913764332800279
1107.0,0.010066384384855229
1106.0,0.010223827669562077
1105.0,0.010366771038340553
1104.0,0.010474410766533809
1103.0,0.010530487843803789
1102.0,0.010531183917861824
1101.0,0.010489285006124529
1100.0,0.010424989112886904
1099.0,0.010349113409020679
1098.0,0.01026457697248765
1097.0,0.010171978404785984
1096.0,0.010074271192073467
1095.0,0.009974374919929117
1094.0,0.009874341186815402
1093.0,0.009779180927632348
1092.0,0.009699424486739975
1091.0,0.009644850570272308
1090.0,0.009613564640457777
1089.0,0.009590689524884932
1088.0,0.009561673841038738
1087.0,0.009525883911893563
1086.0,0.009493762017139118
1085.0,0.00947050653348487
1084.0,0.009446700100603351
1083.0,0.009406948973791301
1082.0,0.009344049979599008
1081.0,0.009261783115915514
1080.0,0.00916824537663176
1079.0,0.009072155374531632
1078.0,0.008982006667529309
1077.0,0.008900302213753807
1076.0,0.008818413101982892
1075.0,0.008724738421327736
1074.0,0.008620790366483251
1073.0,0.008522890002185615
1072.0,0.008442984766785863
1071.0,0.008372336118675128
1070.0,0.008291467883366564
1069.0,0.00819524223834484
1068.0,0.008099654753959686
1067.0,0.008020546641278626
1066.0,0.007952874196909317
1065.0,0.007879615251436715
1064.0,0.007798449965219183
1063.0,0.007728430990980384
1062.0,0.0076857439333617265
1061.0,0.007659916020599561
1060.0,0.00762179858560872
1059.0,0.007553461358945622
1058.0,0.0074650553988484854
1057.0,0.007382551331337358
1056.0,0.007323814838947507
1055.0,0.007287003880360979
1054.0,0.007256941100533269
1053.0,0.00722105534104662
1052.0,0.00718254473107105
1051.0,0.007159003350489105
1050.0,0.007164860211016805
1049.0,0.00719515017493514
1048.0,0.007229835786849477
1047.0,0.007251484313568852
1046.0,0.00725358117818559
1045.0,0.007233961074890587
1044.0,0.007188541962125511
1043.0,0.007115845764017975
1042.0,0.007023295997287647
1041.0,0.006923542906615164
1040.0,0.006825987456807556
1039.0,0.006735974606982078
1038.0,0.006660018988374466
1037.0,0.006605198965141532
1036.0,0.00657102793118617
1035.0,0.006545118859989539
1034.0,0.006510506172899895
1033.0,0.006457917204643565
1032.0,0.006389922227960337
1031.0,0.006313763118581497
1030.0,0.006232670218899634
1029.0,0.006145692434547007
1028.0,0.006055561852132466
1027.0,0.0059736173289134924
1026.0,0.005912641439627267
1025.0,0.0058733789207649975
1024.0,0.00584057996288055
1023.0,0.00579481279387783
1022.0,0.005728626338885328
1021.0,0.0056506562418795064
1020.0,0.005575086085276159
1019.0,0.005509863900676664
1018.0,0.00545494377734017
1017.0,0.005408131133210406
1016.0,0.005369014889853861
1015.0,0.00533761828084949
1014.0,0.005312342814284932
1013.0,0.005290506430025155
1012.0,0.005269870229109573
1011.0,0.005249823086774661
1010.0,0.005233065741147878
1009.0,0.005226750637342981
1008.0,0.005240650194946099
1007.0,0.00528422291832995
1006.0,0.005368182573363082
1005.0,0.005510903046008108
1004.0,0.0057415979038499855
1003.0,0.006092572287729215
1002.0,0.006580372287618602
1001.0,0.007180217865438519
1000.0,0.0078026975319603065
999.0,0.008296495597996516
998.0,0.008502102345082774
997.0,0.008334626246798243
996.0,0.00783105321680261
995.0,0.007127284213249808
994.0,0.006386566691220225
993.0,0.005728006501338307
992.0,0.005197763701036057
991.0,0.004785872156969767
990.0,0.004459059735996447
989.0,0.004187773991628327
988.0,0.003961228013312791
987.0,0.0037871116647415007
986.0,0.003677903875255911
985.0,0.003637612505810243
984.0,0.0036619142448096192
983.0,0.003747994363530089
982.0,0.0039018689081844176
981.0,0.004138384408790403
980.0,0.004476876946051105
979.0,0.0049352345611894735
978.0,0.005522021453838273
977.0,0.00622323154285152
976.0,0.0069815275579679995
975.0,0.007680901497390442
974.0,0.008162936094737823
973.0,0.008280803961947168
972.0,0.007964882698374675
971.0,0.007267209387639351
970.0,0.006351905229032331
969.0,0.005419305961170975
968.0,0.0046148495831365155
967.0,0.003991391800213162
966.0,0.0035338466195776463
965.0,0.0032044043173257916
964.0,0.002967147724080351
963.0,0.0027865619069589054
962.0,0.0026257134593879235
961.0,0.002459994024610345
960.0,0.002290131120213937
959.0,0.0021336796715785925
958.0,0.0020028173453583206
957.0,0.0018942922718433453
956.0,0.001799630526467316
955.0,0.0017173891657249196
954.0,0.0016510540504060672
953.0,0.0015987705861903422
952.0,0.0015510740302995176
951.0,0.0015008057611499478
950.0,0.0014533262379500898
949.0,0.0014232902632110387
948.0,0.0014194555941646862
947.0,0.0014353162085254303
946.0,0.0014582659736802304
945.0,0.001485133668120418
944.0,0.0015212323804886761
943.0,0.001563748474337318
942.0,0.0015946793781599945
941.0,0.0015943854653821567
940.0,0.0015567693162590775
939.0,0.001489440853956565
938.0,0.001406358215550298
937.0,0.0013229659501474283
936.0,0.0012498022032165507
935.0,0.0011845750807531925
934.0,0.0011170209335898918
933.0,0.0010484477957501568
932.0,0.0009994509966272528
931.0,0.0009882576267509586
930.0,0.001005036270818902
929.0,0.0010182823247346564
928.0,0.0010066156027586284
927.0,0.0009765895644082154
926.0,0.0009492433626831021
925.0,0.0009358547846922988
924.0,0.0009290386749660146
923.0,0.0009139633523266725
922.0,0.0008863232156923152
921.0,0.000858727927661015
920.0,0.0008470087581471187
919.0,0.000851894540975404
918.0,0.0008608192414635389
917.0,0.0008674532157710267
916.0,0.000878486913064358
915.0,0.0008972881230160171
914.0,0.0009133036194883658
913.0,0.0009168372558294646
912.0,0.00091465108719523
911.0,0.0009204023211259772
910.0,0.0009382051931383015
909.0,0.0009675636462823968
908.0,0.001016932787920772
907.0,0.0010986531845224787
906.0,0.0012167505069781322
905.0,0.0013744243513857581
904.0,0.0015873252112219311
903.0,0.0018693398733297274
902.0,0.002200220688874554
901.0,0.0025173038017895204
900.0,0.002741384565939961
899.0,0.0028113724473108614
898.0,0.002710619974872614
897.0,0.002474623593703233
896.0,0.0021724205509260335
895.0,0.0018683781561253526
894.0,0.001595307338041493
893.0,0.00136240572564408
892.0,0.0011800189825019996
891.0,0.0010616471864778355
890.0,0.001002822120619579
889.0,0.0009768406782429198
888.0,0.0009600272482828236
887.0,0.0009509543230426711
886.0,0.0009595127630867475
885.0,0.000988222755023289
884.0,0.0010332089790943116
883.0,0.0010961861493928322
882.0,0.00118498922401487
881.0,0.0013024834830860903
880.0,0.001439745823057309
879.0,0.0015809473717028778
878.0,0.0017132896659409601
877.0,0.00182970202150237
876.0,0.0019192161130987644
875.0,0.001959377877051263
874.0,0.0019293054832584203
873.0,0.0018318695090370173
872.0,0.0016933468975924397
871.0,0.001538757060517041
870.0,0.0013779721509570072
869.0,0.0012207439852798332
868.0,0.001092615441662564
867.0,0.0010213421064766953
866.0,0.001009234453398164
865.0,0.0010299978543524147
864.0,0.0010534058749111282
863.0,0.0010659699900349377
862.0,0.0010705770682212234
861.0,0.0010756251891846317
860.0,0.0010848567744631485
859.0,0.0010921374898111187
858.0,0.0010878480329913238
857.0,0.0010747612847170802
856.0,0.0010721140826936738
855.0,0.0010963948340515176
854.0,0.0011431232363446914
853.0,0.0011964701107307837
852.0,0.0012509126221585728
851.0,0.0013119284948241421
850.0,0.001381475210297984
849.0,0.001458606780424681
848.0,0.0015554760514080047
847.0,0.0017048510968349587
846.0,0.0019559844883632223
845.0,0.002365142944527606
844.0,0.002958734119283459
843.0,0.0036596351720666574
842.0,0.004252037625075087
841.0,0.004481038005172114
840.0,0.004240333912008183
839.0,0.003665277387487006
838.0,0.0030247567391131266
837.0,0.0025214615438080464
836.0,0.002198457620765197
835.0,0.0019990655012118823
834.0,0.0018630551305147056
833.0,0.0017629366785220195
832.0,0.0016906027640137614
831.0,0.0016423348243360635
830.0,0.0016118702781017756
829.0,0.0015851097042073464
828.0,0.0015494284395963284
827.0,0.0015164147046340583
826.0,0.0015194620503654176
825.0,0.0015713111160795667
824.0,0.001639315787022165
823.0,0.0016850706544896503
822.0,0.001712952448551016
821.0,0.0017536156502954616
820.0,0.0018157136471169052
819.0,0.0018843558359873183
818.0,0.001958316295959517
817.0,0.002060471184801087
816.0,0.0022099657424759223
815.0,0.0024051444541489924
814.0,0.002639283064386027
813.0,0.0029131612295667207
812.0,0.003217080960968335
811.0,0.0035111516454439003
810.0,0.0037385659177528816
809.0,0.003855946014050598
808.0,0.0038481109634618538
807.0,0.003729426441687134
806.0,0.003540787699175695
805.0,0.003330107668683172
804.0,0.0031256882096325454
803.0,0.0029363799239428105
802.0,0.0027744728186290847
801.0,0.0026583318426247164
800.0,0.0025874150875701187
799.0,0.00253592311191422
798.0,0.002482911904160256
797.0,0.0024320880098008552
796.0,0.002390660246872345
795.0,0.0023490144051520473
794.0,0.002298508632147039
793.0,0.0022512267825193413
792.0,0.0022214006196805743
791.0,0.00220164999112705
790.0,0.002178010705860026
789.0,0.0021547019644432494
788.0,0.002141528314272929
787.0,0.002129548923247163
786.0,0.0021046875010983703
785.0,0.002076219289213541
784.0,0.0020656060937997347
783.0,0.002073182157727508
782.0,0.0020802269813331425
781.0,0.002077840042645702
780.0,0.0020676868315516947
779.0,0.0020407160664757274
778.0,0.0019867365509597962
777.0,0.0019248517048394247
776.0,0.0018934216696343993
775.0,0.0019054874164989404
774.0,0.0019399240795965177
773.0,0.001979321346529816
772.0,0.002028648369082578
771.0,0.00209029060708567
770.0,0.002148963572991304
769.0,0.0021929155586482493
768.0,0.0022270339607695123
767.0,0.0022543551709355916
766.0,0.0022656478300437915
765.0,0.0022566477786953067
764.0,0.00223521519699515
763.0,0.0022059877254129463
762.0,0.0021725201198754956
761.0,0.002159948872548185
760.0,0.0022059457429449113
759.0,0.002311975902081773
758.0,0.0024232025565936385
757.0,0.0024749751236363988
756.0,0.0024488468173374384
755.0,0.0023785726662139284
754.0,0.0023212581111993896
753.0,0.0023263556264698365
752.0,0.002404732640877925
751.0,0.0025115045546208054
750.0,0.002577987054483269
749.0,0.0025742533319024503
748.0,0.0025269505931161534
747.0,0.0024766092153844527
746.0,0.0024471561806082252
745.0,0.0024607007201745846
744.0,0.0025368748129638366
743.0,0.002649399005952709
742.0,0.0027178850533825134
741.0,0.0026841606162899007
740.0,0.0025825573717286124
739.0,0.0025024285667307657
738.0,0.0024947845465740203
737.0,0.0025433530899949437
736.0,0.0026080429770524924
735.0,0.0026620599572038037
734.0,0.0026946498580445906
733.0,0.0027068740038819466
732.0,0.002705617069031061
731.0,0.0026878500698389214
730.0,0.002642073535859756
729.0,0.002579667176260521
728.0,0.00254307437948547
727.0,0.002556641037488986
726.0,0.00258884340965225
725.0,0.0025938184454170777
724.0,0.0025726569319893967
723.0,0.002560242286027801
722.0,0.0025699513740112846
721.0,0.002589847688248525
720.0,0.0026210254281983317
719.0,0.0026757259145388634
718.0,0.002740400740517318
717.0,0.0027888392190425996
716.0,0.002831545021906419
715.0,0.0029016042608703396
714.0,0.00298047551843148
713.0,0.0029890756251021167
712.0,0.002883571320003976
711.0,0.0027202513551706445
710.0,0.002593689418416303
709.0,0.0025430461633738043
708.0,0.00255194613808994
707.0,0.002603400428395207
706.0,0.0026852774199272976
705.0,0.0027594986078903847
704.0,0.00277962248685879
703.0,0.00274692246656226
702.0,0.002707220005265012
701.0,0.0026807550172670367
700.0,0.002634129511866432
699.0,0.0025406593196527372
698.0,0.002437582902146216
697.0,0.0023906626853203976
696.0,0.002415399460608368
695.0,0.0024641751152055663
694.0,0.0024838781419963315
693.0,0.0024603164088102536
692.0,0.002406440182784308
691.0,0.0023329195859983446
690.0,0.0022487746260240332
689.0,0.002177806076518598
688.0,0.0021495653074035167
687.0,0.0021698730183652946
686.0,0.002214755041605187
685.0,0.002257898290324252
684.0,0.0022917415117846857
683.0,0.002318649371886824
682.0,0.002334699754596218
681.0,0.002332472771916446
680.0,0.0023159964081855607
679.0,0.0023024602535749346
678.0,0.0023034123696287576
677.0,0.002311673380476874
676.0,0.0023058411897008153
675.0,0.002272399313076875
674.0,0.0022193309876716305
673.0,0.0021611551892090058
672.0,0.002095812894752254
671.0,0.0019989228558359804
670.0,0.0018557295373928962
669.0,0.001684991780483279
668.0,0.0015716740083969848
667.0,0.0016534254170238322
666.0,0.0018738317309468823
665.0,0.002063922952635912
664.0,0.0021925367355203965
663.0,0.002268930712621407
662.0,0.002294074715194395
661.0,0.002265451506371632
660.0,0.002195521410374591
659.0,0.0021093953107958197
658.0,0.0020355753383396423
657.0,0.0019942246833703874
656.0,0.0019882878905943847
655.0,0.0020086358131835916
654.0,0.0020392226435795233
653.0,0.0020568000878848965
652.0,0.002038866758348655
651.0,0.001984786499485809
650.0,0.0019300350904808746
649.0,0.0019197383303666393
648.0,0.0019583402403100195
647.0,0.0019995973241296577
646.0,0.0019957361702815594
645.0,0.0019427533057655311
644.0,0.00187097016455888
643.0,0.0018086763070289062
642.0,0.001763180418704529
641.0,0.0017328191395886983
640.0,0.00172660744902731
639.0,0.001758898169296138
638.0,0.0018256613143270636
637.0,0.001896008982058722
636.0,0.001931935350582498
635.0,0.0019154578282381696
634.0,0.0018576446297709302
633.0,0.0017848336237211836
632.0,0.0017226373411019166
631.0,0.001687769909630479
630.0,0.0016772129909265621
629.0,0.0016616381175183787
628.0,0.0016073436455579671
627.0,0.001516880275588951
626.0,0.0014385261167549988
625.0,0.0014167226305448963
624.0,0.0014430938459962638
623.0,0.0014750784945308307
622.0,0.0014873525162724562
621.0,0.001486783093180991
620.0,0.0014878609370407823
619.0,0.0014962197902220458
618.0,0.0015068002593493952
617.0,0.0014956878131068326
616.0,0.0014274311974728626
615.0,0.0013025802611520594
614.0,0.0011880642529361971
613.0,0.0011634204489579594
612.0,0.0012385820822923884
611.0,0.0013451981246869454
610.0,0.0014131568317260965
609.0,0.0014320911990444718
608.0,0.001423144211735736
607.0,0.001386287772191722
606.0,0.0013040758671665643
605.0,0.00117568845456794
604.0,0.0010268921097173183
603.0,0.0009021487538943343
602.0,0.0008432218631789241
601.0,0.0008517652359239444
600.0,0.0008792848892075246
