cm-1,A
4000.0,0.0003506842717171388
3999.0,0.00034867729645558614
3998.0,0.00033715280956115885
3997.0,0.00034729241142118176
3996.0,0.00039501639409139297
3995.0,0.0004543155420045483
3994.0,0.0004763106743316224
3993.0,0.0004423105128266609
3992.0,0.0003819798489647884
3991.0,0.00034427368230683167
3990.0,0.0003573159876335075
3989.0,0.0004168329645292939
3988.0,0.0005017200573315299
3987.0,0.0005794835504294134
3986.0,0.00061238424208729
3985.0,0.0005759535032922912
3984.0,0.0004871520494669282
3983.0,0.0004043509418305835
3982.0,0.000384019700955255
3981.0,0.0004379377801941456
3980.0,0.0005291185268492546
3979.0,0.0006143136088198548
3978.0,0.0006751053210642278
3977.0,0.0007142802374445721
3976.0,0.0007385942581477588
3975.0,0.0007511988389667604
3974.0,0.0007620482669493519
3973.0,0.0007876549286564708
3972.0,0.0008379700057882366
3971.0,0.0009054407981613638
3970.0,0.0009662078367641521
3969.0,0.0009949179594202747
3968.0,0.0009739972187296393
3967.0,0.0008981421805708354
3966.0,0.0007815885770353411
3965.0,0.0006656413853914191
3964.0,0.0006114887944438921
3963.0,0.0006539374670844677
3962.0,0.0007640863276485981
3961.0,0.0008649569938737325
3960.0,0.0008929120420344125
3959.0,0.0008515297793796105
3958.0,0.0007836040763942419
3957.0,0.0007285376545434121
3956.0,0.0007058464917490473
3955.0,0.0007068801793434949
3954.0,0.0007081589168937939
3953.0,0.0006911846761437964
3952.0,0.0006645787674684229
3951.0,0.0006546545834467251
3950.0,0.000670717127167134
3949.0,0.0006859334227029609
3948.0,0.0006586036748403553
3947.0,0.0005868425189261622
3946.0,0.0005359653179451453
3945.0,0.0005791530055967407
3944.0,0.0007190032878307169
3943.0,0.0008779847439778967
3942.0,0.0009591526795012491
3941.0,0.0009532424653708764
3940.0,0.0009564425294402044
3939.0,0.0010395276491247047
3938.0,0.001145670483427218
3937.0,0.0011710652471024997
3936.0,0.0010949668143044409
3935.0,0.0009874626939961632
3934.0,0.0009313243005573514
3933.0,0.000952743455483092
3932.0,0.0010211812049319745
3931.0,0.0010699807117153567
3930.0,0.0010538198199436513
3929.0,0.0009865862739103642
3928.0,0.0009020074280980716
3927.0,0.0008432168070692785
3926.0,0.0008354647179171868
3925.0,0.0008436003428569554
3924.0,0.0007911944183564288
3923.0,0.0006743348577427479
3922.0,0.0006054136328769175
3921.0,0.0006341504207329164
3920.0,0.0006842016062998304
3919.0,0.0007142080287610977
3918.0,0.0007726229000902564
3917.0,0.0008870271974233037
3916.0,0.0009988501673958766
3915.0,0.0010693241539992421
3914.0,0.0011566986827685087
3913.0,0.0013018425878754012
3912.0,0.0014478738452194766
3911.0,0.0015195950410764958
3910.0,0.0014835509647927606
3909.0,0.0013483615647637325
3908.0,0.0011344068343452328
3907.0,0.0008702322019182576
3906.0,0.0006152361476493623
3905.0,0.0004251874779893578
3904.0,0.00028459381841923915
3903.0,0.00011783541543241606
3902.0,-2.54331410271761e-05
3901.0,2.6634914953704153e-05
3900.0,0.000298586972401876
3899.0,0.0005859348708620602
3898.0,0.0007210314845259727
3897.0,0.000761541965692481
3896.0,0.0008144898773733387
3895.0,0.0008532011065339939
3894.0,0.0008454519695763676
3893.0,0.0009124642745882428
3892.0,0.0011541362859007996
3891.0,0.0013343845098904667
3890.0,0.0011254216952510006
3889.0,0.0007041148136026779
3888.0,0.0005071558137510835
3887.0,0.0006381842781429774
3886.0,0.0009244693371441674
3885.0,0.0010373961132893253
3884.0,0.0007735016401578714
3883.0,0.00047832046601663323
3882.0,0.0005527481863919961
3881.0,0.0009298726582257265
3880.0,0.0012685406539638547
3879.0,0.0012551015627746843
3878.0,0.001007585170083757
3877.0,0.000912675653441138
3876.0,0.0010299364240415054
3875.0,0.0011511030536395447
3874.0,0.0010902894737299263
3873.0,0.0007834635196684219
3872.0,0.00045071872539269135
3871.0,0.0004125745434466711
3870.0,0.0006390255923093089
3869.0,0.0007044138473276812
3868.0,0.0004611696632986981
3867.0,0.0003747845256873118
3866.0,0.0006571179849577833
3865.0,0.00097705519403075
3864.0,0.0011082210612706322
3863.0,0.0010907433134729845
3862.0,0.0010771774475444055
3861.0,0.0011717669731698662
3860.0,0.0012951618029042548
3859.0,0.0013141543215636
3858.0,0.0011328362950017807
3857.0,0.0006864328894182351
3856.0,4.941322511457444e-05
3855.0,-0.0004149770812082133
3854.0,-0.00011627525758972201
3853.0,0.0005652186683724227
3852.0,0.0004404738584706143
3851.0,-3.560544317946553e-05
3850.0,0.0002640614414393585
3849.0,0.0010321326221631203
3848.0,0.0015420084831346582
3847.0,0.0016752644363342648
3846.0,0.0016258278340332607
3845.0,0.0015485793631505231
3844.0,0.001479642045539074
3843.0,0.0013441608244646021
3842.0,0.0010596272793564534
3841.0,0.0007128165219300632
3840.0,0.000522038124973148
3839.0,0.00060635832965307
3838.0,0.0008093144673059346
3837.0,0.000855712936111701
3836.0,0.0007276707614880572
3835.0,0.0006757515828199516
3834.0,0.0008666120709595474
3833.0,0.0012289677454328596
3832.0,0.0015773557406901072
3831.0,0.0017359071205541518
3830.0,0.0016845307576119403
3829.0,0.001582203464609619
3828.0,0.001569431626413681
3827.0,0.0016050305981014003
3826.0,0.0015096673757429586
3825.0,0.0011835228571465614
3824.0,0.0007935173848270865
3823.0,0.0005939816874441436
3822.0,0.0007358770252045531
3821.0,0.0010612240726473711
3820.0,0.0009691590369527939
3819.0,0.00048207170305715735
3818.0,0.000387913941074125
3817.0,0.0008754464864416528
3816.0,0.0014842478762476415
3815.0,0.001729634701904961
3814.0,0.0016013147690291888
3813.0,0.001608115170813603
3812.0,0.001860048438330813
3811.0,0.0019464792274738697
3810.0,0.0017345747061944666
3809.0,0.0015131305901359459
3808.0,0.0015676673597087984
3807.0,0.001774085106313438
3806.0,0.0016595291923043407
3805.0,0.0011707794596406366
3804.0,0.0008235402112345275
3803.0,0.0009203616846465458
3802.0,0.0013775030937080712
3801.0,0.001740374974027732
3800.0,0.0014918419454245657
3799.0,0.0010430354053008947
3798.0,0.0010814966093681266
3797.0,0.0014753152060042636
3796.0,0.0017920171151482988
3795.0,0.0018720336327049183
3794.0,0.0018636879161713707
3793.0,0.0019646814689679047
3792.0,0.0021290419702466564
3791.0,0.0021992552838349232
3790.0,0.0021320003322002016
3789.0,0.001978977511050987
3788.0,0.0017969362208930936
3787.0,0.0016514114087888276
3786.0,0.0016095387956045403
3785.0,0.001663708502107647
3784.0,0.0017009494815827374
3783.0,0.0016446349586798394
3782.0,0.0015689839534343344
3781.0,0.0015816243085057264
3780.0,0.0016920652446852404
3779.0,0.0017963543704474436
3778.0,0.0017701664261360345
3777.0,0.0016898371937336997
3776.0,0.0017291596566565062
3775.0,0.0018510727906586467
3774.0,0.00188611025924461
3773.0,0.0017933478852578035
3772.0,0.0017017070070140927
3771.0,0.0017255290491138258
3770.0,0.001802106784823669
3769.0,0.0017629190853587417
3768.0,0.0016306423726857025
3767.0,0.0016314609835012608
3766.0,0.00181672261101607
3765.0,0.0019585886518942884
3764.0,0.0018566659582253562
3763.0,0.0015991015405672857
3762.0,0.001404352427020728
3761.0,0.001324214605437999
3760.0,0.0013187496404801387
3759.0,0.0013680498194385653
3758.0,0.0013997493419573466
3757.0,0.0013306321336279386
3756.0,0.0011584061118205214
3755.0,0.0009099836846343592
3754.0,0.0005788063759723117
3753.0,0.00017439073024168045
3752.0,-6.711348965614174e-05
3751.0,0.00011747998582352197
3750.0,0.000438696120040008
3749.0,0.00042461289126611776
3748.0,0.00017886206127702697
3747.0,0.00011967348005999332
3746.0,0.0004053432522160595
3745.0,0.0009663578286891895
3744.0,0.0013057791696996588
3743.0,0.0008442833226870181
3742.0,0.0002751394217299051
3741.0,0.0004804754623895695
3740.0,0.0009429079881176439
3739.0,0.000944145409740086
3738.0,0.0005441418554351287
3737.0,0.00019327366240307238
3736.0,0.0002079901817653657
3735.0,0.0004378800528431776
3734.0,0.0005784954120481682
3733.0,0.0006893496864801806
3732.0,0.0009402126730542661
3731.0,0.0012274638767034622
3730.0,0.001451111001761274
3729.0,0.0016529341954010556
3728.0,0.001806629466647276
3727.0,0.0018247064297478742
3726.0,0.0016920038868575692
3725.0,0.0014888339064113298
3724.0,0.0013725232232120327
3723.0,0.0014318743036007137
3722.0,0.0015945724654553078
3721.0,0.0017427824235800244
3720.0,0.0018297984159634396
3719.0,0.001890943711029847
3718.0,0.0019303546170061098
3717.0,0.0018845428427898166
3716.0,0.0017087441582989927
3715.0,0.0014393319754531387
3714.0,0.0011596323427211699
3713.0,0.0009993959884530487
3712.0,0.0011357453038877549
3711.0,0.001494276221815422
3710.0,0.0017847075566205404
3709.0,0.001999598346144664
3708.0,0.0022907076678880247
3707.0,0.002612430680256273
3706.0,0.002830706964846409
3705.0,0.0029248976124752572
3704.0,0.002988327919996772
3703.0,0.0031030437133459645
3702.0,0.00325477111721638
3701.0,0.003320158557668469
3700.0,0.0032428864443652724
3699.0,0.003172720060129088
3698.0,0.0032542652395435284
3697.0,0.0034217790258716666
3696.0,0.0035176628813976332
3695.0,0.003476861708888588
3694.0,0.003332101707122233
3693.0,0.003107847764184429
3692.0,0.002842736410248763
3691.0,0.002734186498359884
3690.0,0.003013378703902947
3689.0,0.0035563063904206476
3688.0,0.003924318506154512
3687.0,0.004023726900626572
3686.0,0.00422137241792836
3685.0,0.0046792019111793065
3684.0,0.005134900312892474
3683.0,0.005326840262221102
3682.0,0.005276217101056302
3681.0,0.005154800721399684
3680.0,0.005010463211001388
3679.0,0.004740385182517008
3678.0,0.0043974609602234725
3677.0,0.004302397421051454
3676.0,0.004760747046858638
3675.0,0.005276620132942061
3674.0,0.005083979942617859
3673.0,0.004732761901053043
3672.0,0.005005960472198251
3671.0,0.005745770359213897
3670.0,0.006598777850253871
3669.0,0.0071091143146996775
3668.0,0.007128429382577137
3667.0,0.007216685651066616
3666.0,0.007646193131457575
3665.0,0.008165361950417296
3664.0,0.008586709923128018
3663.0,0.008907540367668382
3662.0,0.00916271268870199
3661.0,0.009333409999555831
3660.0,0.009412407516650956
3659.0,0.009489306661368139
3658.0,0.009735215193321822
3657.0,0.010216291798571146
3656.0,0.01067608467910917
3655.0,0.010730922339194591
3654.0,0.010438108335752485
3653.0,0.010133464331699931
3652.0,0.009907945241899908
3651.0,0.009876696326805002
3650.0,0.010362943130930193
3649.0,0.011164486302395934
3648.0,0.011681990632368938
3647.0,0.011981516465200077
3646.0,0.012457403162106619
3645.0,0.01315560783041142
3644.0,0.013902821442947508
3643.0,0.014536679689256024
3642.0,0.015002685704333232
3641.0,0.015331824028384788
3640.0,0.015604244773350276
3639.0,0.015895571283115705
3638.0,0.016212835607953398
3637.0,0.01651772212202686
3636.0,0.016820092082429128
3635.0,0.017114622494869145
3634.0,0.017293882608720373
3633.0,0.017227016865444967
3632.0,0.016990659491215233
3631.0,0.016881406605186618
3630.0,0.017295136971617157
3629.0,0.01833775847694545
3628.0,0.01915758805752534
3627.0,0.019225905974674117
3626.0,0.01932323885517645
3625.0,0.019839524042479594
3624.0,0.020339324026963854
3623.0,0.02054528300467354
3622.0,0.02056004483942537
3621.0,0.020639627469639907
3620.0,0.0209589389958404
3619.0,0.021423212990425027
3618.0,0.02171636785741957
3617.0,0.02178463193152814
3616.0,0.02189661971053083
3615.0,0.02220894591937116
3614.0,0.022655160345054045
3613.0,0.023064616587218423
3612.0,0.023302662156688657
3611.0,0.023441967041375675
3610.0,0.02369853721711845
3609.0,0.024175303905148004
3608.0,0.02473785081537971
3607.0,0.02513604942526124
3606.0,0.025317126753014993
3605.0,0.02546581248525252
3604.0,0.025708539320106496
3603.0,0.026044099416560357
3602.0,0.026451686197955543
3601.0,0.026887713634946978
3600.0,0.02726297498051201
3599.0,0.02752466680146197
3598.0,0.027725945558936788
3597.0,0.027960303439375292
3596.0,0.02829459926839633
3595.0,0.028723279263850335
3594.0,0.029138420770583984
3593.0,0.029421843247630065
3592.0,0.029570213226440205
3591.0,0.02965295451193911
3590.0,0.02973421935205308
3589.0,0.029924489321562185
3588.0,0.03034031264246361
3587.0,0.03083964897902338
3586.0,0.031165802536758207
3585.0,0.031426116774426825
3584.0,0.03185839988765079
3583.0,0.03242839927350847
3582.0,0.03297737259184899
3581.0,0.033431918795845006
3580.0,0.03380709283946498
3579.0,0.03413378336815435
3578.0,0.034437076858172606
3577.0,0.034750067308123044
3576.0,0.03511707776898108
3575.0,0.035558032249260685
3574.0,0.036018045061723666
3573.0,0.03638571121942021
3572.0,0.03657436204284458
3571.0,0.03658662143443757
3570.0,0.03651957987832341
3569.0,0.03654584325507637
3568.0,0.03684994271742922
3567.0,0.037394225836686876
3566.0,0.037871382802584716
3565.0,0.038178693675442195
3564.0,0.038539664449802925
3563.0,0.03906551978486874
3562.0,0.03965482404477127
3561.0,0.04019631676835862
3560.0,0.04065126839546555
3559.0,0.041034361584214606
3558.0,0.04138982426210982
3557.0,0.041757431925043005
3556.0,0.0421465814160567
3555.0,0.04255536535160644
3554.0,0.04298488226593613
3553.0,0.04341631716669042
3552.0,0.04379317111011262
3551.0,0.04407815828886888
3550.0,0.04431207160369416
3549.0,0.0445600142194662
3548.0,0.04484522745991932
3547.0,0.045175384873857465
3546.0,0.04555680199209726
3545.0,0.04595207405731758
3544.0,0.04631081950918602
3543.0,0.04663668101835642
3542.0,0.04696335920717022
3541.0,0.04729786952253966
3540.0,0.04761896807470188
3539.0,0.04792640527772971
3538.0,0.04826526093944489
3537.0,0.04866799920871389
3536.0,0.049082008238400573
3535.0,0.049408657110459754
3534.0,0.04962019333594395
3533.0,0.049777789735412865
3532.0,0.049947591952223085
3531.0,0.05014728180468059
3530.0,0.050374729587549655
3529.0,0.0506328827944241
3528.0,0.05091118714451582
3527.0,0.05119074592516346
3526.0,0.051488978816406634
3525.0,0.051857409396653155
3524.0,0.05229208424453074
3523.0,0.0526862588666321
3522.0,0.052936137092251395
3521.0,0.05308218773965573
3520.0,0.05327477527878485
3519.0,0.053607614328379766
3518.0,0.0540335262879606
3517.0,0.05444401745444299
3516.0,0.054794094243655916
3515.0,0.05511228102424809
3514.0,0.05541800021320577
3513.0,0.05568932293951396
3512.0,0.055925288973375946
3511.0,0.05618902509087702
3510.0,0.056546504956421134
3509.0,0.056964691350669734
3508.0,0.057319344368185955
3507.0,0.05753621967250482
3506.0,0.057682596092538105
3505.0,0.05791028773267015
3504.0,0.05832467843675002
3503.0,0.058868760223741774
3502.0,0.05935740735785498
3501.0,0.05966963861811586
3500.0,0.05984289670780027
3499.0,0.059994751824530165
3498.0,0.06022969168011051
3497.0,0.06058740185404293
3496.0,0.06103064810972901
3495.0,0.06148226384237544
3494.0,0.06188840600415897
3493.0,0.06224903694678012
3492.0,0.06258301447513503
3491.0,0.06288970611899158
3490.0,0.0631697337620009
3489.0,0.06345940916002471
3488.0,0.06380258823499303
3487.0,0.06418792117210684
3486.0,0.06455139408539938
3485.0,0.0648519009935786
3484.0,0.0651157961610379
3483.0,0.06539686534203976
3482.0,0.06571310989345241
3481.0,0.06603883961299674
3480.0,0.06635003850316734
3479.0,0.06665277135907287
3478.0,0.06696838440885111
3477.0,0.06731391363844469
3476.0,0.06769519112387096
3475.0,0.06809364093068493
3474.0,0.06846131195991789
3473.0,0.0687589661134785
3472.0,0.06900009210115172
3471.0,0.06924113352721276
3470.0,0.06953245961415454
3469.0,0.06988507254415811
3468.0,0.0702736341470329
3467.0,0.07065884177992414
3466.0,0.07101059768386109
3465.0,0.07132673044930235
3464.0,0.07163359208390102
3463.0,0.071960398017915
3462.0,0.0723130907944842
3461.0,0.0726768428926702
3460.0,0.07303992799022042
3459.0,0.07340832503205767
3458.0,0.07379898549677896
3457.0,0.07422514453446598
3456.0,0.07468269604655421
3455.0,0.07514262544811537
3454.0,0.07556075175063924
3453.0,0.07589965549644755
3452.0,0.07614654815749305
3451.0,0.07631942813502664
3450.0,0.07647108776749315
3449.0,0.07668213036930395
3448.0,0.07702302760192647
3447.0,0.07748855705851979
3446.0,0.0779807287316668
3445.0,0.0783997714056716
3444.0,0.07873240203425487
3443.0,0.0790347216054533
3442.0,0.07935368330403951
3441.0,0.07966793612693593
3440.0,0.07991212541045371
3439.0,0.08006238042878772
3438.0,0.08017594161299356
3437.0,0.08034451643317925
3436.0,0.08061436270749044
3435.0,0.08095461079716507
3434.0,0.08130169799687059
3433.0,0.08161400383478395
3432.0,0.08188527862713676
3431.0,0.08213244458171222
3430.0,0.08238371061589628
3429.0,0.0826624995056153
3428.0,0.08296908568316162
3427.0,0.0832781462234279
3426.0,0.08355470093816923
3425.0,0.08377222124549548
3424.0,0.08391687365924608
3423.0,0.08398719295173081
3422.0,0.08400114625090224
3421.0,0.0840030913354362
3420.0,0.08404827042429273
3419.0,0.0841634038848414
3418.0,0.08431744773112446
3417.0,0.08443585485120243
3416.0,0.08445927826602145
3415.0,0.08439862060691525
3414.0,0.08432587083063543
3413.0,0.08430223591728857
3412.0,0.08432281431490624
3411.0,0.08434379263170713
3410.0,0.08435438157482107
3409.0,0.08439632470867268
3408.0,0.08450139746780443
3407.0,0.08463017354666431
3406.0,0.08469493762169139
3405.0,0.08464336657084691
3404.0,0.08451034467837533
3403.0,0.08438634636923555
3402.0,0.08434319337427754
3401.0,0.08439728762275239
3400.0,0.08453245963028597
3399.0,0.08472704553724418
3398.0,0.08494622339390644
3397.0,0.08512700644843435
3396.0,0.08520145778968534
3395.0,0.08514975076808766
3394.0,0.08502465910352085
3393.0,0.0849138486940502
3392.0,0.08487111380514148
3391.0,0.0848868226086723
3390.0,0.08492475242124187
3389.0,0.08496982576781342
3388.0,0.08502967291794125
3387.0,0.0851028285188649
3386.0,0.08516267845526558
3385.0,0.0851762522340163
3384.0,0.08513051894194291
3383.0,0.08504178226429698
3382.0,0.0849508137825001
3381.0,0.08490228864217715
3380.0,0.08490746448318694
3379.0,0.08492174878405039
3378.0,0.08488283169538775
3377.0,0.08478135033637164
3376.0,0.08467037436476171
3375.0,0.08459329674383323
3374.0,0.08452919703377078
3373.0,0.08443184779576234
3372.0,0.08429939655126732
3371.0,0.08417275248826418
3370.0,0.08407455833176258
3369.0,0.08398577650332015
3368.0,0.08388761253514672
3367.0,0.0837951417380723
3366.0,0.08373284783915802
3365.0,0.08369688832113455
3364.0,0.08366090468593457
3363.0,0.08361172747424102
3362.0,0.08356379959711037
3361.0,0.08353510125540532
3360.0,0.08351604169237237
3359.0,0.0834704548380108
3358.0,0.08337033801346487
3357.0,0.08322465996896877
3356.0,0.08306845167914799
3355.0,0.08292603106083633
3354.0,0.08279416391062505
3353.0,0.08266134989429538
3352.0,0.08252901184796314
3351.0,0.08240660522989429
3350.0,0.08229700101049155
3349.0,0.08219797208236138
3348.0,0.08210856105126267
3347.0,0.08202166587623923
3346.0,0.08191875806607192
3345.0,0.08178577832434032
3344.0,0.0816298536354071
3343.0,0.08146664775742583
3342.0,0.08129465976403315
3341.0,0.08109729710171913
3340.0,0.0808729359235831
3339.0,0.0806500511351529
3338.0,0.08046485762633666
3337.0,0.08032720883534217
3336.0,0.08021157759660409
3335.0,0.0800804713158548
3334.0,0.0799140930708056
3333.0,0.0797157506884856
3332.0,0.07949306684513066
3331.0,0.07924580413905434
3330.0,0.07897959777897812
3329.0,0.07872175553334543
3328.0,0.07850475530960123
3327.0,0.07833202091433124
3326.0,0.07817419583582459
3325.0,0.07800221252551534
3324.0,0.07780787961328153
3323.0,0.07758713164024741
3322.0,0.0773280643370782
3321.0,0.07703463886592632
3320.0,0.07674659318709932
3319.0,0.07651286613141685
3318.0,0.07634781507388852
3317.0,0.07622295817087943
3316.0,0.07609207249755039
3315.0,0.0759135896427861
3314.0,0.07566484884206359
3313.0,0.07535965196673255
3312.0,0.07504893501670304
3311.0,0.07478319022834658
3310.0,0.07456930655701872
3309.0,0.07437254321733362
3308.0,0.07415873161498601
3307.0,0.0739268489557905
3306.0,0.07370662446739075
3305.0,0.07353505711962044
3304.0,0.073425514006255
3303.0,0.07334273965340193
3302.0,0.07321576914007959
3301.0,0.07299677882674531
3300.0,0.07270709198040545
3299.0,0.0724124328202135
3298.0,0.07215919973756406
3297.0,0.07194912548719003
3296.0,0.07176602579126673
3295.0,0.07159810228831025
3294.0,0.07142924983595006
3293.0,0.07123628747176872
3292.0,0.07101301227306259
3291.0,0.07078494678840425
3290.0,0.07058597228668666
3289.0,0.07042316632327966
3288.0,0.07027007532806985
3287.0,0.07009276352387221
3286.0,0.06988374621253349
3285.0,0.06967456172551159
3284.0,0.06950841092214849
3283.0,0.06938812858875984
3282.0,0.06925707130715154
3281.0,0.06905248700025099
3280.0,0.06877708764659082
3279.0,0.06849616744546057
3278.0,0.06826247790558627
3277.0,0.06806771161822729
3276.0,0.06787546146980124
3275.0,0.06767535990017437
3274.0,0.06748226019956276
3273.0,0.06729975972714894
3272.0,0.06711644658939667
3271.0,0.06693588290474808
3270.0,0.06678215017599623
3269.0,0.0666658300778077
3268.0,0.0665625473938519
3267.0,0.06643909173255193
3266.0,0.06628974001150156
3265.0,0.06612969583379745
3264.0,0.06595785564913566
3263.0,0.06574749896268443
3262.0,0.06548374495102652
3261.0,0.06519813220136673
3260.0,0.06494779266055474
3259.0,0.0647619529896481
3258.0,0.06462455408163191
3257.0,0.0645073535653064
3256.0,0.06439674002832096
3255.0,0.0642817421369387
3254.0,0.06413939212527775
3253.0,0.06395221500946072
3252.0,0.06373066011471534
3251.0,0.06349971857376305
3250.0,0.06326976070178571
3249.0,0.06303646305271456
3248.0,0.06280389212649926
3247.0,0.06258787374815812
3246.0,0.06239272522826579
3245.0,0.06219903079343743
3244.0,0.061984910276251234
3243.0,0.06175444533516533
3242.0,0.06153667455515187
3241.0,0.06135582801132608
3240.0,0.0612025571446075
3239.0,0.061036055927441435
3238.0,0.060822554729430184
3237.0,0.06057425672909143
3236.0,0.06034042636370544
3235.0,0.0601558336712331
3234.0,0.060006620315596074
3233.0,0.059849269632778174
3232.0,0.05965170552714349
3231.0,0.05941210352021323
3230.0,0.059154448882252554
3229.0,0.05891650325709625
3228.0,0.05872523333582034
3227.0,0.05856650098458013
3226.0,0.058389682883502804
3225.0,0.05815762904133436
3224.0,0.057883470125151895
3223.0,0.05760439549311158
3222.0,0.057330635403993725
3221.0,0.05704098570042006
3220.0,0.0567225338157139
3219.0,0.05639197370386717
3218.0,0.05607708676865965
3217.0,0.055795466535451095
3216.0,0.05555039517533238
3215.0,0.055330482034648715
3214.0,0.05511199389063805
3213.0,0.054875100452030985
3212.0,0.05461864385040115
3211.0,0.05434951012847717
3210.0,0.05406413297062994
3209.0,0.05375587696868195
3208.0,0.053436824467894516
3207.0,0.05313476004720604
3206.0,0.05286674193782309
3205.0,0.052628191616173235
3204.0,0.05240627010368312
3203.0,0.052187151902337046
3202.0,0.05194811968370616
3201.0,0.051662839304843555
3200.0,0.05132716603150115
3199.0,0.050972522058750934
3198.0,0.0506441648341959
3197.0,0.05036575432298789
3196.0,0.05012492369216979
3195.0,0.04988947521053606
3194.0,0.04963716038757547
3193.0,0.04937465235576482
3192.0,0.049127389131568
3191.0,0.04890566084563588
3190.0,0.04868449733611014
3189.0,0.04842625604940564
3188.0,0.048120407277590656
3187.0,0.04779048504739039
3186.0,0.04746591383725629
3185.0,0.04716211573568194
3184.0,0.0468858907420393
3183.0,0.04664056129148274
3182.0,0.046416439530394406
3181.0,0.04618799767199708
3180.0,0.04593240655907786
3179.0,0.04564912752275858
3178.0,0.04535598780879482
3177.0,0.04507066878924819
3176.0,0.04480167545478129
3175.0,0.04455021628320043
3174.0,0.04430905538534878
3173.0,0.04406057077119651
3172.0,0.043787482180572435
3171.0,0.04349046556887677
3170.0,0.043189891380280024
3169.0,0.04290535957515268
3168.0,0.04263687216605907
3167.0,0.04237180271033664
3166.0,0.04210816384873015
3165.0,0.04186134816036424
3164.0,0.041642649509912574
3163.0,0.04143839968974831
3162.0,0.04122042590676118
3161.0,0.04097694971099387
3160.0,0.04072528416506542
3159.0,0.04049122631376286
3158.0,0.040278877929472316
3157.0,0.04006211308479794
3156.0,0.03980567472456823
3155.0,0.03949798368330055
3154.0,0.03916696382735235
3153.0,0.03886194545135653
3152.0,0.03861555486351721
3151.0,0.038422452210143
3150.0,0.038254824817303475
3149.0,0.038091584593298485
3148.0,0.03792560599454948
3147.0,0.03774960173411026
3146.0,0.037549881317088744
3145.0,0.03731734992787929
3144.0,0.03705473580192931
3143.0,0.03676961153092888
3142.0,0.03647161351696835
3141.0,0.03618419169146502
3140.0,0.035948366398996796
3139.0,0.03579581374723154
3138.0,0.035712339932562696
3137.0,0.03563834673971835
3136.0,0.035514856564270406
3135.0,0.03532930634670998
3134.0,0.03511638211352269
3133.0,0.034917173680831984
3132.0,0.034742328887112144
3131.0,0.034576821062258255
3130.0,0.03441126438894999
3129.0,0.034252762512098196
3128.0,0.0341020657617401
3127.0,0.033934920298995405
3126.0,0.03372004874599518
3125.0,0.03344892870906406
3124.0,0.033139349020415265
3123.0,0.032821998051840925
3122.0,0.03253532893749864
3121.0,0.03231884379096712
3120.0,0.03218480269904343
3119.0,0.03209235769619481
3118.0,0.03197259957791544
3117.0,0.03179588930672769
3116.0,0.031603169741039966
3115.0,0.03145823956613246
3114.0,0.03137842478270378
3113.0,0.031325296891317904
3112.0,0.03125776169105241
3111.0,0.031176481805415567
3110.0,0.031112750278369544
3109.0,0.031083767259616667
3108.0,0.031066533134870553
3107.0,0.031016895615791303
3106.0,0.03090927808387208
3105.0,0.030751601415650823
3104.0,0.03056500437225286
3103.0,0.03036163828502083
3102.0,0.03014620105279539
3101.0,0.02992834868477867
3100.0,0.02972276860990329
3099.0,0.029536604644645997
3098.0,0.02936244037786729
3097.0,0.029184948803477107
3096.0,0.028991642305341347
3095.0,0.028782803125911804
3094.0,0.02857925640107874
3093.0,0.028416679816547042
3092.0,0.028318751840332192
3091.0,0.028271013437352114
3090.0,0.028230365142375667
3089.0,0.02816408399108889
3088.0,0.02807350346081583
3087.0,0.027980538679843455
3086.0,0.027901646186415538
3085.0,0.027839906333608416
3084.0,0.027788988409760833
3083.0,0.027732425705004695
3082.0,0.027645368593585132
3081.0,0.027510675548742158
3080.0,0.02733765196845368
3079.0,0.02716048575350605
3078.0,0.027016031097970777
3077.0,0.026921357193297336
3076.0,0.02686420588449059
3075.0,0.026810215992696264
3074.0,0.026727165343522923
3073.0,0.026609510927743354
3072.0,0.026476029698497803
3071.0,0.02634274920630362
3070.0,0.02620574635175991
3069.0,0.026055102343533337
3068.0,0.02589459910012495
3067.0,0.025733422312335875
3066.0,0.02556751978518973
3065.0,0.025388069966837127
3064.0,0.025208199430283622
3063.0,0.02506220269372669
3062.0,0.02496792012994604
3061.0,0.024903552767867553
3060.0,0.02483050560481502
3059.0,0.024731718310780842
3058.0,0.024622097576881677
3057.0,0.02452658073197977
3056.0,0.024454416728626558
3055.0,0.02438681815142566
3054.0,0.024282217079812818
3053.0,0.02409859888349067
3052.0,0.023822106110463103
3051.0,0.02347609325242479
3050.0,0.023097335925094296
3049.0,0.02270426826989794
3048.0,0.022293858856648082
3047.0,0.02186907326491471
3046.0,0.021457774832971423
3045.0,0.021099218740007357
3044.0,0.02081473154723342
3043.0,0.02059303896425825
3042.0,0.020405430746625014
3041.0,0.020233411106797685
3040.0,0.020080459579732934
3039.0,0.019957811619510577
3038.0,0.019862122045798118
3037.0,0.01977238981094007
3036.0,0.019669133414507392
3035.0,0.019552581514503502
3034.0,0.019440747585243393
3033.0,0.019352346350178923
3032.0,0.019293816172007684
3031.0,0.019258163826920176
3030.0,0.019231194063688395
3029.0,0.01919910818013384
3028.0,0.0191541581818921
3027.0,0.019098498250503568
3026.0,0.019045246397619908
3025.0,0.01901039077097453
3024.0,0.018998050243943486
3023.0,0.018995675188416536
3022.0,0.01898854993927866
3021.0,0.018980474420321736
3020.0,0.018994296345601822
3019.0,0.019046296880926374
3018.0,0.01912394276222857
3017.0,0.01919368951019072
3016.0,0.019232484400577638
3015.0,0.019246029509162665
3014.0,0.01925878513663874
3013.0,0.019295658596519546
3012.0,0.01937285801431085
3011.0,0.019492464643160925
3010.0,0.019636784289626376
3009.0,0.019773857466606343
3008.0,0.019877330218497122
3007.0,0.019940966629885183
3006.0,0.019973385084365098
3005.0,0.01998857596674418
3004.0,0.020005199422066456
3003.0,0.020043401883542693
3002.0,0.02010693245297587
3001.0,0.020171445661410846
3000.0,0.02020646074874588
2999.0,0.020211695849070756
2998.0,0.020219185600687896
2997.0,0.02025855218090513
2996.0,0.020329740093812828
2995.0,0.020416646749861725
2994.0,0.02051465422945696
2993.0,0.020634467070205584
2992.0,0.020781654687612384
2991.0,0.02094484804141355
2990.0,0.021107104073941476
2989.0,0.021265697518207016
2988.0,0.021436278944302587
2987.0,0.02163371111974473
2986.0,0.021847674412093853
2985.0,0.022042623533568607
2984.0,0.022193563289013563
2983.0,0.022320499725034196
2982.0,0.022480730339993153
2981.0,0.022718354191630392
2980.0,0.023027130814864787
2979.0,0.02336662226834375
2978.0,0.02370721301574884
2977.0,0.024051263035846412
2976.0,0.0244138976284998
2975.0,0.0248001690535041
2974.0,0.02520609563982146
2973.0,0.025633370327883372
2972.0,0.026089188277566937
2971.0,0.02656787543514129
2970.0,0.027040185573183516
2969.0,0.027472021233337498
2968.0,0.027855328855858535
2967.0,0.028214440353253538
2966.0,0.028572166560665205
2965.0,0.028916843827010846
2964.0,0.029209129059955326
2963.0,0.02942243591316502
2962.0,0.029560923804096348
2961.0,0.029638486724766204
2960.0,0.029651283052857025
2959.0,0.029582971510547194
2958.0,0.029425770247950116
2957.0,0.029183157440797927
2956.0,0.028855275653850036
2955.0,0.02844025943823266
2954.0,0.02795267960457731
2953.0,0.027422954468465686
2952.0,0.026869843436210697
2951.0,0.02628234949746366
2950.0,0.025640642696999366
2949.0,0.024944892470723713
2948.0,0.024216138416453363
2947.0,0.023474368745197795
2946.0,0.02273228035834055
2945.0,0.022008419642651968
2944.0,0.021333168808082677
2943.0,0.020733024352480454
2942.0,0.020212744530032998
2941.0,0.019754728134476904
2940.0,0.01933756986353839
2939.0,0.018955084563565126
2938.0,0.01861790480065425
2937.0,0.018333181383810473
2936.0,0.018088929100748486
2935.0,0.017865474302380353
2934.0,0.017660702753006685
2933.0,0.017493174378261422
2932.0,0.01737858256693833
2931.0,0.01731518710900696
2930.0,0.017292821638924517
2929.0,0.01730217432854925
2928.0,0.017326864708843655
2927.0,0.017340788322295488
2926.0,0.017326367865278816
2925.0,0.017287694253518296
2924.0,0.017234762978625678
2923.0,0.01716103550689635
2922.0,0.017053519376420374
2921.0,0.01691831483117548
2920.0,0.016780465957919214
2919.0,0.016654834064229837
2918.0,0.0165279784761242
2917.0,0.01637631650587959
2916.0,0.016196877923585665
2915.0,0.01601917101228383
2914.0,0.01588325051473457
2913.0,0.01580730125914277
2912.0,0.015769832400190736
2911.0,0.01572843563544569
2910.0,0.015653978245454198
2909.0,0.015550656663250093
2908.0,0.01544218299202008
2907.0,0.0153477375558029
2906.0,0.015271409296196924
2905.0,0.015209130214127259
2904.0,0.01515605762952588
2903.0,0.015107870601558982
2902.0,0.015059566538122137
2901.0,0.015004864495739897
2900.0,0.014941735883289932
2899.0,0.014880275903212493
2898.0,0.01484813589156548
2897.0,0.01486851275538275
2896.0,0.014933743913350447
2895.0,0.01500544009289385
2894.0,0.015044498000435069
2893.0,0.015037124562085669
2892.0,0.014990036458371332
2891.0,0.014915971652389347
2890.0,0.014828129666878076
2889.0,0.014737309703532021
2888.0,0.014640478004608982
2887.0,0.014519779539593398
2886.0,0.014364274901497907
2885.0,0.014190510107608661
2884.0,0.01402919263049444
2883.0,0.01389720031669715
2882.0,0.013787482277924042
2881.0,0.013683047214984789
2880.0,0.013570833646249914
2879.0,0.013445622558251734
2878.0,0.013311486655872956
2877.0,0.013176623269856384
2876.0,0.013041327857294656
2875.0,0.012895707681997423
2874.0,0.012738784415786554
2873.0,0.01259159635721913
2872.0,0.012477139457294761
2871.0,0.012393200859556381
2870.0,0.01231791663125938
2869.0,0.012241680573046766
2868.0,0.0121755388490873
2867.0,0.012127638257476795
2866.0,0.012089538532490953
2865.0,0.012050865880287248
2864.0,0.012014549699709757
2863.0,0.011988924353921186
2862.0,0.011973269234487677
2861.0,0.011961000346534084
2860.0,0.011950310738991481
2859.0,0.011944156883669822
2858.0,0.011943451377948465
2857.0,0.011943133353117738
2856.0,0.011931727603657964
2855.0,0.011894784473272402
2854.0,0.01182247615280742
2853.0,0.01171546230180274
2852.0,0.011578245831915237
2851.0,0.011409709112155754
2850.0,0.011206902470517668
2849.0,0.010974920906009902
2848.0,0.010723613850960287
2847.0,0.010457666696918458
2846.0,0.01018132002041345
2845.0,0.00991095530569125
2844.0,0.009668048096033726
2843.0,0.009457426487527957
2842.0,0.009267263197076981
2841.0,0.009095195610369632
2840.0,0.008957617541623877
2839.0,0.008863308129877021
2838.0,0.008791296751905089
2837.0,0.008709199776612867
2836.0,0.008607217867787847
2835.0,0.008500969161868708
2834.0,0.008402906714703336
2833.0,0.008308728710295839
2832.0,0.00821279248150693
2831.0,0.008122833651383563
2830.0,0.008050891790079798
2829.0,0.007996246397495922
2828.0,0.007946709146492566
2827.0,0.007896582887487725
2826.0,0.007855918721916
2825.0,0.00783720603571816
2824.0,0.007835855860492092
2823.0,0.007829880689372334
2822.0,0.007800147192873426
2821.0,0.0077488704013316
2820.0,0.007695485666682855
2819.0,0.0076544442470313535
2818.0,0.007623776236518224
2817.0,0.00759327684932779
2816.0,0.0075578302741275225
2815.0,0.007520729179855308
2814.0,0.007486378657276046
2813.0,0.007453294296359285
2812.0,0.007414555474368704
2811.0,0.0073647833888416635
2810.0,0.007308847534768632
2809.0,0.007262739050045769
2808.0,0.0072399012281850784
2807.0,0.007234294733947726
2806.0,0.007223158813357474
2805.0,0.007190366517342558
2804.0,0.007142309239648202
2803.0,0.007096122461442646
2802.0,0.007056780004796412
2801.0,0.007014743579310114
2800.0,0.0069644426773495804
2799.0,0.006912975256827741
2798.0,0.006866102784918381
2797.0,0.006816192751508101
2796.0,0.006754383463430023
2795.0,0.00669031087837966
2794.0,0.0066472067398143445
2793.0,0.006634699293752343
2792.0,0.006635994405539544
2791.0,0.006627717913357183
2790.0,0.006605511722989319
2789.0,0.006581132648652141
2788.0,0.0065587421671906565
2787.0,0.006526732969025105
2786.0,0.006475809371106528
2785.0,0.006416368197300843
2784.0,0.006371211340896073
2783.0,0.006353478235078976
2782.0,0.006355256207082962
2781.0,0.006355367025332724
2780.0,0.006336495581302882
2779.0,0.006298683814621344
2778.0,0.006258098535272301
2777.0,0.006229684035131454
2776.0,0.006210944362661581
2775.0,0.006185436988951059
2774.0,0.006143479476158736
2773.0,0.006095497563820827
2772.0,0.0060616582225133725
2771.0,0.006053445091563675
2770.0,0.006068580582285464
2769.0,0.006096907529178167
2768.0,0.006123886878372533
2767.0,0.006134811942883778
2766.0,0.00612502634874156
2765.0,0.006104982115690096
2764.0,0.006088407240892619
2763.0,0.0060767531143290626
2762.0,0.0060615428084055895
2761.0,0.006039932664392495
2760.0,0.00601890017248748
2759.0,0.006002508779222186
2758.0,0.005985108369471306
2757.0,0.005961769607318722
2756.0,0.005937339281624426
2755.0,0.0059180595653235985
2754.0,0.005897872592759473
2753.0,0.0058604287363974205
2752.0,0.005795104175468992
2751.0,0.005710479927670854
2750.0,0.005633630955173927
2749.0,0.005594312933172202
2748.0,0.005603095531742745
2747.0,0.005638817816971995
2746.0,0.0056619765984145184
2745.0,0.005646983577098804
2744.0,0.005603314939620337
2743.0,0.005562088042954419
2742.0,0.005543726684192841
2741.0,0.005543839533095709
2740.0,0.0055462274511408624
2739.0,0.0055399172812530696
2738.0,0.005522991254772893
2737.0,0.005498126437266565
2736.0,0.005471708845007407
2735.0,0.005453368874736771
2734.0,0.005449694058046002
2733.0,0.005457035389780566
2732.0,0.00546339883835117
2731.0,0.0054577780355824
2730.0,0.005435681162466699
2729.0,0.005397363963514451
2728.0,0.005345743917441167
2727.0,0.005288351454801172
2726.0,0.005236389136931719
2725.0,0.005197117384206478
2724.0,0.005168338967624741
2723.0,0.0051432740086041736
2722.0,0.005119959317089702
2721.0,0.005102507684110926
2720.0,0.005092571576152791
2719.0,0.005083673434822416
2718.0,0.005067056418278437
2717.0,0.005042285780434201
2716.0,0.005019334548646856
2715.0,0.005009038756177132
2714.0,0.005012175595827181
2713.0,0.005018666485573885
2712.0,0.005017076562377086
2711.0,0.005004055530467278
2710.0,0.004984647268677343
2709.0,0.004966186451839689
2708.0,0.004953947426440682
2707.0,0.0049500139971333495
2706.0,0.004950784036777799
2705.0,0.00494522373841918
2704.0,0.004922814249700749
2703.0,0.004887824223390865
2702.0,0.004861304245841868
2701.0,0.004861965363222178
2700.0,0.004885531495745693
2699.0,0.004907251653310408
2698.0,0.004904035799004226
2697.0,0.004872214165347234
2696.0,0.004827175785885285
2695.0,0.004792295524094214
2694.0,0.004784322541402197
2693.0,0.00480021180888738
2692.0,0.0048161849926308025
2691.0,0.004808372419827818
2690.0,0.0047776487823182065
2689.0,0.004747471301317261
2688.0,0.004735616941692165
2687.0,0.004736345885357047
2686.0,0.004736427965346874
2685.0,0.0047373505339390375
2684.0,0.00475047855570914
2683.0,0.004774104677260994
2682.0,0.004790065303034488
2681.0,0.004785035268585494
2680.0,0.004766401441759824
2679.0,0.004751818824719788
2678.0,0.004749221929924493
2677.0,0.004752196953937814
2676.0,0.004750898248269976
2675.0,0.004742516511093425
2674.0,0.0047318804093974265
2673.0,0.004726130853726429
2672.0,0.004729087826828925
2671.0,0.004738679951203339
2670.0,0.004749735588972591
2669.0,0.004760771185452286
2668.0,0.004777953678416535
2667.0,0.004809945441443345
2666.0,0.004857002421075785
2665.0,0.00490621809060986
2664.0,0.004941204540436601
2663.0,0.00495900662620944
2662.0,0.004975881332518927
2661.0,0.005011768199482631
2660.0,0.005067458677538158
2659.0,0.00512076540820673
2658.0,0.005148105872812189
2657.0,0.005146832953595847
2656.0,0.005132848429271303
2655.0,0.0051196418884458215
2654.0,0.005107742308804461
2653.0,0.00509402780544708
2652.0,0.005080311900588453
2651.0,0.005066312746887379
2650.0,0.005042132712455382
2649.0,0.005000134613822393
2648.0,0.004952293709682243
2647.0,0.004922668755333586
2646.0,0.004918320745120942
2645.0,0.004918814162790279
2644.0,0.004903208679720277
2643.0,0.0048786713455082256
2642.0,0.00486836733409901
2641.0,0.0048759395510196415
2640.0,0.004878541399060719
2639.0,0.0048599301829344065
2638.0,0.004834263367979395
2637.0,0.004826635177403896
2636.0,0.004839844660815734
2635.0,0.004853084342908483
2634.0,0.004848512099044918
2633.0,0.004825673092198248
2632.0,0.004793490294138099
2631.0,0.00476239833938845
2630.0,0.004745885418553789
2629.0,0.004754090717058059
2628.0,0.004777541948943814
2627.0,0.004787258661285829
2626.0,0.004760328910351193
2625.0,0.0047030084172044045
2624.0,0.004642955504685099
2623.0,0.004602076036133108
2622.0,0.004581582360454014
2621.0,0.0045674408365348525
2620.0,0.0045440828469403794
2619.0,0.004505039254281216
2618.0,0.004456965743852125
2617.0,0.004414060051581715
2616.0,0.004385455654883856
2615.0,0.004368890838549766
2614.0,0.004357288240372443
2613.0,0.004347448845611696
2612.0,0.00433921897816243
2611.0,0.004330774880380013
2610.0,0.004319778991899184
2609.0,0.004305249984304687
2608.0,0.004281912521576134
2607.0,0.0042361668277253175
2606.0,0.004158325057011705
2605.0,0.004062365432197638
2604.0,0.003985122796507751
2603.0,0.003957715585329798
2602.0,0.003977864731324834
2601.0,0.004013349836590217
2600.0,0.004032664130888886
2599.0,0.004028715014492048
2598.0,0.004014263566426361
2597.0,0.004002144023880695
2596.0,0.0039943987953474525
2595.0,0.003986459429006509
2594.0,0.003974930141770498
2593.0,0.003960987416056442
2592.0,0.003950907904254558
2591.0,0.003952379933951851
2590.0,0.0039660337270229756
2589.0,0.003982824844055884
2588.0,0.003996330374533347
2587.0,0.0040140435624083865
2586.0,0.004045100258219587
2585.0,0.0040792591012575406
2584.0,0.004094552497823216
2583.0,0.00408961437559234
2582.0,0.00408989264992296
2581.0,0.004111356195864327
2580.0,0.004135660289119244
2579.0,0.004136352440917207
2578.0,0.0041139158799007305
2577.0,0.004085796725823293
2576.0,0.004055610562335429
2575.0,0.0040191605079027
2574.0,0.003993824085169128
2573.0,0.004009964025030933
2572.0,0.0040669463382578255
2571.0,0.004123324171296566
2570.0,0.004139951594876872
2569.0,0.004114616531049184
2568.0,0.0040691640075537295
2567.0,0.004023376031277197
2566.0,0.003990762925925141
2565.0,0.003979447812956053
2564.0,0.00398089608259398
2563.0,0.003971484901650673
2562.0,0.003940500134559044
2561.0,0.003907804021883585
2560.0,0.0039022398280245518
2559.0,0.003930154272100356
2558.0,0.003972348211208683
2557.0,0.004000917905704809
2556.0,0.003992609625695729
2555.0,0.003940462999776343
2554.0,0.0038644998266046567
2553.0,0.003801605102371133
2552.0,0.003774821735270776
2551.0,0.0037803122948808074
2550.0,0.003806457440325076
2549.0,0.003845986541796861
2548.0,0.0038796832676282374
2547.0,0.003873504844387578
2546.0,0.0038160188468547226
2545.0,0.0037445761280578927
2544.0,0.003707939819561467
2543.0,0.003708933431035879
2542.0,0.003708257694864856
2541.0,0.003682264013707923
2540.0,0.0036531446463741934
2539.0,0.0036609608350688452
2538.0,0.003725647985006796
2537.0,0.0038357642751131633
2536.0,0.003952408678586748
2535.0,0.004020508421512195
2534.0,0.003999869484215021
2533.0,0.003901640071411393
2532.0,0.003786071776119675
2531.0,0.0037149674422030845
2530.0,0.003708303316395963
2529.0,0.0037436153534192787
2528.0,0.003783374278516662
2527.0,0.0037999328714303955
2526.0,0.003788575938562172
2525.0,0.0037675677599153315
2524.0,0.0037598130612902124
2523.0,0.0037690344400099027
2522.0,0.00377981246523249
2521.0,0.003782287185803918
2520.0,0.0037844522969880433
2519.0,0.003791889341455118
2518.0,0.0037869950670224896
2517.0,0.003744530532083701
2516.0,0.0036672969511341797
2515.0,0.003593695164737975
2514.0,0.0035639741922456865
2513.0,0.003581896220264334
2512.0,0.0036118786562989716
2511.0,0.0036128959070482036
2510.0,0.003574131421244231
2509.0,0.0035190765386758933
2508.0,0.0034786511203469296
2507.0,0.0034644568385868296
2506.0,0.003467800660804831
2505.0,0.003476851496902842
2504.0,0.0034871481336883926
2503.0,0.0034976468003635732
2502.0,0.003504550541556373
2501.0,0.0035020250766015096
2500.0,0.003486717374576981
2499.0,0.003462076411848517
2498.0,0.003440644300242068
2497.0,0.0034380722532340036
2496.0,0.003456855430338997
2495.0,0.003476783098357624
2494.0,0.003471337447272789
2493.0,0.0034375287455543826
2492.0,0.0034021608121357107
2491.0,0.0033925562793883195
2490.0,0.003405915224461478
2489.0,0.0034130707729626572
2488.0,0.0033883844470166636
2487.0,0.00333023032182197
2486.0,0.0032571371914731743
2485.0,0.003193953880121965
2484.0,0.003160750110107324
2483.0,0.0031635144701188398
2482.0,0.0031893594562910953
2481.0,0.003216278426724223
2480.0,0.00323301634406552
2479.0,0.0032447583610295243
2478.0,0.0032547261236260004
2477.0,0.0032488981771225597
2476.0,0.003211790871644681
2475.0,0.003154565942848668
2474.0,0.0031116290547742774
2473.0,0.0031029753153974556
2472.0,0.003110027752808592
2471.0,0.003097233338088189
2470.0,0.0030511660757239017
2469.0,0.002990660425728978
2468.0,0.002944599623932065
2467.0,0.002929884498402001
2466.0,0.0029481585839875486
2465.0,0.0029920525594529586
2464.0,0.0030507601706718833
2463.0,0.003114566766755098
2462.0,0.00317637389102256
2461.0,0.0032292610888889524
2460.0,0.0032677645434013502
2459.0,0.0032947797267839614
2458.0,0.0033197593690721897
2457.0,0.003342029108829172
2456.0,0.003341551576265642
2455.0,0.0032982443066684533
2454.0,0.0032211040550711887
2453.0,0.003149351769960905
2452.0,0.0031212384214247763
2451.0,0.0031434435330065236
2450.0,0.0031868656432305935
2449.0,0.0032075030032373587
2448.0,0.00318037619988312
2447.0,0.003124888501542753
2446.0,0.003091472445896916
2445.0,0.0031104367096030684
2444.0,0.0031583201880472705
2443.0,0.003188521072113609
2442.0,0.0031880487071517423
2441.0,0.0031831871304356402
2440.0,0.003193460173598342
2439.0,0.003208636897479868
2438.0,0.0032167046458824724
2437.0,0.0032238754759488153
2436.0,0.0032306325116544677
2435.0,0.003216018808148575
2434.0,0.003173472483551597
2433.0,0.003144418153092022
2432.0,0.003181129020053275
2431.0,0.003277046053522143
2430.0,0.003362555059017232
2429.0,0.00337806981985398
2428.0,0.0033338790500179755
2427.0,0.003289975497901672
2426.0,0.003290773678242216
2425.0,0.003328546184192918
2424.0,0.0033611423286754247
2423.0,0.003356121542730241
2422.0,0.003320265271732869
2421.0,0.0032910517437229423
2420.0,0.00329907777805728
2419.0,0.0033397031241093837
2418.0,0.0033842441968754827
2417.0,0.003414826528325296
2416.0,0.0034409996715930114
2415.0,0.003483888746362661
2414.0,0.0035528197025162227
2413.0,0.0036376208783153712
2412.0,0.003713140791196233
2411.0,0.003747741752238223
2410.0,0.003720006609839898
2409.0,0.003641562298110859
2408.0,0.0035620344895368914
2407.0,0.0035379295145985647
2406.0,0.0035871381069080104
2405.0,0.003672627784230959
2404.0,0.0037325693100279996
2403.0,0.0037299882315840827
2402.0,0.003679377977548294
2401.0,0.003630495075647293
2400.0,0.0036257103574406143
2399.0,0.0036678185402433568
2398.0,0.003724479993349043
2397.0,0.003762288839479
2396.0,0.0037771954094441623
2395.0,0.0037922396802235426
2394.0,0.003826981493202595
2393.0,0.0038735832876162684
2392.0,0.00390681585695195
2391.0,0.003914414969676633
2390.0,0.003908693013346629
2389.0,0.003905495611476329
2388.0,0.003901653030795504
2387.0,0.0038835118401043135
2386.0,0.0038530433348147996
2385.0,0.0038327047333068113
2384.0,0.0038411953231418574
2383.0,0.0038710658493139195
2382.0,0.003893218940894309
2381.0,0.003879318855480948
2380.0,0.0038201677912085433
2379.0,0.003730012687514741
2378.0,0.003635711531220269
2377.0,0.003554651052114611
2376.0,0.0034806325870197765
2375.0,0.0034044839003084387
2374.0,0.003350941771203506
2373.0,0.0033655790767245343
2372.0,0.003441173850123761
2371.0,0.003485129987096382
2370.0,0.0034108480948572724
2369.0,0.0032491672124942894
2368.0,0.003113166017874787
2367.0,0.0030589997464344054
2366.0,0.003051604756411752
2365.0,0.0030698149277129418
2364.0,0.003149108084088789
2363.0,0.0032953486938024825
2362.0,0.0034482187350580147
2361.0,0.0035471973227662636
2360.0,0.0035782902068913327
2359.0,0.003548902206244065
2358.0,0.003471324094194172
2357.0,0.0034156661113990553
2356.0,0.0034624135424486764
2355.0,0.003579936607666535
2354.0,0.003655349192394671
2353.0,0.003616435115964182
2352.0,0.003498280655050397
2351.0,0.0033817201403243003
2350.0,0.003331613338533704
2349.0,0.003376447837142354
2348.0,0.0034826786039546124
2347.0,0.0036175521887366847
2346.0,0.003760984450800574
2345.0,0.0038602911019554355
2344.0,0.0038672275306978632
2343.0,0.003831318664082568
2342.0,0.0038543355100682233
2341.0,0.003913859854682827
2340.0,0.003927450027363274
2339.0,0.0038664970114547555
2338.0,0.0037445697884245562
2337.0,0.003595993349517772
2336.0,0.0034623250133068518
2335.0,0.003398570440654049
2334.0,0.0034321536644567195
2333.0,0.0035331198856011726
2332.0,0.003635115624417015
2331.0,0.00371281141437455
2330.0,0.0038315454037033785
2329.0,0.004112374044857436
2328.0,0.00459745024257213
2327.0,0.0052076353520218496
2326.0,0.005767923314387955
2325.0,0.006112756215732064
2324.0,0.0061889025067148
2323.0,0.006055204598717295
2322.0,0.005826923218969321
2321.0,0.005562799520826036
2320.0,0.005291567237088468
2319.0,0.0050503748613598964
2318.0,0.004891136651967257
2317.0,0.004840529263310212
2316.0,0.004868888601401384
2315.0,0.004922681538601723
2314.0,0.0049459585410137055
2313.0,0.004910567323944289
2312.0,0.004816492600513816
2311.0,0.00469882290644859
2310.0,0.004602723391251036
2309.0,0.00455402538576511
2308.0,0.00454224760820773
2307.0,0.004531931962542146
2306.0,0.00449642286286268
2305.0,0.004444222359665942
2304.0,0.004426926141444146
2303.0,0.004496465345404824
2302.0,0.004648371263391321
2301.0,0.004801573200370104
2300.0,0.004863152386380537
2299.0,0.00481468996600492
2298.0,0.004724904212635296
2297.0,0.004680316331106017
2296.0,0.004719960675982757
2295.0,0.00482900524994031
2294.0,0.00497039619453127
2293.0,0.005109285274761184
2292.0,0.005230009968086272
2291.0,0.005340393934191303
2290.0,0.005451897333988973
2289.0,0.005542693974209941
2288.0,0.005566912854542168
2287.0,0.005506114890980365
2286.0,0.005399256434255261
2285.0,0.005301318127581023
2284.0,0.005232519763307566
2283.0,0.005183290441345383
2282.0,0.005146006899346519
2281.0,0.005108362926275493
2280.0,0.005034369400626877
2279.0,0.004897499274745253
2278.0,0.004736523370274279
2277.0,0.004634619794032389
2276.0,0.0046270339859289
2275.0,0.004660587144891299
2274.0,0.004659763907631081
2273.0,0.004604422457144519
2272.0,0.004523072864594246
2271.0,0.004436911079393801
2270.0,0.004335605052456629
2269.0,0.0041988866860848744
2268.0,0.0040242160434507904
2267.0,0.0038407426040891366
2266.0,0.0037057477755063836
2265.0,0.003672297943391996
2264.0,0.0037453542281187333
2263.0,0.003874827231359123
2262.0,0.003996935606822063
2261.0,0.004074063321171286
2260.0,0.004099186526492441
2259.0,0.004079434460814096
2258.0,0.004026967256356199
2257.0,0.003956503836037872
2256.0,0.003883914421119933
2255.0,0.003826596011437702
2254.0,0.003797779668480339
2253.0,0.003791476752755856
2252.0,0.003783952377334505
2251.0,0.0037711219833540923
2250.0,0.0037922387564776616
2249.0,0.003886589683378747
2248.0,0.004024128756455007
2247.0,0.004109611133600156
2246.0,0.004066948676358156
2245.0,0.003907729207840919
2244.0,0.003716937616759242
2243.0,0.0035881883668248435
2242.0,0.0035672842614569104
2241.0,0.003624995939973192
2240.0,0.00367747474790975
2239.0,0.0036599643046123205
2238.0,0.003590878684529889
2237.0,0.0035439122227414106
2236.0,0.0035579685934093437
2235.0,0.0036016041799016695
2234.0,0.003627111924173638
2233.0,0.0036229078114073314
2232.0,0.0036024109907921383
2231.0,0.0035758089491990893
2230.0,0.0035509813936793816
2229.0,0.003538902391425034
2228.0,0.003538733138044751
2227.0,0.003533511397306246
2226.0,0.003511324430562475
2225.0,0.0034771864858370834
2224.0,0.0034404318591598065
2223.0,0.003406769161801188
2222.0,0.003381159730894223
2221.0,0.0033568728902208813
2220.0,0.0033090902559652423
2219.0,0.003227592917785663
2218.0,0.0031461936904909203
2217.0,0.0031019209532648375
2216.0,0.003074797750708384
2215.0,0.0030184839056103824
2214.0,0.002946899786342579
2213.0,0.002931190657779098
2212.0,0.003001281923111381
2211.0,0.003111187196642492
2210.0,0.0032185981788055693
2209.0,0.0033362803375135124
2208.0,0.0034767112452265144
2207.0,0.0036002666445317387
2206.0,0.0036533995457677143
2205.0,0.0036157568553811313
2204.0,0.003484539610792032
2203.0,0.0032635068456495684
2202.0,0.003008081062090882
2201.0,0.002832340771923666
2200.0,0.0028055024883615887
2199.0,0.00286618238681746
2198.0,0.0028867297424336126
2197.0,0.002808488930549991
2196.0,0.0026930836032443813
2195.0,0.002657707654338054
2194.0,0.0027763448256060124
2193.0,0.0030102164848177355
2192.0,0.003214001869580884
2191.0,0.003258709209437602
2190.0,0.003168707057122015
2189.0,0.003101419510642451
2188.0,0.003172576149430351
2187.0,0.0033405578200268664
2186.0,0.003474819655761594
2185.0,0.0034643390868795967
2184.0,0.003247285799561338
2183.0,0.0028374577417704435
2182.0,0.0024016795677808673
2181.0,0.002212872889649477
2180.0,0.002387481529208907
2179.0,0.0027259066637312485
2178.0,0.0029008137430843596
2177.0,0.0027816266031589266
2176.0,0.0025149375444758894
2175.0,0.0023048656272994282
2174.0,0.0022352144436426314
2173.0,0.002308826717164734
2172.0,0.0025261626617679262
2171.0,0.0028680351961976646
2170.0,0.0032497309265609254
2169.0,0.0035511923049544045
2168.0,0.003703209364768133
2167.0,0.0037325235666001697
2166.0,0.003735113387917094
2165.0,0.0038087948413913957
2164.0,0.003966832273064313
2163.0,0.004069111491437556
2162.0,0.003836886271307978
2161.0,0.0030087378609014357
2160.0,0.0016129708195923632
2159.0,0.00010978884036980041
2158.0,-0.000870716850675477
2157.0,-0.0010162082064887924
2156.0,-0.0005348774400824672
2155.0,0.00013575119579960576
2154.0,0.0007180117048389878
2153.0,0.0011639613272713277
2152.0,0.0014774986719185668
2151.0,0.001594998106673096
2150.0,0.0014813048404800605
2149.0,0.0012433111644479422
2148.0,0.001050518749662146
2147.0,0.0009782930409543747
2146.0,0.000997531394176635
2145.0,0.0010757677389472676
2144.0,0.00120788332427288
2143.0,0.001372567714001564
2142.0,0.0015260932135960996
2141.0,0.0016435458528249217
2140.0,0.001723532862784709
2139.0,0.001750072450556553
2138.0,0.0016907328141261611
2137.0,0.0015446352610753158
2136.0,0.00136188917076938
2135.0,0.0012032039867372574
2134.0,0.0011051375118193297
2133.0,0.0010912911238931706
2132.0,0.0011907026491782494
2131.0,0.0014205229188514153
2130.0,0.0017457419299290178
2129.0,0.0020657541466589974
2128.0,0.0022699435188792915
2127.0,0.0023276046861880196
2126.0,0.0023106797285662633
2125.0,0.0023147066911655897
2124.0,0.002361382781998088
2123.0,0.002403109640822701
2122.0,0.0024189753314726465
2121.0,0.002463095807191528
2120.0,0.002595652627873246
2119.0,0.0027989068661344566
2118.0,0.0029985542789533162
2117.0,0.003151517488559255
2116.0,0.0032779771607990816
2115.0,0.003407207770790946
2114.0,0.0035254814536382593
2113.0,0.0035901852559765755
2112.0,0.0035768048803788964
2111.0,0.0034993107352119957
2110.0,0.0033977974767019714
2109.0,0.0033171343327712977
2108.0,0.003283839288566539
2107.0,0.0032928961826458967
2106.0,0.003317798229065537
2105.0,0.0033352387471622105
2104.0,0.003341012705223561
2103.0,0.0033493160529382707
2102.0,0.0033820686578482856
2101.0,0.0034490349323188347
2100.0,0.003525832127209261
2099.0,0.003558192821392661
2098.0,0.003498904667692591
2097.0,0.0033437983206454232
2096.0,0.003131495349926059
2095.0,0.00291515723088334
2094.0,0.002746131329450522
2093.0,0.002663725053800126
2092.0,0.0026766718057440347
2091.0,0.0027597331698526973
2090.0,0.0028770844127367734
2089.0,0.0030052869642966723
2088.0,0.00313119760485326
2087.0,0.0032434489456392513
2086.0,0.003335425634123834
2085.0,0.003402681052822238
2084.0,0.0034291114460701546
2083.0,0.0033946145482123785
2082.0,0.003313481640768208
2081.0,0.0032465679235542163
2080.0,0.003245655353853365
2079.0,0.0032936340728105112
2078.0,0.0033240483844232667
2077.0,0.0032904892448262675
2076.0,0.003198451103883517
2075.0,0.0030865212516033
2074.0,0.0030039118010671217
2073.0,0.0029848036287482803
2072.0,0.0030103757199450706
2071.0,0.0030152090458792115
2070.0,0.002966204669037102
2069.0,0.0029115238815124395
2068.0,0.0029007994360288267
2067.0,0.0028810034394619144
2066.0,0.002749423871243083
2065.0,0.0025165578542573684
2064.0,0.0023278408581273117
2063.0,0.002277486488379141
2062.0,0.0022866235565315593
2061.0,0.0022301091214285184
2060.0,0.002117522878296
2059.0,0.002074890906532488
2058.0,0.0021598057886060692
2057.0,0.0022720177176718016
2056.0,0.0022873519626389325
2055.0,0.002238327761084683
2054.0,0.00230708733030013
2053.0,0.002619692963543122
2052.0,0.003078576679811996
2051.0,0.003416091043064542
2050.0,0.0033981930400038968
2049.0,0.003007632810690167
2048.0,0.0024419144791306743
2047.0,0.001930802955219918
2046.0,0.0016070370808781765
2045.0,0.001501859590264633
2044.0,0.001551559278268467
2043.0,0.001619387002005084
2042.0,0.0015766894247892698
2041.0,0.0013899617220658827
2040.0,0.0011267969799387512
2039.0,0.0008870408725481899
2038.0,0.0007529037111070479
2037.0,0.0007547837215279953
2036.0,0.0008130137990002291
2035.0,0.0007647568560158694
2034.0,0.0005318221244935907
2033.0,0.0002378551806436393
2032.0,7.828176973199909e-05
2031.0,0.00010973157364808071
2030.0,0.000265906130061106
2029.0,0.0005089982802472374
2028.0,0.0008314844516567456
2027.0,0.001121709364591652
2026.0,0.0011658095849825284
2025.0,0.0008645677087186609
2024.0,0.0003827276363620915
2023.0,-4.0702545611934204e-06
2022.0,-0.0001498525592857474
2021.0,-7.156395025041922e-05
2020.0,0.00015744906504112422
2019.0,0.0004654610837464719
2018.0,0.000754902015398091
2017.0,0.0009155056635158768
2016.0,0.0009270116147097251
2015.0,0.0008863781706454712
2014.0,0.0008914056134323679
2013.0,0.0009430992024550998
2012.0,0.000977277707933967
2011.0,0.0009502068586361176
2010.0,0.0008584223168797832
2009.0,0.0007052584472606964
2008.0,0.0005158786737811019
2007.0,0.000378427964179517
2006.0,0.0003942760907927627
2005.0,0.0005432430013561041
2004.0,0.0006681740214614352
2003.0,0.0006579524974126578
2002.0,0.0005880198459574447
2001.0,0.0006231193086060969
2000.0,0.0007907778884149175
1999.0,0.000953357443177327
1998.0,0.0010118067884318815
1997.0,0.0010297146707457208
1996.0,0.0011271981675335238
1995.0,0.0013232579639427624
1994.0,0.0015459779769197786
1993.0,0.0017396390549605243
1992.0,0.0018920495926913429
1991.0,0.0019870467416746684
1990.0,0.0020160413569062976
1989.0,0.0020328216747842495
1988.0,0.002117302507998011
1987.0,0.0022729488105063364
1986.0,0.0024159923718779877
1985.0,0.0024977787276318692
1984.0,0.0025973016222232627
1983.0,0.002844539745343185
1982.0,0.0032429470120768304
1981.0,0.003579925199380647
1980.0,0.0035427077958493673
1979.0,0.0029968301732050473
1978.0,0.002172164990428646
1977.0,0.0014945752372405603
1976.0,0.001174596012955261
1975.0,0.0010749268607633602
1974.0,0.0010197790072552391
1973.0,0.0010349953817866062
1972.0,0.0011889073892149818
1971.0,0.0013553386191924688
1970.0,0.0013171744240361018
1969.0,0.0010627086083268501
1968.0,0.0008267438686958856
1967.0,0.0008087887532857441
1966.0,0.0009803575865222004
1965.0,0.0012229611975128844
1964.0,0.001487749077586694
1963.0,0.0017377152837459806
1962.0,0.001885193677073199
1961.0,0.0018872078727555056
1960.0,0.0018155715341758973
1959.0,0.0017533412023925405
1958.0,0.0017069809563677657
1957.0,0.0016860112504992978
1956.0,0.0017625950541302715
1955.0,0.0019650646334855113
1954.0,0.002184526462269641
1953.0,0.0022719931736980984
1952.0,0.002202741290654928
1951.0,0.00206849023360083
1950.0,0.0019618945473202365
1949.0,0.0019341853516190535
1948.0,0.0019972377531946245
1947.0,0.00211229794369348
1946.0,0.0021970259420829256
1945.0,0.0021910905228838856
1944.0,0.00211135265761964
1943.0,0.0020142346943160857
1942.0,0.0019224585362196808
1941.0,0.0018267117976207576
1940.0,0.001739136126383485
1939.0,0.001679915123028786
1938.0,0.0016413233967171883
1937.0,0.0016111825139812131
1936.0,0.001593426446666954
1935.0,0.001580289052182288
1934.0,0.001540224893397348
1933.0,0.0014645514793735865
1932.0,0.0014006502804723292
1931.0,0.00138492180504883
1930.0,0.001384568170535904
1929.0,0.0013441997992762584
1928.0,0.001243883681803509
1927.0,0.001120381614922136
1926.0,0.0010198755537029975
1925.0,0.0009761123949991236
1924.0,0.0009985079229135564
1923.0,0.001044022784324962
1922.0,0.0010521781290715247
1921.0,0.001011337510100256
1920.0,0.0009581480385208786
1919.0,0.0009176052859055199
1918.0,0.0008857631596931345
1917.0,0.0008597318607222607
1916.0,0.0008560368919207631
1915.0,0.0008716852301058507
1914.0,0.0008536142479069566
1913.0,0.0007702318146252949
1912.0,0.0006699260521227592
1911.0,0.0006136336000209046
1910.0,0.0006023163114245978
1909.0,0.0006032441212459527
1908.0,0.000605985546634135
1907.0,0.0006306141223580927
1906.0,0.000667694682791189
1905.0,0.0006917845825453171
1904.0,0.0007064408825254872
1903.0,0.0007252878591679597
1902.0,0.0007487275972972358
1901.0,0.0007547697787921737
1900.0,0.0007217530690142469
1899.0,0.0006586533533260615
1898.0,0.0005879612917839257
1897.0,0.0005387879921169717
1896.0,0.0005360225908755227
1895.0,0.0005601985583908202
1894.0,0.0005600346042520339
1893.0,0.0005198878370678089
1892.0,0.00048022696278635264
1891.0,0.0004729723443470152
1890.0,0.0004709152119937144
1889.0,0.0004249735030119029
1888.0,0.00035165407375177754
1887.0,0.00032511029854726155
1886.0,0.00036866792595115737
1885.0,0.00043023154331874036
1884.0,0.0004610545394318115
1883.0,0.00045818512610288666
1882.0,0.0004353778128299646
1881.0,0.00039340863559601076
1880.0,0.00034018757661152593
1879.0,0.0003121304889171024
1878.0,0.0003254930927805394
1877.0,0.0003473512218810076
1876.0,0.0003467787993302776
1875.0,0.00032403868270323294
1874.0,0.0002966358561025989
1873.0,0.0002872318416302939
1872.0,0.00031162114823183283
1871.0,0.00036597981968736594
1870.0,0.00043205101870808383
1869.0,0.0004912572446752633
1868.0,0.0005261411495996317
1867.0,0.0005379213640600072
1866.0,0.0005391217165786502
1865.0,0.0005215217956760884
1864.0,0.00048574637530755067
1863.0,0.00046615740140270494
1862.0,0.0004897919599574671
1861.0,0.0005402667483611905
1860.0,0.000580819753809535
1859.0,0.0005991867682166806
1858.0,0.0006057216210708406
1857.0,0.0006070266168666742
1856.0,0.0006056386618312139
1855.0,0.0006137314972375265
1854.0,0.0006422707263439658
1853.0,0.0006938756093093595
1852.0,0.0007541667036524971
1851.0,0.000824769280969989
1850.0,0.0009023997250002026
1849.0,0.0009680107139797673
1848.0,0.001039897041162819
1847.0,0.0011574386864688464
1846.0,0.0013129196468050588
1845.0,0.0014401909396229346
1844.0,0.0014795244252172133
1843.0,0.0014444091862438721
1842.0,0.0014337696264200583
1841.0,0.001493152444944525
1840.0,0.0015586898927778866
1839.0,0.001595976764764375
1838.0,0.001622476790507696
1837.0,0.001663526424663127
1836.0,0.001728740507322227
1835.0,0.0018009704425188539
1834.0,0.0018584992248867104
1833.0,0.0019034280947301434
1832.0,0.0019656379220929724
1831.0,0.002084749875498797
1830.0,0.0022181825633939114
1829.0,0.00225488719703198
1828.0,0.002230888136661094
1827.0,0.002279700652114208
1826.0,0.0024021440188575355
1825.0,0.0024986105669756687
1824.0,0.002518000285516124
1823.0,0.002508611501679193
1822.0,0.0025170888253156576
1821.0,0.002509926207544571
1820.0,0.0024589386856079818
1819.0,0.0023959471434641744
1818.0,0.0023513394943289103
1817.0,0.002333594074692482
1816.0,0.002342182971281163
1815.0,0.0023677211149138056
1814.0,0.002400918529852379
1813.0,0.002424112645190984
1812.0,0.00244491122069607
1811.0,0.002480153256033059
1810.0,0.0025188881027605617
1809.0,0.002560795544147749
1808.0,0.002619157405088477
1807.0,0.0026882831816930474
1806.0,0.00274003359500779
1805.0,0.002755009309711511
1804.0,0.002756407017215288
1803.0,0.0027789410503981796
1802.0,0.0028305813751958123
1801.0,0.0028740638973801013
1800.0,0.0029013824449164224
1799.0,0.0029395962653540383
1798.0,0.0029908387449781105
1797.0,0.0030399705637160013
1796.0,0.0030909809188451485
1795.0,0.0031667168912679284
1794.0,0.0032646229269892553
1793.0,0.0033450874312706434
1792.0,0.0033964231885511174
1791.0,0.0034349658949924594
1790.0,0.0034722007543264467
1789.0,0.00349531312338602
1788.0,0.0034881970381971487
1787.0,0.003478756291137113
1786.0,0.003496998045248871
1785.0,0.003525267459962904
1784.0,0.0035570455853461197
1783.0,0.003632447953467191
1782.0,0.0037739539929621596
1781.0,0.0039008094713867507
1780.0,0.00396790322603276
1779.0,0.0040244336496772885
1778.0,0.00410009932580721
1777.0,0.004170779939688612
1776.0,0.004226751192051956
1775.0,0.0043342300727128415
1774.0,0.004517641707309778
1773.0,0.004709536825125279
1772.0,0.004864816978274813
1771.0,0.005015601695554716
1770.0,0.005213011598584534
1769.0,0.005440609191153996
1768.0,0.005657533604880928
1767.0,0.00584746621947068
1766.0,0.005993367025525019
1765.0,0.006105610078769063
1764.0,0.006257488514114536
1763.0,0.006547701503849132
1762.0,0.006962546509940775
1761.0,0.007329160222973481
1760.0,0.007658062993179839
1759.0,0.00812502197779121
1758.0,0.00875882166706729
1757.0,0.009427795943142275
1756.0,0.010033545806002827
1755.0,0.010657235741158113
1754.0,0.011395733916870734
1753.0,0.01225862450963983
1752.0,0.01336636118782468
1751.0,0.014943509010272804
1750.0,0.016930273914657512
1749.0,0.01910009411337693
1748.0,0.021452819619772526
1747.0,0.02411621868012252
1746.0,0.027151873871622427
1745.0,0.03063448180642713
1744.0,0.034729452888425494
1743.0,0.03941759374287702
1742.0,0.04451545274711346
1741.0,0.05024004867993946
1740.0,0.05709647625276158
1739.0,0.06461605341768173
1738.0,0.07135233842924807
1737.0,0.07693017319761021
1736.0,0.08260549489126931
1735.0,0.09088347899410867
1734.0,0.10266664569640668
1733.0,0.11392368029754595
1732.0,0.12237958505736549
1731.0,0.1302911549234242
1730.0,0.13917433824340786
1729.0,0.1486983903530307
1728.0,0.15809695216224198
1727.0,0.16741529963387167
1726.0,0.1771346938028775
1725.0,0.18745085227867636
1724.0,0.198421874804913
1723.0,0.2098499781391202
1722.0,0.22086346205526156
1721.0,0.2305422924182344
1720.0,0.23930507755183714
1719.0,0.24939977290882676
1718.0,0.262328943746856
1717.0,0.27444926850807216
1716.0,0.28188240931668906
1715.0,0.2866620364092324
1714.0,0.29003981175456506
1713.0,0.29018709550252453
1712.0,0.28648873106857803
1711.0,0.28019570606862065
1710.0,0.27189842997711233
1709.0,0.261030449940883
1708.0,0.24740112875047615
1707.0,0.23102668913334168
1706.0,0.2117418766248891
1705.0,0.1920340734392346
1704.0,0.17627970516640779
1703.0,0.1650587159610382
1702.0,0.15464183918474683
1701.0,0.13967306815724084
1700.0,0.12133896512073045
1699.0,0.10800101791688885
1698.0,0.1007779872165518
1697.0,0.09471360723586787
1696.0,0.08694361308493041
1695.0,0.0791633881491258
1694.0,0.07373341999187046
1693.0,0.07030681503503138
1692.0,0.06750158502289695
1691.0,0.06454557087656042
1690.0,0.061523939652016454
1689.0,0.05891566289087781
1688.0,0.05695906638833539
1687.0,0.05550386964557582
1686.0,0.0541690897771048
1685.0,0.05257991124564606
1684.0,0.05066034712718292
1683.0,0.048865416000822205
1682.0,0.047622844185764526
1681.0,0.04670917159015389
1680.0,0.045678043907933535
1679.0,0.04446721476455971
1678.0,0.043265758023370696
1677.0,0.042135537896875006
1676.0,0.040956560744068685
1675.0,0.039672657850764945
1674.0,0.03850402488145803
1673.0,0.03766582542822975
1672.0,0.037037181185547635
1671.0,0.03631677802158114
1670.0,0.03542200731299953
1669.0,0.03449946921641854
1668.0,0.03369072381917211
1667.0,0.03304694629282367
1666.0,0.03250849916912633
1665.0,0.03196496291900078
1664.0,0.031353562205124294
1663.0,0.030676163949624982
1662.0,0.03003575285309664
1661.0,0.02953338914241211
1660.0,0.02916063385641217
1659.0,0.028816784128897453
1658.0,0.028437110930967846
1657.0,0.028041387341546174
1656.0,0.027692807271885667
1655.0,0.027400969314020744
1654.0,0.027274004909054614
1653.0,0.027313840809609587
1652.0,0.02696947427315686
1651.0,0.02663085624231845
1650.0,0.026609577548048192
1649.0,0.0265033208864996
1648.0,0.02626919583068342
1647.0,0.02608877262156596
1646.0,0.02591474062016623
1645.0,0.025701942156424032
1644.0,0.025542957938452536
1643.0,0.025397040996135965
1642.0,0.025203596153690118
1641.0,0.024972386322083345
1640.0,0.024715976260330848
1639.0,0.024453206147106887
1638.0,0.024209093843438313
1637.0,0.0240450239901969
1636.0,0.023940407777613814
1635.0,0.0236931844252433
1634.0,0.023311526958115166
1633.0,0.02308260307462484
1632.0,0.022966146347413965
1631.0,0.022759755755505165
1630.0,0.022450800944932122
1629.0,0.02212329364752181
1628.0,0.02181434492625285
1627.0,0.021505584652279443
1626.0,0.021221729489796348
1625.0,0.02098956680618294
1624.0,0.020791679991056373
1623.0,0.020583371609297504
1622.0,0.02037148527574894
1621.0,0.020239599693384545
1620.0,0.020224009483133822
1619.0,0.02029600674513621
1618.0,0.020505284120418153
1617.0,0.02092186354868474
1616.0,0.021299102360025853
1615.0,0.021372596443886987
1614.0,0.02122731379635468
1613.0,0.02093048050987433
1612.0,0.02044941494552527
1611.0,0.019796998675336876
1610.0,0.019060708725436536
1609.0,0.01832837183900596
1608.0,0.017624108750796952
1607.0,0.016936354964054556
1606.0,0.016284055744217152
1605.0,0.015678968085540826
1604.0,0.015112786693291157
1603.0,0.01457794301046824
1602.0,0.014072176486137435
1601.0,0.013604376416077608
1600.0,0.013175256511165679
1599.0,0.01278452750162818
1598.0,0.012445877393206559
1597.0,0.012170555711347425
1596.0,0.011948240998250745
1595.0,0.011757141724569126
1594.0,0.011599527623941518
1593.0,0.011491581905259913
1592.0,0.01143206115492464
1591.0,0.011409649549873033
1590.0,0.01143113804463727
1589.0,0.011515796469934659
1588.0,0.011682017366609246
1587.0,0.01196743715117898
1586.0,0.012444063417553837
1585.0,0.013189236069609356
1584.0,0.014232279705805834
1583.0,0.015562713746503663
1582.0,0.017057029634109076
1581.0,0.018481593576000592
1580.0,0.01962806620943341
1579.0,0.02037290095138916
1578.0,0.020555944522880884
1577.0,0.019948791276291268
1576.0,0.0185511737175532
1575.0,0.016907007224619144
1574.0,0.015592530774199892
1573.0,0.014629154373903278
1572.0,0.013762929805280995
1571.0,0.012841150731316198
1570.0,0.011887318000900624
1569.0,0.01105904202576087
1568.0,0.010490364103500769
1567.0,0.01017682702795058
1566.0,0.009947276788894592
1565.0,0.009662012409958388
1564.0,0.009335483412006379
1563.0,0.009078103307169155
1562.0,0.008919672678121476
1561.0,0.008761401305764999
1560.0,0.008592622524055113
1559.0,0.008615675373301514
1558.0,0.008498421417145362
1557.0,0.008277743040994314
1556.0,0.008324016835639466
1555.0,0.008403341460188759
1554.0,0.008343434874714731
1553.0,0.008185310609696538
1552.0,0.0080556239848823
1551.0,0.008000606946642242
1550.0,0.007949360082439383
1549.0,0.007854353491396585
1548.0,0.007716446158370596
1547.0,0.007588700581877205
1546.0,0.007495980706681693
1545.0,0.007452796136364192
1544.0,0.007453114736199088
1543.0,0.00745091364679267
1542.0,0.007428389059969951
1541.0,0.00750762239017575
1540.0,0.0077299834512067275
1539.0,0.007795870185861177
1538.0,0.007716605194576599
1537.0,0.007750022480274314
1536.0,0.007822922895846749
1535.0,0.007841438845251495
1534.0,0.007907907089161925
1533.0,0.008042905469399916
1532.0,0.00815194417915772
1531.0,0.008242091394904862
1530.0,0.008316351177237682
1529.0,0.008360216726933253
1528.0,0.008389813440385
1527.0,0.008425627782356114
1526.0,0.008456608970375918
1525.0,0.008443980447628768
1524.0,0.008400392473204368
1523.0,0.008378412165696583
1522.0,0.008432253618488884
1521.0,0.008501089962344131
1520.0,0.00845644688583451
1519.0,0.008405098364228532
1518.0,0.00843026005916521
1517.0,0.008510917877485733
1516.0,0.008608393013597958
1515.0,0.008723713241502814
1514.0,0.008957927499382687
1513.0,0.009346943592178145
1512.0,0.00988519781988964
1511.0,0.010568272138712868
1510.0,0.011455648002560118
1509.0,0.012750652066454194
1508.0,0.015080293963297322
1507.0,0.018889485978476072
1506.0,0.021957960152562954
1505.0,0.02252929391166909
1504.0,0.02167716146051154
1503.0,0.02012568433696344
1502.0,0.0180513704324492
1501.0,0.0157351135835027
1500.0,0.013520231434779872
1499.0,0.011646729379386787
1498.0,0.010191695839021776
1497.0,0.00917145310994964
1496.0,0.008510545266038247
1495.0,0.008036326401985039
1494.0,0.00770795678590821
1493.0,0.0075397267700936035
1492.0,0.0074795377620849365
1491.0,0.007470191969317679
1490.0,0.007551579496885398
1489.0,0.007781753412015405
1488.0,0.008055369110623444
1487.0,0.008222858403977434
1486.0,0.008315328009893241
1485.0,0.008447645418594543
1484.0,0.008633717536957072
1483.0,0.008859818528865956
1482.0,0.00913056872221598
1481.0,0.009458137996478537
1480.0,0.009786067800947887
1479.0,0.010056545148892256
1478.0,0.010302110630168781
1477.0,0.010601074448321843
1476.0,0.010953308750917882
1475.0,0.011276759327110038
1474.0,0.011616167175011276
1473.0,0.012106680690218027
1472.0,0.012665947232755197
1471.0,0.013073542056946386
1470.0,0.013418903155504206
1469.0,0.013846459972110384
1468.0,0.014360658199150153
1467.0,0.014968445882994789
1466.0,0.015814473474567273
1465.0,0.017023081318233962
1464.0,0.01837328147789643
1463.0,0.019549057220884763
1462.0,0.020556302780602817
1461.0,0.021537155841711727
1460.0,0.022548416157074237
1459.0,0.023666773530211523
1458.0,0.02513435826018938
1457.0,0.02694345131937422
1456.0,0.028232351828363207
1455.0,0.028764226778232593
1454.0,0.02903025347342375
1453.0,0.029176343072121302
1452.0,0.029149270495832665
1451.0,0.02894318110303639
1450.0,0.02866913415336919
1449.0,0.028426447566274327
1448.0,0.0281900933203117
1447.0,0.027922803463375993
1446.0,0.027707400804530047
1445.0,0.027577873048999828
1444.0,0.027476787428734634
1443.0,0.02733743989082863
1442.0,0.027146599180758166
1441.0,0.026914740864449546
1440.0,0.026607495904270764
1439.0,0.02615573547370391
1438.0,0.025456494121551362
1437.0,0.024426147488248562
1436.0,0.023142603645291006
1435.0,0.021903401472235493
1434.0,0.020843057769431055
1433.0,0.019824642340872882
1432.0,0.01872607923990724
1431.0,0.01758909281570913
1430.0,0.01654047836354934
1429.0,0.01568362929526482
1428.0,0.01505222775432466
1427.0,0.014625913993574737
1426.0,0.014381120301724087
1425.0,0.014299888695872898
1424.0,0.01439894297185414
1423.0,0.014647824089918687
1422.0,0.015006193492729025
1421.0,0.015581416744839031
1420.0,0.016677333355897647
1419.0,0.018570081535467697
1418.0,0.021080231980411576
1417.0,0.024003200144297215
1416.0,0.027514586772086763
1415.0,0.03185714311316511
1414.0,0.037227368543805824
1413.0,0.04373121001150244
1412.0,0.0510385697519877
1411.0,0.05804281818320696
1410.0,0.06335073811679981
1409.0,0.06614600856549932
1408.0,0.0661831735213382
1407.0,0.06351024884237183
1406.0,0.0586773986853735
1405.0,0.05279760371778369
1404.0,0.04715959465911468
1403.0,0.042568361013766064
1402.0,0.03904372625883742
1401.0,0.036156817606405385
1400.0,0.033483892140390034
1399.0,0.030964260306820923
1398.0,0.02886418800907995
1397.0,0.027259008201978255
1396.0,0.0258645657996298
1395.0,0.024420595136872218
1394.0,0.022995126675686112
1393.0,0.02178390970187076
1392.0,0.02081790213280975
1391.0,0.019995488500877366
1390.0,0.01924683192345723
1389.0,0.018575108848858147
1388.0,0.0180099695119564
1387.0,0.017585149063164413
1386.0,0.017334603594955676
1385.0,0.017262559246111156
1384.0,0.01734859226771862
1383.0,0.017581041407865542
1382.0,0.017971836628915636
1381.0,0.01855235131643061
1380.0,0.01933229522503472
1379.0,0.020268554477408843
1378.0,0.021276959293132062
1377.0,0.022307918279363553
1376.0,0.023392674532201133
1375.0,0.024571372954600178
1374.0,0.025750239393131674
1373.0,0.026703739199589883
1372.0,0.02728950146866102
1371.0,0.027477913037991915
1370.0,0.027224978348529244
1369.0,0.02644474969613709
1368.0,0.02512673739267257
1367.0,0.023411077754228436
1366.0,0.0214887738175785
1365.0,0.019455091513605305
1364.0,0.017315143651394714
1363.0,0.015155083287280192
1362.0,0.013242402077050158
1361.0,0.011795396136526994
1360.0,0.010777683816673697
1359.0,0.010045617585857848
1358.0,0.009514968986290222
1357.0,0.009160520739811419
1356.0,0.008959596880458415
1355.0,0.008878986326196586
1354.0,0.008902696346312966
1353.0,0.009040885732428547
1352.0,0.009310242960126731
1351.0,0.009722296043318635
1350.0,0.010298100051410922
1349.0,0.01104215655223733
1348.0,0.011937523521040924
1347.0,0.012961153167453401
1346.0,0.014100737974393495
1345.0,0.015329569503418326
1344.0,0.016573625497604594
1343.0,0.017734804024741126
1342.0,0.018737051042805642
1341.0,0.019508396684485577
1340.0,0.019914892927800774
1339.0,0.019787312251025303
1338.0,0.01907805066351523
1337.0,0.017915504401653168
1336.0,0.016495680124066645
1335.0,0.015008429140109462
1334.0,0.013622025727029662
1333.0,0.012459453112098114
1332.0,0.011585842854422684
1331.0,0.011024542321412409
1330.0,0.010769717107807653
1329.0,0.010784883120676811
1328.0,0.011017540225926707
1327.0,0.011422953131844927
1326.0,0.011975860266134744
1325.0,0.012654177601956779
1324.0,0.013425331654195936
1323.0,0.014250752386602967
1322.0,0.015109053766443493
1321.0,0.016005369325496066
1320.0,0.016945567386784252
1319.0,0.017910222394996875
1318.0,0.0188691215912881
1317.0,0.019814362863638833
1316.0,0.020762200566722965
1315.0,0.021740532844850197
1314.0,0.022789142768571267
1313.0,0.023944504830841776
1312.0,0.025201681361447945
1311.0,0.026519069732524117
1310.0,0.02787501446777113
1309.0,0.02928073056457177
1308.0,0.03072447536492004
1307.0,0.03214999213473359
1306.0,0.03352738389973545
1305.0,0.03490330150601696
1304.0,0.03636043964688789
1303.0,0.03797544449105337
1302.0,0.03984482609605755
1301.0,0.04208177155561714
1300.0,0.04473143566651595
1299.0,0.04772798255907065
1298.0,0.05097881532404967
1297.0,0.05443890402164646
1296.0,0.058054201616939596
1295.0,0.06171356082353466
1294.0,0.06533937320787872
1293.0,0.06894875724981149
1292.0,0.07254616554361827
1291.0,0.07604719535677952
1290.0,0.07939331270768829
1289.0,0.08263025713292163
1288.0,0.08577119384441763
1287.0,0.08870554260567547
1286.0,0.0913523130707534
1285.0,0.0937657067304893
1284.0,0.09598400429559041
1283.0,0.09793311891395037
1282.0,0.09958056288612165
1281.0,0.10102083068443979
1280.0,0.10230580219293396
1279.0,0.10336956979671387
1278.0,0.10422986005787424
1277.0,0.1050899993263167
1276.0,0.10614380995531848
1275.0,0.10746223353094055
1274.0,0.10915777983384571
1273.0,0.11146496216797404
1272.0,0.11453294209790403
1271.0,0.11829456674957234
1270.0,0.12266037240104799
1269.0,0.12766689716368157
1268.0,0.13327786618568008
1267.0,0.13924337888065866
1266.0,0.14535012066734307
1265.0,0.15160664944803037
1264.0,0.15796164796976195
1263.0,0.16408929805015923
1262.0,0.16970505857629326
1261.0,0.17480154208326718
1260.0,0.17929772450558312
1259.0,0.1828482697095131
1258.0,0.1853492974387588
1257.0,0.187212461734633
1256.0,0.18883861900843288
1255.0,0.19029670680522487
1254.0,0.19174277833539646
1253.0,0.19363400573777523
1252.0,0.19622971316321844
1251.0,0.19933759696095468
1250.0,0.20283010724030764
1249.0,0.20695428688829048
1248.0,0.21182489338373323
1247.0,0.2171041783379321
1246.0,0.2225515832145237
1245.0,0.22838258935914377
1244.0,0.23464026392164453
1243.0,0.24077009949521824
1242.0,0.2463144426731495
1241.0,0.25138331468007025
1240.0,0.25585444625149906
1239.0,0.25885820987850844
1238.0,0.2597073656040041
1237.0,0.2585359898795444
1236.0,0.25543974104443173
1235.0,0.25002988539761795
1234.0,0.2423466091975931
1233.0,0.23315984926800745
1232.0,0.223044374281337
1231.0,0.21209511206223886
1230.0,0.20059346958736535
1229.0,0.18908503098045248
1228.0,0.1777810294757136
1227.0,0.16653297975908946
1226.0,0.1553713175612153
1225.0,0.1445892633868434
1224.0,0.1343517025760599
1223.0,0.12462153501232567
1222.0,0.11542866141370839
1221.0,0.10690351106442586
1220.0,0.09906990888309491
1219.0,0.09183316166659145
1218.0,0.08516004036259418
1217.0,0.07910182759481872
1216.0,0.07365183646786799
1215.0,0.06871614590613366
1214.0,0.06421929838507263
1213.0,0.060137214363396294
1212.0,0.05643123660968115
1211.0,0.053035082211472344
1210.0,0.049910091694063206
1209.0,0.04704859333002545
1208.0,0.04442352819133405
1207.0,0.041985944609116935
1206.0,0.03970873346526027
1205.0,0.03758948735879462
1204.0,0.03561499275639244
1203.0,0.03376103033768668
1202.0,0.03202018859859351
1201.0,0.03039488745315086
1200.0,0.028867547412494976
1199.0,0.027407679789753156
1198.0,0.0260062726295111
1197.0,0.024679604071067895
1196.0,0.02344205000994
1195.0,0.02229546165283769
1194.0,0.021242734245356703
1193.0,0.020295173799942844
1192.0,0.019467206941660875
1191.0,0.018774063964408495
1190.0,0.018233084342978916
1189.0,0.01785999440577015
1188.0,0.01766393514676928
1187.0,0.017649500324942054
1186.0,0.017823411551176064
1185.0,0.018197111688337212
1184.0,0.0187801297682248
1183.0,0.01956909710165914
1182.0,0.020542303887372028
1181.0,0.021658972335604418
1180.0,0.02285369775978746
1179.0,0.02403843764655416
1178.0,0.025127346578848353
1177.0,0.026057263684537924
1176.0,0.02677073127584232
1175.0,0.02719527487374062
1174.0,0.02726301169954483
1173.0,0.0269401011764671
1172.0,0.026230059725778618
1171.0,0.02517802861255715
1170.0,0.023887527863657554
1169.0,0.022506726291145876
1168.0,0.021181045514773192
1167.0,0.020020585523497003
1166.0,0.019093086843035293
1165.0,0.018420127108250795
1164.0,0.017981324317563968
1163.0,0.017736858199502166
1162.0,0.01765398996384805
1161.0,0.017714771489258017
1160.0,0.017907731781140655
1159.0,0.018226002031765713
1158.0,0.01867682334363259
1157.0,0.019282785772062747
1156.0,0.020065226484018903
1155.0,0.02103087712321116
1154.0,0.022178407403162896
1153.0,0.02350857989924776
1152.0,0.025018724184367666
1151.0,0.026699750281317866
1150.0,0.028555220800950215
1149.0,0.030609017709978988
1148.0,0.0328717559290046
1147.0,0.03531394364055685
1146.0,0.03789554151062042
1145.0,0.04059786833748125
1144.0,0.04339263369267128
1143.0,0.04620860447678443
1142.0,0.04897275166502498
1141.0,0.051656478955421234
1140.0,0.05424099215055522
1139.0,0.05668407545183486
1138.0,0.05897030166184064
1137.0,0.061136523949082366
1136.0,0.06319758731313137
1135.0,0.0651187677747256
1134.0,0.06691792808882381
1133.0,0.06871307072928898
1132.0,0.07061160261613304
1131.0,0.07264097996432393
1130.0,0.07484328349180024
1129.0,0.07733770945390399
1128.0,0.08021621814019346
1127.0,0.08346727517663503
1126.0,0.08707114204071963
1125.0,0.09106152682098265
1124.0,0.09539636747383876
1123.0,0.0998757779078228
1122.0,0.10429247848353075
1121.0,0.10853018355873909
1120.0,0.11239436173304165
1119.0,0.11553488081811786
1118.0,0.11770205642204082
1117.0,0.11888603108747539
1116.0,0.1190826926976763
1115.0,0.11822300290583454
1114.0,0.11650495959295784
1113.0,0.11451185574864349
1112.0,0.11286042206124806
1111.0,0.11196005977196902
1110.0,0.11213680167576821
1109.0,0.11369230736079995
1108.0,0.11670695111154328
1107.0,0.12097233702561724
1106.0,0.12625850525635257
1105.0,0.13249884756055116
1104.0,0.13958275138992568
1103.0,0.14719996790047524
1102.0,0.15512968911227787
1101.0,0.1634455439294411
1100.0,0.17213084123355762
1099.0,0.18075969191830635
1098.0,0.18892492663661226
1097.0,0.19664225899956575
1096.0,0.20387595766232547
1095.0,0.21013290395523507
1094.0,0.21505256897185662
1093.0,0.2188115561976992
1092.0,0.221420679927994
1091.0,0.222405319958231
1090.0,0.2216886709689415
1089.0,0.21988508021926845
1088.0,0.21731105183964158
1087.0,0.21367902879849798
1086.0,0.20902430117576234
1085.0,0.20392027457812764
1084.0,0.19854213244372526
1083.0,0.19244128873836436
1082.0,0.18539221938801032
1081.0,0.1776422839319285
1080.0,0.1692799754690211
1079.0,0.1601651019516087
1078.0,0.15050237397238786
1077.0,0.14080910323382206
1076.0,0.1313520547052299
1075.0,0.12212287958146384
1074.0,0.11325500704255514
1073.0,0.10503383468063184
1072.0,0.09756338260092862
1071.0,0.09074528270618656
1070.0,0.08453941639572553
1069.0,0.07900074193473643
1068.0,0.07409723223708944
1067.0,0.06970055088813676
1066.0,0.06574920324006905
1065.0,0.06226698912967353
1064.0,0.05923047516467338
1063.0,0.05655323898396465
1062.0,0.054202761502839786
1061.0,0.05222678199607814
1060.0,0.05066192166337074
1059.0,0.049506993937485484
1058.0,0.04878573015197073
1057.0,0.04854412760210644
1056.0,0.0487669054039393
1055.0,0.04936886196112127
1054.0,0.05029250119876687
1053.0,0.051547913794323705
1052.0,0.053122961821611095
1051.0,0.05492661990080505
1050.0,0.0568691022450938
1049.0,0.05890674930414416
1048.0,0.060948390894667484
1047.0,0.06283270673249368
1046.0,0.06446285766950012
1045.0,0.06584834414883271
1044.0,0.06696969252203913
1043.0,0.06772781931035735
1042.0,0.06807044161440359
1041.0,0.06804426849492344
1040.0,0.06768220808605332
1039.0,0.06697262447213755
1038.0,0.06597782588573484
1037.0,0.06484569935424876
1036.0,0.06366687112718986
1035.0,0.06243972463936731
1034.0,0.061190799773521126
1033.0,0.060004806243273465
1032.0,0.05890791469311055
1031.0,0.05783610183407996
1030.0,0.05675704941371912
1029.0,0.055734988615589065
1028.0,0.05486322018818805
1027.0,0.05425060675648209
1026.0,0.05412798625373266
1025.0,0.05489862299394464
1024.0,0.057050913499227085
1023.0,0.06105280018626576
1022.0,0.0672929348896319
1021.0,0.0759733349420263
1020.0,0.08687131710414925
1019.0,0.09906429491917602
1018.0,0.11081433682371007
1017.0,0.1196773287125514
1016.0,0.12299444468218654
1015.0,0.11926038554716467
1014.0,0.10957261476602287
1013.0,0.0969830559343368
1012.0,0.08437457573310786
1011.0,0.07333140566584383
1010.0,0.06429399372154448
1009.0,0.05706652414909784
1008.0,0.05123641551782854
1007.0,0.04645518412546315
1006.0,0.04253350354959845
1005.0,0.03935949987741796
1004.0,0.036791066481211325
1003.0,0.03465635369894241
1002.0,0.03282184805716157
1001.0,0.0312125872099311
1000.0,0.029777434342586062
999.0,0.028474765060264924
998.0,0.02728799801982472
997.0,0.026219822364302585
996.0,0.025267451683454983
995.0,0.024421823563854188
994.0,0.023681665422978913
993.0,0.023044776959849543
992.0,0.022492572403001176
991.0,0.02200542191839573
990.0,0.021584833334459846
989.0,0.02123711549331534
988.0,0.020946076490628657
987.0,0.020690950940130466
986.0,0.020483255759215203
985.0,0.020352425690345427
984.0,0.020295578979814675
983.0,0.02027222081590839
982.0,0.020251237291261152
981.0,0.020234415046923762
980.0,0.020229067783983624
979.0,0.020226777149544815
978.0,0.020217928948794345
977.0,0.020200054630304935
976.0,0.020160205555558038
975.0,0.020071842498989988
974.0,0.019918692381570437
973.0,0.019700760984998116
972.0,0.01941126520010185
971.0,0.01903082318806684
970.0,0.018550070546284454
969.0,0.017977236083499385
968.0,0.017322316556693296
967.0,0.01659647113361009
966.0,0.01582660406994456
965.0,0.015046647966962652
964.0,0.014273749762265347
963.0,0.013513187024211525
962.0,0.012782774097770861
961.0,0.012109469617045895
960.0,0.01150325423970042
959.0,0.010954174603964632
958.0,0.010453490145528106
957.0,0.009999830160164938
956.0,0.009586642245276392
955.0,0.009202919460178767
954.0,0.008848601228011673
953.0,0.008533503617261594
952.0,0.008258347322460766
951.0,0.008009885305810857
950.0,0.007776291188160211
949.0,0.007555035451912318
948.0,0.007345311547472689
947.0,0.0071468620534966
946.0,0.0069678287390778915
945.0,0.006819176227363156
944.0,0.006697208433202446
943.0,0.006583043258123703
942.0,0.00646285361931475
941.0,0.006338385191674782
940.0,0.006215444060410264
939.0,0.00609475854997556
938.0,0.005979465524809227
937.0,0.005879997111184587
936.0,0.005803186232363602
935.0,0.005742298733145593
934.0,0.0056827792498635905
933.0,0.005613201189047519
932.0,0.005528392158612762
931.0,0.005428592367034742
930.0,0.005318905802801574
929.0,0.005204706736016255
928.0,0.005086616999311785
927.0,0.004964736479453381
926.0,0.004846200235035306
925.0,0.004741628585364706
924.0,0.004655651438498217
923.0,0.004588525557827409
922.0,0.0045446668656832535
921.0,0.0045302547177488404
920.0,0.0045444261033992135
919.0,0.004584340087413135
918.0,0.004660028198011593
917.0,0.004793482493166051
916.0,0.005000676616325649
915.0,0.005284329864750196
914.0,0.00564729344661246
913.0,0.006102523591309687
912.0,0.006664115362397187
911.0,0.007337888429011848
910.0,0.00812708233528905
909.0,0.009035757943734377
908.0,0.010054793625935348
907.0,0.0111531346082413
906.0,0.012295213984919492
905.0,0.01345700624760868
904.0,0.014611711093541004
903.0,0.01571402366798307
902.0,0.016715799980816282
901.0,0.01758408169297411
900.0,0.018292479951035757
899.0,0.018820674327061193
898.0,0.01918007981806774
897.0,0.019411806629355995
896.0,0.019543106074627704
895.0,0.019576604344114137
894.0,0.019534897113863102
893.0,0.019478182461865542
892.0,0.019460062694384925
891.0,0.01949983633732378
890.0,0.019614692539798452
889.0,0.01984518950209252
888.0,0.020227943533187007
887.0,0.02077170766335209
886.0,0.021482191737651445
885.0,0.022385486078768745
884.0,0.02350731201463587
883.0,0.02485884220312938
882.0,0.026468588404229026
881.0,0.02839357518620253
880.0,0.030657449771878828
879.0,0.03319973959578371
878.0,0.035917695912909914
877.0,0.03870948963917322
876.0,0.0414098619231111
875.0,0.04372757335417603
874.0,0.045328911092981664
873.0,0.04595433314416627
872.0,0.04543019112616676
871.0,0.04370561193315955
870.0,0.04097171019865737
869.0,0.037633089070906865
868.0,0.03409740124037616
867.0,0.030647675491233324
866.0,0.027476611886014475
865.0,0.024724267469760933
864.0,0.022453845511117315
863.0,0.02064436664322595
862.0,0.01923375061413205
861.0,0.018158921996781652
860.0,0.017360514050041662
859.0,0.01678119869576118
858.0,0.016378965908097242
857.0,0.01612785687216239
856.0,0.015993246638193355
855.0,0.01592128024864894
854.0,0.015867750642981286
853.0,0.015824690305166318
852.0,0.015802928315581923
851.0,0.015800288917304495
850.0,0.015799239380591315
849.0,0.01578308200441788
848.0,0.015743511668160896
847.0,0.01568567798442814
846.0,0.015634985569490046
845.0,0.015621720494430995
844.0,0.01564668585747825
843.0,0.01567399013577978
842.0,0.015664323887365033
841.0,0.0156009656860641
840.0,0.01547831626606775
839.0,0.015286410145027237
838.0,0.015018444928585856
837.0,0.014677742021599133
836.0,0.014271389651626443
835.0,0.013814053100925296
834.0,0.013340298813290422
833.0,0.012892508813295282
832.0,0.012490662582542715
831.0,0.012126605234956216
830.0,0.011785883438230615
829.0,0.011460145009415178
828.0,0.011143387461712128
827.0,0.010838710663621527
826.0,0.010568234826276075
825.0,0.010353737747842918
824.0,0.010190413604923634
823.0,0.010063144499282247
822.0,0.009977955326302693
821.0,0.009947563282541833
820.0,0.009958013667519715
819.0,0.009980472084450971
818.0,0.010007040160865417
817.0,0.010048036090606813
816.0,0.01010064383373533
815.0,0.010147104595970104
814.0,0.010182003007063057
813.0,0.010215236143704853
812.0,0.010247065215127835
811.0,0.010266620897098778
810.0,0.010277313063289103
809.0,0.010296088781122748
808.0,0.010321754493374895
807.0,0.010328140612381204
806.0,0.010293696293736342
805.0,0.010215087170447577
804.0,0.010089978267813878
803.0,0.009915703365941417
802.0,0.009718283331319997
801.0,0.009571620953585734
800.0,0.0095920294779821
799.0,0.0099234796080453
798.0,0.010691542859283896
797.0,0.01190757637336012
796.0,0.013386333630813617
795.0,0.014774902164485418
794.0,0.01570677770766089
793.0,0.01596084251781872
792.0,0.01551102126794502
791.0,0.014497812600379849
790.0,0.013170804486413109
789.0,0.011780603357225139
788.0,0.010471991833843761
787.0,0.009279602561539705
786.0,0.00820237607498309
785.0,0.007249260139441816
784.0,0.006428721951291499
783.0,0.005738636119477641
782.0,0.0051739704814528845
781.0,0.004720389216169907
780.0,0.0043415803519762305
779.0,0.003998743215896439
778.0,0.003684152193421473
777.0,0.0034123618779340788
776.0,0.003180562698843009
775.0,0.0029646698494226673
774.0,0.0027549556486015925
773.0,0.0025659514309265795
772.0,0.00240350728691701
771.0,0.002247711502907198
770.0,0.0020782745306372266
769.0,0.0018968231052787186
768.0,0.001716235208775646
767.0,0.001545975954917296
766.0,0.0013938185622016167
765.0,0.0012652573148225852
764.0,0.0011579783451473001
763.0,0.0010710695468924142
762.0,0.001014471680142754
761.0,0.0009878787198308158
760.0,0.0009576990262300678
759.0,0.0008871280645430697
758.0,0.0007908693447178199
757.0,0.0007261314609975887
756.0,0.0007221484025588254
755.0,0.0007511603915980724
754.0,0.0007782025433921459
753.0,0.0008055911380929898
752.0,0.0008514736835980464
751.0,0.0009173173408850988
750.0,0.0010018920719734453
749.0,0.0011273193268011537
748.0,0.001334372856009243
747.0,0.0016716746726695535
746.0,0.0022039920572746625
745.0,0.0030109172117774932
744.0,0.004164650050306161
743.0,0.005732092247459027
742.0,0.007813156407059364
741.0,0.010548452587871592
740.0,0.014055585728911846
739.0,0.018360432523209125
738.0,0.02339587702339989
737.0,0.0290314199408247
736.0,0.035080303218740276
735.0,0.04135355137410766
734.0,0.04780654894746851
733.0,0.0546040379846042
732.0,0.061980856822630215
731.0,0.07012449795865189
730.0,0.07929028100526492
729.0,0.08991544463517433
728.0,0.10241731497813687
727.0,0.11680976085382247
726.0,0.13237761599925751
725.0,0.1471981331851746
724.0,0.1576189200424622
723.0,0.15945647188070577
722.0,0.15155607269943536
721.0,0.13699712648172319
720.0,0.12008454359776627
719.0,0.1038533338027408
718.0,0.08969034320848743
717.0,0.07785937038207058
716.0,0.06817765379885915
715.0,0.06043569454343106
714.0,0.05444448364201103
713.0,0.04992687225884106
712.0,0.04650436069599575
711.0,0.0438014554470581
710.0,0.0415375340306155
709.0,0.03953133773551051
708.0,0.03765986902391161
707.0,0.0358458873938416
706.0,0.03406957308709229
705.0,0.032348528158419786
704.0,0.030688427763448843
703.0,0.029058815013839043
702.0,0.027410172120588445
701.0,0.02569987388602442
700.0,0.02391354010946318
699.0,0.02208678774433903
698.0,0.020306422497570163
697.0,0.018674795708506803
696.0,0.017263647137840413
695.0,0.016092208586568728
694.0,0.015127835773307573
693.0,0.014300488182937488
692.0,0.013543366279803497
691.0,0.012843033735258833
690.0,0.012245071445065685
689.0,0.011796008884446325
688.0,0.011483476148881417
687.0,0.011255905354122953
686.0,0.01109116476529742
685.0,0.011005411189604627
684.0,0.011000603166973408
683.0,0.011042097185808716
682.0,0.011082230747238853
681.0,0.011071827694665207
680.0,0.010952686532082694
679.0,0.010677166639459116
678.0,0.010246182567860893
677.0,0.009713988437162008
676.0,0.009148820052143392
675.0,0.00859983099185483
674.0,0.008100232482918558
673.0,0.007668683886781387
672.0,0.007291144586262736
671.0,0.0069220733854237874
670.0,0.006515987445127783
669.0,0.0060621857492172
668.0,0.005679607457194931
667.0,0.005520658834065759
666.0,0.005455189032054955
665.0,0.00530769727910952
664.0,0.005110951835648709
663.0,0.00491172982795917
662.0,0.004703686187732328
661.0,0.004482373720847907
660.0,0.004288976196876581
659.0,0.004167069408186532
658.0,0.004100744109166249
657.0,0.0040288697117077145
656.0,0.003911604534749327
655.0,0.00375529481859015
654.0,0.0035842878491465814
653.0,0.0034115703244484777
652.0,0.0032436721089108417
651.0,0.0030982323683394
650.0,0.0029931858321033712
649.0,0.0029218619755913
648.0,0.00285697687112315
647.0,0.002778523228071577
646.0,0.002686047398841672
645.0,0.0025845921427018297
644.0,0.002474460504601487
643.0,0.002360597223383838
642.0,0.0022557966036641473
641.0,0.0021657128165434893
640.0,0.002084575364580468
639.0,0.002017233548404579
638.0,0.002002061747844664
637.0,0.0021117267613465635
636.0,0.002434669099118627
635.0,0.0030247883569014568
634.0,0.003811052481126325
633.0,0.004550469935452207
632.0,0.004913257278473141
631.0,0.004692909788592343
630.0,0.003998659228048269
629.0,0.0031722464882325482
628.0,0.0024896372494092912
627.0,0.00201206395082041
626.0,0.0016753529775296871
625.0,0.001424915756005736
624.0,0.0012473842717925787
623.0,0.0011314904453196169
622.0,0.0010612384004366864
621.0,0.0010381202552221316
620.0,0.0010651279242657047
619.0,0.0011050348859352015
618.0,0.0010902607200338546
617.0,0.0009904422599855793
616.0,0.0008461511762843064
615.0,0.0007209243812509418
614.0,0.0006409514172091291
613.0,0.0005904791267221654
612.0,0.0005454606511878547
611.0,0.0005007367944792375
610.0,0.0004698734540520555
609.0,0.00046438343636403395
608.0,0.00048155148528466335
607.0,0.0005152046528698259
606.0,0.0005660829914376914
605.0,0.0006236850063449165
604.0,0.0006458930277898692
603.0,0.0005913827276365705
602.0,0.0004743908290083705
601.0,0.0003496490642134441
600.0,0.0002415920624200367
