cm-1,A
4000.0,0.002238478550393455
3999.0,0.002233407790938941
3998.0,0.0022307201537205236
3997.0,0.0022345185597400603
3996.0,0.0022442532884875714
3995.0,0.002254095062036089
3994.0,0.0022571779649733417
3993.0,0.0022511069177689486
3992.0,0.0022398855269775966
3991.0,0.0022301253629405738
3990.0,0.0022264331500591273
3989.0,0.0022292413351040034
3988.0,0.002235814527442566
3987.0,0.0022424669181791614
3986.0,0.0022463162294326837
3985.0,0.0022463313282755047
3984.0,0.002243384368659256
3983.0,0.0022394701422350114
3982.0,0.0022361151376635623
3981.0,0.002233355049957261
3980.0,0.0022304486809634457
3979.0,0.0022279726095122514
3978.0,0.002228467119911515
3977.0,0.002233834137040018
3976.0,0.0022423940807428724
3975.0,0.002249311808844319
3974.0,0.002250609348901678
3973.0,0.0022470955048628045
3972.0,0.00224309934438254
3971.0,0.0022419945025320314
3970.0,0.002243919516689355
3969.0,0.002247003904853896
3968.0,0.002249718941094398
3967.0,0.0022508670829859533
3966.0,0.0022489438688433954
3965.0,0.0022430684463158315
3964.0,0.002234852701593973
3963.0,0.002228187155489245
3962.0,0.002226192483901229
3961.0,0.002228438082625476
3960.0,0.0022319818723127967
3959.0,0.002234875585703275
3958.0,0.0022377393681670636
3957.0,0.002242305440854883
3956.0,0.0022491005308988227
3955.0,0.0022560094426483657
3954.0,0.0022600708600417595
3953.0,0.0022602698044899942
3952.0,0.002258037660271035
3951.0,0.002256138393960559
3950.0,0.0022569921324961818
3949.0,0.0022614594912968777
3948.0,0.0022674619894389614
3947.0,0.0022708570760344203
3946.0,0.0022689573937016245
3945.0,0.0022621441987056793
3944.0,0.0022531579368526592
3943.0,0.0022459104619551107
3942.0,0.002243506765174325
3941.0,0.002246397738163981
3940.0,0.0022525704195259398
3939.0,0.0022591513988519697
3938.0,0.0022640186213924605
3937.0,0.0022662279084585514
3936.0,0.0022660830957604242
3935.0,0.0022640605347877298
3934.0,0.002260065409313473
3933.0,0.0022547352174279705
3932.0,0.002250214560954102
3931.0,0.002248334538182192
3930.0,0.0022488919085044915
3929.0,0.0022503127926724424
3928.0,0.0022510197360663953
3927.0,0.0022503564499859316
3926.0,0.002248020990887195
3925.0,0.0022437285404639153
3924.0,0.0022390145543891484
3923.0,0.0022369862673785462
3922.0,0.0022391508595697163
3921.0,0.0022438449228775765
3920.0,0.002248856178506553
3919.0,0.0022540135620696938
3918.0,0.0022591908108059245
3917.0,0.0022612167183937906
3916.0,0.0022571401312065443
3915.0,0.002248684830400755
3914.0,0.002240948335791037
3913.0,0.0022373090537589997
3912.0,0.0022386819451936345
3911.0,0.0022441264611898206
3910.0,0.0022515224247651794
3909.0,0.0022571202495220407
3908.0,0.002259166061610328
3907.0,0.0022597388144114487
3906.0,0.0022635490937555312
3905.0,0.0022736439061318125
3904.0,0.0022885306249806614
3903.0,0.0023037563720956014
3902.0,0.002314670668828185
3901.0,0.0023177817914270572
3900.0,0.002311209758376974
3899.0,0.002296966796918671
3898.0,0.0022811240577470734
3897.0,0.0022684305886871746
3896.0,0.0022597279114377
3895.0,0.002253488683316475
3894.0,0.0022497411716337996
3893.0,0.0022492729003687397
3892.0,0.00225163184486766
3891.0,0.002253974480226197
3890.0,0.0022559528494725464
3889.0,0.0022609977208667247
3888.0,0.0022703447867336623
3887.0,0.0022761415317193922
3886.0,0.0022689472124197392
3885.0,0.0022520407693031024
3884.0,0.0022393718336499533
3883.0,0.0022384082065497034
3882.0,0.0022421287040271165
3881.0,0.002240989408124911
3880.0,0.0022369140136111534
3879.0,0.0022373294903471575
3878.0,0.0022442082226040326
3877.0,0.002253253989878229
3876.0,0.002258076337949783
3875.0,0.0022554775774207766
3874.0,0.0022498632482349816
3873.0,0.0022498424517050824
3872.0,0.0022577273244280775
3871.0,0.002264367468623211
3870.0,0.0022615216355193913
3869.0,0.0022559943715917607
3868.0,0.0022620374268070608
3867.0,0.0022811897594453108
3866.0,0.0022964028628145736
3865.0,0.002290239316212318
3864.0,0.0022689670812768353
3863.0,0.002253847426942004
3862.0,0.0022535666962604506
3861.0,0.002259143697897035
3860.0,0.0022609548519844412
3859.0,0.0022552794783547306
3858.0,0.002243841798515951
3857.0,0.002232006569914656
3856.0,0.0022284993028337434
3855.0,0.0022357323439999195
3854.0,0.002240451326466647
3853.0,0.0022317375531338652
3852.0,0.0022223479589600324
3851.0,0.0022259457271190664
3850.0,0.0022386764026044257
3849.0,0.0022504521169251146
3848.0,0.0022564087335507892
3847.0,0.002258588868615569
3846.0,0.0022596909765236857
3845.0,0.0022596647770313704
3844.0,0.0022589297360813554
3843.0,0.002257040815191306
3842.0,0.0022548386435292554
3841.0,0.0022544998220701204
3840.0,0.0022559912240746917
3839.0,0.002254910432375569
3838.0,0.002249004584360916
3837.0,0.0022407983800349154
3836.0,0.0022347132795342995
3835.0,0.0022318371478034097
3834.0,0.002230798296801041
3833.0,0.002229798980351071
3832.0,0.002228439613030159
3831.0,0.002229535747918842
3830.0,0.0022365630487337163
3829.0,0.0022484562962669114
3828.0,0.002258544460199936
3827.0,0.0022589913877070506
3826.0,0.0022489455038735232
3825.0,0.002237583619066395
3824.0,0.0022362292484928185
3823.0,0.0022448861905450066
3822.0,0.0022521362796919546
3821.0,0.0022508213704953957
3820.0,0.0022510456255221654
3819.0,0.002264009060816515
3818.0,0.002284563145497841
3817.0,0.0022958068195014477
3816.0,0.002286383101841586
3815.0,0.0022668828308377497
3814.0,0.0022563968004561145
3813.0,0.002258457462755965
3812.0,0.0022613830030320664
3811.0,0.0022571346986764995
3810.0,0.0022515430381360854
3809.0,0.002255223922749127
3808.0,0.0022673927248702238
3807.0,0.002275836995349911
3806.0,0.0022743887939982634
3805.0,0.002269065686766148
3804.0,0.002265095196204054
3803.0,0.0022568729525540548
3802.0,0.0022382326733878443
3801.0,0.0022181631737011208
3800.0,0.002213246393257845
3799.0,0.00222511413219625
3798.0,0.0022406285417988303
3797.0,0.00224876846957593
3796.0,0.002250305316625024
3795.0,0.002253228802297667
3794.0,0.0022605646269773577
3793.0,0.0022672498315047555
3792.0,0.002266883759982837
3791.0,0.0022603376694939753
3790.0,0.0022543707923508858
3789.0,0.00225350439567029
3788.0,0.002255760406481416
3787.0,0.0022575785689202274
3786.0,0.0022589827049267893
3785.0,0.0022628144664438663
3784.0,0.0022703922044503303
3783.0,0.002280550538372685
3782.0,0.0022906459934892752
3781.0,0.002296872337028592
3780.0,0.002296788566327702
3779.0,0.0022929726197141705
3778.0,0.0022914093811183993
3777.0,0.0022942911190495085
3776.0,0.0022988718074565878
3775.0,0.0023013100288904855
3774.0,0.0023029372997093274
3773.0,0.0023095210297122536
3772.0,0.0023237868292158483
3771.0,0.0023388403365440878
3770.0,0.0023465596050368407
3769.0,0.002347961781666081
3768.0,0.0023482998539295545
3767.0,0.002347619078823206
3766.0,0.002342518812825282
3765.0,0.0023331549929366518
3764.0,0.0023249516333793217
3763.0,0.002323495719296435
3762.0,0.002328832053954384
3761.0,0.002334977978902037
3760.0,0.0023379274247929665
3759.0,0.002341031837066271
3758.0,0.0023475974780150285
3757.0,0.0023533279210716275
3756.0,0.002354035663895788
3755.0,0.0023527851364273924
3754.0,0.0023552045231194085
3753.0,0.0023633149163982186
3752.0,0.0023747130576629574
3751.0,0.0023859066092823374
3750.0,0.002393469998004223
3749.0,0.0023926121905176864
3748.0,0.002385123737395663
3747.0,0.0023811277180211367
3746.0,0.002384992840129627
3745.0,0.0023870529130637476
3744.0,0.00237801633105584
3743.0,0.002365230889308569
3742.0,0.0023634827727365085
3741.0,0.0023727536283740898
3740.0,0.0023812514632769056
3739.0,0.002384262122793885
3738.0,0.002388124262363747
3737.0,0.0023964459610115504
3736.0,0.002404798373171201
3735.0,0.002409379242198741
3734.0,0.002409130792468063
3733.0,0.00240119503064456
3732.0,0.0023837302944828423
3731.0,0.002362989827580513
3730.0,0.0023501872152690787
3729.0,0.002350250824023307
3728.0,0.0023585038738574097
3727.0,0.0023667197415702277
3726.0,0.0023721804044640844
3725.0,0.0023781995259968504
3724.0,0.0023841042689110295
3723.0,0.0023838055544039803
3722.0,0.002376669323850067
3721.0,0.0023708948220626924
3720.0,0.0023750229401501037
3719.0,0.0023896344606123693
3718.0,0.0024082677485851318
3717.0,0.0024233768199147182
3716.0,0.0024343173587003048
3715.0,0.002446882330912172
3714.0,0.002466025453109506
3713.0,0.002490454706465725
3712.0,0.0025138115008480804
3711.0,0.0025320222368480022
3710.0,0.002548520132574072
3709.0,0.0025681556576335482
3708.0,0.0025914624816636266
3707.0,0.002617082605625623
3706.0,0.0026450913240347275
3705.0,0.002676454391172552
3704.0,0.002708830873707385
3703.0,0.0027378062961589547
3702.0,0.0027630684603285023
3701.0,0.0027907213330285435
3700.0,0.0028247334851730114
3699.0,0.002862628459206421
3698.0,0.002898290683276933
3697.0,0.0029260954632846616
3696.0,0.0029461677403297736
3695.0,0.0029651886187545863
3694.0,0.002988152414945467
3693.0,0.0030116238466308225
3692.0,0.003028720023910578
3691.0,0.00303741696271368
3690.0,0.0030431881783705003
3689.0,0.003053501909269443
3688.0,0.003069962674610234
3687.0,0.003089459491116083
3686.0,0.003112735893651232
3685.0,0.0031419911306501394
3684.0,0.003175488131818366
3683.0,0.0032099127638322428
3682.0,0.0032443615179715566
3681.0,0.0032786992198807745
3680.0,0.0033099986324978637
3679.0,0.003339984669925711
3678.0,0.003379344025275748
3677.0,0.003434818666628982
3676.0,0.00349294573705393
3675.0,0.003539220120399901
3674.0,0.0035804385907847744
3673.0,0.003628016445445562
3672.0,0.0036806687010616183
3671.0,0.003726586948392195
3670.0,0.0037622251997008697
3669.0,0.003801691106278724
3668.0,0.0038549746798706326
3667.0,0.003915184090727313
3666.0,0.003973534501266145
3665.0,0.004028532214251198
3664.0,0.004083381509811804
3663.0,0.0041411157233058275
3662.0,0.004200999815740676
3661.0,0.0042590119445392455
3660.0,0.004312584684699621
3659.0,0.004365928478631599
3658.0,0.004427713704409032
3657.0,0.004501973964305677
3656.0,0.004580706524918758
3655.0,0.004653637176257775
3654.0,0.004720885033241959
3653.0,0.004788848033596003
3652.0,0.004858680193720096
3651.0,0.004925839542944701
3650.0,0.00498921020033289
3649.0,0.005053489495917331
3648.0,0.005120095299572748
3647.0,0.0051843297988618635
3646.0,0.005245395967881922
3645.0,0.005306684332426398
3644.0,0.005370603871310092
3643.0,0.00543772404936925
3642.0,0.005508662496771517
3641.0,0.005583251272630546
3640.0,0.005657576095431167
3639.0,0.005725646208340816
3638.0,0.00578682170448132
3637.0,0.005847968823859602
3636.0,0.005916240974490601
3635.0,0.005991284239959618
3634.0,0.006068159706034058
3633.0,0.006146421407770185
3632.0,0.006230468086036231
3631.0,0.006319721016243873
3630.0,0.006403670537995877
3629.0,0.006475258647963835
3628.0,0.0065448927290489775
3627.0,0.006625179891515289
3626.0,0.006716230569986563
3625.0,0.006810300790962377
3624.0,0.006898616094063255
3623.0,0.006978006524232522
3622.0,0.007051829506240092
3621.0,0.007123080395356059
3620.0,0.007190458658792559
3619.0,0.007253582343042615
3618.0,0.0073163482759896585
3617.0,0.0073812552454389346
3616.0,0.0074455250617608045
3615.0,0.007503091191166857
3614.0,0.007550966975359079
3613.0,0.007596389418209688
3612.0,0.007650957403981546
3611.0,0.0077179052143091734
3610.0,0.007788470537653944
3609.0,0.007850442105185557
3608.0,0.007900549278381954
3607.0,0.007947353261794451
3606.0,0.007999710893830761
3605.0,0.008058051001881204
3604.0,0.008117304335632501
3603.0,0.008174291419121472
3602.0,0.008229855972206442
3601.0,0.008285263898209237
3600.0,0.008340489616918117
3599.0,0.008398361006900813
3598.0,0.00846373102367584
3597.0,0.008538067399624266
3596.0,0.008615769619311401
3595.0,0.008689377515521391
3594.0,0.008757217292653009
3593.0,0.008824477758571064
3592.0,0.008894744547150788
3591.0,0.008965545530626073
3590.0,0.009030484528797431
3589.0,0.00908424976404154
3588.0,0.009129789338570022
3587.0,0.009178455167600732
3586.0,0.009237258483366147
3585.0,0.009302984633107773
3584.0,0.00937005003119037
3583.0,0.00943694618290179
3582.0,0.00950520792277132
3581.0,0.009574981749469516
3580.0,0.009643452286761408
3579.0,0.009709009552608639
3578.0,0.009773760493013083
3577.0,0.009840227547452141
3576.0,0.009908158839708343
3575.0,0.009977160468684224
3574.0,0.01004985571378274
3573.0,0.01012890447590727
3572.0,0.010212794547938043
3571.0,0.010297910196587457
3570.0,0.010382430743532097
3569.0,0.010463643178504348
3568.0,0.010534991344578495
3567.0,0.010593860661859513
3566.0,0.01064898043114797
3565.0,0.01071083127549287
3564.0,0.010780445863000998
3563.0,0.010852402792231017
3562.0,0.01092420961672253
3561.0,0.010999880110458975
3560.0,0.011083530199358184
3559.0,0.01117289838301359
3558.0,0.011261301448757312
3557.0,0.011343270824016644
3556.0,0.011417049153159354
3555.0,0.01148451907402487
3554.0,0.011550667246646428
3553.0,0.011621309559536795
3552.0,0.011698691613440072
3551.0,0.011779528975286387
3550.0,0.01185827951666153
3549.0,0.011930912682048347
3548.0,0.011996918170450644
3547.0,0.012060123712408567
3546.0,0.012125719655043197
3545.0,0.012194023300272137
3544.0,0.012260683297953873
3543.0,0.012324298105660393
3542.0,0.01238995603375408
3541.0,0.012463126371991162
3540.0,0.01254307590454186
3539.0,0.012624190115935697
3538.0,0.012701732549026522
3537.0,0.012774234059501035
3536.0,0.012842056154423787
3535.0,0.012906577344035827
3534.0,0.012970156361574687
3533.0,0.013034393783839405
3532.0,0.013098165661410123
3531.0,0.013160079850774154
3530.0,0.013222435818722053
3529.0,0.013290383786528491
3528.0,0.013366546934348942
3527.0,0.013448198885631767
3526.0,0.013529140088561632
3525.0,0.013602864269820734
3524.0,0.01366627559536901
3523.0,0.013723332953843613
3522.0,0.01378318029618164
3521.0,0.01385178496343736
3520.0,0.01392642283617515
3519.0,0.013999828073704743
3518.0,0.014067957976846016
3517.0,0.014131835287338784
3516.0,0.014193763004334718
3515.0,0.014255514602563153
3514.0,0.01431963851098338
3513.0,0.01438921849773591
3512.0,0.014464730789113804
3511.0,0.014543329689573475
3510.0,0.014621761019016914
3509.0,0.014697940310848798
3508.0,0.01476974420374734
3507.0,0.014835271180042544
3506.0,0.014894677265246282
3505.0,0.0149505922993768
3504.0,0.015007036393148945
3503.0,0.015068178027312477
3502.0,0.015136320291948616
3501.0,0.015210179332280516
3500.0,0.015286205299363025
3499.0,0.015361932896921927
3498.0,0.015437124590701515
3497.0,0.015512104915077582
3496.0,0.015586785591224197
3495.0,0.01566139689211882
3494.0,0.015735852086985764
3493.0,0.01580760929849194
3492.0,0.015873019715052256
3491.0,0.015932429159167566
3490.0,0.01599178021657001
3489.0,0.01605678238477703
3488.0,0.016127639413802852
3487.0,0.016201423228915247
3486.0,0.016276564584727423
3485.0,0.016351799238729203
3484.0,0.016423586968825406
3483.0,0.016489017313501348
3482.0,0.016550381382520764
3481.0,0.016613274956775632
3480.0,0.016680917862216454
3479.0,0.016753167844371135
3478.0,0.016829025267206445
3477.0,0.016906755268589778
3476.0,0.01698319173917789
3475.0,0.01705640801701322
3474.0,0.01712809122712456
3473.0,0.017200343361215197
3472.0,0.017271843590914826
3471.0,0.01733989007880482
3470.0,0.01740470367927736
3469.0,0.017468922818383033
3468.0,0.01753442871995585
3467.0,0.017602368751821314
3466.0,0.01767406988027744
3465.0,0.017748250771119984
3464.0,0.01781939290094181
3463.0,0.017883377440596093
3462.0,0.017943821501803386
3461.0,0.01800867588594264
3460.0,0.01808118595795854
3459.0,0.018157879467970164
3458.0,0.01823422800984065
3457.0,0.018308342065794153
3456.0,0.018379651790012833
3455.0,0.018448180048631246
3454.0,0.01851559334284764
3453.0,0.018583753735440564
3452.0,0.018652102201655585
3451.0,0.018718993693293298
3450.0,0.018784762758875778
3449.0,0.01885096336865701
3448.0,0.018917764420437064
3447.0,0.018985380103435694
3446.0,0.01905644706370341
3445.0,0.019132866024052106
3444.0,0.01921119607380066
3443.0,0.019284612251465487
3442.0,0.01934904693176148
3441.0,0.019405238986514185
3440.0,0.019455939108218002
3439.0,0.019504496868277155
3438.0,0.019555575948540894
3437.0,0.019613191359525328
3436.0,0.019676901326119465
3435.0,0.01974228392903498
3434.0,0.01980518352497846
3433.0,0.019863677693718284
3432.0,0.01991764970317008
3431.0,0.01996969717638791
3430.0,0.020025181962592096
3429.0,0.02008776935646684
3428.0,0.02015499950156334
3427.0,0.02022075474607474
3426.0,0.02028115057799053
3425.0,0.020335580837024855
3424.0,0.020383906664122854
3423.0,0.020426188416076362
3422.0,0.02046469060206171
3421.0,0.020503290048386684
3420.0,0.020544712480988644
3419.0,0.02058953637192615
3418.0,0.020636058033174382
3417.0,0.020678998584878927
3416.0,0.020711443626250457
3415.0,0.020732430727357223
3414.0,0.020750948830630535
3413.0,0.020777779845361676
3412.0,0.020814361136154355
3411.0,0.020853416752797636
3410.0,0.020889014173579978
3409.0,0.020921884706211643
3408.0,0.020955717593917955
3407.0,0.020992837649644304
3406.0,0.02103343932630661
3405.0,0.02107468346017017
3404.0,0.02111015617912803
3403.0,0.021134713090776743
3402.0,0.021151309728465406
3401.0,0.021169585058543123
3400.0,0.02119633520762121
3399.0,0.02123028192140798
3398.0,0.02126675331951109
3397.0,0.02130366802230841
3396.0,0.021341004183561548
3395.0,0.021377247523058057
3394.0,0.021409370414227264
3393.0,0.02143625025953344
3392.0,0.021460908339447738
3391.0,0.021488959478720593
3390.0,0.021524280880053336
3389.0,0.021565248651229423
3388.0,0.02160532225294237
3387.0,0.021638456778330113
3386.0,0.021664198711646928
3385.0,0.021686929677660467
3384.0,0.021710785722256976
3383.0,0.021736457657214846
3382.0,0.021762030579720034
3381.0,0.021785167177542874
3380.0,0.021804863113374026
3379.0,0.02182242109255105
3378.0,0.02184033332373552
3377.0,0.021859581080843613
3376.0,0.021879076193560325
3375.0,0.021898405000185583
3374.0,0.02191902694558352
3373.0,0.021941168546158567
3372.0,0.021961441980120396
3371.0,0.02197586347172623
3370.0,0.021984360028452905
3369.0,0.02199060882010791
3368.0,0.02199863748823692
3367.0,0.02201149850575471
3366.0,0.02203149547615129
3365.0,0.022058389032192247
3364.0,0.022087781990575362
3363.0,0.022113969408037792
3362.0,0.022134611673571194
3361.0,0.022151019758013
3360.0,0.022164382268052087
3359.0,0.022173786640917414
3358.0,0.022178108212872878
3357.0,0.0221782687123465
3356.0,0.02217737375776619
3355.0,0.022179251043560125
3354.0,0.022186141386701594
3353.0,0.022197037980956014
3352.0,0.022209013198136427
3351.0,0.022220600278901183
3350.0,0.022232344880265802
3349.0,0.022243411533759236
3348.0,0.022250203355485776
3347.0,0.022250550819729313
3346.0,0.022247480137511128
3345.0,0.022246335295602666
3344.0,0.022249313128286406
3343.0,0.022254714698277944
3342.0,0.02225998141715427
3341.0,0.022263108664851806
3340.0,0.022262288035241315
3339.0,0.02225703721588771
3338.0,0.022249839010993387
3337.0,0.022244831733532887
3336.0,0.022244570548370736
3335.0,0.022248657294629066
3334.0,0.02225455449491846
3333.0,0.022258644422466178
3332.0,0.02225790365810976
3331.0,0.022252251564134844
3330.0,0.022244409458351322
3329.0,0.022236335792594052
3328.0,0.022227081447873782
3327.0,0.02221523855766216
3326.0,0.0222018239773129
3325.0,0.02218918805116621
3324.0,0.022178740761702835
3323.0,0.022171390650223204
3322.0,0.022168347023670994
3321.0,0.022169332193983555
3320.0,0.022171400478792694
3319.0,0.022171645445385555
3318.0,0.022169874424977035
3317.0,0.022166826154169567
3316.0,0.022161588523165188
3315.0,0.022153243427842535
3314.0,0.022143738304327476
3313.0,0.022136418911678765
3312.0,0.022132001843059492
3311.0,0.022127706249330945
3310.0,0.02211984123174238
3309.0,0.02210613399977828
3308.0,0.022087094139805783
3307.0,0.022066852911633898
3306.0,0.022051174072479526
3305.0,0.02204257085693266
3304.0,0.02203842403747786
3303.0,0.02203551471777911
3302.0,0.022034635315401178
3301.0,0.02203814097231756
3300.0,0.02204429982220463
3299.0,0.02204714193268236
3298.0,0.02204182222484412
3297.0,0.02202817270695015
3296.0,0.022009553669646725
3295.0,0.021990199114541347
3294.0,0.021973338412613435
3293.0,0.021959910335651277
3292.0,0.021948542142281532
3291.0,0.021937221024142577
3290.0,0.02192447153753481
3289.0,0.021908952109830685
3288.0,0.021889969348013384
3287.0,0.021869399799905546
3286.0,0.021850825105754704
3285.0,0.021835096647754824
3284.0,0.021818900367152498
3283.0,0.021799676547592343
3282.0,0.021779780748664584
3281.0,0.021763173878340605
3280.0,0.021749432721885942
3279.0,0.021733681583738933
3278.0,0.02171156383807752
3277.0,0.021682197715430583
3276.0,0.021647511841573805
3275.0,0.021611038754094977
3274.0,0.02157651599907002
3273.0,0.021545663431980427
3272.0,0.021517881321708864
3271.0,0.021492773970363966
3270.0,0.02147057411948031
3269.0,0.021448472363649235
3268.0,0.02141991543263391
3267.0,0.021381442924687775
3266.0,0.021338440698070397
3265.0,0.021300046803832885
3264.0,0.02126897904263673
3263.0,0.021239807155345514
3262.0,0.021206717094984534
3261.0,0.02116938083353785
3260.0,0.02113080771848512
3259.0,0.02109291692027934
3258.0,0.021055517018203438
3257.0,0.021017169905672574
3256.0,0.020975707669444264
3255.0,0.02092961551863279
3254.0,0.02088024538253529
3253.0,0.020831810512855927
3252.0,0.020788441580638042
3251.0,0.020751304408160257
3250.0,0.020718313302684727
3249.0,0.020685957449580416
3248.0,0.020651698695681862
3247.0,0.020615450950293854
3246.0,0.020578818938005502
3245.0,0.02054293590261711
3244.0,0.02050758457901579
3243.0,0.020471924660025502
3242.0,0.020434614349525433
3241.0,0.02039352984146182
3240.0,0.020347590266553698
3239.0,0.0202993491827775
3238.0,0.020253472094072182
3237.0,0.020211823405359635
3236.0,0.020172171330317804
3235.0,0.02013233029775394
3234.0,0.020092514941035422
3233.0,0.020052293693475495
3232.0,0.020008972364850514
3231.0,0.01996167081048166
3230.0,0.01991415278951923
3229.0,0.019870344533126874
3228.0,0.019828960470592266
3227.0,0.019785772294638022
3226.0,0.019739608628214993
3225.0,0.01969289425477416
3224.0,0.019647400615001007
3223.0,0.019602483557057356
3222.0,0.019556907188810275
3221.0,0.019510032947670054
3220.0,0.01946172641837418
3219.0,0.01941301876944562
3218.0,0.019365859956683083
3217.0,0.019320503759206333
3216.0,0.01927445929615806
3215.0,0.01922606355896651
3214.0,0.019177586011576025
3213.0,0.0191322126628614
3212.0,0.019089262232428225
3211.0,0.01904514194768111
3210.0,0.01899808859085262
3209.0,0.018949512634254182
3208.0,0.01890150679493451
3207.0,0.01885530003146985
3206.0,0.01881100544413315
3205.0,0.018766405819925277
3204.0,0.018717260542058495
3203.0,0.01866194346703918
3202.0,0.018604942865992753
3201.0,0.01855264159442462
3200.0,0.018505807771732382
3199.0,0.018458937293342453
3198.0,0.018406716029153194
3197.0,0.018348636766563953
3196.0,0.01828755450176575
3195.0,0.018226691728865495
3194.0,0.018168432530731353
3193.0,0.018113415107860305
3192.0,0.01805997220551126
3191.0,0.018005942321412064
3190.0,0.01795119907346838
3189.0,0.01789684856982485
3188.0,0.017842199500797237
3187.0,0.017784739703451076
3186.0,0.017723607051713375
3185.0,0.017661585238495647
3184.0,0.017602724837673243
3183.0,0.01754846182489003
3182.0,0.01749584375220749
3181.0,0.017439275820480434
3180.0,0.017375397468214062
3179.0,0.017307505024817777
3178.0,0.017243776635423362
3177.0,0.01718935398319058
3176.0,0.017141025626419615
3175.0,0.017091023458741802
3174.0,0.01703466433503361
3173.0,0.016972789334502598
3172.0,0.016908647397081658
3171.0,0.016844982778133753
3170.0,0.016783359912904562
3169.0,0.016723899066401263
3168.0,0.016665847864041183
3167.0,0.016609615264498865
3166.0,0.016556769533460466
3165.0,0.016506440348032416
3164.0,0.016453615740631786
3163.0,0.0163936920466847
3162.0,0.01632772092285727
3161.0,0.01626065629077701
3160.0,0.016195522153181888
3159.0,0.016132143473782473
3158.0,0.01607048309849171
3157.0,0.016011486438320576
3156.0,0.015954648195958668
3155.0,0.015898141247213143
3154.0,0.015842003296786207
3153.0,0.015788635916762515
3152.0,0.015739414464725418
3151.0,0.015692532995720855
3150.0,0.01564459809031339
3149.0,0.015592839341403406
3148.0,0.015535869124360623
3147.0,0.0154745788018175
3146.0,0.015412806231957826
3145.0,0.015355092805521168
3144.0,0.015302693197932125
3143.0,0.015252624437169002
3142.0,0.015200993173134246
3141.0,0.015146846487142256
3140.0,0.015093277036871054
3139.0,0.015045255365817588
3138.0,0.015005292224446541
3137.0,0.01496998490649809
3136.0,0.014931875359162853
3135.0,0.014886049765695578
3134.0,0.01483414684810059
3133.0,0.014781159550030558
3132.0,0.014730036389743816
3131.0,0.014680956496882655
3130.0,0.014633641028000056
3129.0,0.014587096990499399
3128.0,0.014538431391637133
3127.0,0.014485626009704131
3126.0,0.014431196413148155
3125.0,0.01438018892688548
3124.0,0.014334460834286154
3123.0,0.014290934009747382
3122.0,0.014245414330812986
3121.0,0.014196136430563305
3120.0,0.014144253576345175
3119.0,0.01409362309325327
3118.0,0.014049787228135033
3117.0,0.014016170048783652
3116.0,0.01399039882491553
3115.0,0.013965903974043715
3114.0,0.013937509019744845
3113.0,0.013904441271807559
3112.0,0.013868965100488802
3111.0,0.013834426208464121
3110.0,0.01380390718320278
3109.0,0.013778208288076133
3108.0,0.013754913219903454
3107.0,0.013730973116734938
3106.0,0.013705622583158123
3105.0,0.013678790116017997
3104.0,0.013648009339151508
3103.0,0.013610127780128798
3102.0,0.013565660978763348
3101.0,0.013518871131432741
3100.0,0.013473302061560367
3099.0,0.013429561154557054
3098.0,0.013387185428940488
3097.0,0.013345461772769945
3096.0,0.013302429309000557
3095.0,0.013256162099775684
3094.0,0.013208211758623608
3093.0,0.013163441499439394
3092.0,0.013125521578523192
3091.0,0.013094375703795989
3090.0,0.013068051614316106
3089.0,0.01304482518563354
3088.0,0.013022976125377596
3087.0,0.013000524166049432
3086.0,0.012976351694312662
3085.0,0.012950353287528119
3084.0,0.012922488350210308
3083.0,0.012893157843024366
3082.0,0.01286386762674677
3081.0,0.01283515107251571
3080.0,0.012803998881701074
3079.0,0.012766577753918635
3078.0,0.0127241227766482
3077.0,0.012683295386696413
3076.0,0.012649336935201885
3075.0,0.012620722461973261
3074.0,0.012592095063336493
3073.0,0.012560361259659732
3072.0,0.012526245703860175
3071.0,0.012491179960165208
3070.0,0.0124544633198969
3069.0,0.012414110330385753
3068.0,0.012370096405815146
3067.0,0.012326078061255219
3066.0,0.01228665727973252
3065.0,0.012252036125507208
3064.0,0.012216729175232699
3063.0,0.012175394088343871
3062.0,0.012128616599277678
3061.0,0.012081047702095084
3060.0,0.012035376436291196
3059.0,0.011990897719344014
3058.0,0.011947818816669311
3057.0,0.011908925756206841
3056.0,0.011875809290085162
3055.0,0.01184551599273219
3054.0,0.011812349749182263
3053.0,0.011771777154118227
3052.0,0.01172211418335104
3051.0,0.011664527457786086
3050.0,0.011602144521613329
3049.0,0.011537959688280877
3048.0,0.011472830503134586
3047.0,0.011406214593030317
3046.0,0.011338256002405196
3045.0,0.011269893648499209
3044.0,0.011201498825510067
3043.0,0.011133641830640905
3042.0,0.011068908965586094
3041.0,0.011010801463754853
3040.0,0.010960529871873157
3039.0,0.010916519756077256
3038.0,0.010876738051307495
3037.0,0.010839073243945454
3036.0,0.010800238832312604
3035.0,0.01075743872986831
3034.0,0.010712079934988258
3033.0,0.01066893487606703
3032.0,0.010630812750892338
3031.0,0.010596053283659451
3030.0,0.01056168365157138
3029.0,0.010526302764964765
3028.0,0.010489193257803401
3027.0,0.010450336628074963
3026.0,0.01041291219512098
3025.0,0.010382718893368819
3024.0,0.010362154283239682
3023.0,0.010346714318486518
3022.0,0.010329360783230773
3021.0,0.01030710923106014
3020.0,0.010281256741732938
3019.0,0.010253466698610327
3018.0,0.010224570937236764
3017.0,0.010196527236881655
3016.0,0.010172415388871845
3015.0,0.010153769918575216
3014.0,0.010139239224948287
3013.0,0.010126273467867238
3012.0,0.01011328176080855
3011.0,0.010100065341927082
3010.0,0.010086995631897253
3009.0,0.010074059724551155
3008.0,0.010060860214450068
3007.0,0.010047794274341222
3006.0,0.0100365971663774
3005.0,0.010028606733355368
3004.0,0.010022445198403283
3003.0,0.010015244500306497
3002.0,0.01000633318206127
3001.0,0.009998368186492116
3000.0,0.009993679973648008
2999.0,0.009991450229347271
2998.0,0.009989438004789403
2997.0,0.009987452732011836
2996.0,0.00998722151323974
2995.0,0.00998967891183603
2994.0,0.009994249480053742
2993.0,0.010000765692842884
2992.0,0.010010442814657624
2991.0,0.01002442878837699
2990.0,0.01004247685355879
2989.0,0.010063573029453474
2988.0,0.010086986003810793
2987.0,0.010111935634373058
2986.0,0.010136989166550986
2985.0,0.010161158222981814
2984.0,0.01018568313541788
2983.0,0.010213600467458152
2982.0,0.010246739302847965
2981.0,0.010283997480283528
2980.0,0.010323691281150385
2979.0,0.010366874008023727
2978.0,0.010416629472376872
2977.0,0.010473850005534874
2976.0,0.010535574610622624
2975.0,0.010598048207240323
2974.0,0.010660143455513896
2973.0,0.010722677890273655
2972.0,0.010786059269166703
2971.0,0.010850100880004512
2970.0,0.010915424168191244
2969.0,0.0109830577812146
2968.0,0.011052302135937416
2967.0,0.011119904477665624
2966.0,0.011181563855262502
2965.0,0.011233962652155177
2964.0,0.011275977578911184
2963.0,0.011308328074876833
2962.0,0.011331900057699986
2961.0,0.011345983589705568
2960.0,0.01134892472898076
2959.0,0.011340142552173698
2958.0,0.011320470025032564
2957.0,0.011290193750713412
2956.0,0.011248643679632641
2955.0,0.01119648969188922
2954.0,0.011137011652890008
2953.0,0.011073670990241832
2952.0,0.011007743627964021
2951.0,0.010939455353534496
2950.0,0.010870003992421292
2949.0,0.0108008353272499
2948.0,0.010731890887598563
2947.0,0.01066253361991469
2946.0,0.010593585169412117
2945.0,0.010527367414271953
2944.0,0.010466194553732449
2943.0,0.010412004256904804
2942.0,0.01036641962685013
2941.0,0.010329602616764954
2940.0,0.01029960695560871
2939.0,0.010274085200162965
2938.0,0.010252038175900608
2937.0,0.010232779512152288
2936.0,0.01021453148441137
2935.0,0.010195773668127062
2934.0,0.010176582081427046
2933.0,0.010156960589588244
2932.0,0.010134973862684386
2931.0,0.010108822738168785
2930.0,0.010079936876145395
2929.0,0.010051586209887326
2928.0,0.010024884563321491
2927.0,0.00999777322885081
2926.0,0.009967485922505953
2925.0,0.009931899607477177
2924.0,0.009889211187776172
2923.0,0.009838632310381836
2922.0,0.009781477289224186
2921.0,0.009720464673754608
2920.0,0.009658228891526219
2919.0,0.00959733827798965
2918.0,0.009540003177411766
2917.0,0.00948616989531453
2916.0,0.009433091627617707
2915.0,0.009378648347828063
2914.0,0.0093240211655687
2913.0,0.009272049190080192
2912.0,0.009224234777350205
2911.0,0.009180748460005028
2910.0,0.009141527332852584
2909.0,0.00910543318461624
2908.0,0.009069628158205435
2907.0,0.009031704594628185
2906.0,0.00899174810078508
2905.0,0.00895110674992366
2904.0,0.008910512022296384
2903.0,0.008871092102052985
2902.0,0.00883535702180282
2901.0,0.008804657522849719
2900.0,0.008776993343872082
2899.0,0.008749396180312664
2898.0,0.008721737177306335
2897.0,0.008695647049443032
2896.0,0.00867091163778391
2895.0,0.008645902387070453
2894.0,0.008620778731719514
2893.0,0.008597386098001003
2892.0,0.008575930655992327
2891.0,0.008554062953892381
2890.0,0.008529655664039985
2889.0,0.008502443054559973
2888.0,0.008473289812192109
2887.0,0.008443682385411723
2886.0,0.008415845003330332
2885.0,0.008391154879628767
2884.0,0.008368409186048822
2883.0,0.008345141444186075
2882.0,0.00832048732149838
2881.0,0.008295148419426412
2880.0,0.008269133158353629
2879.0,0.008241762318548689
2878.0,0.008213559402053056
2877.0,0.00818597667522162
2876.0,0.008159387110740955
2875.0,0.008133316381716549
2874.0,0.008108463101041626
2873.0,0.008086032934223305
2872.0,0.008064695795501883
2871.0,0.008040586729336762
2870.0,0.00801154190712291
2869.0,0.007979444679860302
2868.0,0.007947633361041052
2867.0,0.007917381883369918
2866.0,0.007887884722452275
2865.0,0.007858658830918968
2864.0,0.00783060764425837
2863.0,0.007805122653002369
2862.0,0.007782752892198857
2861.0,0.007762831646271758
2860.0,0.007744544786723092
2859.0,0.007728012278800076
2858.0,0.007713281689142943
2857.0,0.007697941405519068
2856.0,0.007677203607217277
2855.0,0.007647650844961072
2854.0,0.007609898329989781
2853.0,0.00756643278252123
2852.0,0.007518364354139875
2851.0,0.007465573990108974
2850.0,0.007409082583280106
2849.0,0.007351162077927088
2848.0,0.007293179332490383
2847.0,0.007234486478184031
2846.0,0.007173191606859678
2845.0,0.007107473255954403
2844.0,0.007037540788310462
2843.0,0.0069672732261184915
2842.0,0.00690239148145245
2841.0,0.006845733920127722
2840.0,0.006795005928826
2839.0,0.006746532075983101
2838.0,0.006699571925572856
2837.0,0.006655810305566515
2836.0,0.0066160904125655215
2835.0,0.006579564839848551
2834.0,0.006545168745064025
2833.0,0.006512131789750056
2832.0,0.006479691298916401
2831.0,0.006447838643540944
2830.0,0.006417706986755466
2829.0,0.006390039552618996
2828.0,0.0063640028139255594
2827.0,0.006338299272549622
2826.0,0.006312259300362916
2825.0,0.006285039005975171
2824.0,0.006255837835296244
2823.0,0.006226184267426844
2822.0,0.006199762457386479
2821.0,0.00617810773351315
2820.0,0.006158330537785374
2819.0,0.006137239648075798
2818.0,0.006115554925630094
2817.0,0.006095571960632172
2816.0,0.006076769208362704
2815.0,0.006056782024618079
2814.0,0.0060352190287845464
2813.0,0.006013544550183264
2812.0,0.005992430834890997
2811.0,0.005972069432942232
2810.0,0.005953897584615423
2809.0,0.0059387499042817
2808.0,0.005924164168279256
2807.0,0.005906865572684735
2806.0,0.005887287535968359
2805.0,0.005868484367479306
2804.0,0.005851128766884643
2803.0,0.005832860980479464
2802.0,0.00581256733016757
2801.0,0.005792101002546148
2800.0,0.005773214720363981
2799.0,0.005755402980369386
2798.0,0.005737399299942757
2797.0,0.005718573922538638
2796.0,0.005698440398265638
2795.0,0.00567691676034764
2794.0,0.005655432078478576
2793.0,0.0056359790084537535
2792.0,0.005618946759382154
2791.0,0.005603375293508736
2790.0,0.005588956287728206
2789.0,0.005575996353982497
2788.0,0.0055637169704195084
2787.0,0.005550573555935861
2786.0,0.005535989219692802
2785.0,0.005520189416430146
2784.0,0.00550292870410912
2783.0,0.005484259350181184
2782.0,0.005465927108204856
2781.0,0.0054498141566916136
2780.0,0.005435394875350386
2779.0,0.005420636751730191
2778.0,0.005404753523047744
2777.0,0.005388325657706845
2776.0,0.005371677868465618
2775.0,0.005355316676837044
2774.0,0.005340917431454663
2773.0,0.0053292501774817895
2772.0,0.005317928003238221
2771.0,0.005303989169784209
2770.0,0.005288224275441945
2769.0,0.005274116020676346
2768.0,0.005263060679921198
2767.0,0.005253584329042372
2766.0,0.005244678259457508
2765.0,0.0052363026548648125
2764.0,0.005226625050845065
2763.0,0.00521262525130841
2762.0,0.005194725157253555
2761.0,0.005177621517907593
2760.0,0.005164913545919134
2759.0,0.005155180739322257
2758.0,0.005144853960326478
2757.0,0.0051329382626531484
2756.0,0.005121025355612866
2755.0,0.005109973858779818
2754.0,0.005098388681857969
2753.0,0.005084291658343694
2752.0,0.005067504360629289
2751.0,0.005050238633469476
2750.0,0.005035118044059726
2749.0,0.005022399736270894
2748.0,0.005009957687218379
2747.0,0.004996445594581132
2746.0,0.004983318397326433
2745.0,0.004972590752075109
2744.0,0.004963893596763463
2743.0,0.00495532010570249
2742.0,0.00494591419499483
2741.0,0.004935532659476559
2740.0,0.004923351131719194
2739.0,0.004908783690424289
2738.0,0.00489326070544685
2737.0,0.004879009399619495
2736.0,0.004866509236265828
2735.0,0.004854714073603795
2734.0,0.004843037057844194
2733.0,0.004831344330254991
2732.0,0.00481896012615132
2731.0,0.004805704553598522
2730.0,0.0047930525826442305
2729.0,0.004782206573292495
2728.0,0.0047719134867036245
2727.0,0.004760261455937054
2726.0,0.00474766298373612
2725.0,0.004735728884926504
2724.0,0.0047241641663841065
2723.0,0.004711292802942445
2722.0,0.004697052647167569
2721.0,0.004682911766792037
2720.0,0.004669309458186104
2719.0,0.00465568828260014
2718.0,0.00464254772953344
2717.0,0.004631021553208798
2716.0,0.004620866895047265
2715.0,0.004611100386856387
2714.0,0.004601958464468023
2713.0,0.004593756621697426
2712.0,0.004584574468937182
2711.0,0.0045719180268756305
2710.0,0.0045565224139976455
2709.0,0.0045418786209547035
2708.0,0.004530358298246707
2707.0,0.004522038421087485
2706.0,0.004516442282289407
2705.0,0.004512373374178695
2704.0,0.004506584454587516
2703.0,0.0044962053239557065
2702.0,0.004482817292531523
2701.0,0.004471024586844388
2700.0,0.004462642442225858
2699.0,0.004455191902366426
2698.0,0.004446377102736799
2697.0,0.004436923665165364
2696.0,0.0044280031102822415
2695.0,0.004418932235905593
2694.0,0.0044087925863139105
2693.0,0.004398107877728201
2692.0,0.0043876766606770175
2691.0,0.004377493198414663
2690.0,0.0043677759129522615
2689.0,0.004359372062893041
2688.0,0.004352187098575818
2687.0,0.0043446360842992575
2686.0,0.004335339954152372
2685.0,0.004324330672468398
2684.0,0.00431237857293008
2683.0,0.004300350317702422
2682.0,0.004289293044328038
2681.0,0.004279870247951029
2680.0,0.0042718026735710695
2679.0,0.004265001731052767
2678.0,0.004260564940769186
2677.0,0.004258925081742809
2676.0,0.004257797285153785
2675.0,0.004254234325212991
2674.0,0.004248374812122527
2673.0,0.004242757341687357
2672.0,0.004237952521235293
2671.0,0.004231481970581401
2670.0,0.00422167726256541
2669.0,0.004210681409613379
2668.0,0.004202961799565161
2667.0,0.0042024463273577384
2666.0,0.004211222688989283
2665.0,0.004228973977179893
2664.0,0.004252702224283918
2663.0,0.00427820012220246
2662.0,0.004302157648509138
2661.0,0.004322541514025215
2660.0,0.004337739998578711
2659.0,0.0043473380316170485
2658.0,0.004353558439349308
2657.0,0.004359962860935021
2656.0,0.004368204597824656
2655.0,0.004377199740127337
2654.0,0.00438535051872786
2653.0,0.004392314102897339
2652.0,0.004398658197262961
2651.0,0.004405143568250247
2650.0,0.0044122412798702475
2649.0,0.0044192912043940465
2648.0,0.004424511953240215
2647.0,0.004426849996419881
2646.0,0.004427102996464438
2645.0,0.004426257204404335
2644.0,0.004423974165707902
2643.0,0.004420190024511268
2642.0,0.0044167324070015935
2641.0,0.004415395884814096
2640.0,0.004415721645343314
2639.0,0.004416712699647684
2638.0,0.004419080880075335
2637.0,0.004423214410010664
2636.0,0.004426484900005398
2635.0,0.004426027664955881
2634.0,0.004423498672404803
2633.0,0.004423717871038186
2632.0,0.004428795749965285
2631.0,0.0044362499822918925
2630.0,0.004442618899053622
2629.0,0.004446314159216459
2628.0,0.004447295991565471
2627.0,0.0044468121772818486
2626.0,0.004447106167916399
2625.0,0.004448937574372203
2624.0,0.0044496472950192574
2623.0,0.004446119350442229
2622.0,0.004438833830890098
2621.0,0.004430778743319802
2620.0,0.00442359587907922
2619.0,0.004417640000476978
2618.0,0.00441431153512194
2617.0,0.00441440464190852
2616.0,0.004414990441811943
2615.0,0.00441192383597627
2614.0,0.00440533993276486
2613.0,0.004399238925098898
2612.0,0.004396015970875125
2611.0,0.004394878876145377
2610.0,0.004395144427897874
2609.0,0.004396840814560917
2608.0,0.004397835374113205
2607.0,0.004394507833629611
2606.0,0.004386415669607997
2605.0,0.00437751727741102
2604.0,0.004371901763405186
2603.0,0.004370343455534032
2602.0,0.004370779393612586
2601.0,0.004369590986622081
2600.0,0.004363074145866818
2599.0,0.004350930469824627
2598.0,0.004338106911241501
2597.0,0.004330365942988018
2596.0,0.004328071585869294
2595.0,0.004326867019032138
2594.0,0.004323832842585103
2593.0,0.004319886641864558
2592.0,0.004317005203280764
2591.0,0.0043162560366626305
2590.0,0.0043179122828506935
2589.0,0.00432046883215442
2588.0,0.004320185875709736
2587.0,0.004314748268770582
2586.0,0.004306544958755914
2585.0,0.004299530638280398
2584.0,0.004294422907286195
2583.0,0.004290222429214931
2582.0,0.004288246340831026
2581.0,0.004289981440089355
2580.0,0.004292260953788138
2579.0,0.0042897834018552515
2578.0,0.004282190272135795
2577.0,0.004274293143861111
2576.0,0.004269265241728771
2575.0,0.004265642799410855
2574.0,0.0042611475533171446
2573.0,0.004255730828042992
2572.0,0.004250812188816017
2571.0,0.004248512107641513
2570.0,0.004250659595668922
2569.0,0.004255329274594597
2568.0,0.0042559625270335326
2567.0,0.004248113219866004
2566.0,0.004235862472627059
2565.0,0.00422695278715781
2564.0,0.004222893058730193
2563.0,0.004219059306328943
2562.0,0.004213496202302253
2561.0,0.0042096000577387035
2560.0,0.004209596290822795
2559.0,0.004210605470751268
2558.0,0.004208593201892792
2557.0,0.004202262479210484
2556.0,0.0041923242528573235
2555.0,0.004180602337639604
2554.0,0.004170414563923289
2553.0,0.004164603335012236
2552.0,0.004162949762083414
2551.0,0.0041641321847632464
2550.0,0.004168941911640164
2549.0,0.004177781798299033
2548.0,0.004186308070413662
2547.0,0.004188443061789891
2546.0,0.004183556397347023
2545.0,0.004176445830503925
2544.0,0.00417065476307762
2543.0,0.00416619714060786
2542.0,0.0041634365182137345
2541.0,0.004164191545910747
2540.0,0.004168093398545464
2539.0,0.004171914497570602
2538.0,0.004173349462387369
2537.0,0.004172436836454217
2536.0,0.004169682536488704
2535.0,0.004166394395187879
2534.0,0.004166291495963379
2533.0,0.004172435092645723
2532.0,0.004182237930395413
2531.0,0.004189288727872514
2530.0,0.004190531211991231
2529.0,0.004188626681175411
2528.0,0.004187628718856853
2527.0,0.004189639348047916
2526.0,0.004195258666027596
2525.0,0.004203484123940282
2524.0,0.004210884967063795
2523.0,0.004213995895670801
2522.0,0.004212662544036627
2521.0,0.0042088430240874745
2520.0,0.004203226147328414
2519.0,0.00419580507384622
2518.0,0.004188375874685717
2517.0,0.0041831398230358415
2516.0,0.004179853707582394
2515.0,0.004177267741262122
2514.0,0.004175525153806566
2513.0,0.004173672911039735
2512.0,0.004167144288364981
2511.0,0.004152487194255454
2510.0,0.004133461302306577
2509.0,0.004117996865441367
2508.0,0.004109459105550206
2507.0,0.00410440279613317
2506.0,0.004097878189649645
2505.0,0.004087158801606296
2504.0,0.0040713882780281105
2503.0,0.004051763246819334
2502.0,0.004031772809459
2501.0,0.004014238034279246
2500.0,0.003999021070987527
2499.0,0.00398581476894033
2498.0,0.0039763292988295364
2497.0,0.003970218622485525
2496.0,0.003962152635479495
2495.0,0.003947960048118161
2494.0,0.00393118276228778
2493.0,0.00391811444204708
2492.0,0.003908258620219455
2491.0,0.003895470590497681
2490.0,0.0038773117901916617
2489.0,0.0038575677820925887
2488.0,0.0038401206953877646
2487.0,0.003825591645604502
2486.0,0.003813699075022837
2485.0,0.003804023219004595
2484.0,0.0037944063074674787
2483.0,0.0037825640560392153
2482.0,0.003768962882927632
2481.0,0.003755105888267494
2480.0,0.0037406907082670254
2479.0,0.0037259312963515423
2478.0,0.0037141528380436935
2477.0,0.003707619955149812
2476.0,0.0037031856077460474
2475.0,0.0036968385234718622
2474.0,0.0036898428885266694
2473.0,0.0036849837689426814
2472.0,0.0036797476180980473
2471.0,0.0036699710613335426
2470.0,0.0036581705096534016
2469.0,0.00365099511524638
2468.0,0.0036492948961977523
2467.0,0.0036476032206538243
2466.0,0.003643071598832792
2465.0,0.0036382373599925027
2464.0,0.0036349097935556096
2463.0,0.0036318303472918896
2462.0,0.0036290681974526133
2461.0,0.00362887919630071
2460.0,0.003631383604631443
2459.0,0.0036345067185959926
2458.0,0.0036384252807709775
2457.0,0.003644791293762428
2456.0,0.003651464414598839
2455.0,0.0036536979409540742
2454.0,0.003651261952426675
2453.0,0.0036490156787282665
2452.0,0.0036493660383627585
2451.0,0.00364911517472244
2450.0,0.00364493949546586
2449.0,0.0036373596420084314
2448.0,0.0036280050957122143
2447.0,0.003617112571551481
2446.0,0.0036050669668644727
2445.0,0.003593052053257442
2444.0,0.003581488992099028
2443.0,0.003570821985276409
2442.0,0.0035635225386933178
2441.0,0.0035615737977575624
2440.0,0.0035620799606053254
2439.0,0.0035592390454581065
2438.0,0.0035510272029176167
2437.0,0.003540922362857606
2436.0,0.003533264167236914
2435.0,0.003529674820539096
2434.0,0.0035291036815787245
2433.0,0.003528290882360849
2432.0,0.0035233454042471234
2431.0,0.0035140564928429364
2430.0,0.003505281276045588
2429.0,0.003501035654980683
2428.0,0.003499194046185556
2427.0,0.003495325820410345
2426.0,0.003489128840353799
2425.0,0.0034830145492953752
2424.0,0.0034771038061267735
2423.0,0.0034704910732624907
2422.0,0.0034650920438242293
2421.0,0.0034629725743417824
2420.0,0.0034617829881191933
2419.0,0.0034579220486959635
2418.0,0.0034522305093678705
2417.0,0.003447596866960067
2416.0,0.003443429962279864
2415.0,0.0034381959376461923
2414.0,0.0034352456033487242
2413.0,0.003439558237077309
2412.0,0.0034494039722671324
2411.0,0.0034568203535650177
2410.0,0.0034556817623534013
2409.0,0.003444627106573594
2408.0,0.0034242207655681787
2407.0,0.0033977426762880096
2406.0,0.0033735713489639937
2405.0,0.0033596088336807495
2404.0,0.0033548517562599165
2403.0,0.0033518223982013425
2402.0,0.0033467454133606694
2401.0,0.0033418306631943584
2400.0,0.0033382845567174494
2399.0,0.003333648860982678
2398.0,0.0033270189536595083
2397.0,0.0033213309409261945
2396.0,0.003318849341833612
2395.0,0.0033184885481030504
2394.0,0.0033184900489061893
2393.0,0.0033179895747527995
2392.0,0.0033156324814421897
2391.0,0.0033100554934005185
2390.0,0.0033016379514562086
2389.0,0.0032907978132727424
2388.0,0.0032755416850077943
2387.0,0.0032543491815307654
2386.0,0.003230352419851616
2385.0,0.003208402354910665
2384.0,0.0031885207939911214
2383.0,0.003166394473769184
2382.0,0.003140154666434739
2381.0,0.0031128032460928396
2380.0,0.0030882449560351768
2379.0,0.0030692990270201085
2378.0,0.0030590182599456693
2377.0,0.0030569839091175426
2376.0,0.003054114212799789
2375.0,0.0030407564712081267
2374.0,0.0030215573478832884
2373.0,0.0030108205409793616
2372.0,0.0030080747706338153
2371.0,0.0029924259598322124
2370.0,0.002951417669085687
2369.0,0.0029011659399698774
2368.0,0.002865965726714834
2367.0,0.002853593166137295
2366.0,0.0028624671996810664
2365.0,0.0028925834792299897
2364.0,0.0029316365312779297
2363.0,0.002953996124367824
2362.0,0.002951652753833817
2361.0,0.0029444825567255255
2360.0,0.002953517199598121
2359.0,0.0029792751494300057
2358.0,0.003007835050791531
2357.0,0.003023537850831688
2356.0,0.0030131341383619384
2355.0,0.002980683337781781
2354.0,0.002948895328218433
2353.0,0.0029352893411804487
2352.0,0.0029372678471882834
2351.0,0.0029420106647300584
2350.0,0.0029462608292338934
2349.0,0.0029535355407545446
2348.0,0.0029636525680683153
2347.0,0.002973539922906672
2346.0,0.0029836527057517876
2345.0,0.0030033994553513438
2344.0,0.00303051526740636
2343.0,0.003050314444039551
2342.0,0.003059021730828502
2341.0,0.003065273519157292
2340.0,0.003073791759190508
2339.0,0.0030776779223290916
2338.0,0.0030752168064942112
2337.0,0.003070411963239086
2336.0,0.003062201503966475
2335.0,0.003044235651734255
2334.0,0.0030206112872828957
2333.0,0.003004503809827067
2332.0,0.0030046813108878944
2331.0,0.0030162813815900035
2330.0,0.0030375851747689838
2329.0,0.0030794913241003375
2328.0,0.003159509052178512
2327.0,0.003289029821094574
2326.0,0.0034536039588750475
2325.0,0.003609862347715263
2324.0,0.003700314718080515
2323.0,0.0036989922696687542
2322.0,0.0036355260789888077
2321.0,0.0035622261375144286
2320.0,0.003507691742202155
2319.0,0.003469918213183083
2318.0,0.003445205989509017
2317.0,0.00343312764300474
2316.0,0.0034284591721858004
2315.0,0.003420866668911368
2314.0,0.0034083271140549955
2313.0,0.003396886860261592
2312.0,0.0033900155155062433
2311.0,0.003385792290704669
2310.0,0.003383863432104019
2309.0,0.003386482649623531
2308.0,0.0033930035417459523
2307.0,0.0034023422588101617
2306.0,0.003416685253387868
2305.0,0.0034369750968368754
2304.0,0.0034571105493173644
2303.0,0.003470688775354682
2302.0,0.0034804143474235164
2301.0,0.003493275542847175
2300.0,0.003509832174511511
2299.0,0.0035259946637460782
2298.0,0.003543119845518696
2297.0,0.0035671866999538804
2296.0,0.0035992152767676203
2295.0,0.0036355216065802835
2294.0,0.003675358353080278
2293.0,0.003721259324100973
2292.0,0.003771262668389604
2291.0,0.0038200057308730813
2290.0,0.0038654447518653547
2289.0,0.003908447697316341
2288.0,0.00394600062522623
2287.0,0.003973144096924475
2286.0,0.0039899811061578
2285.0,0.003999368336869983
2284.0,0.003998648537625533
2283.0,0.0039826402947042965
2282.0,0.003954480102795111
2281.0,0.003925145383033879
2280.0,0.0039011361763210527
2279.0,0.003880467428392621
2278.0,0.0038609877901727195
2277.0,0.0038441111719325393
2276.0,0.0038300473171496074
2275.0,0.0038173794815289236
2274.0,0.00380787474109828
2273.0,0.0038037326659161007
2272.0,0.003801115277962665
2271.0,0.00379439525718284
2270.0,0.0037844698813119873
2269.0,0.0037743037216570463
2268.0,0.0037600178817701153
2267.0,0.003737531534875418
2266.0,0.0037143185414609745
2265.0,0.003701848275974402
2264.0,0.0036988692476918727
2263.0,0.0036959193414538407
2262.0,0.0036944400248858185
2261.0,0.0037067437792164615
2260.0,0.003736278458714568
2259.0,0.0037700453817786092
2258.0,0.0037911481797454913
2257.0,0.0037877347598744187
2256.0,0.0037542366105478963
2255.0,0.003697579598881312
2254.0,0.003642107490534505
2253.0,0.003612480763690663
2252.0,0.0036113834054865785
2251.0,0.0036242431660263074
2250.0,0.003642398193480098
2249.0,0.0036656211810334677
2248.0,0.003687243605769209
2247.0,0.0036957413533635214
2246.0,0.00369396647269357
2245.0,0.0036980108570917247
2244.0,0.003713674153960622
2243.0,0.0037292175381886984
2242.0,0.003734686530035128
2241.0,0.0037330277181914368
2240.0,0.0037300610702420273
2239.0,0.0037274372250663598
2238.0,0.0037280581127981287
2237.0,0.0037339971238348176
2236.0,0.003736951205213796
2235.0,0.003725254701285696
2234.0,0.0037023407549014262
2233.0,0.0036845726906071337
2232.0,0.0036793590702876022
2231.0,0.003680735804970253
2230.0,0.0036859292613942544
2229.0,0.003698348905429978
2228.0,0.0037124074053919466
2227.0,0.0037145080699816507
2226.0,0.0037035891606313695
2225.0,0.003694270667681793
2224.0,0.00369508014564128
2223.0,0.0036995870029031966
2222.0,0.003702737977901529
2221.0,0.0037088051323384127
2220.0,0.003717844007832571
2219.0,0.003720524364263158
2218.0,0.003713067823671079
2217.0,0.0037036610297812274
2216.0,0.003699184094019468
2215.0,0.0036978674113440383
2214.0,0.003697949073056008
2213.0,0.0037000123900023246
2212.0,0.003699095777617527
2211.0,0.0036893877289078765
2210.0,0.003678399707466519
2209.0,0.003681435051992617
2208.0,0.0036997960395959203
2207.0,0.003718818386046421
2206.0,0.003728451989726005
2205.0,0.0037300739755019045
2204.0,0.0037240213455212966
2203.0,0.0037086182865376073
2202.0,0.0036930109681259614
2201.0,0.0036921010699704753
2200.0,0.003704529185802094
2199.0,0.003713291320996074
2198.0,0.003710982426021219
2197.0,0.0037077296736794897
2196.0,0.003711463154752702
2195.0,0.0037174881182578407
2194.0,0.0037212103348505093
2193.0,0.003725098148884434
2192.0,0.0037302612711869448
2191.0,0.0037368543958096025
2190.0,0.0037539358600341835
2189.0,0.003791334466659518
2188.0,0.0038400343543944565
2187.0,0.0038770468768908562
2186.0,0.0038889009451562664
2185.0,0.003872964117205175
2184.0,0.0038198100745023573
2183.0,0.0037220038232370035
2182.0,0.003606181410358772
2181.0,0.00352893701007149
2180.0,0.0035243228892676785
2179.0,0.003569969678345607
2178.0,0.003612194845599206
2177.0,0.0036111671134579177
2176.0,0.0035644999297337367
2175.0,0.003506892854272775
2174.0,0.0034890886264994448
2173.0,0.0035403280653539867
2172.0,0.003645820898209683
2171.0,0.0037693652763391124
2170.0,0.0038898263561419734
2169.0,0.004001925372634476
2168.0,0.004094834905354096
2167.0,0.004153721772856856
2166.0,0.004183908356565322
2165.0,0.004215377881263656
2164.0,0.00427495451673275
2163.0,0.0043551764535680465
2162.0,0.004394932193726432
2161.0,0.004284454225267686
2160.0,0.003934501557449584
2159.0,0.003395057639317571
2158.0,0.0028750085032980617
2157.0,0.002571108345652906
2156.0,0.0025024633962807243
2155.0,0.0025595547049680435
2154.0,0.002653348729487647
2153.0,0.002756476741135929
2152.0,0.0028516032588400075
2151.0,0.0029112645983102228
2150.0,0.0029289364626229274
2149.0,0.002926569360708784
2148.0,0.0029221522959630235
2147.0,0.0029164985078558806
2146.0,0.0029116248162871427
2145.0,0.002914304551640472
2144.0,0.002919743481207371
2143.0,0.0029175319954912846
2142.0,0.002913177683829077
2141.0,0.002920417036728049
2140.0,0.0029341768734951488
2139.0,0.002933493139519702
2138.0,0.002907661064436955
2137.0,0.002857552135462059
2136.0,0.002779454447131623
2135.0,0.002675545180611876
2134.0,0.0025783074628781904
2133.0,0.002533369162697074
2132.0,0.0025543380611450658
2131.0,0.002615105435436093
2130.0,0.0026860134583024187
2129.0,0.002754045433060116
2128.0,0.0028121934479310748
2127.0,0.002853023110107234
2126.0,0.0028787133971852085
2125.0,0.0029007751314670746
2124.0,0.0029252004401940012
2123.0,0.0029492110722242875
2122.0,0.0029733235094334142
2121.0,0.003003450375365665
2120.0,0.0030407712756422524
2119.0,0.0030823109247453237
2118.0,0.003130656715293364
2117.0,0.0031896517732255395
2116.0,0.0032509841285401383
2115.0,0.0032982797649238177
2114.0,0.003324659389636488
2113.0,0.0033348044028602445
2112.0,0.003332672666915473
2111.0,0.0033204892179343947
2110.0,0.0033075953172875174
2109.0,0.0033040668487157383
2108.0,0.003306163731941603
2107.0,0.0033027955248734462
2106.0,0.003294644846693501
2105.0,0.0032910435952979104
2104.0,0.0032908037994313828
2103.0,0.0032844848346889792
2102.0,0.0032748374362097828
2101.0,0.00327529788035479
2100.0,0.0032860694010610147
2099.0,0.0032885023497148686
2098.0,0.0032653788488701493
2097.0,0.003213598315867274
2096.0,0.0031398513872860335
2095.0,0.003060824125588065
2094.0,0.003005327601605873
2093.0,0.0029945749166481912
2092.0,0.003019368863018946
2091.0,0.003052449889489236
2090.0,0.003080989250803013
2089.0,0.003110322546078696
2088.0,0.003140734550179274
2087.0,0.003163118269689324
2086.0,0.0031779227374463285
2085.0,0.003197090174898544
2084.0,0.00322372143108359
2083.0,0.0032475218629520056
2082.0,0.003262650877528534
2081.0,0.0032722276962036264
2080.0,0.0032745756197130973
2079.0,0.0032643770311194167
2078.0,0.0032492152892166716
2077.0,0.003244706904452735
2076.0,0.003250447389041172
2075.0,0.0032505127231410775
2074.0,0.0032399337504545643
2073.0,0.003229272249314678
2072.0,0.003221405877332357
2071.0,0.003206491012277311
2070.0,0.0031832689951842384
2069.0,0.0031627480921295075
2068.0,0.0031474617846007015
2067.0,0.003129911241028805
2066.0,0.003114322972759987
2065.0,0.0031148035795837766
2064.0,0.0031278715370767754
2063.0,0.0031325642321071183
2062.0,0.0031228739256149375
2061.0,0.0031154978895343893
2060.0,0.0031232526930302634
2059.0,0.003143304910556537
2058.0,0.0031712587595947805
2057.0,0.003200779193643108
2056.0,0.003213494920954841
2055.0,0.0032042098483167367
2054.0,0.003215456642770005
2053.0,0.0033018092922870892
2052.0,0.0034483928330675162
2051.0,0.003564184906601287
2050.0,0.0035738071655566513
2049.0,0.003492169247910807
2048.0,0.0033911656588566375
2047.0,0.0033173350801374937
2046.0,0.0032735796082158453
2045.0,0.0032525035118560184
2044.0,0.0032461765281828303
2043.0,0.003241315584285693
2042.0,0.0032354650234589534
2041.0,0.0032453097217518424
2040.0,0.003280649955598986
2039.0,0.0033266205095616955
2038.0,0.003364301800060457
2037.0,0.0033853085652053748
2036.0,0.003377205840658456
2035.0,0.0033245546327792088
2034.0,0.003239654986209215
2033.0,0.003163209537798985
2032.0,0.003115473872043329
2031.0,0.003076704730731441
2030.0,0.0030306950007293757
2029.0,0.002991879956719917
2028.0,0.002973538380157155
2027.0,0.0029643940366014206
2026.0,0.0029562125155939683
2025.0,0.002960831314441273
2024.0,0.002980823836772241
2023.0,0.0029953446910910603
2022.0,0.0029927806920545044
2021.0,0.0029889102878930818
2020.0,0.002997050480949823
2019.0,0.003007304155884027
2018.0,0.0030103273497416
2017.0,0.0030150651871472633
2016.0,0.00302806746249434
2015.0,0.0030406457420711305
2014.0,0.0030507120305475646
2013.0,0.0030720466607166525
2012.0,0.003108995818296212
2011.0,0.003142525033050009
2010.0,0.003148991675795767
2009.0,0.003114041128978667
2008.0,0.0030303354918977407
2007.0,0.002910005979957039
2006.0,0.0028011910088410275
2005.0,0.0027583381075982454
2004.0,0.0027869064231734607
2003.0,0.0028458813001594275
2002.0,0.0029028392055627564
2001.0,0.0029556236019950286
2000.0,0.0030033265796312533
1999.0,0.0030325295249178726
1998.0,0.0030420824309030036
1997.0,0.0030507064489770897
1996.0,0.003068171315923542
1995.0,0.0030843772252204995
1994.0,0.003095065891644047
1993.0,0.0031118488545193316
1992.0,0.0031373227512536783
1991.0,0.003157180030024025
1990.0,0.0031701415928382763
1989.0,0.003197475137714068
1988.0,0.003250833277766904
1987.0,0.003316273622739919
1986.0,0.0033794311994580573
1985.0,0.003442856962365626
1984.0,0.0035112571712217883
1983.0,0.0035838768476843985
1982.0,0.003664591406419203
1981.0,0.00374810247644469
1980.0,0.0037890918803476954
1979.0,0.0037243504481021617
1978.0,0.003551354782809371
1977.0,0.0033534233328237294
1976.0,0.0032124148008363055
1975.0,0.00313191412528519
1974.0,0.0030764403524868515
1973.0,0.003034998253972497
1972.0,0.0030129832505807995
1971.0,0.0030010291103809957
1970.0,0.002986435373959873
1969.0,0.0029744476301484008
1968.0,0.002975466087887872
1967.0,0.002985733346324626
1966.0,0.002995813483420975
1965.0,0.003004123753997285
1964.0,0.003010112220145052
1963.0,0.0030076186775741566
1962.0,0.0029920320172886466
1961.0,0.0029623333160171583
1960.0,0.002917188222129648
1959.0,0.002865366680133345
1958.0,0.0028348429550157797
1957.0,0.002848328942561831
1956.0,0.0028922162279273623
1955.0,0.0029322192718723213
1954.0,0.0029555798051951274
1953.0,0.002974592225334795
1952.0,0.002993531918714285
1951.0,0.0030003538716689244
1950.0,0.0029913332657396153
1949.0,0.0029775756630366387
1948.0,0.0029622994742389917
1947.0,0.0029344706676654596
1946.0,0.002890713451016647
1945.0,0.0028433060585888554
1944.0,0.00280278797485427
1943.0,0.002771711563993703
1942.0,0.0027552444352794705
1941.0,0.002756676035731569
1940.0,0.002764229969150004
1939.0,0.002762408603981747
1938.0,0.002752543185791558
1937.0,0.0027462553587758944
1936.0,0.0027413300346152665
1935.0,0.002724126834811778
1934.0,0.0026958239070974514
1933.0,0.002673473556975403
1932.0,0.002663202135802425
1931.0,0.002653455311632012
1930.0,0.0026362154725747535
1929.0,0.0026161514686543074
1928.0,0.0025952017997369226
1927.0,0.002565981995372378
1926.0,0.002526514748942799
1925.0,0.0024872578331419175
1924.0,0.0024617885767399166
1923.0,0.0024591928820722623
1922.0,0.0024806810059738783
1921.0,0.002513903352507354
1920.0,0.0025348752327858746
1919.0,0.002527222429977665
1918.0,0.0025040747766596717
1917.0,0.0024941026094875986
1916.0,0.002501934032219754
1915.0,0.00250919604129418
1914.0,0.0025052562646682344
1913.0,0.002492951192702311
1912.0,0.0024727402352334115
1911.0,0.0024414990198621646
1910.0,0.0024082695403323056
1909.0,0.002391707205558871
1908.0,0.0023957371582607923
1907.0,0.002406638570539941
1906.0,0.002416503402164016
1905.0,0.002428603587216494
1904.0,0.0024403779104188155
1903.0,0.00244144886128039
1902.0,0.002431895298496505
1901.0,0.0024243874877048683
1900.0,0.002422022840384362
1899.0,0.0024119453839393165
1898.0,0.0023872915836331506
1897.0,0.002358631147538533
1896.0,0.0023400438457569
1895.0,0.002335472954518872
1894.0,0.0023414922642391763
1893.0,0.002350471217406873
1892.0,0.0023484410554867247
1891.0,0.0023256980084574233
1890.0,0.002296418106711461
1889.0,0.0022886397096150922
1888.0,0.0023046757069682586
1887.0,0.0023201228466533594
1886.0,0.0023216634092338775
1885.0,0.0023186171864635436
1884.0,0.0023205243673199696
1883.0,0.002322589322236645
1882.0,0.0023185930808067904
1881.0,0.0023123028552559347
1880.0,0.002307099688393566
1879.0,0.002299612564973097
1878.0,0.0022911510394043153
1877.0,0.0022906776919352943
1876.0,0.0022994887908072315
1875.0,0.0023067341204724423
1874.0,0.002305265599221404
1873.0,0.002298363718493843
1872.0,0.002285892853728361
1871.0,0.0022582600947867303
1870.0,0.0022151304554702492
1869.0,0.002181592785970392
1868.0,0.0021816966661628214
1867.0,0.0022063706831080727
1866.0,0.00223478280129394
1865.0,0.002259267360572594
1864.0,0.0022763078963893542
1863.0,0.0022806883755887106
1862.0,0.0022753678549354674
1861.0,0.0022723489365689153
1860.0,0.002277096457157069
1859.0,0.002283146877133261
1858.0,0.002285627156169152
1857.0,0.002287979164216987
1856.0,0.0022911846762693117
1855.0,0.002289401103689533
1854.0,0.002282563987894441
1853.0,0.0022790289309692663
1852.0,0.0022796142120071797
1851.0,0.002272254515456709
1850.0,0.002250577038881864
1849.0,0.002225550375078766
1848.0,0.0022115974359156196
1847.0,0.002210299525817666
1846.0,0.0022153546257027857
1845.0,0.002224813693288368
1844.0,0.0022393106220118357
1843.0,0.0022532615671423057
1842.0,0.0022637785935603256
1841.0,0.0022758789359899113
1840.0,0.0022868659386982557
1839.0,0.0022869712105143742
1838.0,0.0022782447949093207
1837.0,0.0022764441898558948
1836.0,0.002288169632496286
1835.0,0.00230240232840921
1834.0,0.0023098167888989394
1833.0,0.0023119359894344634
1832.0,0.0023074402226620503
1831.0,0.002291729527186301
1830.0,0.002277782209777322
1829.0,0.0022837431193916927
1828.0,0.002298313352505377
1827.0,0.0022997488490556672
1826.0,0.0022895118406485284
1825.0,0.0022915397279497417
1824.0,0.0023175024189556514
1823.0,0.0023482311192737034
1822.0,0.002363216890771218
1821.0,0.00235863680589305
1820.0,0.002335083000531564
1819.0,0.002292556628299262
1818.0,0.0022433004235083457
1817.0,0.002212922648907169
1816.0,0.0022137380457138496
1815.0,0.0022282040829638434
1814.0,0.0022327158616491606
1813.0,0.0022246545835778223
1812.0,0.0022179892014967833
1811.0,0.0022231609022424024
1810.0,0.0022377302325334086
1809.0,0.002256079409677117
1808.0,0.0022783538245826633
1807.0,0.002304004981858162
1806.0,0.0023263597813068613
1805.0,0.002337547978686948
1804.0,0.0023351055233619316
1803.0,0.002325584139466444
1802.0,0.0023259464853706067
1801.0,0.002353439032650137
1800.0,0.0024029749274207188
1799.0,0.002445548635560826
1798.0,0.0024594807936885233
1797.0,0.002453631984898428
1796.0,0.0024513328530322317
1795.0,0.002459050871581769
1794.0,0.002459722660372189
1793.0,0.002438669088379147
1792.0,0.0024110472574372936
1791.0,0.0024014473606583367
1790.0,0.0024075953889188583
1789.0,0.0024140097211008686
1788.0,0.002410373495245172
1787.0,0.0023925719937190676
1786.0,0.0023653706841279126
1785.0,0.0023428689301110838
1784.0,0.0023335059767826093
1783.0,0.002327607914815113
1782.0,0.0023132049913128444
1781.0,0.0022965750977100227
1780.0,0.0022926732371912925
1779.0,0.0022988849088088972
1778.0,0.0022981100096504015
1777.0,0.002286858317281757
1776.0,0.002279158638576393
1775.0,0.002285327716935162
1774.0,0.0022994248912483746
1773.0,0.002313577088174095
1772.0,0.0023328809748590132
1771.0,0.002354131026290318
1770.0,0.002362872256939688
1769.0,0.0023670674449603945
1768.0,0.0023909733881961243
1767.0,0.00244040587826907
1766.0,0.002493014376777178
1765.0,0.002530162571434577
1764.0,0.0025554752314101265
1763.0,0.0025839200464815126
1762.0,0.002626665905168886
1761.0,0.002680569541710599
1760.0,0.002735980282501639
1759.0,0.0027943495403652003
1758.0,0.002866601575566255
1757.0,0.0029668277683954957
1756.0,0.0030950377009093693
1755.0,0.00322683651441185
1754.0,0.003341567848954325
1753.0,0.003448908822548746
1752.0,0.0035872267838133534
1751.0,0.003794627196912914
1750.0,0.004076088861390825
1749.0,0.004422083232429777
1748.0,0.004833857609956922
1747.0,0.00530243606246896
1746.0,0.005814227202969286
1745.0,0.0063884921047186625
1744.0,0.0070657512275517885
1743.0,0.007850624598664048
1742.0,0.00871631155590129
1741.0,0.009676824063202851
1740.0,0.010762909232265801
1739.0,0.011879922161928553
1738.0,0.01285263297602357
1737.0,0.013661000000022105
1736.0,0.014490283109817537
1735.0,0.01561446711511872
1734.0,0.017063599250814226
1733.0,0.018406571173974838
1732.0,0.019429066543834587
1731.0,0.0203359242777016
1730.0,0.021304958717449023
1729.0,0.02233320708531834
1728.0,0.02332821124222841
1727.0,0.024244700249553486
1726.0,0.02510604284763003
1725.0,0.025953131970417025
1724.0,0.026808670145942057
1723.0,0.02764692389447893
1722.0,0.028391619140140517
1721.0,0.02898588226733417
1720.0,0.029470041112318764
1719.0,0.029984148261712234
1718.0,0.03063603755103058
1717.0,0.0312953976451638
1716.0,0.031767922393760764
1715.0,0.0320628625161647
1714.0,0.03221120145084581
1713.0,0.032158443237431014
1712.0,0.03187903654382995
1711.0,0.03141161510928138
1710.0,0.030788212264501638
1709.0,0.03000870819948489
1708.0,0.029064914231366066
1707.0,0.02793759853743954
1706.0,0.02664666317735898
1705.0,0.025373121415876717
1704.0,0.024334058523351187
1703.0,0.023516058056105148
1702.0,0.022688794254726363
1701.0,0.021595713427503983
1700.0,0.020381821967094226
1699.0,0.019481254369476963
1698.0,0.018872487507921958
1697.0,0.018313328605121408
1696.0,0.017721366742992975
1695.0,0.01721165125017355
1694.0,0.016860337052036684
1693.0,0.016603911139099866
1692.0,0.016355321462266696
1691.0,0.016078581002668648
1690.0,0.015805319406686447
1689.0,0.015597213244928763
1688.0,0.015466321394655917
1687.0,0.015366377476692686
1686.0,0.015245003193523909
1685.0,0.015091159407443443
1684.0,0.014985794804567867
1683.0,0.014961628454198177
1682.0,0.01493648237727636
1681.0,0.014900924435483007
1680.0,0.014882662490217916
1679.0,0.014888952554720822
1678.0,0.014904025673818502
1677.0,0.014909971365072522
1676.0,0.014893197249097882
1675.0,0.014854118812446627
1674.0,0.014811728333106556
1673.0,0.014781605233207186
1672.0,0.014760561196127432
1671.0,0.014734764702846154
1670.0,0.014713422910916544
1669.0,0.014725289171527038
1668.0,0.014759576621103169
1667.0,0.014785121871572951
1666.0,0.014800606958344936
1665.0,0.014815060022319672
1664.0,0.014823298586671703
1663.0,0.01481882158986737
1662.0,0.014814301018312059
1661.0,0.014821305719050853
1660.0,0.014831011789454333
1659.0,0.014828827534576601
1658.0,0.014815635563345378
1657.0,0.014802634074047721
1656.0,0.014793875850713786
1655.0,0.014769942094718994
1654.0,0.014722944528417922
1653.0,0.014717289415055897
1652.0,0.014736147423396215
1651.0,0.014703151276109258
1650.0,0.014656482003076059
1649.0,0.01459949603494947
1648.0,0.014532996089536841
1647.0,0.014481212220912375
1646.0,0.014465248398282265
1645.0,0.014455462313838012
1644.0,0.014426882984688832
1643.0,0.014378701170110118
1642.0,0.014316847108420861
1641.0,0.014251318368316576
1640.0,0.014184639580811072
1639.0,0.01410933110050715
1638.0,0.014020511348264991
1637.0,0.013922346010170627
1636.0,0.013830439757319065
1635.0,0.013745876837228853
1634.0,0.013644323815912018
1633.0,0.013526711641733578
1632.0,0.013405261666936074
1631.0,0.013275322200162325
1630.0,0.01312763888785218
1629.0,0.012959928319088444
1628.0,0.012781608012397961
1627.0,0.012605930144615515
1626.0,0.012437430891615312
1625.0,0.01226314504392994
1624.0,0.012061284883261707
1623.0,0.011838988453098408
1622.0,0.011639660247247066
1621.0,0.01148841941430858
1620.0,0.011371353249347984
1619.0,0.011262466216568014
1618.0,0.011147827947166924
1617.0,0.011034216522007813
1616.0,0.010929912463237186
1615.0,0.010821078402393413
1614.0,0.01069444734660566
1613.0,0.010543661723235552
1612.0,0.010358911804156413
1611.0,0.010138321597338336
1610.0,0.009899642260920043
1609.0,0.009667671405026952
1608.0,0.009452135923868335
1607.0,0.009249934238081797
1606.0,0.009057614302581432
1605.0,0.00887047782535446
1604.0,0.008681845560103324
1603.0,0.008495138183509669
1602.0,0.008324672525065533
1601.0,0.008175178464220369
1600.0,0.008034662428547173
1599.0,0.007894259955033208
1598.0,0.007759828572285932
1597.0,0.007637689419449858
1596.0,0.007525806518612897
1595.0,0.0074257232323423645
1594.0,0.007345625488418351
1593.0,0.007283913345719328
1592.0,0.007226237710824054
1591.0,0.007166824386215761
1590.0,0.0071178826165232655
1589.0,0.007090871919055957
1588.0,0.007083020797512232
1587.0,0.007093416569277212
1586.0,0.0071370943862471975
1585.0,0.007231114466999823
1584.0,0.007378170783259183
1583.0,0.007570536645426614
1582.0,0.0077932372544246495
1581.0,0.008014461435279306
1580.0,0.008190901763566174
1579.0,0.008291076178844042
1578.0,0.00830440139411822
1577.0,0.008234378809267407
1576.0,0.00810330704031704
1575.0,0.007955092073515581
1574.0,0.007823474831086037
1573.0,0.0077144066573278415
1572.0,0.007612768674028424
1571.0,0.0075027163833549845
1570.0,0.007394064884230174
1569.0,0.007317647515348967
1568.0,0.007271115939699459
1567.0,0.007236788364603692
1566.0,0.0072163503796055725
1565.0,0.007210812151180981
1564.0,0.007210039494401167
1563.0,0.007206688693103697
1562.0,0.007208828075485316
1561.0,0.007222561096827805
1560.0,0.007217951270412245
1559.0,0.007256795301766216
1558.0,0.007388322205377563
1557.0,0.007464744639083953
1556.0,0.007484226079931825
1555.0,0.007507786930617866
1554.0,0.007560233767774009
1553.0,0.007618111348992963
1552.0,0.0076525539679793385
1551.0,0.007677136547955592
1550.0,0.007736596157140759
1549.0,0.007840705305479007
1548.0,0.007939211698057183
1547.0,0.007990066146996044
1546.0,0.00800023166676553
1545.0,0.008009761170926019
1544.0,0.008052118607347683
1543.0,0.008124880836045732
1542.0,0.008208764834384963
1541.0,0.00830521777201536
1540.0,0.00843639922180011
1539.0,0.008567577141288094
1538.0,0.008648578771975288
1537.0,0.008704246211060956
1536.0,0.008756300074499979
1535.0,0.008808028802305828
1534.0,0.008876132761867505
1533.0,0.008976570841749805
1532.0,0.009079044373900056
1531.0,0.00915360025988228
1530.0,0.009209246365120431
1529.0,0.009256778875885208
1528.0,0.009295933316477075
1527.0,0.009335408701095269
1526.0,0.009394659111744202
1525.0,0.009470384656243539
1524.0,0.009532752867186401
1523.0,0.009567220077987508
1522.0,0.009607461890850388
1521.0,0.009692277372092358
1520.0,0.009785951749065352
1519.0,0.009842714480275171
1518.0,0.009877810264467777
1517.0,0.009935253803487022
1516.0,0.010032711801060077
1515.0,0.010143508132557683
1514.0,0.010250953543484674
1513.0,0.01035786000532737
1512.0,0.010460531722005192
1511.0,0.010557210850531242
1510.0,0.010669497448138842
1509.0,0.010854906413653796
1508.0,0.011231904190355043
1507.0,0.01191801990796858
1506.0,0.012655206633513702
1505.0,0.013027062561139073
1504.0,0.013045449730724565
1503.0,0.012879265997514924
1502.0,0.012636656482915296
1501.0,0.012382733640558273
1500.0,0.012147447022321033
1499.0,0.01193701046579566
1498.0,0.011770563100906104
1497.0,0.011681298551327369
1496.0,0.011659472826063534
1495.0,0.011659864854490434
1494.0,0.01166945328248587
1493.0,0.011692415844656365
1492.0,0.011708992577716454
1491.0,0.01170427125042235
1490.0,0.011728548423491168
1489.0,0.011842941654223553
1488.0,0.012016648994730966
1487.0,0.012188774745879781
1486.0,0.012345828107805098
1485.0,0.012496725973739312
1484.0,0.012635480940059899
1483.0,0.01275649466759012
1482.0,0.012880617355506356
1481.0,0.013029214538014814
1480.0,0.013184617529443618
1479.0,0.013316641323953996
1478.0,0.013427976404542635
1477.0,0.013542614408489822
1476.0,0.013666238110315549
1475.0,0.013789506806146105
1474.0,0.013929116303239581
1473.0,0.014123877714481089
1472.0,0.01435950338150908
1471.0,0.01457147260174221
1470.0,0.014746992871003336
1469.0,0.014915189630915142
1468.0,0.015087537692000282
1467.0,0.015267462238089592
1466.0,0.01548045858550481
1465.0,0.015751469478701038
1464.0,0.01604321804285364
1463.0,0.016296262617088657
1462.0,0.01651261586890136
1461.0,0.01671872388557756
1460.0,0.01691225637587236
1459.0,0.017088308161434675
1458.0,0.017305134434055857
1457.0,0.01762508527861463
1456.0,0.01793550113050995
1455.0,0.018124047838646344
1454.0,0.018243472768327686
1453.0,0.018346231978012693
1452.0,0.018425352014569883
1451.0,0.018462823373684715
1450.0,0.018471850411689483
1449.0,0.018474357800627315
1448.0,0.018473284074911996
1447.0,0.018471909660438046
1446.0,0.01848514593162537
1445.0,0.018512458387422603
1444.0,0.01853204593850162
1443.0,0.018531232468188476
1442.0,0.01852201517391847
1441.0,0.018513147766439975
1440.0,0.018487306616091718
1439.0,0.01842086298996797
1438.0,0.018304435398671087
1437.0,0.01814431354245864
1436.0,0.01796494602381273
1435.0,0.017796245331731998
1434.0,0.017650849262550176
1433.0,0.017516983963971847
1432.0,0.017370959344042872
1431.0,0.017207000832190428
1430.0,0.01705258845051912
1429.0,0.01693443299244572
1428.0,0.016845010320907856
1427.0,0.016764454063203014
1426.0,0.016689947798840605
1425.0,0.016634367765589762
1424.0,0.016611389128907833
1423.0,0.016623121705522974
1422.0,0.016662885822184722
1421.0,0.0167234597621023
1420.0,0.016804712742905396
1419.0,0.016941559871134264
1418.0,0.017195560086979436
1417.0,0.017586805361373734
1416.0,0.018102672304904196
1415.0,0.018739955796655834
1414.0,0.019507334071898193
1413.0,0.020393836465195617
1412.0,0.021318687963027882
1411.0,0.022128617901718172
1410.0,0.022676976275178194
1409.0,0.022878289915437524
1408.0,0.02268728535181102
1407.0,0.022106599824390446
1406.0,0.021228148320457555
1405.0,0.020215724209776846
1404.0,0.019233179823139754
1403.0,0.018379338129106408
1402.0,0.017658794272274504
1401.0,0.01700230894934845
1400.0,0.016337446448218558
1399.0,0.015675783969497526
1398.0,0.015093021092040696
1397.0,0.014601813668341127
1396.0,0.014141314804714575
1395.0,0.013678488355515255
1394.0,0.013247764103757425
1393.0,0.012876068092053354
1392.0,0.012541202374125543
1391.0,0.012216695426266699
1390.0,0.011893675922546155
1389.0,0.01156866502342903
1388.0,0.011248228268880122
1387.0,0.01096703679584607
1386.0,0.01075864509601487
1385.0,0.010611096998596978
1384.0,0.010491524501151917
1383.0,0.010387593049908446
1382.0,0.01030662921066373
1381.0,0.01025289760345872
1380.0,0.010223942984636115
1379.0,0.010220161267647234
1378.0,0.01023943299329289
1377.0,0.010268235046431725
1376.0,0.010293953943211248
1375.0,0.010323213175445094
1374.0,0.010370358126359627
1373.0,0.010422112720471131
1372.0,0.01043850219807383
1371.0,0.010387060824760602
1370.0,0.010251965222937878
1369.0,0.010028590184148664
1368.0,0.009724260254646263
1367.0,0.009356035390178846
1366.0,0.008935396072133294
1365.0,0.008460756596391056
1364.0,0.007941790570192698
1363.0,0.00743447904345969
1362.0,0.007018173342178491
1361.0,0.006718858720164948
1360.0,0.006500056302741215
1359.0,0.0063218207485582125
1358.0,0.006167186806087601
1357.0,0.006031704569115389
1356.0,0.005915924261840424
1355.0,0.005826465316377311
1354.0,0.005769267635688439
1353.0,0.00574003831715046
1352.0,0.005730682406729354
1351.0,0.0057419983585582385
1350.0,0.005781018728655007
1349.0,0.005850906274251734
1348.0,0.005948106828664937
1347.0,0.0060689501164972945
1346.0,0.006211098929725168
1345.0,0.00636685480215317
1344.0,0.0065182692326503835
1343.0,0.0066410236632149285
1342.0,0.006712827485467152
1341.0,0.006721811867394428
1340.0,0.0066716847060575915
1339.0,0.006575182991896666
1338.0,0.006438142780213207
1337.0,0.0062565458353440115
1336.0,0.00603278185302213
1335.0,0.005785777399426772
1334.0,0.005541397383445706
1333.0,0.005320015168199174
1332.0,0.005136609877461833
1331.0,0.005003501960001095
1330.0,0.004924349414779389
1329.0,0.00489149438306505
1328.0,0.004894945266027557
1327.0,0.004929407982874989
1326.0,0.004990612430111957
1325.0,0.005072341413117902
1324.0,0.005168456998959044
1323.0,0.005274347839628537
1322.0,0.0053849629622920135
1321.0,0.005496170942446605
1320.0,0.005609537649469951
1319.0,0.005731519955697267
1318.0,0.005864979931726758
1317.0,0.006004973042953008
1316.0,0.0061462791083973616
1315.0,0.006291985767280737
1314.0,0.006452269006783988
1313.0,0.006635149116899849
1312.0,0.006839268998200856
1311.0,0.0070559412193283415
1310.0,0.007277219061886126
1309.0,0.007500265517208235
1308.0,0.007724456242529373
1307.0,0.007947750170069792
1306.0,0.0081690091607485
1305.0,0.00839389867715156
1304.0,0.008635256627940222
1303.0,0.008909485562289664
1302.0,0.009232768378241312
1301.0,0.009616960953067013
1300.0,0.01006372493609246
1299.0,0.010563069411881893
1298.0,0.011100332090768945
1297.0,0.01166268813268984
1296.0,0.012237172703076454
1295.0,0.012808493080214523
1294.0,0.01336595659381716
1293.0,0.01390725281987397
1292.0,0.014430152681300597
1291.0,0.014927392441558638
1290.0,0.015394909544827654
1289.0,0.015836649782520293
1288.0,0.01625456463924801
1287.0,0.016641843973142532
1286.0,0.016991727564923027
1285.0,0.017304055107088014
1284.0,0.017578830578996656
1283.0,0.017814092145244632
1282.0,0.01801419935312907
1281.0,0.01818968534309295
1280.0,0.01834621472674478
1279.0,0.018485259394069024
1278.0,0.018618306723815467
1277.0,0.018767644263056573
1276.0,0.018950918862931817
1275.0,0.0191775831363756
1274.0,0.019462768857765676
1273.0,0.019829126016134443
1272.0,0.020287674754468278
1271.0,0.020827654928495
1270.0,0.021430632014095567
1269.0,0.022082027623699024
1268.0,0.022762501098526493
1267.0,0.023444826010370987
1266.0,0.024109881595408535
1265.0,0.024750968931389238
1264.0,0.025354990940540275
1263.0,0.02589838273603465
1262.0,0.02636928232296723
1261.0,0.026772834359034298
1260.0,0.027107941428399097
1259.0,0.027363626472909172
1258.0,0.02754729846671623
1257.0,0.0276917017859631
1256.0,0.027827105634008396
1255.0,0.027969612384384116
1254.0,0.028139110523520243
1253.0,0.02836133124667726
1252.0,0.028644100346773782
1251.0,0.028974337202766626
1250.0,0.02934555768301466
1249.0,0.02976544515221665
1248.0,0.030230462220986194
1247.0,0.030719518998086656
1246.0,0.031221643706876488
1245.0,0.031743249815923684
1244.0,0.03227831176101486
1243.0,0.032799075509826275
1242.0,0.033286509964823324
1241.0,0.033740518210100795
1240.0,0.034149245865263494
1239.0,0.03447876812153217
1238.0,0.03470427027202909
1237.0,0.03482139971200737
1236.0,0.03481830687628951
1235.0,0.034671128875846086
1234.0,0.03437776616081987
1233.0,0.03396395960754069
1232.0,0.03344963432703427
1231.0,0.0328420226336256
1230.0,0.032163968158481326
1229.0,0.03145295765965094
1228.0,0.030727052692980414
1227.0,0.029981707055198446
1226.0,0.0292213539148075
1225.0,0.028465329783971927
1224.0,0.027721985657914696
1223.0,0.026985055362608715
1222.0,0.026257547154016254
1221.0,0.025554656165069252
1220.0,0.02488220220833249
1219.0,0.024234754862759667
1218.0,0.023615409720184246
1217.0,0.023036006076718688
1216.0,0.022497031648562333
1215.0,0.021986651360526806
1214.0,0.021500253352550007
1213.0,0.021043684690340982
1212.0,0.020617246706638438
1211.0,0.020213336709451912
1210.0,0.01983012377105361
1209.0,0.01947181758081452
1208.0,0.01913542126576327
1207.0,0.018811847594782622
1206.0,0.018499665718718892
1205.0,0.018203778522234128
1204.0,0.01792151208057427
1203.0,0.01764405755954123
1202.0,0.017371016206191595
1201.0,0.017109778685266298
1200.0,0.01686066466200757
1199.0,0.0166155147830195
1198.0,0.016371180962563115
1197.0,0.016132580505431277
1196.0,0.01590232476891109
1195.0,0.01567858805148485
1194.0,0.015462937958829515
1193.0,0.015259720024146457
1192.0,0.015067765655380407
1191.0,0.014882699372474297
1190.0,0.014707388416652856
1189.0,0.01455111588657304
1188.0,0.014419317050243737
1187.0,0.014313111377664493
1186.0,0.014237576321879768
1185.0,0.014200680633696224
1184.0,0.014203787074233042
1183.0,0.014241624059257163
1182.0,0.014311420612827683
1181.0,0.014413699285653652
1180.0,0.014543287473218269
1179.0,0.014688125856121937
1178.0,0.014838041934965632
1177.0,0.014985601498493904
1176.0,0.015117210155294877
1175.0,0.015213510971318032
1174.0,0.015261191074728998
1173.0,0.015255562226069424
1172.0,0.015191752467596582
1171.0,0.01506587493638227
1170.0,0.014887069395417299
1169.0,0.014677178688857425
1168.0,0.01445710560434256
1167.0,0.014242144835885082
1166.0,0.014047967526162608
1165.0,0.013887666547208726
1164.0,0.013762078382358496
1163.0,0.013662886594708875
1162.0,0.013586260517207183
1161.0,0.013535295716566371
1160.0,0.013510458264931403
1159.0,0.013508197798691671
1158.0,0.013530001797791649
1157.0,0.013583395081097717
1156.0,0.01367248831611162
1155.0,0.013795973234636806
1154.0,0.013955105185571061
1153.0,0.014154471470632653
1152.0,0.014393204854587664
1151.0,0.014664587159930319
1150.0,0.01496628376671395
1149.0,0.015301730729604522
1148.0,0.015669655019858775
1147.0,0.016062561832753938
1146.0,0.016477620405747212
1145.0,0.016917213490575397
1144.0,0.01737548994429185
1143.0,0.017836688775796635
1142.0,0.01829083417799766
1141.0,0.018737960728894016
1140.0,0.019173341844548435
1139.0,0.019584745421577465
1138.0,0.019969541204826642
1137.0,0.020337824536665817
1136.0,0.020693745375407545
1135.0,0.02103159164257906
1134.0,0.02135499467448174
1133.0,0.021680645703945674
1132.0,0.02201827939503698
1131.0,0.022367090747603954
1130.0,0.022736916299712497
1129.0,0.02315153743395564
1128.0,0.023623818159534554
1127.0,0.024147071452557185
1126.0,0.024715792115169742
1125.0,0.025331576662887566
1124.0,0.025981132941655133
1123.0,0.02663296846982186
1122.0,0.027265012284121214
1121.0,0.027870453385522284
1120.0,0.02842885524089525
1119.0,0.028901681472715733
1118.0,0.029266506389033463
1117.0,0.029526192033260054
1116.0,0.029678879429808874
1115.0,0.029716577411887705
1114.0,0.02966416738782693
1113.0,0.029584982093623424
1112.0,0.0295396824231597
1111.0,0.029571401000363165
1110.0,0.029728982319831912
1109.0,0.030059951569059024
1108.0,0.030567791390916997
1107.0,0.031210304372618333
1106.0,0.03195093090778098
1105.0,0.03278017813492801
1104.0,0.03367973096611109
1103.0,0.034608363743124995
1102.0,0.03554069805671931
1101.0,0.03647999637291987
1100.0,0.03741423852870041
1099.0,0.038303926747438
1098.0,0.03912943442094852
1097.0,0.039905548141804456
1096.0,0.0406305169756356
1095.0,0.04127158607812673
1094.0,0.04181846410271859
1093.0,0.04229689782280565
1092.0,0.04271238157884185
1091.0,0.043036922132687054
1090.0,0.043266874102959506
1089.0,0.043435718099969156
1088.0,0.04355548170258309
1087.0,0.04360549408772663
1086.0,0.04359087158148958
1085.0,0.04354660088043704
1084.0,0.04346915536566513
1083.0,0.0433090973856918
1082.0,0.04304589045034995
1081.0,0.042707015678829986
1080.0,0.04230321239056574
1079.0,0.041812338236918004
1078.0,0.04123937497629544
1077.0,0.04062776203046183
1076.0,0.03999947332641055
1075.0,0.039343440412152444
1074.0,0.038670808063395345
1073.0,0.03802207400698419
1072.0,0.0374111420036077
1071.0,0.03681743454619498
1070.0,0.036239366861469974
1069.0,0.03570258610789638
1068.0,0.035210131015976025
1067.0,0.03473638796837085
1066.0,0.03427636762718343
1065.0,0.03385314665397029
1064.0,0.03347171596232755
1063.0,0.033112033055124925
1062.0,0.03277301246811465
1061.0,0.032478667309900296
1060.0,0.0322336962559615
1059.0,0.03201654518072453
1058.0,0.031824121077139327
1057.0,0.03168143974161304
1056.0,0.031598508329646835
1055.0,0.031557776337823515
1054.0,0.03155336000556874
1053.0,0.031604003955299956
1052.0,0.03171405938289905
1051.0,0.031860336786029515
1050.0,0.03203279896717832
1049.0,0.03224393214927171
1048.0,0.032482550082795256
1047.0,0.03270822293518701
1046.0,0.03290264990605124
1045.0,0.03307942534506773
1044.0,0.03323789059300561
1043.0,0.03335244995273089
1042.0,0.03341294914158525
1041.0,0.03343423496392012
1040.0,0.03341861332693425
1039.0,0.03334937085256247
1038.0,0.03322905364205754
1037.0,0.03308493282104964
1036.0,0.03292920689150652
1035.0,0.032750758254203996
1034.0,0.032550856537627154
1033.0,0.032348545547306796
1032.0,0.03214471860036504
1031.0,0.031918949750196865
1030.0,0.03166824554446142
1029.0,0.031413401964256786
1028.0,0.031164715565397523
1027.0,0.030921590658078486
1026.0,0.030714650140013205
1025.0,0.030616147995313127
1024.0,0.030704680600711055
1023.0,0.03104749309136296
1022.0,0.031709205223769674
1021.0,0.03272746936091155
1020.0,0.03405129039514081
1019.0,0.03551803524421418
1018.0,0.03690064555629425
1017.0,0.03796034319736691
1016.0,0.03847446263664738
1015.0,0.03830564815560106
1014.0,0.037500881987804546
1013.0,0.03628232535264251
1012.0,0.034910630529731534
1011.0,0.0335725152927978
1010.0,0.032366478548771054
1009.0,0.03132340271649502
1008.0,0.030421098611442737
1007.0,0.02961738115352671
1006.0,0.028893156062756754
1005.0,0.02825341192529257
1004.0,0.02769118736616792
1003.0,0.027178891955299753
1002.0,0.026697089931299864
1001.0,0.026244769508541214
1000.0,0.02581756108633735
999.0,0.025401715141317407
998.0,0.02499436900631416
997.0,0.024606057128093217
996.0,0.024238313740329157
995.0,0.023880030798338975
994.0,0.023529083455149435
993.0,0.02319587083060773
992.0,0.022881904740121917
991.0,0.02257644390217306
990.0,0.022278085977867474
989.0,0.021998148618574544
988.0,0.021738336328156527
987.0,0.021485569219418924
986.0,0.02123365009182137
985.0,0.020990923541657106
984.0,0.02076190386318669
983.0,0.020539636960859777
982.0,0.020320927550966674
981.0,0.020111854561369442
980.0,0.019913280136195605
979.0,0.019716831029326615
978.0,0.01951923725718059
977.0,0.019325123400319572
976.0,0.01913277364138074
975.0,0.018933005177358443
974.0,0.01872439819358641
973.0,0.018513646914784004
972.0,0.018298813556516826
971.0,0.01806852084676321
970.0,0.01781995118613751
969.0,0.017561767757360514
968.0,0.017297107515263734
967.0,0.01701984159442995
966.0,0.016730312407969065
965.0,0.016439017427575312
964.0,0.016151458741090634
963.0,0.015863951454898294
962.0,0.015577021086920856
961.0,0.015298688370866915
960.0,0.015031729855994342
959.0,0.014770864489994855
958.0,0.014515049843547515
957.0,0.014270368205553875
956.0,0.014038751636028832
955.0,0.013815636084435319
954.0,0.013600412158317112
953.0,0.013397492646425972
952.0,0.013205297479685157
951.0,0.013015853491904952
950.0,0.012827294088673585
949.0,0.012645650139361673
948.0,0.012472763988871129
947.0,0.012303740605111513
946.0,0.012137854939621443
945.0,0.011980542845922065
944.0,0.011832309682203324
943.0,0.011686269272974375
942.0,0.011539205362736539
941.0,0.011395484153034745
940.0,0.011257952656613186
939.0,0.011124268709943305
938.0,0.01099388824666419
937.0,0.010869095121398897
936.0,0.010747205320799529
935.0,0.010621174886597428
934.0,0.010490113819418062
933.0,0.01036051657829183
932.0,0.01023543950003779
931.0,0.010111117946099805
930.0,0.00998556551343786
929.0,0.009861545517169485
928.0,0.009739231520925538
927.0,0.009614608691628133
926.0,0.009487333435328154
925.0,0.00936231503231483
924.0,0.009241745106693462
923.0,0.009123213710557533
922.0,0.00900701836536713
921.0,0.00889761027721503
920.0,0.00879643663227924
919.0,0.008700806226749977
918.0,0.00861102741858263
917.0,0.008531357881367226
916.0,0.00846289758194407
915.0,0.008403098298998511
914.0,0.008353716151393697
913.0,0.008321847383566472
912.0,0.008311360500445484
911.0,0.008320481245644482
910.0,0.008349451068968564
909.0,0.008402893651781655
908.0,0.008481997515545056
907.0,0.008581257555975757
906.0,0.008695102113022556
905.0,0.008820482002141033
904.0,0.008950524012557104
903.0,0.009073375076355873
902.0,0.009180587663954909
901.0,0.009269790599617227
900.0,0.00933718141785608
899.0,0.009376080924395678
898.0,0.009385629361538788
897.0,0.00937272302755872
896.0,0.009342878876261734
895.0,0.009297442679313194
894.0,0.00924093894408377
893.0,0.009181857907965149
892.0,0.009124934940799617
891.0,0.009072562577227022
890.0,0.009036260196220627
889.0,0.009038115123248822
888.0,0.00909862743839152
887.0,0.00923034078101333
886.0,0.009443467619824874
885.0,0.009748231585115596
884.0,0.010149857645021913
883.0,0.01065127040394543
882.0,0.01126363874761525
881.0,0.012000650191817862
880.0,0.012851327566197352
879.0,0.013765741198344186
878.0,0.014677465696517743
877.0,0.01553380478808251
876.0,0.016296384506562175
875.0,0.016923998635838086
874.0,0.01736307344245969
873.0,0.01754302683457403
872.0,0.017387144362542708
871.0,0.01686558050870877
870.0,0.016050464270168048
869.0,0.015091980722158994
868.0,0.014131502460117587
867.0,0.013250037046518132
866.0,0.012480112627021554
865.0,0.011830143263206645
864.0,0.0112925089714624
863.0,0.010851567953470889
862.0,0.010497035193715937
861.0,0.010224495520419166
860.0,0.010023915517006527
859.0,0.009879242712401143
858.0,0.009779621799440068
857.0,0.00971739566438178
856.0,0.009671818173119585
855.0,0.009608305916825325
854.0,0.00950227779286382
853.0,0.009357237403607846
852.0,0.00919730353046292
851.0,0.009050176082014564
850.0,0.008935360835253791
849.0,0.008854937456367114
848.0,0.008792285644183849
847.0,0.008729567822241276
846.0,0.00866798584123655
845.0,0.008621548387767967
844.0,0.008592912411353333
843.0,0.008569168367894847
842.0,0.008541564187509374
841.0,0.00851397873527214
840.0,0.008488400757809685
839.0,0.008456849660853884
838.0,0.008413232462673547
837.0,0.008360923164945874
836.0,0.008303534723860265
835.0,0.008239642277080017
834.0,0.008171063616554959
833.0,0.008104984288595778
832.0,0.008043352869916223
831.0,0.007981102629173705
830.0,0.007919122375046127
829.0,0.007867399888263273
828.0,0.007829875870109885
827.0,0.007798046842842028
826.0,0.007765804579830813
825.0,0.0077379029523473915
824.0,0.007717521372062518
823.0,0.007700179465686656
822.0,0.0076855239179492284
821.0,0.0076793413855777825
820.0,0.007680735841750821
819.0,0.00768278072394446
818.0,0.007686854337852354
817.0,0.007701633353061076
816.0,0.0077265177122560185
815.0,0.007749935077849757
814.0,0.007766983914700407
813.0,0.007785259463670808
812.0,0.007809264141505021
811.0,0.007832431835006653
810.0,0.007849425110380262
809.0,0.007863914481618784
808.0,0.007879059373489929
807.0,0.007891686456621604
806.0,0.007900041934784599
805.0,0.007905731074894472
804.0,0.007904233724744723
803.0,0.007885601372028109
802.0,0.007849817806953213
801.0,0.007813156321587475
800.0,0.00779968641216831
799.0,0.00783786682844569
798.0,0.007960957381067621
797.0,0.008188208935893365
796.0,0.008495204055930483
795.0,0.008813254284673845
794.0,0.009066354128966444
793.0,0.009204780772881145
792.0,0.00920842316674798
791.0,0.009082646584854191
790.0,0.008860755457444584
789.0,0.008591048879823756
788.0,0.00830868566117492
787.0,0.008027376582153736
786.0,0.00775624565850655
785.0,0.00750737643006418
784.0,0.007284092810741815
783.0,0.007078418000818418
782.0,0.006885673739939736
781.0,0.006708984919974025
780.0,0.006546625865945904
779.0,0.006389225625169692
778.0,0.006233633638235677
777.0,0.006086596473021217
776.0,0.0059510686067536945
775.0,0.0058211742281372054
774.0,0.005693448950838457
773.0,0.0055704304986013056
772.0,0.005450444507890751
771.0,0.005327029492807091
770.0,0.0052014997024377625
769.0,0.005082971600079636
768.0,0.004973090158668755
767.0,0.004864058126014582
766.0,0.004754174066283298
765.0,0.004650848131725735
764.0,0.004554950118727171
763.0,0.004456968430868916
762.0,0.004353032520369372
761.0,0.004250913484174255
760.0,0.004155370175487845
759.0,0.004060978450663529
758.0,0.003964306272372722
757.0,0.0038699961916568316
756.0,0.0037799043050417355
755.0,0.0036891213138644883
754.0,0.0035976801322173922
753.0,0.0035138539621780464
752.0,0.003441758129181677
751.0,0.0033787836462375598
750.0,0.0033289477728572284
749.0,0.003305439418090963
748.0,0.0033166441672546395
747.0,0.003363938550470881
746.0,0.003457911088633194
745.0,0.0036232933824061793
744.0,0.0038845876542893017
743.0,0.004262019250972212
742.0,0.004784565905005174
741.0,0.005486587374794573
740.0,0.006380215252433262
739.0,0.007443758468111794
738.0,0.00864244873255686
737.0,0.009943346091267735
736.0,0.011306039281888364
735.0,0.01268602987218154
734.0,0.014065018059218858
733.0,0.015460686917205865
732.0,0.016897032211071663
731.0,0.01838733318067244
730.0,0.019951526750244798
729.0,0.021614345441797262
728.0,0.02336417770743872
727.0,0.025131706531746442
726.0,0.026808986142737017
725.0,0.028254899734521124
724.0,0.02928746555491058
723.0,0.029728476749336465
722.0,0.02948708622976478
721.0,0.028605460418448823
720.0,0.02725066142908865
719.0,0.02566332308172506
718.0,0.024068489230958556
717.0,0.022610699611488233
716.0,0.021357160838455496
715.0,0.020326275667182734
714.0,0.019499859622560015
713.0,0.01882662308971435
712.0,0.018239633521451006
711.0,0.017690050063167054
710.0,0.01717046780251922
709.0,0.016699353315435924
708.0,0.01628414943236918
707.0,0.015910733268281872
706.0,0.015565476927789937
705.0,0.015247895813393263
704.0,0.014955816296935105
703.0,0.014674377390694396
702.0,0.014386883847635635
701.0,0.014083224779192764
700.0,0.013754855206564706
699.0,0.013399647920832352
698.0,0.013037340579649559
697.0,0.012701563761406711
696.0,0.012408128165417982
695.0,0.012145915861234202
694.0,0.011903467016721729
693.0,0.01168619904436231
692.0,0.011500158856531523
691.0,0.011338268257047309
690.0,0.011193806040883911
689.0,0.011070422814088546
688.0,0.010966956776003706
687.0,0.010870850285155945
686.0,0.010780224848351446
685.0,0.010711682757395695
684.0,0.010674042791001863
683.0,0.010654341456263292
682.0,0.010637228159002119
681.0,0.01061718662975666
680.0,0.010584380594623188
679.0,0.010520143005770862
678.0,0.01041814145944989
677.0,0.010294378724848282
676.0,0.010167064003266554
675.0,0.010043274493181747
674.0,0.00992821531399251
673.0,0.00982670996667397
672.0,0.009730492246161383
671.0,0.009623114445750595
670.0,0.009502052995290701
669.0,0.009395127324773253
668.0,0.009334988403773989
667.0,0.009282456926303178
666.0,0.009202664795453248
665.0,0.009112566426627054
664.0,0.009025334769821208
663.0,0.008936522106087426
662.0,0.008846343994764118
661.0,0.00877108652897188
660.0,0.008717865472115133
659.0,0.008670245690136297
658.0,0.00861558950579481
657.0,0.008564468873732058
656.0,0.00852328613809967
655.0,0.008475150055929566
654.0,0.00840745580009191
653.0,0.008333240929900228
652.0,0.008264729200713297
651.0,0.008192271488590743
650.0,0.008108348222965274
649.0,0.008026136434757141
648.0,0.007954310881274216
647.0,0.007881152089052473
646.0,0.007802267978886198
645.0,0.007733777152624048
644.0,0.007681008495678914
643.0,0.00762291222029895
642.0,0.007545253847010259
641.0,0.007462399914271157
640.0,0.007386113914266832
639.0,0.007304326396219061
638.0,0.007213966155940377
637.0,0.0071463607347568465
636.0,0.007136880970267875
635.0,0.007192930617310885
634.0,0.00730028066634314
633.0,0.007428321303204945
632.0,0.007511451970297558
631.0,0.007471623084462557
630.0,0.0073030002772992795
629.0,0.0070903857817254876
628.0,0.006908729194028971
627.0,0.00675428178469888
626.0,0.006592228996041543
625.0,0.006421775039910017
624.0,0.0062573096662470636
623.0,0.00609161969067884
622.0,0.005923852180117269
621.0,0.005782450259346289
620.0,0.005678399106883371
619.0,0.005575983856937517
618.0,0.005450945741420519
617.0,0.005342219104650967
616.0,0.00529453188813454
615.0,0.005290571371370083
614.0,0.00528620619382247
613.0,0.005272551818140642
612.0,0.005262585874257866
611.0,0.005257711424096921
610.0,0.005262539532324518
609.0,0.005296551584775381
608.0,0.0053586385962866405
607.0,0.005413921190010015
606.0,0.005446969835800938
605.0,0.00548700024634001
604.0,0.005547190050945127
603.0,0.00559119048218513
602.0,0.005592805386510824
601.0,0.005576649704809708
600.0,0.00556630925159245
599.0,0.005544111327388189
598.0,0.005492055812017378
597.0,0.005423417801048859
596.0,0.005343482392581707
595.0,0.005232228498460497
594.0,0.005095631407063483
593.0,0.004981082034940692
592.0,0.004911768487981671
591.0,0.004855621674513557
590.0,0.004785888895172362
589.0,0.004717460289081767
588.0,0.004651149470097114
587.0,0.004548766449295168
586.0,0.0043979474895836975
585.0,0.004238716800042884
584.0,0.004086823712624936
583.0,0.0038994775570265552
582.0,0.003661328425990486
581.0,0.003435374223880648
580.0,0.0032780788175091613
579.0,0.0031712246765537907
578.0,0.003073805860074828
577.0,0.002983240357895583
576.0,0.0029010303185685177
575.0,0.0028004358389042017
574.0,0.002683787738098433
573.0,0.0026097759645406764
572.0,0.002613954866707858
571.0,0.0026556522190199286
570.0,0.0026724855205075265
569.0,0.0026525692681095194
568.0,0.0026055512554081298
567.0,0.00252539699991949
566.0,0.002436091462503417
565.0,0.0024005719245643563
564.0,0.002436917287855136
563.0,0.00248317792201737
562.0,0.0024832486403086017
561.0,0.0024600789009621513
560.0,0.00245237918826776
559.0,0.0024458820158956545
558.0,0.002414947408813378
557.0,0.0023760727234871486
556.0,0.0023452895368351254
555.0,0.002302685388445214
554.0,0.0022507650143033416
553.0,0.0022386888317413173
552.0,0.0022746763963165887
551.0,0.002284453378803406
550.0,0.002215688271531494
