cm-1,A
4000.0,0.0024059812263735325
3999.0,0.0024180971209018156
3998.0,0.0024296163531714165
3997.0,0.002439545409856334
3996.0,0.0024470326955899104
3995.0,0.002451035684640137
3994.0,0.0024519058279513506
3993.0,0.0024522047967683955
3992.0,0.0024544333598968612
3991.0,0.0024582466411442686
3990.0,0.002461203172947053
3989.0,0.002461956699394639
3988.0,0.002461603544081573
3987.0,0.0024620652539319096
3986.0,0.002463922777509453
3985.0,0.002466300848972411
3984.0,0.0024677050622275674
3983.0,0.002466683956198196
3982.0,0.0024629062142819125
3981.0,0.0024579602354262934
3980.0,0.0024547502292797084
3979.0,0.0024548965841185225
3978.0,0.0024569563273217614
3977.0,0.0024580332383956315
3976.0,0.002456593016218221
3975.0,0.0024530475660023143
3974.0,0.0024478528759389172
3973.0,0.0024405368717281845
3972.0,0.0024317032914416524
3971.0,0.0024247212061514027
3970.0,0.0024236353439729182
3969.0,0.002429270080709858
3968.0,0.002437690511021301
3967.0,0.002443239468584152
3966.0,0.0024434674315856244
3965.0,0.002440684195940738
3964.0,0.0024389698942218294
3963.0,0.0024395818506905056
3962.0,0.002439425762904705
3961.0,0.0024354418565290126
3960.0,0.0024292669320590144
3959.0,0.002426240558810312
3958.0,0.0024298469177820026
3957.0,0.002437402467666121
3956.0,0.0024419699229050185
3955.0,0.0024384568926633862
3954.0,0.002427088638823822
3953.0,0.0024131309041587343
3952.0,0.0024027029029432554
3951.0,0.002399154516888948
3950.0,0.0024022833382615124
3949.0,0.0024085391594019148
3948.0,0.0024139213878406436
3947.0,0.0024170072845912808
3946.0,0.002420196663386223
3945.0,0.0024261796359545335
3944.0,0.0024330749317771896
3943.0,0.002434895659112764
3942.0,0.0024269682928868717
3941.0,0.002413776110298935
3940.0,0.0024070755477175456
3939.0,0.0024124562897324
3938.0,0.002424402166251652
3937.0,0.002433705998644677
3936.0,0.0024355724045660694
3935.0,0.002432042605892256
3934.0,0.0024271954621142766
3933.0,0.0024230002243170335
3932.0,0.002419658031005507
3931.0,0.002418272839080802
3930.0,0.002422012229698488
3929.0,0.0024329466133339106
3928.0,0.002449283958348751
3927.0,0.0024668340337501513
3926.0,0.0024803282581779915
3925.0,0.002483899063249931
3924.0,0.0024761596899185723
3923.0,0.002464675599952849
3922.0,0.00245921167625255
3921.0,0.0024612114593061795
3920.0,0.002465629680415327
3919.0,0.0024701509239576543
3918.0,0.0024749269886569407
3917.0,0.002477923939643685
3916.0,0.0024777885253945446
3915.0,0.002478476628209392
3914.0,0.002485405022446716
3913.0,0.00249763620708892
3912.0,0.0025081011268002374
3911.0,0.0025108743160233045
3910.0,0.002503490741086866
3909.0,0.0024866775855667588
3908.0,0.0024629793363940182
3907.0,0.002438330613925007
3906.0,0.002420195529268387
3905.0,0.002411951380992844
3904.0,0.002406935670799671
3903.0,0.00239747014129788
3902.0,0.0023897641293010256
3901.0,0.002394045930901894
3900.0,0.0024073126169118324
3899.0,0.002418549665074111
3898.0,0.0024252012184206645
3897.0,0.0024339202080460743
3896.0,0.002445645290469205
3895.0,0.002452716306873782
3894.0,0.002453733375096202
3893.0,0.002457339916252704
3892.0,0.002465098820162232
3891.0,0.002462913458129182
3890.0,0.0024449511390207705
3889.0,0.002431085078985429
3888.0,0.002437168668991658
3887.0,0.002458156545775827
3886.0,0.0024769296749626033
3885.0,0.002474753000736415
3884.0,0.0024555800566492727
3883.0,0.0024468103757723713
3882.0,0.002457611231455178
3881.0,0.0024708617012159043
3880.0,0.0024674448020236134
3879.0,0.0024487069273945016
3878.0,0.0024393480178668157
3877.0,0.0024534254196618742
3876.0,0.0024763939157828718
3875.0,0.0024859833177407475
3874.0,0.0024683275458268735
3873.0,0.002431415565274389
3872.0,0.002404417703862045
3871.0,0.0024051760908232857
3870.0,0.0024175411080407973
3869.0,0.002415189839707609
3868.0,0.002406867258359064
3867.0,0.0024191316212670193
3866.0,0.0024450902743994585
3865.0,0.0024608972150505087
3864.0,0.0024591231192480347
3863.0,0.0024501806418659585
3862.0,0.002450031737062648
3861.0,0.0024620748581009244
3860.0,0.002474356188953493
3859.0,0.002473726242298105
3858.0,0.002451556737069688
3857.0,0.0024107756926143777
3856.0,0.002370056813960331
3855.0,0.0023635357022630194
3854.0,0.002402266932519188
3853.0,0.002424856931876977
3852.0,0.0024003162181249734
3851.0,0.0023990680111988516
3850.0,0.0024464855253176878
3849.0,0.002492564123639499
3848.0,0.002508102899438467
3847.0,0.0025019661669734615
3846.0,0.002492295877465343
3845.0,0.0024903825416853955
3844.0,0.002497651404470112
3843.0,0.002505191722247469
3842.0,0.002504311397546162
3841.0,0.002496048372061449
3840.0,0.002486536209852095
3839.0,0.002480601641514468
3838.0,0.0024769915662246258
3837.0,0.0024724501236363114
3836.0,0.0024681920246905683
3835.0,0.0024699431036093906
3834.0,0.002479981366749159
3833.0,0.0024958578837937827
3832.0,0.0025106941884648513
3831.0,0.0025174098448391153
3830.0,0.0025183658124904203
3829.0,0.0025233843523597577
3828.0,0.0025352285281223467
3827.0,0.0025427670344930616
3826.0,0.002531416684169855
3825.0,0.0025034993414554127
3824.0,0.0024797044180499203
3823.0,0.0024806130801213674
3822.0,0.0025063975415975433
3821.0,0.002521077436171174
3820.0,0.002492962271490884
3819.0,0.002460245215625199
3818.0,0.0024693951299001064
3817.0,0.0025105591194487225
3816.0,0.002547773975325244
3815.0,0.0025573280871693874
3814.0,0.0025574868421202202
3813.0,0.002575737235132123
3812.0,0.0026014296982401746
3811.0,0.0026119904850991915
3810.0,0.0026101216207001345
3809.0,0.002613380061724439
3808.0,0.002628024329001834
3807.0,0.0026354624573996614
3806.0,0.0026170581078561643
3805.0,0.002591038097225856
3804.0,0.002586627629182178
3803.0,0.002603762472814879
3802.0,0.002620489058011828
3801.0,0.0026068849150410007
3800.0,0.002568403147336284
3799.0,0.0025536149799843455
3798.0,0.002575421735855697
3797.0,0.0026018101880000482
3796.0,0.0026086581969393093
3795.0,0.0025999099168865364
3794.0,0.002596173075546073
3793.0,0.00260716022938151
3792.0,0.00262401366863765
3791.0,0.0026358469585420798
3790.0,0.002641219545766362
3789.0,0.002643912845949577
3788.0,0.0026472617729495747
3787.0,0.0026523334838443454
3786.0,0.0026574765604457495
3785.0,0.0026579618807785295
3784.0,0.0026511715097622384
3783.0,0.0026426078768329994
3782.0,0.002642250758559412
3781.0,0.002653477666744966
3780.0,0.002668663696208647
3779.0,0.002675270563936305
3778.0,0.0026714319463103124
3777.0,0.002671322257193671
3776.0,0.0026830463946607647
3775.0,0.00269713961525755
3774.0,0.002703202321489279
3773.0,0.0027042600148132825
3772.0,0.002710674307958714
3771.0,0.002725256477560463
3770.0,0.0027371122552783834
3769.0,0.0027372401000025255
3768.0,0.0027365501094748033
3767.0,0.0027502830441668387
3766.0,0.0027733393138743064
3765.0,0.002787736480090215
3764.0,0.002786411575191582
3763.0,0.0027809911605657265
3762.0,0.0027836566696011816
3761.0,0.002794329943612014
3760.0,0.002807741921425508
3759.0,0.002817307324773281
3758.0,0.0028175206488541384
3757.0,0.002807392538653886
3756.0,0.0027880421079932508
3755.0,0.0027606205362375553
3754.0,0.002727680353667222
3753.0,0.002699009747216231
3752.0,0.0026910453261572336
3751.0,0.002703657041495006
3750.0,0.00271038682470727
3749.0,0.00269813289818604
3748.0,0.002682902673006692
3747.0,0.002679707407694319
3746.0,0.0026926324405964173
3745.0,0.002718724995400103
3744.0,0.002724859860489535
3743.0,0.0027001048489459266
3742.0,0.0026987080904058046
3741.0,0.002731838859885676
3740.0,0.0027530102169092607
3739.0,0.002745679612591114
3738.0,0.0027301658678038432
3737.0,0.002728086445371763
3736.0,0.0027346494510083925
3735.0,0.002726127508852908
3734.0,0.0027014436835439866
3733.0,0.0026873557316475106
3732.0,0.002696578166973023
3731.0,0.0027196648521511865
3730.0,0.00274937022025782
3729.0,0.0027823626938017192
3728.0,0.002810236465397792
3727.0,0.002823396448422829
3726.0,0.002819596414379617
3725.0,0.002809286462611113
3724.0,0.0028073641471664445
3723.0,0.0028141593383076546
3722.0,0.0028187064983989096
3721.0,0.0028173781761839977
3720.0,0.00281907568971593
3719.0,0.0028319449310565967
3718.0,0.002852042269464168
3717.0,0.002869405444777328
3716.0,0.0028793566388887254
3715.0,0.0028849518401956285
3714.0,0.0028918379780455868
3713.0,0.0029050145007423565
3712.0,0.0029220516969000456
3711.0,0.0029308348491746353
3710.0,0.0029320239845697805
3709.0,0.002944276818305983
3708.0,0.0029751548021573542
3707.0,0.003013914343280094
3706.0,0.003048444757502799
3705.0,0.0030756986840293063
3704.0,0.0030996699461543625
3703.0,0.0031266827114974282
3702.0,0.0031594121137044308
3701.0,0.003193965163084459
3700.0,0.0032288112238658294
3699.0,0.0032691411879993536
3698.0,0.0033154837658857014
3697.0,0.0033603125485539495
3696.0,0.0033968356347038285
3695.0,0.003425197157428601
3694.0,0.003449372157396449
3693.0,0.0034716841385621835
3692.0,0.0034958426711117294
3691.0,0.0035327900798504154
3690.0,0.003592464707873012
3689.0,0.0036653680930373612
3688.0,0.0037309906928076845
3687.0,0.003789726933298855
3686.0,0.0038552238772806106
3685.0,0.00392415267578672
3684.0,0.0039826918164115235
3683.0,0.00402795592710559
3682.0,0.004069154000728362
3681.0,0.004113450864704098
3680.0,0.004154071866957694
3679.0,0.0041831153930931425
3678.0,0.004212968065026563
3677.0,0.004270349721619122
3676.0,0.004353086186915165
3675.0,0.004406201545544752
3674.0,0.004417658013110179
3673.0,0.004455247913277477
3672.0,0.004552207783978244
3671.0,0.004691014182791206
3670.0,0.004838083085510593
3669.0,0.004950061365352844
3668.0,0.005030288009455666
3667.0,0.005115968943504412
3666.0,0.005214219309090391
3665.0,0.00531406745832606
3664.0,0.005412288885041652
3663.0,0.0055099985303257906
3662.0,0.005605293635911085
3661.0,0.0056939842166855645
3660.0,0.005776265217224762
3659.0,0.005862588296185958
3658.0,0.005969634455009065
3657.0,0.006099729142978783
3656.0,0.006224204830486236
3655.0,0.00631290816502365
3654.0,0.00637407341524901
3653.0,0.006433281754939393
3652.0,0.006512299377872982
3651.0,0.006637174530869155
3650.0,0.006809097624459465
3649.0,0.006977451596054871
3648.0,0.007102701884018934
3647.0,0.007203696074811368
3646.0,0.0073108558705844255
3645.0,0.00743183222326216
3644.0,0.007560672409097463
3643.0,0.0076894225362237265
3642.0,0.00781284965176809
3641.0,0.007931022702631931
3640.0,0.0080470189983798
3639.0,0.008160158213982872
3638.0,0.00826435192607982
3637.0,0.00835916626037863
3636.0,0.008453991158598203
3635.0,0.008552602502677488
3634.0,0.00864111459568461
3633.0,0.008703210425733677
3632.0,0.0087480550576192
3631.0,0.00881408200395303
3630.0,0.008944026342637683
3629.0,0.009116647210648126
3628.0,0.009243297291779216
3627.0,0.009312255206438337
3626.0,0.009385300549296469
3625.0,0.009473229112182608
3624.0,0.00955258787830436
3623.0,0.009616440463902582
3622.0,0.009678669123580093
3621.0,0.009759564988002567
3620.0,0.009863397256913197
3619.0,0.009963925926626264
3618.0,0.010032929791401912
3617.0,0.010078745527709822
3616.0,0.01012656674014446
3615.0,0.010187812844600692
3614.0,0.010259700890571734
3613.0,0.010331332367902719
3612.0,0.010394802101984681
3611.0,0.010457376699082966
3610.0,0.01053518889410704
3609.0,0.010632939545961485
3608.0,0.010733486231109571
3607.0,0.010814217101171647
3606.0,0.010874719036611106
3605.0,0.010931103660329579
3604.0,0.01099381632796006
3603.0,0.0110653558513429
3602.0,0.011144549211129921
3601.0,0.01122463959102117
3600.0,0.011295386418922993
3599.0,0.011354766543627288
3598.0,0.011414540242166437
3597.0,0.011490226060845227
3596.0,0.01158588931266017
3595.0,0.011687302698867884
3594.0,0.011773347167043167
3593.0,0.011835276165438426
3592.0,0.011881797307893169
3591.0,0.011928524676505781
3590.0,0.011994178632897395
3589.0,0.012097514689181972
3588.0,0.012235008027894942
3587.0,0.01236963202640375
3586.0,0.012477677198282269
3585.0,0.012576715070190262
3584.0,0.012686502127478724
3583.0,0.012806199704000445
3582.0,0.01292874035202992
3581.0,0.013050456880259628
3580.0,0.01316973909955151
3579.0,0.013286905117239945
3578.0,0.013405901049743908
3577.0,0.01353125958114974
3576.0,0.013663526191570075
3575.0,0.013798705724258453
3574.0,0.013932136613275036
3573.0,0.01405983884950314
3572.0,0.01417822007136504
3571.0,0.014288487991970189
3570.0,0.01440352658953329
3569.0,0.014545493529343947
3568.0,0.01472286722996323
3567.0,0.014905521236158594
3566.0,0.015053814315861263
3565.0,0.015169866199417653
3564.0,0.015281880560270338
3563.0,0.015405377819117275
3562.0,0.015541717968917419
3561.0,0.015687006733454256
3560.0,0.01583261571120005
3559.0,0.015968383154815753
3558.0,0.01609022757401232
3557.0,0.016201162318328542
3556.0,0.016307337884060802
3555.0,0.01641615995315527
3554.0,0.016533276451511217
3553.0,0.016655012491893235
3552.0,0.016766240921754945
3551.0,0.016856070775092644
3550.0,0.016932739592945632
3549.0,0.0170166234026525
3548.0,0.017121535309789576
3547.0,0.01724264927577545
3546.0,0.01736039596634539
3545.0,0.017458935630832475
3544.0,0.017539780890349143
3543.0,0.01761517129784189
3542.0,0.017693325723220354
3541.0,0.017773575669049423
3540.0,0.017852098117407525
3539.0,0.01792899452783165
3538.0,0.018008011260509684
3537.0,0.018089051509070874
3536.0,0.018164770414265827
3535.0,0.018229948486810154
3534.0,0.018289991243693716
3533.0,0.018354449284328257
3532.0,0.018425456035018557
3531.0,0.018496861872897837
3530.0,0.01856348796852212
3529.0,0.018625702637962253
3528.0,0.018685557368953127
3527.0,0.018744467822537015
3526.0,0.01880612060004067
3525.0,0.01887549792037505
3524.0,0.01895254870071854
3523.0,0.019031048554732418
3522.0,0.01910662210973762
3521.0,0.01918161675811029
3520.0,0.019259298169093535
3519.0,0.019337666308857318
3518.0,0.019411573607556572
3517.0,0.019478411568192466
3516.0,0.019539367109547155
3515.0,0.019597213418637873
3514.0,0.01965545557360889
3513.0,0.019718166574708162
3512.0,0.019787948643945622
3511.0,0.019863437677913032
3510.0,0.01993979691751769
3509.0,0.02001158543240177
3508.0,0.020076162381632803
3507.0,0.020135636912774597
3506.0,0.020195865071245208
3505.0,0.02026301480618602
3504.0,0.02033973655918115
3503.0,0.02042312594205459
3502.0,0.02050737646372193
3501.0,0.020588193936714932
3500.0,0.020664012437813573
3499.0,0.020736444753223553
3498.0,0.02081079224609648
3497.0,0.020891613635482004
3496.0,0.0209772174705725
3495.0,0.02106175754382013
3494.0,0.02114235361073935
3493.0,0.02122093627081634
3492.0,0.021299681519948575
3491.0,0.02137885664164248
3490.0,0.021459856313163623
3489.0,0.02154594982258922
3488.0,0.021637877843873807
3487.0,0.02173197443773408
3486.0,0.021824489716546117
3485.0,0.021914907863494232
3484.0,0.02200368251673093
3483.0,0.022089496989014867
3482.0,0.022170378712540732
3481.0,0.022246426261434672
3480.0,0.022320974078950007
3479.0,0.022400139532297893
3478.0,0.022490704890389172
3477.0,0.022595270086363244
3476.0,0.022708179446819916
3475.0,0.022818120870863063
3474.0,0.02291621793435503
3473.0,0.02300019989125637
3472.0,0.023071787517320322
3471.0,0.023135406482934134
3470.0,0.023200973730766263
3469.0,0.023282022422156077
3468.0,0.02338575943811361
3467.0,0.023506849583842495
3466.0,0.023634090081744663
3465.0,0.0237604287774147
3464.0,0.02388375795746654
3463.0,0.024002239537175372
3462.0,0.02411461837023276
3461.0,0.024225085509086444
3460.0,0.024342995559717254
3459.0,0.024475089504895905
3458.0,0.0246189175970688
3457.0,0.02476462912076965
3456.0,0.02490318730286586
3455.0,0.02503354020181677
3454.0,0.02516200634908584
3453.0,0.025293996237784135
3452.0,0.025427141845151907
3451.0,0.02555530280146168
3450.0,0.02567945519776099
3449.0,0.025810465319832235
3448.0,0.0259586619647135
3447.0,0.026121825165109924
3446.0,0.026287616878326318
3445.0,0.026447225023963412
3444.0,0.02660086442651296
3443.0,0.026750664588863257
3442.0,0.026893134424106232
3441.0,0.027019521497322018
3440.0,0.02712291481510165
3439.0,0.027204919759004517
3438.0,0.027276327717750622
3437.0,0.027352306988198176
3436.0,0.027444980934122426
3435.0,0.027556804533604366
3434.0,0.027677998703663532
3433.0,0.027790755672011738
3432.0,0.027880463640015618
3431.0,0.027946825764933306
3430.0,0.028003806193077956
3429.0,0.028065963117640348
3428.0,0.02813479390779216
3427.0,0.02819911894863099
3426.0,0.02824670531307954
3425.0,0.02827284782009276
3424.0,0.028279912812739796
3423.0,0.028273153491643117
3422.0,0.028257689649064853
3421.0,0.028237113523379813
3420.0,0.028213134065496796
3419.0,0.028186099449341938
3418.0,0.028154815069595586
3417.0,0.028115715752362783
3416.0,0.028065135064689835
3415.0,0.028005275153429106
3414.0,0.027946711799512018
3413.0,0.02790138877083668
3412.0,0.027872675856640126
3411.0,0.027854213681557917
3410.0,0.027838250752018887
3409.0,0.027823080538529284
3408.0,0.027812004200114364
3407.0,0.027806850679102553
3406.0,0.027803430127931135
3405.0,0.027792643020780668
3404.0,0.027766526512349454
3403.0,0.027725798355874638
3402.0,0.027682687872528138
3401.0,0.02765474734261851
3400.0,0.027653416024943617
3399.0,0.027676656837744763
3398.0,0.02771105216906626
3397.0,0.02774071894387048
3396.0,0.027756553309539175
3395.0,0.027759753877362917
3394.0,0.027758220580163223
3393.0,0.027760222945083866
3392.0,0.02777078757636895
3391.0,0.027791956780181308
3390.0,0.027823448774780046
3389.0,0.02786175687892172
3388.0,0.027900593634988584
3387.0,0.027934381431333463
3386.0,0.02796106540576434
3385.0,0.027980750332987213
3384.0,0.027992899786063882
3383.0,0.02799703075129975
3382.0,0.02799565613403672
3381.0,0.027994405520109795
3380.0,0.027998662919752816
3379.0,0.02801045937072627
3378.0,0.028028218476387742
3377.0,0.02804832228096444
3376.0,0.028067054957102905
3375.0,0.028082236068099634
3374.0,0.02809365969808853
3373.0,0.02810189511619223
3372.0,0.02810709135341606
3371.0,0.028109556531707505
3370.0,0.028111110964994614
3369.0,0.0281150119942693
3368.0,0.02812432162494636
3367.0,0.02814030749046774
3366.0,0.028161564689466914
3365.0,0.028184262606813296
3364.0,0.028204281589905025
3363.0,0.028220116128383335
3362.0,0.028233248106929183
3361.0,0.028245394082981032
3360.0,0.028256700890723047
3359.0,0.028267510733213236
3358.0,0.028280146938148322
3357.0,0.028296607531988774
3356.0,0.02831475696378323
3355.0,0.028328684653554904
3354.0,0.028333467391767266
3353.0,0.028329418475237518
3352.0,0.028322614137535
3351.0,0.028321865397479357
3350.0,0.02833346032832343
3349.0,0.028356535376651393
3348.0,0.02838322487137742
3347.0,0.028404332371519216
3346.0,0.028415201796011633
3345.0,0.028416775874227876
3344.0,0.02841288514683879
3343.0,0.028407474287572884
3342.0,0.028402757422352196
3341.0,0.028398378950643018
3340.0,0.028393172873244416
3339.0,0.028388573165229004
3338.0,0.02838871131152973
3337.0,0.028395501111913704
3336.0,0.02840504515253585
3335.0,0.028410836445865423
3334.0,0.02840906815171837
3333.0,0.028398767595839244
3332.0,0.02837906944488438
3331.0,0.028350214218478692
3330.0,0.028316438167187624
3329.0,0.02828396322927547
3328.0,0.028255285414848758
3327.0,0.02822784141200102
3326.0,0.028198788841936905
3325.0,0.02816875032276854
3324.0,0.028140067619091547
3323.0,0.02811367303217502
3322.0,0.028088875296926878
3321.0,0.02806449833025096
3320.0,0.028039197307301103
3319.0,0.028012203883037087
3318.0,0.02798488944990265
3317.0,0.027960258922389798
3316.0,0.027939787849028334
3315.0,0.02792160537477109
3314.0,0.027902407257367035
3313.0,0.02788027878516937
3312.0,0.027855448484088233
3311.0,0.027829760866523154
3310.0,0.027806227909958625
3309.0,0.027787615025081487
3308.0,0.027774038858952847
3307.0,0.027762633324008544
3306.0,0.027750533857456627
3305.0,0.027737494559268265
3304.0,0.027724782654204347
3303.0,0.027712389919963755
3302.0,0.027698635024182093
3301.0,0.027682309141735802
3300.0,0.027663900048752993
3299.0,0.02764416705441886
3298.0,0.02762201759512337
3297.0,0.02759459018417384
3296.0,0.027560113142800716
3295.0,0.027520803231484106
3294.0,0.02748233120585851
3293.0,0.027449545448607685
3292.0,0.027422489976971793
3291.0,0.02739686456342822
3290.0,0.02736804452301053
3289.0,0.02733396824485352
3288.0,0.027294804289444047
3287.0,0.027251600104708295
3286.0,0.027205885874356493
3285.0,0.027159620170107656
3284.0,0.027114773856314698
3283.0,0.027073075671080145
3282.0,0.02703594962483719
3281.0,0.02700359209498945
3280.0,0.02697342400520759
3279.0,0.026940259898990317
3278.0,0.026899300435774424
3277.0,0.02684958976919585
3276.0,0.026794676119929455
3275.0,0.026739982342740734
3274.0,0.026689128656337505
3273.0,0.026642005630971848
3272.0,0.026596044450966704
3271.0,0.026549445581114748
3270.0,0.026502932580682762
3269.0,0.026457945045034265
3268.0,0.026413614723138364
3267.0,0.02636669704348145
3266.0,0.026314803590775974
3265.0,0.02625887248093664
3264.0,0.026201978226254617
3263.0,0.02614612616515002
3262.0,0.02609067754913397
3261.0,0.026033628517734626
3260.0,0.025974082811966587
3259.0,0.02591368214948913
3258.0,0.025855614682787166
3257.0,0.025801688531483437
3256.0,0.025750286628030555
3255.0,0.02569796531249965
3254.0,0.025643174029942237
3253.0,0.025587653132879765
3252.0,0.025533982867158696
3251.0,0.025482648726565794
3250.0,0.02543183835594756
3249.0,0.025379221568376898
3248.0,0.02532357191364072
3247.0,0.02526557522042283
3246.0,0.02520772545584558
3245.0,0.025152620578365422
3244.0,0.025100532945842528
3243.0,0.02504902174992677
3242.0,0.02499535008570375
3241.0,0.024938850618586875
3240.0,0.024880869831456907
3239.0,0.024823198099873045
3238.0,0.02476672747255014
3237.0,0.02471058213217028
3236.0,0.02465228177095534
3235.0,0.02459029066131917
3234.0,0.02452701833500303
3233.0,0.02446751968643851
3232.0,0.02441373397983496
3231.0,0.024361291660062866
3230.0,0.024303797994754097
3229.0,0.024239401029890386
3228.0,0.02417138500794828
3227.0,0.02410310836749598
3226.0,0.02403460948117066
3225.0,0.023964203237398056
3224.0,0.023891464361157688
3223.0,0.023817883569277328
3222.0,0.023745530420760504
3221.0,0.02367532996333106
3220.0,0.023606017097167167
3219.0,0.02353523862899972
3218.0,0.023462741651030284
3217.0,0.023391551520479375
3216.0,0.02332416696406522
3215.0,0.02325820535930584
3214.0,0.02318835067295452
3213.0,0.023113102912577448
3212.0,0.023037052706229643
3211.0,0.02296520279514043
3210.0,0.022897024094705194
3209.0,0.02282782206729847
3208.0,0.02275476947293505
3207.0,0.022679606593513226
3206.0,0.02260575477184279
3205.0,0.022534611138493095
3204.0,0.02246508112481845
3203.0,0.022395453803471615
3202.0,0.022324925190559817
3201.0,0.022253791464243333
3200.0,0.022182964888088807
3199.0,0.022113395146462416
3198.0,0.022045326659639007
3197.0,0.021977608380268313
3196.0,0.02190808896715876
3195.0,0.021835558720754402
3194.0,0.021761205837103524
3193.0,0.021687132332659457
3192.0,0.021613188227484953
3191.0,0.021536676664170282
3190.0,0.021456301145222716
3189.0,0.02137518133554061
3188.0,0.021297973321192386
3187.0,0.021225146058638403
3186.0,0.021151972068841125
3185.0,0.02107356151342925
3184.0,0.020989582273334927
3183.0,0.02090381960187137
3182.0,0.020820625413399914
3181.0,0.02074241410890135
3180.0,0.02066898400770376
3179.0,0.02059772372575009
3178.0,0.020524901264946983
3177.0,0.020448137650278676
3176.0,0.02036824353338494
3175.0,0.02028850639146857
3174.0,0.02021189908115515
3173.0,0.0201385205100614
3172.0,0.020065425594355146
3171.0,0.01998942707836744
3170.0,0.019910673675166978
3169.0,0.019833076035669875
3168.0,0.019760347242826288
3167.0,0.019691868495178247
3166.0,0.019623489347970858
3165.0,0.019552211437465668
3164.0,0.019479031680395036
3163.0,0.019407168111045488
3162.0,0.01933846919839038
3161.0,0.01927190272800914
3160.0,0.0192049399525151
3159.0,0.01913615104420496
3158.0,0.019066778677858085
3157.0,0.018999622128890198
3156.0,0.018935810824349565
3155.0,0.01887312039612737
3154.0,0.018808544087118205
3153.0,0.01874226440558126
3152.0,0.018677757055753603
3151.0,0.018617739113982956
3150.0,0.01856117168443639
3149.0,0.018504796952299816
3148.0,0.018446525376854036
3147.0,0.01838667431842005
3146.0,0.018327237869993292
3145.0,0.01827107359627006
3144.0,0.018220568257027548
3143.0,0.018175262099128855
3142.0,0.018131205429685802
3141.0,0.01808470210073754
3140.0,0.01803734540028844
3139.0,0.01799595166212013
3138.0,0.0179663514959042
3137.0,0.017948098480445988
3136.0,0.017936098514435558
3135.0,0.017926019409785388
3134.0,0.017916292489963046
3133.0,0.017905288931707057
3132.0,0.01788914869111408
3131.0,0.017864186966779362
3130.0,0.017830387032993493
3129.0,0.017790688967378916
3128.0,0.017746860015422056
3127.0,0.01769724628103323
3126.0,0.01763898722889416
3125.0,0.017571889310391893
3124.0,0.01750007870681739
3123.0,0.017430202824323258
3122.0,0.017367722990891225
3121.0,0.017314658789067284
3120.0,0.01727103930208131
3119.0,0.01723798440890579
3118.0,0.017218068523048174
3117.0,0.017212466966891087
3116.0,0.01721938757434161
3115.0,0.01723649187694859
3114.0,0.017263464172427998
3113.0,0.017300289011682218
3112.0,0.017344288650750612
3111.0,0.01739150531385566
3110.0,0.017440251167106607
3109.0,0.01749051654081232
3108.0,0.01753932229617053
3107.0,0.017579038024837616
3106.0,0.017601629269513676
3105.0,0.017602954097665536
3104.0,0.017582433007855256
3103.0,0.017540330377743968
3102.0,0.017476624306136758
3101.0,0.01739203198875355
3100.0,0.017289549692550227
3099.0,0.01717546981887762
3098.0,0.01705889712144429
3097.0,0.0169493543238662
3096.0,0.016854328517692887
3095.0,0.016779013834512076
3094.0,0.016727466749407068
3093.0,0.016701889891955125
3092.0,0.016700518544357886
3091.0,0.01671880070923949
3090.0,0.0167533649672562
3089.0,0.016802570985177564
3088.0,0.016862224948653044
3087.0,0.016923481054759153
3086.0,0.016977989926043994
3085.0,0.017023396425693206
3084.0,0.01706089460023078
3083.0,0.017088392191402547
3082.0,0.01709891913370006
3081.0,0.01708684659481668
3080.0,0.01705402086679071
3079.0,0.017008903797959017
3078.0,0.016960933930485336
3077.0,0.016916110752298954
3076.0,0.016876621716733927
3075.0,0.01684295809985894
3074.0,0.016815317428537643
3073.0,0.016792983534148525
3072.0,0.016773242857922525
3071.0,0.01675179342005149
3070.0,0.01672443277017864
3069.0,0.016688035083967528
3068.0,0.016640498655037087
3067.0,0.01658115150281242
3066.0,0.01651159758456114
3065.0,0.016435591969175007
3064.0,0.01635816498245906
3063.0,0.016285569514091987
3062.0,0.016225085055304497
3061.0,0.016182859769308357
3060.0,0.016161335978122814
3059.0,0.016159188757100533
3058.0,0.016172339702278184
3057.0,0.016191963157035652
3056.0,0.016201825805258613
3055.0,0.016181774753987785
3054.0,0.016116970718486542
3053.0,0.016002855574336162
3052.0,0.015841312543360193
3051.0,0.015635938531287752
3050.0,0.015393044456600329
3049.0,0.015125015316531376
3048.0,0.014848958324876132
3047.0,0.014581277092306905
3046.0,0.014334354093998549
3045.0,0.01411612556403943
3044.0,0.013929190133432044
3043.0,0.01377061984008458
3042.0,0.013635380260854923
3041.0,0.013520236650978592
3040.0,0.013423514038129025
3039.0,0.013342292989696736
3038.0,0.013272493903464324
3037.0,0.013211461106811654
3036.0,0.013158666396250542
3035.0,0.013114579669116676
3034.0,0.0130805635210006
3033.0,0.01305873473589218
3032.0,0.013049316102752784
3031.0,0.013048333543239938
3030.0,0.013050460730524571
3029.0,0.013054125222249219
3028.0,0.013061476274611423
3027.0,0.013074096781825379
3026.0,0.013091231904057476
3025.0,0.013112634302021638
3024.0,0.013140557525241778
3023.0,0.013177539818205762
3022.0,0.013223626047919972
3021.0,0.013276708844313027
3020.0,0.013335098873186377
3019.0,0.01339897778839122
3018.0,0.013469669784385522
3017.0,0.013547487949406401
3016.0,0.01363018811554205
3015.0,0.013714116602021754
3014.0,0.013797403967024807
3013.0,0.013881776714051344
3012.0,0.01397045860943687
3011.0,0.014064703449802925
3010.0,0.01416267525025924
3009.0,0.014260837157954644
3008.0,0.014356079411985523
3007.0,0.014447425373445195
3006.0,0.01453668614896652
3005.0,0.014626581353150672
3004.0,0.014717383755141679
3003.0,0.01480642347028345
3002.0,0.014891428670020163
3001.0,0.014973375468848697
3000.0,0.01505523311430143
2999.0,0.01513944637955348
2998.0,0.015227885192866317
2997.0,0.015322851077005512
2996.0,0.015426391874695956
2995.0,0.015539095611270658
2994.0,0.01566093047402543
2993.0,0.015792471212406952
2992.0,0.015934145487453925
2991.0,0.016085407185495063
2990.0,0.016246194203810568
2989.0,0.01641813593942256
2988.0,0.016602534970470026
2987.0,0.016798037104281408
2986.0,0.01700215919355471
2985.0,0.017214690841200912
2984.0,0.017437894408740457
2983.0,0.017674164214144705
2982.0,0.01792523555151711
2981.0,0.01819303909761404
2980.0,0.018479125097669292
2979.0,0.018782838421197913
2978.0,0.019101618327190862
2977.0,0.019433630921091863
2976.0,0.019779593132892462
2975.0,0.020142328695749293
2974.0,0.020524969483583413
2973.0,0.020928612614454552
2972.0,0.021350386806565723
2971.0,0.02178446142923547
2970.0,0.022225483715126663
2969.0,0.022669044954358224
2968.0,0.023107062941760622
2967.0,0.02352505967962815
2966.0,0.023907534092075414
2965.0,0.024244551949148305
2964.0,0.02453022265981271
2963.0,0.024755899802106178
2962.0,0.024909678196379195
2961.0,0.024984157650299054
2960.0,0.024980943446797556
2959.0,0.024906056753491605
2958.0,0.024763718508152212
2957.0,0.02455631670193549
2956.0,0.024286649975999955
2955.0,0.02395795922558462
2954.0,0.023574416802509077
2953.0,0.023143107482895865
2952.0,0.022673573273899784
2951.0,0.022174020119075
2950.0,0.021649910431769427
2949.0,0.021106924680533632
2948.0,0.02055296344723661
2947.0,0.019996225327775053
2946.0,0.0194440126469797
2945.0,0.01890451861619444
2944.0,0.01838715216282434
2943.0,0.01789942922856663
2942.0,0.01744559476248241
2941.0,0.017029276538898075
2940.0,0.016654874856530798
2939.0,0.016325164905621126
2938.0,0.016038897856819806
2937.0,0.0157922427571077
2936.0,0.015582130571081584
2935.0,0.015407528145454676
2934.0,0.015267854561643222
2933.0,0.015160018695831577
2932.0,0.015076342028313313
2931.0,0.015007071305075309
2930.0,0.014947810378682296
2929.0,0.0149037492852547
2928.0,0.014883561060577016
2927.0,0.01488885366921329
2926.0,0.01491197266773927
2925.0,0.014944209299648532
2924.0,0.014982811214462561
2923.0,0.015028959654212373
2922.0,0.01508205041094612
2921.0,0.015136697539706666
2920.0,0.015181836429675265
2919.0,0.015199844194912281
2918.0,0.0151698776597178
2917.0,0.01507737240070759
2916.0,0.014923935028156084
2915.0,0.014728974229920862
2914.0,0.01452122763111309
2913.0,0.014327263739021264
2912.0,0.014162942822486674
2911.0,0.014032087344285665
2910.0,0.013930742336520453
2909.0,0.013851789144266317
2908.0,0.01378636531352493
2907.0,0.013724964838995775
2906.0,0.013661167618715008
2905.0,0.01359489880878293
2904.0,0.013531209506906509
2903.0,0.013475837559776719
2902.0,0.013432623670764268
2901.0,0.013403388163344129
2900.0,0.013387316309010595
2899.0,0.01338114440512669
2898.0,0.013381753628050712
2897.0,0.013388561465085113
2896.0,0.013402242067867672
2895.0,0.013420817347906802
2894.0,0.013438641440329038
2893.0,0.013449101329652081
2892.0,0.013446807413388228
2891.0,0.01342808347735188
2890.0,0.013391403075000259
2889.0,0.01333776973419052
2888.0,0.013268883705893044
2887.0,0.013184480796848145
2886.0,0.013083112534195125
2885.0,0.012966040216401267
2884.0,0.012839336174541471
2883.0,0.01271163079254153
2882.0,0.012589838746190376
2881.0,0.012476433707141384
2880.0,0.01236944714732235
2879.0,0.012265451778431967
2878.0,0.012163748890732975
2877.0,0.012067178919441016
2876.0,0.011978292131544095
2875.0,0.011895697190536375
2874.0,0.011815497278137094
2873.0,0.01173494539169392
2872.0,0.011652870449602615
2871.0,0.011567890250764401
2870.0,0.011479133917782373
2869.0,0.01138889606447333
2868.0,0.011302348300400595
2867.0,0.011224009876376877
2866.0,0.011155715029826044
2865.0,0.011097505313462422
2864.0,0.011048463407514947
2863.0,0.01100677741398932
2862.0,0.010970908601990043
2861.0,0.010941205614543703
2860.0,0.010919107977959756
2859.0,0.010904681462581152
2858.0,0.010895975436270054
2857.0,0.010890561223796008
2856.0,0.010887098330572208
2855.0,0.010886260117678882
2854.0,0.010891076028261924
2853.0,0.0109032764004142
2852.0,0.010915297924070751
2851.0,0.010905091427007981
2850.0,0.01084246001978865
2849.0,0.010705108077819138
2848.0,0.010491367957163667
2847.0,0.010221175545846253
2846.0,0.00992610069076412
2845.0,0.009637226591679588
2844.0,0.009375587797298605
2843.0,0.009149350443250763
2842.0,0.008957808923895453
2841.0,0.008796632936365845
2840.0,0.008660190434407477
2839.0,0.008542128734934214
2838.0,0.008436904075597614
2837.0,0.008341229649451337
2836.0,0.008253253035980346
2835.0,0.008171277008983508
2834.0,0.008094437982112757
2833.0,0.008023268501819997
2832.0,0.007958164753070759
2831.0,0.007898105521069666
2830.0,0.00784191493007095
2829.0,0.007789149840951606
2828.0,0.007738347392378702
2827.0,0.007686273588751772
2826.0,0.007631407241911385
2825.0,0.0075769329094636136
2824.0,0.007527716670770981
2823.0,0.0074850230631774185
2822.0,0.007446009383599038
2821.0,0.007407734064652187
2820.0,0.007369461043499562
2819.0,0.007331607344525919
2818.0,0.007295094178127492
2817.0,0.007261831635211042
2816.0,0.007233683140954737
2815.0,0.007210331494167423
2814.0,0.007189471807096486
2813.0,0.00716937334336187
2812.0,0.007150097698788277
2811.0,0.0071322372047773214
2810.0,0.007115612911684105
2809.0,0.007099238250396758
2808.0,0.007081813283756826
2807.0,0.007062266171244813
2806.0,0.00704005961039882
2805.0,0.007014591140009867
2804.0,0.006984454653548494
2803.0,0.006948792851314936
2802.0,0.006909617491256034
2801.0,0.006870740608738874
2800.0,0.006833654535417399
2799.0,0.006796503815571805
2798.0,0.006758345163739965
2797.0,0.0067218187951293765
2796.0,0.0066893307332993954
2795.0,0.006658967750406466
2794.0,0.006627377421995146
2793.0,0.006595152789761362
2792.0,0.0065658429331898055
2791.0,0.006540139647428018
2790.0,0.006514369143197023
2789.0,0.0064850203885626016
2788.0,0.006452022631604345
2787.0,0.006417515115697067
2786.0,0.006383917805272584
2785.0,0.006353407403188151
2784.0,0.006326970440927445
2783.0,0.006302904482990446
2782.0,0.006277783016993586
2781.0,0.006249917263029566
2780.0,0.0062209107062898405
2779.0,0.006193435550102447
2778.0,0.006168573287160388
2777.0,0.0061455649780106526
2776.0,0.00612336822799916
2775.0,0.006102166465692737
2774.0,0.006083401231876024
2773.0,0.00606793117828552
2772.0,0.006053989773870458
2771.0,0.006038187092519737
2770.0,0.006019455504770316
2769.0,0.006000731568592035
2768.0,0.005985513553759777
2767.0,0.005973781092753934
2766.0,0.005962631729782201
2765.0,0.005949865435539912
2764.0,0.005935455903133803
2763.0,0.005920352269060411
2762.0,0.005905659569907296
2761.0,0.005892649652448923
2760.0,0.005881806040882032
2759.0,0.005871789131145779
2758.0,0.0058603925473698065
2757.0,0.005846309154044748
2756.0,0.00582917986103334
2755.0,0.005808865341526109
2754.0,0.005785890384339227
2753.0,0.005761728696087294
2752.0,0.00573720197309978
2751.0,0.0057111652847398175
2750.0,0.005682257201449006
2749.0,0.005651526382638753
2748.0,0.005622000629974186
2747.0,0.0055961372669613655
2746.0,0.005574584763926087
2745.0,0.005556537185062662
2744.0,0.005539816723458745
2743.0,0.0055213190407349495
2742.0,0.005499235255618195
2741.0,0.005474971206454667
2740.0,0.005451749958947737
2739.0,0.005431521606191841
2738.0,0.005414084747355496
2737.0,0.0053983836722591196
2736.0,0.00538307175648034
2735.0,0.005366238404536008
2734.0,0.005346263065231384
2733.0,0.005323180659007975
2732.0,0.0052983013775523774
2731.0,0.005272486501702196
2730.0,0.005245575905747735
2729.0,0.005217441286013306
2728.0,0.005188830873738308
2727.0,0.005160899471364474
2726.0,0.005134102114233074
2725.0,0.005107513281992403
2724.0,0.005079642796739818
2723.0,0.0050507211298738116
2722.0,0.005023797000098527
2721.0,0.00500214263842831
2720.0,0.004985280200234678
2719.0,0.004969199361178237
2718.0,0.004950914716418735
2717.0,0.004931228360889589
2716.0,0.00491237866917719
2715.0,0.004894873788804555
2714.0,0.004877925287635104
2713.0,0.004861432745170978
2712.0,0.004845849242441572
2711.0,0.004830846819541056
2710.0,0.004815426709477715
2709.0,0.004799024957688756
2708.0,0.00478193624043078
2707.0,0.004765165075635957
2706.0,0.0047499771339839444
2705.0,0.004736576179610276
2704.0,0.004723177800438082
2703.0,0.004707725249555398
2702.0,0.004690528167241697
2701.0,0.004673610338215003
2700.0,0.004657602083808271
2699.0,0.004641513501108369
2698.0,0.00462577948120088
2697.0,0.0046129283575968025
2696.0,0.004604250604466869
2695.0,0.004598084357526595
2694.0,0.004592264557515101
2693.0,0.004585937248929991
2692.0,0.004578251106143703
2691.0,0.004568057193063527
2690.0,0.004556242594880571
2689.0,0.004545672199250945
2688.0,0.0045371850478787825
2687.0,0.004528219240689059
2686.0,0.004517049336131098
2685.0,0.004505712315880178
2684.0,0.004496737397517689
2683.0,0.004489463533618356
2682.0,0.004481986929501562
2681.0,0.004474236288046136
2680.0,0.004466622692144869
2679.0,0.004457988429678931
2678.0,0.0044478042328902284
2677.0,0.004438505993887975
2676.0,0.0044323630674994
2675.0,0.004427483196287834
2674.0,0.0044199620461309935
2673.0,0.004409111901302019
2672.0,0.004397695788090928
2671.0,0.004387706530212137
2670.0,0.0043788027549118026
2669.0,0.004370660845325765
2668.0,0.004364655075078879
2667.0,0.0043632267267933915
2666.0,0.004369107424096892
2665.0,0.004384233672077342
2664.0,0.004407525641215482
2663.0,0.004434503772865779
2662.0,0.004460656719883113
2661.0,0.004484650071168398
2660.0,0.0045069597530679436
2659.0,0.004527068193872816
2658.0,0.004544220781104174
2657.0,0.004559565989426002
2656.0,0.004574879925750514
2655.0,0.004589622702271863
2654.0,0.00460156971610847
2653.0,0.0046100618621240045
2652.0,0.00461675875220504
2651.0,0.0046236544142351154
2650.0,0.004632054813663086
2649.0,0.004642620369933454
2648.0,0.004654315346804499
2647.0,0.004664099764175101
2646.0,0.00466984325318768
2645.0,0.004673326158378617
2644.0,0.0046785187474791086
2643.0,0.004687395500858828
2642.0,0.004699207974761798
2641.0,0.004713049155936386
2640.0,0.0047291082550631434
2639.0,0.004747679678928787
2638.0,0.004768681762237424
2637.0,0.0047916867223554965
2636.0,0.0048151012223195625
2635.0,0.004836414353514702
2634.0,0.0048550502822804825
2633.0,0.004873784208109705
2632.0,0.004895174577632543
2631.0,0.004917199935888639
2630.0,0.004934435713223495
2629.0,0.004943044236499127
2628.0,0.0049430395951812695
2627.0,0.004936692534779262
2626.0,0.004926616697992369
2625.0,0.004914824230357655
2624.0,0.004901813842282807
2623.0,0.00488718909111449
2622.0,0.004872156802489984
2621.0,0.0048598379179644125
2620.0,0.004851574909300592
2619.0,0.004844831741015669
2618.0,0.004836808915914731
2617.0,0.004828354507083582
2616.0,0.0048220832687357424
2615.0,0.004818365764740753
2614.0,0.004815607660348084
2613.0,0.004812906897162685
2612.0,0.004809912832097187
2611.0,0.004805729424704351
2610.0,0.004800572358279768
2609.0,0.004796960931966001
2608.0,0.004796369956880674
2607.0,0.004796114186303653
2606.0,0.004792434830905581
2605.0,0.004785538053199687
2604.0,0.004779049890114107
2603.0,0.004775641557764616
2602.0,0.004775620357287379
2601.0,0.004778347262919053
2600.0,0.004782284183706892
2599.0,0.004785169150143438
2598.0,0.004786800618290555
2597.0,0.00479030633099377
2596.0,0.00479805308236634
2595.0,0.004807776947081124
2594.0,0.004815507148610826
2593.0,0.004820532212144943
2592.0,0.004824838173773855
2591.0,0.004829717640451815
2590.0,0.004836058444594933
2589.0,0.004845820950985785
2588.0,0.00485916122600441
2587.0,0.004871473617375655
2586.0,0.0048775731139083294
2585.0,0.004878396562376052
2584.0,0.0048801457118347125
2583.0,0.004887143028178354
2582.0,0.004898199267062051
2581.0,0.004909203138129892
2580.0,0.004916380268422536
2579.0,0.004917594592087967
2578.0,0.004913461844368725
2577.0,0.004907180233050588
2576.0,0.004901456696922887
2575.0,0.004896576283941414
2574.0,0.00489289586912502
2573.0,0.0048927942445097655
2572.0,0.0048972662478205
2571.0,0.004902582202768646
2570.0,0.0049036958747230705
2569.0,0.004899782993541103
2568.0,0.0048937655137148
2567.0,0.004887884817007996
2566.0,0.0048824076226323815
2565.0,0.004877196927219623
2564.0,0.004871828028724942
2563.0,0.004865540719238293
2562.0,0.004859353053042874
2561.0,0.004856185304398153
2560.0,0.00485655985311859
2559.0,0.00485689385068251
2558.0,0.004854879715038523
2557.0,0.004853399788555036
2556.0,0.0048553627674473125
2555.0,0.00485755682064731
2554.0,0.004854362016664974
2553.0,0.0048457562696720725
2552.0,0.004836950533579798
2551.0,0.004831476302955416
2550.0,0.0048289631552979025
2549.0,0.004828310061951003
2548.0,0.004828383044789326
2547.0,0.004826060237484327
2546.0,0.004817832967564574
2545.0,0.004803798705501852
2544.0,0.004787562991477403
2543.0,0.004772919625879898
2542.0,0.004762817094561999
2541.0,0.00475949428647437
2540.0,0.004761950830623189
2539.0,0.004764661301546855
2538.0,0.004762518083047202
2537.0,0.004756381377971892
2536.0,0.004751178823056658
2535.0,0.004749938560524431
2534.0,0.004752265003649165
2533.0,0.004756444423250646
2532.0,0.004759567789001765
2531.0,0.004757578684168208
2530.0,0.004749165888669977
2529.0,0.004738303119676766
2528.0,0.004729615336879312
2527.0,0.004722953879892332
2526.0,0.004715864143337359
2525.0,0.004708831294534201
2524.0,0.004703501703119925
2523.0,0.0046979314299253686
2522.0,0.0046889752252665135
2521.0,0.0046780368232057735
2520.0,0.004668850232078132
2519.0,0.004659918436798971
2518.0,0.004644868397208961
2517.0,0.004621467829337671
2516.0,0.004595705828488722
2515.0,0.0045752243141440815
2514.0,0.004562103263585867
2513.0,0.0045534305710445856
2512.0,0.004545934349499888
2511.0,0.004538341903141217
2510.0,0.0045308301519784155
2509.0,0.004523202399257328
2508.0,0.0045130152107377966
2507.0,0.004496246116479847
2506.0,0.004471515301978623
2505.0,0.004443190769770103
2504.0,0.004418571180536531
2503.0,0.004402048089877686
2502.0,0.004392643504241732
2501.0,0.00438580513542972
2500.0,0.004376374984057685
2499.0,0.004361579202058865
2498.0,0.004343011597515657
2497.0,0.004324660176359552
2496.0,0.0043077935802474316
2495.0,0.004289402242691869
2494.0,0.004266682559385204
2493.0,0.004240799036681173
2492.0,0.004214808097593649
2491.0,0.004190310639838246
2490.0,0.004167723067421637
2489.0,0.004147108121478973
2488.0,0.004126903580469274
2487.0,0.004104653268192016
2486.0,0.0040808440487913435
2485.0,0.004058901599620327
2484.0,0.004039525351879627
2483.0,0.004018953433367574
2482.0,0.003995616977191555
2481.0,0.003974388675678555
2480.0,0.003960036962438187
2479.0,0.003949469896543823
2478.0,0.003935021910732878
2477.0,0.00391367126738888
2476.0,0.003889174016197908
2475.0,0.0038667220933952372
2474.0,0.0038492007037847845
2473.0,0.0038372132221547164
2472.0,0.003828883179773687
2471.0,0.0038201545034847913
2470.0,0.0038081777424238752
2469.0,0.0037940409228526357
2468.0,0.003780505658069328
2467.0,0.0037684908727330145
2466.0,0.0037576762480062854
2465.0,0.003748836119900213
2464.0,0.0037432695091113664
2463.0,0.0037409295969824527
2462.0,0.0037405346458183886
2461.0,0.003740457628023521
2460.0,0.0037393036470085477
2459.0,0.0037379287233597746
2458.0,0.0037408491687021
2457.0,0.0037518992221560986
2456.0,0.003767596764761803
2455.0,0.003778868488318224
2454.0,0.003780788574071399
2453.0,0.0037765928801333695
2452.0,0.0037708074325194327
2451.0,0.0037635182883783173
2450.0,0.0037538562584764536
2449.0,0.0037438136190617874
2448.0,0.0037349169311116067
2447.0,0.0037256668596319775
2446.0,0.003716155960419439
2445.0,0.0037109102620309685
2444.0,0.0037128448207320785
2443.0,0.00371799695612577
2442.0,0.0037203478717803924
2441.0,0.003718763995608306
2440.0,0.0037158379482175588
2439.0,0.00371364123947583
2438.0,0.0037143241510215665
2437.0,0.0037208283789677346
2436.0,0.003732397532036573
2435.0,0.0037426578384442714
2434.0,0.0037466472399291934
2433.0,0.0037471022712385277
2432.0,0.0037500059033943245
2431.0,0.0037569442109493378
2430.0,0.003765765212105105
2429.0,0.003775445811944952
2428.0,0.0037858190426525657
2427.0,0.0037952674729891268
2426.0,0.003803125728067163
2425.0,0.003812140338682755
2424.0,0.003824628854852832
2423.0,0.0038383713002207148
2422.0,0.0038498220783053545
2421.0,0.0038589671160791546
2420.0,0.0038677817025738375
2419.0,0.003876818383031149
2418.0,0.0038867427627188476
2417.0,0.003900059120560474
2416.0,0.003917427063341604
2415.0,0.003935009353893617
2414.0,0.003949330435034482
2413.0,0.00396236104284363
2412.0,0.0039780448495556585
2411.0,0.003995681659736447
2410.0,0.004009834747097272
2409.0,0.004015010713216907
2408.0,0.0040086452856200406
2407.0,0.003992915289917386
2406.0,0.003976237447229624
2405.0,0.003968994594168093
2404.0,0.003974079502121497
2403.0,0.003984524429892031
2402.0,0.00399280409305528
2401.0,0.003998647540338062
2400.0,0.00400518654817788
2399.0,0.004012331430114392
2398.0,0.004018196620620824
2397.0,0.00402313135239412
2396.0,0.004027816736881785
2395.0,0.004030520746633664
2394.0,0.004030300978226502
2393.0,0.004029848276525775
2392.0,0.0040316319229198256
2391.0,0.004034452802103885
2390.0,0.004036698737104311
2389.0,0.004038860230004155
2388.0,0.0040393464847027025
2387.0,0.004032479924981753
2386.0,0.004015152475455076
2385.0,0.003991184294815101
2384.0,0.003964109655533867
2383.0,0.003929673865896073
2382.0,0.003881353556264679
2381.0,0.0038202584435418135
2380.0,0.0037530890502417823
2379.0,0.0036829392892823486
2378.0,0.003611123156562034
2377.0,0.003546705255441201
2376.0,0.0035029450226139623
2375.0,0.003482584902185344
2374.0,0.0034761363159992965
2373.0,0.0034753355269011594
2372.0,0.003476085497728612
2371.0,0.0034691674105081956
2370.0,0.0034453899811627605
2369.0,0.003413140012186464
2368.0,0.0033910129811988215
2367.0,0.003380058478051901
2366.0,0.003364049787174761
2365.0,0.0033394387257735404
2364.0,0.003318626544892263
2363.0,0.0033014408984457467
2362.0,0.0032738191406287446
2361.0,0.003240884205706119
2360.0,0.0032263591207733
2359.0,0.0032312565371591957
2358.0,0.003231930987455965
2357.0,0.0032168312103871936
2356.0,0.0031965658822798136
2355.0,0.0031796031688991174
2354.0,0.0031569600682737507
2353.0,0.0031212902648778676
2352.0,0.0030817629647201753
2351.0,0.00305962404833847
2350.0,0.0030675547242170562
2349.0,0.0030969840715968627
2348.0,0.003132261149602784
2347.0,0.003159006533667308
2346.0,0.0031684445797285007
2345.0,0.0031630730377197186
2344.0,0.0031572791712585237
2343.0,0.003162636283121977
2342.0,0.00316628626693383
2341.0,0.003159544209272982
2340.0,0.0031489923151701224
2339.0,0.0031391978948319375
2338.0,0.0031265816544247434
2337.0,0.003110144339720613
2336.0,0.0030975144291052635
2335.0,0.0030894812539822205
2334.0,0.0030805638101078477
2333.0,0.0030685163224004903
2332.0,0.003061702796297412
2331.0,0.003063934211788689
2330.0,0.0030789208212428166
2329.0,0.00311872970040939
2328.0,0.003213893482971788
2327.0,0.0033753947128165986
2326.0,0.0035740853260200836
2325.0,0.0037450720976574554
2324.0,0.0038265866626348097
2323.0,0.0038011441767464016
2322.0,0.003704662659087664
2321.0,0.0035995275136536456
2320.0,0.0035262186666391755
2319.0,0.0034871436361441693
2318.0,0.003466051723535894
2317.0,0.003448827842587256
2316.0,0.0034307339912747732
2315.0,0.003408350407334961
2314.0,0.0033853065185448254
2313.0,0.003367366385485273
2312.0,0.0033611074951852378
2311.0,0.0033635341065822635
2310.0,0.0033718422912195232
2309.0,0.003384184473290533
2308.0,0.0034018151909714104
2307.0,0.0034220236114396486
2306.0,0.0034448984783450164
2305.0,0.003472471540295957
2304.0,0.003506692710540155
2303.0,0.0035440925945289716
2302.0,0.0035831786966925763
2301.0,0.0036261407174875953
2300.0,0.003675837661741183
2299.0,0.003728910649532664
2298.0,0.003783034814713996
2297.0,0.0038401138554874335
2296.0,0.003903084482415397
2295.0,0.003969070027187288
2294.0,0.004036060770505984
2293.0,0.004107023670407225
2292.0,0.0041835459109397875
2291.0,0.004257745623162448
2290.0,0.004320523861349198
2289.0,0.004374026789661499
2288.0,0.004427270486184414
2287.0,0.004479999700045488
2286.0,0.004519531224115252
2285.0,0.004534514157536195
2284.0,0.004524567121591196
2283.0,0.004496123273430051
2282.0,0.004455931046953305
2281.0,0.0044102681850761456
2280.0,0.0043634187299782645
2279.0,0.004315819752992134
2278.0,0.004268016266683646
2277.0,0.004225971042121609
2276.0,0.004196266402636495
2275.0,0.004176997077537162
2274.0,0.004159652554276432
2273.0,0.004138946072292192
2272.0,0.004115877123163452
2271.0,0.00409311827413031
2270.0,0.00407333557405891
2269.0,0.0040589555085274375
2268.0,0.004047122112217021
2267.0,0.004028536924356621
2266.0,0.003998662571033155
2265.0,0.003967220788599825
2264.0,0.003948966071013153
2263.0,0.00394844077336748
2262.0,0.0039608080723216475
2261.0,0.003982644663261318
2260.0,0.004011722294369732
2259.0,0.004039600760962578
2258.0,0.004053841482740993
2257.0,0.0040473886289403745
2256.0,0.0040201336862787495
2255.0,0.003975574412819991
2254.0,0.003924391353978614
2253.0,0.0038853515790560414
2252.0,0.003871385572376691
2251.0,0.0038757504393658057
2250.0,0.0038815466542349714
2249.0,0.0038813331718160014
2248.0,0.003880603679529392
2247.0,0.0038857073133141164
2246.0,0.003898211859414906
2245.0,0.0039165748165688975
2244.0,0.003934121287852461
2243.0,0.003938838425658672
2242.0,0.003925284751872206
2241.0,0.0039036511370032995
2240.0,0.0038886245681448023
2239.0,0.0038831991688984694
2238.0,0.0038819224178605503
2237.0,0.0038838664191474985
2236.0,0.0038912992368159514
2235.0,0.003900836198108824
2234.0,0.003907555511264865
2233.0,0.0039137001617998
2232.0,0.003922341110075652
2231.0,0.003927469768173167
2230.0,0.0039220422014546365
2229.0,0.003910453123045826
2228.0,0.0039005111097973532
2227.0,0.0038883310476433997
2226.0,0.003865466800402042
2225.0,0.0038364686303973324
2224.0,0.003815064336249149
2223.0,0.003806001623790702
2222.0,0.0038043246041646675
2221.0,0.0038087810903939603
2220.0,0.003821429056614742
2219.0,0.0038364493717795616
2218.0,0.0038434371441846416
2217.0,0.0038406795562856977
2216.0,0.0038338866097337608
2215.0,0.003824611912313575
2214.0,0.0038119390397563
2213.0,0.0038015156773568617
2212.0,0.0038002518298715076
2211.0,0.0038050014783306578
2210.0,0.003807611161583389
2209.0,0.0038064254161611286
2208.0,0.0038024287255059965
2207.0,0.0037912996284724335
2206.0,0.0037719876466579807
2205.0,0.0037553247434754158
2204.0,0.0037492966234203753
2203.0,0.003743929412863581
2202.0,0.003726711883980884
2201.0,0.0037054410462777874
2200.0,0.003698844631437808
2199.0,0.0037105879495998636
2198.0,0.003729513700337396
2197.0,0.0037487800110721147
2196.0,0.003766677826049815
2195.0,0.00377486334255464
2194.0,0.003765697840024303
2193.0,0.0037480346651814793
2192.0,0.0037379670527290286
2191.0,0.0037373741527605255
2190.0,0.0037393400475009327
2189.0,0.003748929011201136
2188.0,0.003777644476000868
2187.0,0.0038191398501896253
2186.0,0.003848850360666219
2185.0,0.003846112477900866
2184.0,0.0038035747071425447
2183.0,0.0037245414397031095
2182.0,0.003632923205166669
2181.0,0.0035764426169144674
2180.0,0.003588426923258008
2179.0,0.003645731411400283
2178.0,0.0036882802552351303
2177.0,0.003680808967100553
2176.0,0.0036397984747381824
2175.0,0.0036048056159627834
2174.0,0.0036052774785193557
2173.0,0.00365414431611799
2172.0,0.003748774551513296
2171.0,0.0038720595485617912
2170.0,0.004005444918640882
2169.0,0.004141536656955527
2168.0,0.004274256512046464
2167.0,0.0043827340424931836
2166.0,0.004448577281183432
2165.0,0.004491572384741033
2164.0,0.004559554609443053
2163.0,0.004660802442368182
2162.0,0.004712627352173019
2161.0,0.004576239923565134
2160.0,0.00416897790135869
2159.0,0.003571260827099333
2158.0,0.0030131571525559057
2157.0,0.0027055920470449766
2156.0,0.0026783648683019736
2155.0,0.0028052526523417278
2154.0,0.0029546022931890028
2153.0,0.003075806308297047
2152.0,0.003171929825123741
2151.0,0.0032434963289378
2150.0,0.003282133240333959
2149.0,0.003293510384844522
2148.0,0.0032944095039394525
2147.0,0.0032937957541064513
2146.0,0.0032948667752534713
2145.0,0.0033057946874276165
2144.0,0.003329476708135876
2143.0,0.003352617997142473
2142.0,0.003361870767790408
2141.0,0.0033621268805643575
2140.0,0.0033639233259727605
2139.0,0.00336122373493846
2138.0,0.003336383626886791
2137.0,0.003280023707628466
2136.0,0.0031963298936365054
2135.0,0.0030989573306481354
2134.0,0.0030138893344868723
2133.0,0.0029720311728158658
2132.0,0.0029841199248298008
2131.0,0.0030311844745001025
2130.0,0.00308981233040892
2129.0,0.0031535708132585712
2128.0,0.003222938272697447
2127.0,0.003289250409740969
2126.0,0.003342970292822803
2125.0,0.003387522809807343
2124.0,0.0034316336234011275
2123.0,0.0034757795030576433
2122.0,0.0035176527807844575
2121.0,0.0035612361022379514
2120.0,0.0036077586743638902
2119.0,0.0036476405373823467
2118.0,0.0036756681335717257
2117.0,0.0037050990787081822
2116.0,0.0037504326902473017
2115.0,0.0038036624808904344
2114.0,0.0038441876948862672
2113.0,0.0038662069043187705
2112.0,0.0038793822869935815
2111.0,0.0038871973101564736
2110.0,0.0038838730569726162
2109.0,0.0038706533292709993
2108.0,0.0038568106466280814
2107.0,0.0038446012583080603
2106.0,0.0038294629812690743
2105.0,0.0038145463650029587
2104.0,0.003808686364132558
2103.0,0.003810471338363223
2102.0,0.0038097910407441137
2101.0,0.0038044257030916268
2100.0,0.0037991543391749424
2099.0,0.003787782023032515
2098.0,0.0037516707044315516
2097.0,0.0036808479096927197
2096.0,0.0035875342888745405
2095.0,0.0034982507004342996
2094.0,0.003441005323125807
2093.0,0.003432893158339976
2092.0,0.003467000413074876
2091.0,0.003513207342196928
2090.0,0.0035434245850772383
2089.0,0.0035551366167605285
2088.0,0.0035631063212662965
2087.0,0.0035753369527629928
2086.0,0.0035887754447518705
2085.0,0.0036016085321831735
2084.0,0.003614169739461246
2083.0,0.0036213480329327944
2082.0,0.0036180808885183944
2081.0,0.0036095472655646938
2080.0,0.0036032843124826743
2079.0,0.0035949092982391863
2078.0,0.003575147176008841
2077.0,0.0035463197076535816
2076.0,0.003518174698810176
2075.0,0.003491353053784693
2074.0,0.003459342982193544
2073.0,0.0034212614347241886
2072.0,0.0033797790625295586
2071.0,0.0033330208307089542
2070.0,0.00328286104310699
2069.0,0.003243855409894276
2068.0,0.003227323674133317
2067.0,0.003223501275533833
2066.0,0.0032146955202893594
2065.0,0.003198147219261732
2064.0,0.003181726849777652
2063.0,0.0031658168608617457
2062.0,0.003147066250094973
2061.0,0.003131156248476273
2060.0,0.003125706450358408
2059.0,0.0031275226009775552
2058.0,0.003128620273930706
2057.0,0.0031242816787587125
2056.0,0.0031087622369979206
2055.0,0.003085293335822236
2054.0,0.003091252336650015
2053.0,0.0031779853816031453
2052.0,0.0033371415653489192
2051.0,0.0034745223492134627
2050.0,0.003492821491690887
2049.0,0.0033943498745528018
2048.0,0.003269020121212079
2047.0,0.0031842822691619537
2046.0,0.003137954221754908
2045.0,0.003111506432605194
2044.0,0.0031045040321175245
2043.0,0.00311181053158259
2042.0,0.0031192664319826006
2041.0,0.003130220244167276
2040.0,0.003157372745503649
2039.0,0.0031867746100983714
2038.0,0.003189326504025369
2037.0,0.0031643865943885977
2036.0,0.003132497143606237
2035.0,0.00308973165552049
2034.0,0.003014950742146378
2033.0,0.0029211357572929957
2032.0,0.002849642947528703
2031.0,0.0028134623336310517
2030.0,0.0027946990860320997
2029.0,0.002791344853279884
2028.0,0.0028178142904991318
2027.0,0.0028622487673644246
2026.0,0.002891469089134152
2025.0,0.002898919672854959
2024.0,0.0029071801084086554
2023.0,0.002926347164861839
2022.0,0.0029492851885982675
2021.0,0.002981737589025091
2020.0,0.0030337416032600994
2019.0,0.0030860574029671606
2018.0,0.0031075584900343016
2017.0,0.0031046173696652295
2016.0,0.0031111376561789037
2015.0,0.003131879332609811
2014.0,0.003143188946554334
2013.0,0.0031445303004486993
2012.0,0.003161750379944172
2011.0,0.003196650949083623
2010.0,0.0032150681085851575
2009.0,0.0031906597231528854
2008.0,0.003129362365625224
2007.0,0.0030524484894132076
2006.0,0.002989201792694982
2005.0,0.0029779468697612305
2004.0,0.003033988777967764
2003.0,0.0031233452965395924
2002.0,0.0031993961846086705
2001.0,0.0032567255036350345
2000.0,0.0033201617758262247
1999.0,0.0033943371985368097
1998.0,0.003461094150993802
1997.0,0.003517886303188328
1996.0,0.0035811865379801965
1995.0,0.003652919243950975
1994.0,0.0037183066446833312
1993.0,0.0037754652595071688
1992.0,0.003835557105385497
1991.0,0.003893719741669098
1990.0,0.003936247610201185
1989.0,0.003974038335553994
1988.0,0.004033305259655292
1987.0,0.004114485143500483
1986.0,0.0041929905584924205
1985.0,0.004262892425917131
1984.0,0.0043472731480783955
1983.0,0.004462314475857456
1982.0,0.004597104775886837
1981.0,0.004721951105508114
1980.0,0.004786214927424685
1979.0,0.00472630898337269
1978.0,0.004531569224658643
1977.0,0.004300491405907213
1976.0,0.004162187332777223
1975.0,0.004140212396021239
1974.0,0.004161605155978222
1973.0,0.004175187007380065
1972.0,0.004190556357146684
1971.0,0.004217506855860178
1970.0,0.004241984720105181
1969.0,0.004265913523838537
1968.0,0.004310881390966811
1967.0,0.004372774967848647
1966.0,0.004424987054209438
1965.0,0.004469862897016686
1964.0,0.004529487860204011
1963.0,0.004589713996868763
1962.0,0.004609155089956281
1961.0,0.004585129953813977
1960.0,0.004563463552860362
1959.0,0.0045775561351071165
1958.0,0.004624499789751746
1957.0,0.004699160524298656
1956.0,0.004799571360719373
1955.0,0.004898191404424521
1954.0,0.00495803162335994
1953.0,0.004982126595445204
1952.0,0.005003848599599347
1951.0,0.005027168524718312
1950.0,0.0050234183618643674
1949.0,0.004986809944191684
1948.0,0.004942032968922459
1947.0,0.004894751934089169
1946.0,0.00482491246426857
1945.0,0.004735985655010285
1944.0,0.004661493190223016
1943.0,0.004610233439517573
1942.0,0.004550287052205318
1941.0,0.004464932211394112
1940.0,0.004373567931497724
1939.0,0.004287117750239417
1938.0,0.004197055672355856
1937.0,0.004107681887273683
1936.0,0.004036264816001757
1935.0,0.003978322810500702
1934.0,0.0039080059378173975
1933.0,0.0038194187518739353
1932.0,0.0037347727751016477
1931.0,0.0036648627786161946
1930.0,0.003598075422389539
1929.0,0.0035323601028748766
1928.0,0.003480495418725143
1927.0,0.003441744498024838
1926.0,0.0033988165823692776
1925.0,0.0033493544412281943
1924.0,0.003309682547613205
1923.0,0.003281070309406261
1922.0,0.003248583283966458
1921.0,0.0032172432831974393
1920.0,0.003207821218679036
1919.0,0.003215015810050359
1918.0,0.0032055357213465687
1917.0,0.0031639707654350017
1916.0,0.003111218176369196
1915.0,0.003064339389878059
1914.0,0.003018713528790503
1913.0,0.0029743051063067984
1912.0,0.0029427502330367805
1911.0,0.002921161464653747
1910.0,0.002890341807369406
1909.0,0.002848079581230647
1908.0,0.00281567090969256
1907.0,0.0028023371538531665
1906.0,0.0027905498608311896
1905.0,0.0027680198228088137
1904.0,0.002744263837466388
1903.0,0.002725125222864235
1902.0,0.0027025999511237912
1901.0,0.0026747173494228622
1900.0,0.002652226385188294
1899.0,0.0026380761994664373
1898.0,0.002621723227432272
1897.0,0.0026002221053918312
1896.0,0.0025822010498034865
1895.0,0.002564559837432008
1894.0,0.002534070054426433
1893.0,0.002496661030991102
1892.0,0.0024751328447804935
1891.0,0.002475004022707456
1890.0,0.0024755679966197435
1889.0,0.0024610306599556933
1888.0,0.0024425050587178246
1887.0,0.002431787365635574
1886.0,0.00242181998730612
1885.0,0.002409494376773508
1884.0,0.002405134574141788
1883.0,0.0024095231950050635
1882.0,0.0024098359009054335
1881.0,0.002402949045438698
1880.0,0.002400727331671784
1879.0,0.002406852899623899
1878.0,0.0024089981358007646
1877.0,0.0024018489205890896
1876.0,0.0023970121320257645
1875.0,0.0023994822117224257
1874.0,0.002399051214211924
1873.0,0.002394746735372237
1872.0,0.0024046020161511295
1871.0,0.0024386856506718063
1870.0,0.002477141472799288
1869.0,0.0024879837324261966
1868.0,0.002463805438762129
1867.0,0.0024274057577108776
1866.0,0.002402977917159451
1865.0,0.0023992735607210785
1864.0,0.0024188954862642497
1863.0,0.0024556305486400204
1862.0,0.0024922249897826525
1861.0,0.0025207383414621405
1860.0,0.0025495132461572515
1859.0,0.0025819775811217307
1858.0,0.002608874516468949
1857.0,0.0026294320153152618
1856.0,0.0026578671559709622
1855.0,0.0026996558908420694
1854.0,0.002741792785350792
1853.0,0.0027761427846581424
1852.0,0.002812061715244419
1851.0,0.0028585196447566525
1850.0,0.0029091030623912164
1849.0,0.0029556131247811587
1848.0,0.003005601748519108
1847.0,0.0030715167198060163
1846.0,0.0031552812090182313
1845.0,0.0032488394413733523
1844.0,0.0033363883978932587
1843.0,0.0033915875087387032
1842.0,0.0034054646512553235
1841.0,0.0034054704055789735
1840.0,0.003427024042663301
1839.0,0.0034782574350925377
1838.0,0.003533706147294965
1837.0,0.0035754666061929116
1836.0,0.0036187886930885422
1835.0,0.0036774010595243918
1834.0,0.003738934341444046
1833.0,0.00379549420029538
1832.0,0.00386469212474442
1831.0,0.003953545130370895
1830.0,0.004018692328490402
1829.0,0.004021497099528422
1828.0,0.004009200754216592
1827.0,0.004043897510409084
1826.0,0.0041162240669556345
1825.0,0.004181897574130605
1824.0,0.00421806888270826
1823.0,0.004228411090709195
1822.0,0.004217026963190593
1821.0,0.004187856257213652
1820.0,0.004157404711258341
1819.0,0.004135083931674727
1818.0,0.004108551904407577
1817.0,0.004074130274015217
1816.0,0.00405363588394499
1815.0,0.004058742349649666
1814.0,0.004071285001640166
1813.0,0.0040741730145304415
1812.0,0.004076864878288497
1811.0,0.0040875371300987465
1810.0,0.0040898143946443985
1809.0,0.004079616905294137
1808.0,0.004082653350271327
1807.0,0.004112276296541101
1806.0,0.004146767109192123
1805.0,0.004167703868482998
1804.0,0.004193378455430252
1803.0,0.004246368318588013
1802.0,0.0043087478159577345
1801.0,0.004343102370926042
1800.0,0.004350098981725753
1799.0,0.004356125216982551
1798.0,0.004363222806313363
1797.0,0.0043639713402419565
1796.0,0.004375903546025033
1795.0,0.004422298115591667
1794.0,0.004494306783426852
1793.0,0.004564376955876907
1792.0,0.004625737771489777
1791.0,0.00467979536436942
1790.0,0.004713217889296272
1789.0,0.004723424939373944
1788.0,0.004739549550609249
1787.0,0.004797172337688484
1786.0,0.004886199753845488
1785.0,0.004964931459778934
1784.0,0.0050232636191028315
1783.0,0.005079728979315551
1782.0,0.005132533942308932
1781.0,0.005166302666766379
1780.0,0.005198617080294689
1779.0,0.005259140449992717
1778.0,0.005333337841953874
1777.0,0.005392062974729571
1776.0,0.005449958840084031
1775.0,0.005543877135293387
1774.0,0.0056661084107111235
1773.0,0.005775660888219236
1772.0,0.005868399325300957
1771.0,0.005980372417467448
1770.0,0.006128973087990214
1769.0,0.006300776254050892
1768.0,0.006494549575190056
1767.0,0.006704555457071597
1766.0,0.006877087128842272
1765.0,0.0069970040967206855
1764.0,0.007149463683104054
1763.0,0.00742736919347276
1762.0,0.007788332596505973
1761.0,0.008100539445212876
1760.0,0.008363896140736536
1759.0,0.008694436743789318
1758.0,0.009146957553227883
1757.0,0.009683989088128578
1756.0,0.01025435040631753
1755.0,0.01084482812666085
1754.0,0.011467120942441495
1753.0,0.01218804254929551
1752.0,0.013165897598034257
1751.0,0.014515696558743858
1750.0,0.01612467646298614
1749.0,0.017849534319160407
1748.0,0.019760069861982688
1747.0,0.02197018328268584
1746.0,0.02449959035007648
1745.0,0.027399970689381728
1744.0,0.030773211050719743
1743.0,0.03457235942636419
1742.0,0.03868801366740867
1741.0,0.0433337817080296
1740.0,0.04881566687610994
1739.0,0.05460242724504838
1738.0,0.05958112879103143
1737.0,0.06362449556067515
1736.0,0.06798061913657504
1735.0,0.07457379359310004
1734.0,0.08349856661715188
1733.0,0.0915544213578575
1732.0,0.0973822528452398
1731.0,0.10271746439205127
1730.0,0.1087822431186737
1729.0,0.11534739566718825
1728.0,0.12175494575729491
1727.0,0.12794476157315812
1726.0,0.13426176529929254
1725.0,0.14092609923454472
1724.0,0.1479334714187134
1723.0,0.15494689369905074
1722.0,0.16123721604280136
1721.0,0.16634645121658825
1720.0,0.1709745142953452
1719.0,0.17690500997973532
1718.0,0.18486435702567108
1717.0,0.19214408399865018
1716.0,0.19624355163253035
1715.0,0.19821090408032546
1714.0,0.1988581541383999
1713.0,0.19737846249223878
1712.0,0.19351471449325197
1711.0,0.18799724852265787
1710.0,0.18124756878681844
1709.0,0.1730873894711176
1708.0,0.16354332757928935
1707.0,0.15288329898814884
1706.0,0.1413849675606087
1705.0,0.13016294191474082
1704.0,0.12079953182454398
1703.0,0.11343912539516209
1702.0,0.1065892156052978
1701.0,0.09836140850092442
1700.0,0.08946490171417408
1699.0,0.08272001541482484
1698.0,0.07817453402527089
1697.0,0.07408184870471524
1696.0,0.06958636111562756
1695.0,0.06539860802551622
1694.0,0.06232349538826405
1693.0,0.060080164434630594
1692.0,0.05811817245119358
1691.0,0.05618056888789608
1690.0,0.05430172550903304
1689.0,0.05264811185356088
1688.0,0.051279238293179215
1687.0,0.05011082809815236
1686.0,0.049011540229735896
1685.0,0.04786446166058039
1684.0,0.046623704798502516
1683.0,0.045436586883057045
1682.0,0.04445966722733425
1681.0,0.043585078309135966
1680.0,0.042662412357411326
1679.0,0.04171280709526055
1678.0,0.04080858454142194
1677.0,0.03996416792752386
1676.0,0.0391067040444466
1675.0,0.038197444144061794
1674.0,0.03730453458675252
1673.0,0.03649239465360904
1672.0,0.03574936006695556
1671.0,0.035025491821958236
1670.0,0.0342861495604597
1669.0,0.03354421652158835
1668.0,0.03283778623857616
1667.0,0.03218575439250673
1666.0,0.031577749402219586
1665.0,0.03099753229805951
1664.0,0.030417993066761462
1663.0,0.029814135306442693
1662.0,0.029207525248814866
1661.0,0.028643896084280942
1660.0,0.02813257842948848
1659.0,0.027656622720656752
1658.0,0.027215703199192753
1657.0,0.026820218448208474
1656.0,0.02647549691038698
1655.0,0.02617137987733926
1654.0,0.02590670432565475
1653.0,0.02559469549783201
1652.0,0.0251476321664777
1651.0,0.024724563034561216
1650.0,0.024414729396452436
1649.0,0.024204115403747416
1648.0,0.024040051549083494
1647.0,0.023817686165731145
1646.0,0.023539405446421163
1645.0,0.0232805305814638
1644.0,0.02305359271315492
1643.0,0.022818552818796096
1642.0,0.022593061704645537
1641.0,0.022383617250698054
1640.0,0.022169277871885395
1639.0,0.021944685548071042
1638.0,0.021729143303446784
1637.0,0.02153511319335433
1636.0,0.021321564394073723
1635.0,0.021048144787858266
1634.0,0.02077581199115142
1633.0,0.02053649700635566
1632.0,0.02028993549294374
1631.0,0.020033480002689293
1630.0,0.019783551280398097
1629.0,0.019538377548106715
1628.0,0.01927145007960563
1627.0,0.01897807326869646
1626.0,0.018701410672660287
1625.0,0.01846916529994992
1624.0,0.018260037901821038
1623.0,0.018049763989033556
1622.0,0.01786630321229141
1621.0,0.017756131634347146
1620.0,0.01773004230339147
1619.0,0.017798481603597333
1618.0,0.01800968073435878
1617.0,0.018354539460780004
1616.0,0.018641282707075123
1615.0,0.018713003766155586
1614.0,0.018618574389260657
1613.0,0.01841879202227785
1612.0,0.01810745159309572
1611.0,0.017673118159234648
1610.0,0.01714801675696671
1609.0,0.016588367512808067
1608.0,0.01602702064755215
1607.0,0.015482738945603439
1606.0,0.014978852564426555
1605.0,0.01451982156333901
1604.0,0.014082702358368362
1603.0,0.013653229973152667
1602.0,0.01324623469468451
1601.0,0.012879946777852466
1600.0,0.012551389422688575
1599.0,0.012255508574349129
1598.0,0.012001102561998983
1597.0,0.011791535934467232
1596.0,0.011614007732670205
1595.0,0.011463564920804525
1594.0,0.011356996877598459
1593.0,0.011303929709035956
1592.0,0.01128830757994716
1591.0,0.011297026141137503
1590.0,0.01134438968947197
1589.0,0.011453902690243926
1588.0,0.011642709561096221
1587.0,0.011943792042804859
1586.0,0.012419109793257088
1585.0,0.013125165711800457
1584.0,0.014075393289141792
1583.0,0.015234022335340467
1582.0,0.016497971620294993
1581.0,0.017692668266314954
1580.0,0.018640961613984465
1579.0,0.019215600657903027
1578.0,0.019305435658135136
1577.0,0.018789664165842438
1576.0,0.017724716559306523
1575.0,0.016516640084642955
1574.0,0.01553322246474902
1573.0,0.014785206091438421
1572.0,0.014137437007169695
1571.0,0.013488457456240825
1570.0,0.012814522304787995
1569.0,0.012190229234295833
1568.0,0.01170717409051442
1567.0,0.011367154188485957
1566.0,0.011098601952786355
1565.0,0.010848562069500363
1564.0,0.010612777296980376
1563.0,0.01041318041855019
1562.0,0.010275754541470618
1561.0,0.010192867844642545
1560.0,0.010154908258835395
1559.0,0.010073305569739226
1558.0,0.009848095209974215
1557.0,0.009690410499021222
1556.0,0.009643132928221342
1555.0,0.009579983475698777
1554.0,0.009528260771108655
1553.0,0.009473278917525264
1552.0,0.009419225978976452
1551.0,0.009379057774897878
1550.0,0.00935819806668013
1549.0,0.009334365778894961
1548.0,0.009300379835560754
1547.0,0.009283839684813337
1546.0,0.009315537926976012
1545.0,0.009384776595714605
1544.0,0.009437064410638794
1543.0,0.009454380721150612
1542.0,0.009474427016761532
1541.0,0.009506679819834767
1540.0,0.009471944642145713
1539.0,0.009360353220930321
1538.0,0.00929894439703849
1537.0,0.009295073840653994
1536.0,0.00930226433306375
1535.0,0.009330607349147802
1534.0,0.009369980443948218
1533.0,0.009379976924395258
1532.0,0.00934048131793532
1531.0,0.009292272651785385
1530.0,0.009259084809486406
1529.0,0.009241905390410537
1528.0,0.009228790933474734
1527.0,0.009199881707844047
1526.0,0.009150988663217787
1525.0,0.009082622726273706
1524.0,0.008994496853602535
1523.0,0.00889818014708498
1522.0,0.008809457736592526
1521.0,0.008721119164302222
1520.0,0.008639775672993934
1519.0,0.008598002651907459
1518.0,0.00860601622957768
1517.0,0.008651783855013726
1516.0,0.008714768749466665
1515.0,0.00881697787359556
1514.0,0.009017121268623307
1513.0,0.009350431898065316
1512.0,0.00983987773273206
1511.0,0.010465954671066367
1510.0,0.01125628098849899
1509.0,0.012363987281895252
1508.0,0.014198975602821594
1507.0,0.016818136306827
1506.0,0.01889417261344547
1505.0,0.019419073542395936
1504.0,0.01873403838847982
1503.0,0.017335093529335384
1502.0,0.015587501044956379
1501.0,0.013750294248724503
1500.0,0.012031934958039309
1499.0,0.010561444939485019
1498.0,0.009356932731995718
1497.0,0.00841465025660414
1496.0,0.007719365489218505
1495.0,0.007227729087444193
1494.0,0.006910527558563327
1493.0,0.006759904924964045
1492.0,0.006733639022849479
1491.0,0.00675177446314011
1490.0,0.006773920014804161
1489.0,0.006827310793812323
1488.0,0.006922176233040429
1487.0,0.007028716212499966
1486.0,0.007151060702677615
1485.0,0.007317610416313696
1484.0,0.007518125927182026
1483.0,0.007731553096959285
1482.0,0.007970005455104217
1481.0,0.008244146065964903
1480.0,0.008519665578143883
1479.0,0.008768977893085344
1478.0,0.009026880071157407
1477.0,0.009332628923119854
1476.0,0.009646063238712288
1475.0,0.009903925185396322
1474.0,0.010154164797798416
1473.0,0.010500195723612245
1472.0,0.01090201075198862
1471.0,0.0112510018782084
1470.0,0.011568002647448996
1469.0,0.011930869980198143
1468.0,0.012382700613184798
1467.0,0.01295652613434544
1466.0,0.013729487844288804
1465.0,0.01473329568241722
1464.0,0.015792164394300583
1463.0,0.01670487337079664
1462.0,0.017490348799484922
1461.0,0.018263989793303473
1460.0,0.01908635398821484
1459.0,0.019988068800750367
1458.0,0.02109235771309185
1457.0,0.022344739206929618
1456.0,0.02327309369045
1455.0,0.023673530226828603
1454.0,0.02378878107685481
1453.0,0.023821322647408723
1452.0,0.023789747686081025
1451.0,0.02366282566758496
1450.0,0.023492635855820346
1449.0,0.023337614989970633
1448.0,0.0231794258347108
1447.0,0.022994303908972714
1446.0,0.022822540658559917
1445.0,0.02269350272111262
1444.0,0.022576902409667365
1443.0,0.022435820919774613
1442.0,0.022261211538786525
1441.0,0.022043770920301808
1440.0,0.021755813539930707
1439.0,0.021369033963657545
1438.0,0.02083818419407633
1437.0,0.02008514513904928
1436.0,0.019120630693677493
1435.0,0.018093556353838615
1434.0,0.01710371653801651
1433.0,0.016147955818028855
1432.0,0.015213157240041592
1431.0,0.014320388128626054
1430.0,0.01351444104053219
1429.0,0.012842090607338123
1428.0,0.012341279105632376
1427.0,0.012013065897563558
1426.0,0.01182983992746351
1425.0,0.011779248757309548
1424.0,0.011864112920173094
1423.0,0.012063095156888574
1422.0,0.012375025789910909
1421.0,0.012906616454414687
1420.0,0.013886719783399813
1419.0,0.015447529025569846
1418.0,0.017421218701140526
1417.0,0.019698382218429754
1416.0,0.022458762789285717
1415.0,0.025911668000552005
1414.0,0.030159272426685084
1413.0,0.035153821703406314
1412.0,0.04050983559644396
1411.0,0.045393248332970065
1410.0,0.04890674735425323
1409.0,0.050571928706643926
1408.0,0.0502868588685498
1407.0,0.04819000461959254
1406.0,0.044750663667346285
1405.0,0.04072423777581915
1404.0,0.03687366585838752
1403.0,0.0336542812403668
1402.0,0.031099846586942065
1401.0,0.028986363373524816
1400.0,0.027069792095430794
1399.0,0.02529123793481003
1398.0,0.023767067062006042
1397.0,0.02252478969538789
1396.0,0.02142062067062596
1395.0,0.020338020744245552
1394.0,0.019322275696357454
1393.0,0.018452514106055733
1392.0,0.017710002561716745
1391.0,0.017051122119838384
1390.0,0.01647570839944995
1389.0,0.015995800922712123
1388.0,0.015608650120048962
1387.0,0.015316398517050165
1386.0,0.015139533243084303
1385.0,0.015092735813489664
1384.0,0.01517834945318838
1383.0,0.015400990336999144
1382.0,0.015763664154225785
1381.0,0.01626166052686726
1380.0,0.01688510625469611
1379.0,0.017608474188081525
1378.0,0.018386904001641537
1377.0,0.01919262270149575
1376.0,0.020040988567011937
1375.0,0.020942030165583832
1374.0,0.021818732728793443
1373.0,0.022527172537171847
1372.0,0.022964840353384072
1371.0,0.023093094059066246
1370.0,0.022883481721800467
1369.0,0.02229317283950563
1368.0,0.02130989317849645
1367.0,0.02001309666691807
1366.0,0.01853422851839406
1365.0,0.016962262178114133
1364.0,0.015333859155068463
1363.0,0.013732053549231363
1362.0,0.012337054402143239
1361.0,0.011282610205792933
1360.0,0.010537444986770558
1359.0,0.010001856527135722
1358.0,0.009619808126036009
1357.0,0.009374389739893126
1356.0,0.00924877747314788
1355.0,0.009222957812057253
1354.0,0.009290709674258452
1353.0,0.009456643314466879
1352.0,0.009722073121433774
1351.0,0.010088109411156218
1350.0,0.010566039386693302
1349.0,0.011166883471752752
1348.0,0.011885219913117147
1347.0,0.012706046401041792
1346.0,0.013615887418074357
1345.0,0.014586647995725666
1344.0,0.015555051939011449
1343.0,0.016442318374449198
1342.0,0.01718604531465234
1341.0,0.017723298796881923
1340.0,0.017951759005750002
1339.0,0.017770457275700674
1338.0,0.017180044853715097
1337.0,0.016286417235075595
1336.0,0.015224183365271971
1335.0,0.014124325441935669
1334.0,0.013108817718099668
1333.0,0.012268566649744603
1332.0,0.011649004268105227
1331.0,0.011261345158008463
1330.0,0.011096776269406451
1329.0,0.011131076094731442
1328.0,0.011330680317140764
1327.0,0.011664184020082773
1326.0,0.012109675761226102
1325.0,0.012649198869837432
1324.0,0.013258835682135886
1323.0,0.013910659817545797
1322.0,0.014587247056356677
1321.0,0.015286427134334906
1320.0,0.01600607159971978
1319.0,0.016733525837731147
1318.0,0.017457976767576548
1317.0,0.01818332251003989
1316.0,0.01892201207112309
1315.0,0.01969028933862574
1314.0,0.020512379117638535
1313.0,0.0214080845341782
1312.0,0.022369529591795535
1311.0,0.02337126165824517
1310.0,0.02440649302543673
1309.0,0.02548615512024651
1308.0,0.026597332900488234
1307.0,0.02769702359829789
1306.0,0.02876546853712164
1305.0,0.02983858455826601
1304.0,0.030978609174586752
1303.0,0.03224823461981014
1302.0,0.03372092171214887
1301.0,0.03546837933272928
1300.0,0.03750712368586778
1299.0,0.03978600544238301
1298.0,0.0422448189435357
1297.0,0.04484762871223834
1296.0,0.04754178199509402
1295.0,0.05024418243410019
1294.0,0.052907572091798846
1293.0,0.05554352490052892
1292.0,0.0581455415133414
1291.0,0.06065702473319036
1290.0,0.06305005187776352
1289.0,0.06535562522120848
1288.0,0.06757112903455748
1287.0,0.06962429093975138
1286.0,0.07147598351030436
1285.0,0.07316492322257602
1284.0,0.07470789214151206
1283.0,0.07605759124227733
1282.0,0.07720100493655162
1281.0,0.07819696664425682
1280.0,0.07907737434009149
1279.0,0.07982075007682982
1278.0,0.08046474618103519
1277.0,0.08113790206018336
1276.0,0.08194604103581993
1275.0,0.08293522146509306
1274.0,0.08419481731653417
1273.0,0.08587627719235469
1272.0,0.08805676131016324
1271.0,0.09068094812734002
1270.0,0.0936842949296755
1269.0,0.09706455492724564
1268.0,0.1007736398654003
1267.0,0.1046665804579579
1266.0,0.1086352503988184
1265.0,0.1126634449486736
1264.0,0.1166706142183282
1263.0,0.12045484847291354
1262.0,0.12387808787370747
1261.0,0.1269329866292351
1260.0,0.12954721264331437
1259.0,0.13155087547959174
1258.0,0.13294697386880902
1257.0,0.13398353932529425
1256.0,0.13487528519620998
1255.0,0.13568623442647648
1254.0,0.1365317624174396
1253.0,0.1376346939867912
1252.0,0.13909345256877148
1251.0,0.14081739140707122
1250.0,0.14276925486113115
1249.0,0.14504662427485174
1248.0,0.147645796247065
1247.0,0.15038913827500552
1246.0,0.15318471609472462
1245.0,0.15610826842841125
1244.0,0.15911606792639732
1243.0,0.16194323943798913
1242.0,0.1644070437256471
1241.0,0.16651780100126284
1240.0,0.16816272746108019
1239.0,0.16899902328294425
1238.0,0.1687926609229304
1237.0,0.16753958342592204
1236.0,0.16516001924306703
1235.0,0.1614579283784386
1234.0,0.1564831054753715
1233.0,0.15057935411212237
1232.0,0.14403764320860643
1231.0,0.13702027757620355
1230.0,0.1297826278933457
1229.0,0.12264333602284333
1228.0,0.11574331569450845
1227.0,0.10905959944663417
1226.0,0.10262160253702717
1225.0,0.09653324092229942
1224.0,0.0908258101666964
1223.0,0.08545531563906947
1222.0,0.08042416994542997
1221.0,0.07577935379916478
1220.0,0.07151281641014932
1219.0,0.06756905124118825
1218.0,0.06393382351548071
1217.0,0.06062834959532026
1216.0,0.0576311474406283
1215.0,0.054881250264338786
1214.0,0.05234745318675939
1213.0,0.0500312798867076
1212.0,0.047911976146857674
1211.0,0.04594620018475076
1210.0,0.0441161170239845
1209.0,0.04242733762154445
1208.0,0.04086437803698922
1207.0,0.03939201221372631
1206.0,0.03799562412421787
1205.0,0.03668116926749711
1204.0,0.035439874173416146
1203.0,0.03424834281241788
1202.0,0.03309892362749105
1201.0,0.03199815879893194
1200.0,0.030939867722649735
1199.0,0.0299081969506571
1198.0,0.028902841769444222
1197.0,0.02793612676784686
1196.0,0.027010007592970165
1195.0,0.02611862240500061
1194.0,0.025268216967128675
1193.0,0.024474077561431124
1192.0,0.02374297451734721
1191.0,0.023076638023995347
1190.0,0.022487713721139727
1189.0,0.021996802046861663
1188.0,0.021618640404270993
1187.0,0.021364440836617534
1186.0,0.02125256664260638
1185.0,0.02130303619519777
1184.0,0.021522716559457013
1183.0,0.021904175797176413
1182.0,0.02243374613116902
1181.0,0.02308755504781037
1180.0,0.02381864916220218
1179.0,0.024562328754650784
1178.0,0.02525947678952171
1177.0,0.025862179657623927
1176.0,0.026315278768824866
1175.0,0.026554276299469104
1174.0,0.026530392720892176
1173.0,0.02622112464253359
1172.0,0.0256189504093873
1171.0,0.02474107511447392
1170.0,0.02365530158140136
1169.0,0.022470503355949193
1168.0,0.021296119607328547
1167.0,0.02021971039542435
1166.0,0.01930547474523444
1165.0,0.018585382271000928
1164.0,0.018053260378307685
1163.0,0.017682428041551332
1162.0,0.017451244595473925
1161.0,0.01734938706660524
1160.0,0.01736963789868893
1159.0,0.01750824774994697
1158.0,0.01777235641663384
1157.0,0.018176579289943536
1156.0,0.018730603612516283
1155.0,0.019437114162233274
1154.0,0.020300498945794325
1153.0,0.02132668700940594
1152.0,0.022511295668050012
1151.0,0.023839204435193478
1150.0,0.02530158194082512
1149.0,0.02690088864578386
1148.0,0.028631834061656404
1147.0,0.030472834930382074
1146.0,0.03240453657536792
1145.0,0.034415393104375906
1144.0,0.036476362299233386
1143.0,0.03853529576810097
1142.0,0.04055286691678877
1141.0,0.042515175434146804
1140.0,0.044397018293219064
1139.0,0.04615589813919567
1138.0,0.0477833270212173
1137.0,0.04931530751137241
1136.0,0.050772294982490855
1135.0,0.05214307632306826
1134.0,0.053448447982707585
1133.0,0.05476009300277466
1132.0,0.05613416841118216
1131.0,0.05758847045793825
1130.0,0.059166080033027674
1129.0,0.06095227250339143
1128.0,0.06299698158224765
1127.0,0.06528300922355747
1126.0,0.06779536583574515
1125.0,0.07054331268127388
1124.0,0.07347338187722859
1123.0,0.076440667927415
1122.0,0.07931181267498719
1121.0,0.08200705466152546
1120.0,0.08439774833976724
1119.0,0.08628379205767098
1118.0,0.08753841317761758
1117.0,0.08816210322945307
1116.0,0.08816222717696906
1115.0,0.08754392934330801
1114.0,0.08647427630785591
1113.0,0.08530159635964087
1112.0,0.08436943106464935
1111.0,0.08392876146386749
1110.0,0.08420760392755919
1109.0,0.08539073809646142
1108.0,0.08748247308420079
1107.0,0.09030714513177038
1106.0,0.09369817066294812
1105.0,0.09758857408056892
1104.0,0.10188199846432128
1103.0,0.10639233449093831
1102.0,0.11099926598610814
1101.0,0.11570407090953871
1100.0,0.12042722778158015
1099.0,0.1249326638077998
1098.0,0.129068707138774
1097.0,0.13286586550928356
1096.0,0.1362728910163222
1095.0,0.13906372215447602
1094.0,0.14114098684913037
1093.0,0.14263218024181365
1092.0,0.14356128475518087
1091.0,0.1437580818688598
1090.0,0.14320099886430637
1089.0,0.14210034197451119
1088.0,0.14055113184086643
1087.0,0.1384531880389742
1086.0,0.13583049875406272
1085.0,0.1328665961485581
1084.0,0.12957335083307847
1083.0,0.1257648619382226
1082.0,0.1213919538695245
1081.0,0.11660057795525325
1080.0,0.11147156087952617
1079.0,0.10600368730298512
1078.0,0.100336198771457
1077.0,0.09472308935454053
1076.0,0.0893031646515412
1075.0,0.08409348791351987
1074.0,0.07916329832822883
1073.0,0.07463174798362507
1072.0,0.07052398115031668
1071.0,0.06677781154268622
1070.0,0.06337215913852158
1069.0,0.060332075682594105
1068.0,0.057629697302415656
1067.0,0.05518826647179318
1066.0,0.052975833514163524
1065.0,0.05101008025821499
1064.0,0.04928164557052698
1063.0,0.04775133331608888
1062.0,0.04641868251840248
1061.0,0.04532441141909925
1060.0,0.04448477367441085
1059.0,0.04388281506253596
1058.0,0.04352235966182162
1057.0,0.043430867913084356
1056.0,0.04360418843808175
1055.0,0.044001670532988646
1054.0,0.04460360498983507
1053.0,0.0454208823218276
1052.0,0.046431450096775025
1051.0,0.04756192696989931
1050.0,0.048755864377212715
1049.0,0.04999424295612748
1048.0,0.05122390709940506
1047.0,0.05234842584418813
1046.0,0.05331399780981669
1045.0,0.054123798781383826
1044.0,0.05475623780783205
1043.0,0.055151394799538886
1042.0,0.05529065898009294
1041.0,0.05521307322757002
1040.0,0.054942708596722525
1039.0,0.0544774540643173
1038.0,0.053857250310280685
1037.0,0.05316425355298257
1036.0,0.052444882921133466
1035.0,0.051698495773213685
1034.0,0.05094300941917763
1033.0,0.05022097937238566
1032.0,0.049537005063630395
1031.0,0.048857835412706815
1030.0,0.048183614002789976
1029.0,0.0475648392486325
1028.0,0.04705847952949744
1027.0,0.04674246946368316
1026.0,0.04679013498888692
1025.0,0.0474822088733639
1024.0,0.04913446272798945
1023.0,0.052033142776928144
1022.0,0.05639257779706527
1021.0,0.062254242548724595
1020.0,0.06930792607650522
1019.0,0.07675467135878596
1018.0,0.083350786814866
1017.0,0.08762507624447148
1016.0,0.08828663694755846
1015.0,0.08491054019458939
1014.0,0.07840705367715724
1013.0,0.07052501542034434
1012.0,0.06282992400526825
1011.0,0.05616855006474189
1010.0,0.050749769427414985
1009.0,0.04642723864112111
1008.0,0.042940849665017496
1007.0,0.0400741502651691
1006.0,0.03771006637857747
1005.0,0.03578320493755544
1004.0,0.03420868874892648
1003.0,0.032878964130658016
1002.0,0.03171197024136316
1001.0,0.03066845324973532
1000.0,0.029725903714308444
999.0,0.028865400336157164
998.0,0.028083042712722134
997.0,0.027384782566030497
996.0,0.02676377715902399
995.0,0.026201412182635893
994.0,0.025690506808362393
993.0,0.025237499336293254
992.0,0.02484164268931238
991.0,0.024491992695237795
990.0,0.024185292530021142
989.0,0.023926949816747263
988.0,0.023713220867630593
987.0,0.02353099896325885
986.0,0.02337609733868303
985.0,0.02325382763716691
984.0,0.02316095092584005
983.0,0.02308504032134296
982.0,0.023022363700889677
981.0,0.022978155844733176
980.0,0.022948077354270294
979.0,0.022918001066293655
978.0,0.022883341312933864
977.0,0.022848812709411484
976.0,0.022806887185015577
975.0,0.02273599452412253
974.0,0.022622373198082326
973.0,0.0224646149729635
972.0,0.02225520189561016
971.0,0.021978637009706946
970.0,0.0216317326623554
969.0,0.021227342201840572
968.0,0.020775856725236717
967.0,0.02028111219940678
966.0,0.019755698689063784
965.0,0.01922190907131592
964.0,0.01869516327487949
963.0,0.01818113691673948
962.0,0.01768821749473608
961.0,0.017227218860147445
960.0,0.016799049765793498
959.0,0.01639672066104577
958.0,0.01601950690785859
957.0,0.015672904802881304
956.0,0.015355717645920829
955.0,0.015059673310713926
954.0,0.014781581039442753
953.0,0.01452452106595099
952.0,0.014287491650709628
951.0,0.014064961110493986
950.0,0.01385612020983486
949.0,0.013663779504371542
948.0,0.01348468460426901
947.0,0.013311371567499876
946.0,0.013143056114217164
945.0,0.012984759377019432
944.0,0.012836615961349197
943.0,0.012694086047268606
942.0,0.012557928970861984
941.0,0.012433834619851026
940.0,0.012322200386108654
939.0,0.012217352475864245
938.0,0.012116441779966652
937.0,0.01202013403146918
936.0,0.011925180169342148
935.0,0.011825551839438137
934.0,0.01172057700112274
933.0,0.01161330392746867
932.0,0.011501850711860363
931.0,0.011381409871494733
930.0,0.011253734676817468
929.0,0.011125419659813705
928.0,0.010997662760779129
927.0,0.010866729293283823
926.0,0.010733676840722305
925.0,0.01060473387498986
924.0,0.01048301207623074
923.0,0.010368754004629189
922.0,0.010266827041003408
921.0,0.010185146862086672
920.0,0.010126453059037989
919.0,0.010090203659039306
918.0,0.01008212568296617
917.0,0.010113826069859793
916.0,0.01019368132097427
915.0,0.010326466088382351
914.0,0.010521772780967557
913.0,0.010793983460592536
912.0,0.011152440424312075
911.0,0.011599149070907814
910.0,0.01213668969799754
909.0,0.012768350287514888
908.0,0.013486328203813947
907.0,0.014268188549225305
906.0,0.015089063209497388
905.0,0.015927991947175868
904.0,0.01675827984967
903.0,0.017544921989820807
902.0,0.018259682698565864
901.0,0.01888736120251898
900.0,0.019412636628438572
899.0,0.019818373622199376
898.0,0.020104539269549426
897.0,0.020291513863060523
896.0,0.02039851505026526
895.0,0.02043691215718523
894.0,0.02042868966948581
893.0,0.020410031975433448
892.0,0.020410203716842726
891.0,0.02044456233930682
890.0,0.020531611123824147
889.0,0.020697766163898297
888.0,0.020960492998912672
887.0,0.021324709661075587
886.0,0.02180131859848304
885.0,0.022412654937179973
884.0,0.02317583037044768
883.0,0.024100666990729755
882.0,0.025210189443881644
881.0,0.026538401241040913
880.0,0.028091256661595357
879.0,0.029825501290284266
878.0,0.03167390042265085
877.0,0.03355989433976602
876.0,0.035363503577460334
875.0,0.03690391219482058
874.0,0.03798774768366561
873.0,0.0384559026496613
872.0,0.03819176861177157
871.0,0.037164611353452656
870.0,0.03549821987423267
869.0,0.03343775322533143
868.0,0.03122700210445712
867.0,0.029044520125855185
866.0,0.02702114830529747
865.0,0.025247384672228656
864.0,0.023756600058299684
863.0,0.0225373599623348
862.0,0.02156918488604327
861.0,0.02083083052432788
860.0,0.02028455608651299
859.0,0.019882882860600512
858.0,0.01959553620577186
857.0,0.01940940898941755
856.0,0.019300773120684504
855.0,0.019230097661596002
854.0,0.01916931017247282
853.0,0.019113517129188875
852.0,0.019061162427773424
851.0,0.019003760819418708
850.0,0.018940319288082565
849.0,0.018880946553649424
848.0,0.018830276846088175
847.0,0.018785718223852423
846.0,0.01875382010491314
845.0,0.01874601121120249
844.0,0.018754007868311166
843.0,0.01875060178633454
842.0,0.018718958198644678
841.0,0.018660408068451907
840.0,0.018570559309449543
839.0,0.01843198255817357
838.0,0.01823653131228855
837.0,0.017993337211552746
836.0,0.017710754329202584
835.0,0.017392752415016845
834.0,0.017056663346710015
833.0,0.016730815924138838
832.0,0.016428617996363457
831.0,0.01614485564501606
830.0,0.015881005218308916
829.0,0.015652169451385388
828.0,0.015462955532381722
827.0,0.015299377634592687
826.0,0.015153638486759768
825.0,0.015034072244291857
824.0,0.014941574062188184
823.0,0.014861932252754631
822.0,0.014790429025982214
821.0,0.014737951368408515
820.0,0.014707504641229663
819.0,0.01468918597836616
818.0,0.014680218065276345
817.0,0.014687946785275435
816.0,0.014710749124246643
815.0,0.014734914678386467
814.0,0.01475336547324338
813.0,0.014770044560659841
812.0,0.014783683840077257
811.0,0.014785416689985991
810.0,0.014774439831530213
809.0,0.014757357303740705
808.0,0.014729964567754588
807.0,0.0146784806961604
806.0,0.014600210169859122
805.0,0.014502971004154309
804.0,0.014382838364290326
803.0,0.014224938445728242
802.0,0.014035203423229527
801.0,0.013863552558028302
800.0,0.013802581570751055
799.0,0.013974060866691212
798.0,0.014487979999742526
797.0,0.01536105439239037
796.0,0.016451165754673123
795.0,0.017488916549508293
794.0,0.01820322517641476
793.0,0.01843452810660486
792.0,0.018157104159501503
791.0,0.01745136113902305
790.0,0.016470385665168362
789.0,0.015380523706993922
788.0,0.014295185940887953
787.0,0.013265462531305328
786.0,0.012319349531997665
785.0,0.011480262176704888
784.0,0.010752135509808282
783.0,0.01011870847684614
782.0,0.009565924016033156
781.0,0.009087563410219487
780.0,0.008669046984932509
779.0,0.00828779021037014
778.0,0.007933867530401493
777.0,0.0076120832232618
776.0,0.007320722909893317
775.0,0.007045952699143593
774.0,0.006779547078292685
773.0,0.006524048441258689
772.0,0.006277242552945865
771.0,0.006029243559624822
770.0,0.005778482186468018
769.0,0.005533691063385613
768.0,0.005296881686126423
767.0,0.005061014539678738
766.0,0.004827111175171088
765.0,0.004606339667662449
764.0,0.004402094706773619
763.0,0.004206603241511401
762.0,0.004017753426759151
761.0,0.003842611171751869
760.0,0.003681659919672819
759.0,0.0035267854688857906
758.0,0.0033781793954990886
757.0,0.0032461564722979803
756.0,0.0031329967080649303
755.0,0.0030305167121655405
754.0,0.0029395299014606177
753.0,0.0028744638102319257
752.0,0.002845697904970114
751.0,0.0028563573947889623
750.0,0.0029207218246598693
749.0,0.0030673270851692275
748.0,0.0033202065871999007
747.0,0.0036972510999759463
746.0,0.004234019918946164
745.0,0.004992303668527112
744.0,0.00604232704160265
743.0,0.007457764044016074
742.0,0.009329760004235922
741.0,0.011750433336379058
740.0,0.014757054566900445
739.0,0.01830548451023465
738.0,0.022306856729809827
737.0,0.026663170837347268
736.0,0.03125847308963974
735.0,0.03597291041894375
734.0,0.0407605991212206
733.0,0.04568892487449448
732.0,0.05087232751941345
731.0,0.056415884592496496
730.0,0.06244993032780728
729.0,0.06912861073186631
728.0,0.07649146533362151
727.0,0.08431124319337215
726.0,0.09202825396110795
725.0,0.09868486490129054
724.0,0.10293663625563598
723.0,0.10347063507633807
722.0,0.09975132795122377
721.0,0.09244366974010829
720.0,0.08314348943513834
719.0,0.07360121268030816
718.0,0.06498256019912765
717.0,0.057715113745929206
716.0,0.05181075781512555
715.0,0.04716047893944866
714.0,0.043608629441178534
713.0,0.04093955552351892
712.0,0.03890267840129607
711.0,0.03726860901261565
710.0,0.035867986296530804
709.0,0.034597414091917945
708.0,0.033402572709826155
707.0,0.03225955544058797
706.0,0.031163189117811914
705.0,0.030111180790261642
704.0,0.029083735575984183
703.0,0.02804020859096526
702.0,0.026940109050481394
701.0,0.025766412139311773
700.0,0.024534621185766225
699.0,0.023292019812635737
698.0,0.022107529750897255
697.0,0.02104504020046649
696.0,0.020133967668790956
695.0,0.019366149955138297
694.0,0.018719267888212803
693.0,0.0181752963690608
692.0,0.01771778482036017
691.0,0.017326703582036886
690.0,0.016987717790448248
689.0,0.016700320573422446
688.0,0.01646847744400759
687.0,0.01629083370457503
686.0,0.016167154724029704
685.0,0.016102266740150837
684.0,0.016093145491195948
683.0,0.01611950770943829
682.0,0.016150058045189295
681.0,0.016147760500167717
680.0,0.01607016116389883
679.0,0.01588272940318682
678.0,0.015582482139284856
677.0,0.015205226257983415
676.0,0.014802525427472728
675.0,0.014412984170354713
674.0,0.014057914007169502
673.0,0.01374702615306049
672.0,0.013477618208389046
671.0,0.013232036053367941
670.0,0.012989687843543297
669.0,0.012730332569181626
668.0,0.012467929656857973
667.0,0.0122648927963152
666.0,0.012104879007141106
665.0,0.011937095968338463
664.0,0.011763710041616297
663.0,0.011595523519461366
662.0,0.011438558277329803
661.0,0.011298277061982935
660.0,0.011178945306190926
659.0,0.011080661590713779
658.0,0.010999097622837569
657.0,0.010926068836892407
656.0,0.010842913812152292
655.0,0.010725117858365406
654.0,0.010567168257290108
653.0,0.010391314842505772
652.0,0.010221300706217944
651.0,0.010061486044047132
650.0,0.009907484589833756
649.0,0.009762211405450926
648.0,0.009630283740456522
647.0,0.009506406567449041
646.0,0.009381596738671918
645.0,0.009254142659052982
644.0,0.009126412754217071
643.0,0.008998373328956588
642.0,0.00887067345188496
641.0,0.008747457348269087
640.0,0.008631000249315316
639.0,0.008521783136224065
638.0,0.00843656190568242
637.0,0.00842799992088931
636.0,0.008575395587494362
635.0,0.008929004478416856
634.0,0.009432153813312322
633.0,0.009904423671363894
632.0,0.01011740779488711
631.0,0.009932098215040326
630.0,0.009425659906049301
629.0,0.008833644094844384
628.0,0.008340279215716992
627.0,0.00797429375067741
626.0,0.0076730255593827
625.0,0.007386935331275005
624.0,0.007113399631901152
623.0,0.006868242820470423
622.0,0.006661817438059612
621.0,0.006494240472858152
620.0,0.006355648269203712
619.0,0.0062306011139362395
618.0,0.006109889731663008
617.0,0.005996777260702586
616.0,0.005897628711427816
615.0,0.0058151662093112975
614.0,0.0057532885641565865
613.0,0.005716026936373133
612.0,0.005698057208018758
611.0,0.005687515279286579
610.0,0.005686191485615952
609.0,0.0057116956565683805
608.0,0.005766804729674951
607.0,0.005822130390326839
606.0,0.005846549028906979
605.0,0.005841940667308304
604.0,0.00582855233302422
603.0,0.0058160706034535836
602.0,0.005804822269709813
601.0,0.0057927107230293096
600.0,0.005765446375132393
599.0,0.005700333063988502
598.0,0.0055967632881259825
597.0,0.005481456037332171
596.0,0.005372374327187837
595.0,0.00526215371425382
594.0,0.005142226981319685
593.0,0.00501753112456349
592.0,0.00488870918686877
591.0,0.004746415321271517
590.0,0.004595929893311148
589.0,0.004460248598952018
588.0,0.004347033834579867
587.0,0.004235860992160029
586.0,0.0041079901053785554
585.0,0.003970479540344657
584.0,0.0038357765142221813
583.0,0.0036963747175060204
582.0,0.003540328157676114
581.0,0.003375717209414467
580.0,0.003219115708985547
579.0,0.0030693178899197145
578.0,0.002910046476715498
577.0,0.00274156412857726
576.0,0.0025969743349580337
575.0,0.0025120915634247367
574.0,0.002482147814146426
573.0,0.0024748375768990135
572.0,0.002474289504782363
571.0,0.0024791668376828602
570.0,0.002474541325258428
569.0,0.002442294979471243
568.0,0.0023941849825066114
567.0,0.0023674393427406577
566.0,0.0023811474075523375
565.0,0.002413880292893812
564.0,0.002430085157442934
563.0,0.002413165334132321
562.0,0.0023788427608640982
561.0,0.0023588069788327577
560.0,0.0023673106898109073
559.0,0.002389069720607472
558.0,0.0024011318957077588
557.0,0.0024031735369559326
556.0,0.0024139223157962266
555.0,0.002441490402955023
554.0,0.0024747253949064327
553.0,0.0025006290480085007
552.0,0.002507273698307763
551.0,0.002476364789631001
550.0,0.0024060837329842807
