cm-1,A
4000.0,0.0024835311856452394
3999.0,0.002501066510341132
3998.0,0.002510086589712716
3997.0,0.00251424901881964
3996.0,0.002519270437128617
3995.0,0.002527302248364321
3994.0,0.0025348484281342903
3993.0,0.0025367245733038885
3992.0,0.002531745632404176
3991.0,0.0025247224887847784
3990.0,0.002522781601137631
3989.0,0.0025289220082954714
3988.0,0.002539527678077972
3987.0,0.002547562659165649
3986.0,0.0025483146633196825
3985.0,0.0025422510443179162
3984.0,0.002533673978564001
3983.0,0.0025278392242803448
3982.0,0.0025280878073919676
3981.0,0.0025345711263011095
3980.0,0.0025443161666751394
3979.0,0.0025527471618692022
3978.0,0.002555660036004225
3977.0,0.002550438692152008
3976.0,0.002536696437320061
3975.0,0.002517142003936129
3974.0,0.002498606623012067
3973.0,0.0024907400904242262
3972.0,0.0025011692804365396
3971.0,0.002528660617436905
3970.0,0.0025607103256583058
3969.0,0.0025794219478078965
3968.0,0.0025741347878300612
3967.0,0.0025499188149439656
3966.0,0.002522752407867918
3965.0,0.002505970542291322
3964.0,0.002499555787124375
3963.0,0.0024943339301073206
3962.0,0.0024846489759503283
3961.0,0.0024752512840149456
3960.0,0.0024758425556257804
3959.0,0.0024886348713801425
3958.0,0.0025052182564404054
3957.0,0.0025158105494339153
3956.0,0.0025187254991919103
3955.0,0.002521404927605375
3954.0,0.0025299383824603358
3953.0,0.0025391316362196378
3952.0,0.002536952125844207
3951.0,0.002517298466210291
3950.0,0.0024889387981063063
3949.0,0.002470025396870014
3948.0,0.002470952828199124
3947.0,0.0024855978391331544
3946.0,0.0024991023085409823
3945.0,0.002502918430876323
3944.0,0.0025023975456981585
3943.0,0.0025089831966007706
3942.0,0.002525649892285294
3941.0,0.002541085360548932
3940.0,0.002540984902818521
3939.0,0.0025233349351754704
3938.0,0.002500475436134189
3937.0,0.0024867764983070497
3936.0,0.002486630324933967
3935.0,0.0024953405028128985
3934.0,0.002506718247673086
3933.0,0.002517561163339878
3932.0,0.002524678640860871
3931.0,0.002525268070397809
3930.0,0.0025206270716053433
3929.0,0.002514928140199631
3928.0,0.0025109209333309054
3927.0,0.0025066622358315034
3926.0,0.0024999742961197557
3925.0,0.002493214492298196
3924.0,0.0024907189853561927
3923.0,0.0024935275014984952
3922.0,0.002498900130056197
3921.0,0.002505354415829106
3920.0,0.0025122324536362498
3919.0,0.002516005540494814
3918.0,0.0025136329701352647
3917.0,0.0025077648218074424
3916.0,0.0025046732514427137
3915.0,0.0025066362836980403
3914.0,0.002509525959710831
3913.0,0.002509948785419789
3912.0,0.0025091509178863268
3911.0,0.0025109269661955777
3910.0,0.0025166396663613647
3909.0,0.0025228961717289897
3908.0,0.0025225854394772766
3907.0,0.0025119794147177394
3906.0,0.002497907496750184
3905.0,0.002496913689900201
3904.0,0.002519207040932385
3903.0,0.0025509772744024767
3902.0,0.002565509502623721
3901.0,0.0025546886548918155
3900.0,0.002539227057174476
3899.0,0.002542508203638551
3898.0,0.002561763514988752
3897.0,0.0025746944735685253
3896.0,0.0025671114589898014
3895.0,0.0025437831672815055
3894.0,0.002518879670580441
3893.0,0.002505037588598688
3892.0,0.0025081203255863226
3891.0,0.0025270757279736407
3890.0,0.0025491614136774277
3889.0,0.00255590293828562
3888.0,0.002541039571651087
3887.0,0.002520511943055085
3886.0,0.0025195108675367976
3885.0,0.002543657470672518
3884.0,0.0025672746759975076
3883.0,0.0025625913266975687
3882.0,0.0025309522636866874
3881.0,0.002500641577451281
3880.0,0.0024990503248390906
3879.0,0.002523895560350162
3878.0,0.0025465261926562073
3877.0,0.0025449787409138943
3876.0,0.00252405925852242
3875.0,0.0025086799447943883
3874.0,0.0025188087503467873
3873.0,0.0025458542872335
3872.0,0.002560756258668026
3871.0,0.00254862572207912
3870.0,0.0025274552465638627
3869.0,0.002521780757468486
3868.0,0.002527819407936562
3867.0,0.002529146209664839
3866.0,0.002527135516556184
3865.0,0.002531411234604824
3864.0,0.002537066299177497
3863.0,0.00253092570120944
3862.0,0.0025144606797314886
3861.0,0.0025041178582112123
3860.0,0.0025095034027486822
3859.0,0.002527598293507534
3858.0,0.0025494220104448715
3857.0,0.0025687619888201136
3856.0,0.0025836739395382604
3855.0,0.002598541271153834
3854.0,0.002625396564160186
3853.0,0.002662605139299149
3852.0,0.0026788237750048965
3851.0,0.002649782047020454
3850.0,0.0025909540576259963
3849.0,0.002534990233080893
3848.0,0.0024987190616945756
3847.0,0.0024794537303094426
3846.0,0.002469259072014055
3845.0,0.002464991770710901
3844.0,0.0024680643871466653
3843.0,0.0024796655171131637
3842.0,0.002496710652213653
3841.0,0.0025146586923579742
3840.0,0.0025336364754606497
3839.0,0.002559817547426211
3838.0,0.0025940580256184837
3837.0,0.0026246774006508603
3836.0,0.0026357858132456955
3835.0,0.002622818518652886
3834.0,0.0025956171877355065
3833.0,0.0025692895068286526
3832.0,0.0025539538589421
3831.0,0.002547716496523524
3830.0,0.0025381114877155242
3829.0,0.0025150115195310104
3828.0,0.0024827937641488124
3827.0,0.002460869487625472
3826.0,0.002466304585992853
3825.0,0.0024941012192837104
3824.0,0.0025214710829544714
3823.0,0.002530458232807251
3822.0,0.0025240286692489265
3821.0,0.0025225134261461406
3820.0,0.0025365840159006885
3819.0,0.0025511650221577706
3818.0,0.002552416478588216
3817.0,0.002546225695292276
3816.0,0.002545443853448401
3815.0,0.002548597806104981
3814.0,0.0025418136126595884
3813.0,0.002522542086201126
3812.0,0.0025067614704685093
3811.0,0.0025067167072131144
3810.0,0.002515786580285552
3809.0,0.0025188891830672704
3808.0,0.002514732638634042
3807.0,0.00252398465383661
3806.0,0.002560519006821851
3805.0,0.0026061122176493706
3804.0,0.0026326151792955207
3803.0,0.0026309059853834374
3802.0,0.0026175687171072666
3801.0,0.00261777352149618
3800.0,0.002624621020409258
3799.0,0.00260930939467277
3798.0,0.0025681949716917195
3797.0,0.0025259951073761137
3796.0,0.002505444877697124
3795.0,0.002505103572157467
3794.0,0.0025100448129585394
3793.0,0.002513965942771811
3792.0,0.002521082294698788
3791.0,0.002530823732850078
3790.0,0.002534282947571513
3789.0,0.0025250917990196006
3788.0,0.002507022191171969
3787.0,0.0024900515728388094
3786.0,0.0024831259566365166
3785.0,0.0024883744040453152
3784.0,0.0025005546568179406
3783.0,0.002510691341829418
3782.0,0.002513615173887095
3781.0,0.0025127127758452685
3780.0,0.002514714423427407
3779.0,0.0025214326738806254
3778.0,0.0025264237090078905
3777.0,0.002522535284243321
3776.0,0.0025117657264800497
3775.0,0.002504691554491005
3774.0,0.0025086123119999392
3773.0,0.00251957137987841
3772.0,0.002529261398258093
3771.0,0.0025390113651320044
3770.0,0.002559159056359734
3769.0,0.0025901586159489285
3768.0,0.0026137719068217956
3767.0,0.002614314890268447
3766.0,0.0025986162227724322
3765.0,0.0025881725261201844
3764.0,0.00259270647231772
3763.0,0.0026002749345942064
3762.0,0.002596870617411401
3761.0,0.0025847709730169996
3760.0,0.002577032320693803
3759.0,0.0025834616547300605
3758.0,0.002604257272277208
3757.0,0.0026348742180910033
3756.0,0.0026683781890706852
3755.0,0.0026992256169234207
3754.0,0.0027272643509545095
3753.0,0.0027570927240995902
3752.0,0.002788828763446647
3751.0,0.0028149892482940767
3750.0,0.0028326749329608963
3749.0,0.0028423386402143466
3748.0,0.0028369857505793567
3747.0,0.002807329574518861
3746.0,0.0027605704880422155
3745.0,0.0027332842275265426
3744.0,0.002760137419501976
3743.0,0.002810829712319057
3742.0,0.002829860611907273
3741.0,0.0028130896082773195
3740.0,0.0027901687075663493
3739.0,0.0027803321565518695
3738.0,0.0027805334797647236
3737.0,0.0027794982187748264
3736.0,0.0027676897742380455
3735.0,0.0027439183427751795
3734.0,0.002720136649616338
3733.0,0.0027128660769954703
3732.0,0.0027285330411509837
3731.0,0.0027565055300085564
3730.0,0.0027776152979397395
3729.0,0.0027804936261334855
3728.0,0.0027682425088198454
3727.0,0.0027542896124336195
3726.0,0.002750094297595534
3725.0,0.002751431982096135
3724.0,0.002743165981195916
3723.0,0.002720240667422596
3722.0,0.0026976311831374148
3721.0,0.0026947166630077292
3720.0,0.0027151745059018047
3719.0,0.002746820327006948
3718.0,0.002778278314672143
3717.0,0.0028090481986116156
3716.0,0.00284141726232334
3715.0,0.00287538095641178
3714.0,0.0029112509843195467
3713.0,0.0029491015206897465
3712.0,0.0029819041584778234
3711.0,0.0029981006627551226
3710.0,0.002995498605145013
3709.0,0.0029838719094971477
3708.0,0.0029764363939545884
3707.0,0.002982385630709329
3706.0,0.0030003207824943036
3705.0,0.0030187978816057634
3704.0,0.0030242564316369956
3703.0,0.0030135467814911623
3702.0,0.002998650915103291
3701.0,0.0029958478043334742
3700.0,0.003008399354630445
3699.0,0.003028035068156444
3698.0,0.0030512491673415684
3697.0,0.003083915940887542
3696.0,0.003130512583022553
3695.0,0.0031874063527031708
3694.0,0.0032486925050074483
3693.0,0.003310444652424322
3692.0,0.0033645548730837542
3691.0,0.0033962637525066473
3690.0,0.003401063110957261
3689.0,0.003400639223081552
3688.0,0.0034196222978452187
3687.0,0.0034534722234578112
3686.0,0.0034857343557496276
3685.0,0.0035164168195576063
3684.0,0.0035557911946057863
3683.0,0.003603137920939843
3682.0,0.0036437201574103725
3681.0,0.003669804347143574
3680.0,0.0036972332660352844
3679.0,0.0037508117718490436
3678.0,0.0038378061260478137
3677.0,0.003940880476227548
3676.0,0.004032520944699483
3675.0,0.004100660183778878
3674.0,0.004149056507395292
3673.0,0.004176152031691144
3672.0,0.004185926128985244
3671.0,0.0041959912293742675
3670.0,0.004226474556702752
3669.0,0.004280776881177363
3668.0,0.004342604510003608
3667.0,0.0043984592659759335
3666.0,0.004451148982684135
3665.0,0.004508868042658672
3664.0,0.004577075817930759
3663.0,0.004658294640584686
3662.0,0.004752101682508347
3661.0,0.004852000982527261
3660.0,0.00494754352628419
3659.0,0.005033958391125965
3658.0,0.005120430324389238
3657.0,0.005222586664377087
3656.0,0.005343249205771797
3655.0,0.005464985130387678
3654.0,0.005570841203601091
3653.0,0.005662424235836103
3652.0,0.0057544292869751166
3651.0,0.005854544177631715
3650.0,0.005954446600320534
3649.0,0.006044562271523751
3648.0,0.006130897352798409
3647.0,0.006223387668443
3646.0,0.006323985312875319
3645.0,0.006429030588060656
3644.0,0.006536943928009102
3643.0,0.006651530198496061
3642.0,0.0067767016065734195
3641.0,0.006909705400852428
3640.0,0.007040253178385414
3639.0,0.007161364559452153
3638.0,0.00727823395602018
3637.0,0.007403127575642961
3636.0,0.007544337545615171
3635.0,0.007698349441747392
3634.0,0.007850877851899774
3633.0,0.007984273068349104
3632.0,0.008089294555842194
3631.0,0.008174025949350563
3630.0,0.008262630818127696
3629.0,0.008375828148898297
3628.0,0.008507663483411152
3627.0,0.008635292994946026
3626.0,0.00875177509300574
3625.0,0.008871519965754575
3624.0,0.009004656206569631
3623.0,0.009144450031607517
3622.0,0.00927942531751229
3621.0,0.009406996122379883
3620.0,0.009533184206776839
3619.0,0.009662700139024488
3618.0,0.009795102537101232
3617.0,0.009927589660905328
3616.0,0.010061107545720302
3615.0,0.0102018104630551
3614.0,0.010352074666837715
3613.0,0.010501885929077946
3612.0,0.0106359742155924
3611.0,0.010752209983459311
3610.0,0.010866710434310036
3609.0,0.01099391647872909
3608.0,0.011130121422483335
3607.0,0.011263100600321999
3606.0,0.011391562156961242
3605.0,0.011523282337335388
3604.0,0.011662362913155712
3603.0,0.011805865088199398
3602.0,0.011948125391291885
3601.0,0.012084364313903157
3600.0,0.01221328611059411
3599.0,0.012340158312805456
3598.0,0.012475612942703296
3597.0,0.012623207967147356
3596.0,0.012770206487247372
3595.0,0.01290008544919702
3594.0,0.01301486380335449
3593.0,0.013133899831631586
3592.0,0.013272834501990986
3591.0,0.013433009847468492
3590.0,0.013606363982692406
3589.0,0.013773967240027813
3588.0,0.013905880380223577
3587.0,0.013988537850653881
3586.0,0.014047071915884737
3585.0,0.014118593448079999
3584.0,0.014222120812914454
3583.0,0.014357511542456767
3582.0,0.014514627198160424
3581.0,0.014678384786663917
3580.0,0.014834369939350289
3579.0,0.01497620683217558
3578.0,0.015110484707055432
3577.0,0.015247963179090582
3576.0,0.015389627801331275
3575.0,0.015525742274364922
3574.0,0.015650006403764884
3573.0,0.015770064189116525
3572.0,0.01590159555782237
3571.0,0.016054821414701305
3570.0,0.016224854197850042
3569.0,0.01638844260036262
3568.0,0.016512622316370705
3567.0,0.016589396505312895
3566.0,0.01665633145267252
3565.0,0.01675493857300296
3564.0,0.0168893385275583
3563.0,0.017039415036257253
3562.0,0.01719018763347183
3561.0,0.017341814949666228
3560.0,0.017498285652078966
3559.0,0.017656698212616187
3558.0,0.017809822369092808
3557.0,0.017955644739326995
3556.0,0.01809904652509647
3555.0,0.018245493189333228
3554.0,0.01839415914069214
3553.0,0.01853784246958605
3552.0,0.018671763436678705
3551.0,0.018802545018992086
3550.0,0.018944239580480977
3549.0,0.019104355566528498
3548.0,0.019273242447689642
3547.0,0.01942835905533681
3546.0,0.019552470965448678
3545.0,0.019646264080855878
3544.0,0.01972427346685683
3543.0,0.019805117134846742
3542.0,0.01990716152340013
3541.0,0.020042913032099964
3540.0,0.02021034835683694
3539.0,0.02039293836350395
3538.0,0.0205697523583834
3537.0,0.02072580496288389
3536.0,0.02085811738949467
3535.0,0.020976660300644642
3534.0,0.021098841876114605
3533.0,0.02123815815283049
3532.0,0.021395477850699614
3531.0,0.021560679896088446
3530.0,0.02172296257202584
3529.0,0.02187741807344732
3528.0,0.022024701337031296
3527.0,0.022169532479944926
3526.0,0.02231831631423513
3525.0,0.022472093314846838
3524.0,0.022621246913958087
3523.0,0.02275449386496706
3522.0,0.022874075734426486
3521.0,0.022995506508457095
3520.0,0.023131470248070485
3519.0,0.023281173252328563
3518.0,0.023434973419538253
3517.0,0.02358476003862032
3516.0,0.02372905222536586
3515.0,0.02387276025813731
3514.0,0.02402337730826245
3513.0,0.024183594436037518
3512.0,0.024345998989592412
3511.0,0.02449799894349341
3510.0,0.024634837981100857
3509.0,0.024765360626660075
3508.0,0.024903377528676864
3507.0,0.025055561731393807
3506.0,0.025218016569312655
3505.0,0.02537992329548168
3504.0,0.0255296923140016
3503.0,0.02566360115417097
3502.0,0.02579127782950259
3501.0,0.025927678247528795
3500.0,0.026078642979224298
3499.0,0.026236660823005128
3498.0,0.02638873769485476
3497.0,0.026526960058533004
3496.0,0.026653337536907188
3495.0,0.02677727229549831
3494.0,0.026909236040033757
3493.0,0.02705414209071204
3492.0,0.027208123171942454
3491.0,0.02736101083077052
3490.0,0.027502770355954078
3489.0,0.027630285618495808
3488.0,0.02775167570308457
3487.0,0.027883123918317935
3486.0,0.02803720871496303
3485.0,0.028212428223499
3484.0,0.028394581761396195
3483.0,0.028568251777841107
3482.0,0.028726226873351572
3481.0,0.028869139880636302
3480.0,0.0290017498996334
3479.0,0.029132119654157473
3478.0,0.029269017677925845
3477.0,0.02941546160210376
3476.0,0.029566716908674694
3475.0,0.029717190787292434
3474.0,0.029866999160422094
3473.0,0.03001933722745407
3472.0,0.03017453201725736
3471.0,0.03032979818721336
3470.0,0.03048187758906551
3469.0,0.03062714884032839
3468.0,0.030763335979960685
3467.0,0.030894452188579342
3466.0,0.031029667611733217
3465.0,0.03117340276244477
3464.0,0.031319495329963865
3463.0,0.03145790105342678
3462.0,0.03158407609425515
3461.0,0.031699954560156986
3460.0,0.03181135796952544
3459.0,0.03192902102666203
3458.0,0.03206585476262522
3457.0,0.03222553172578372
3456.0,0.032396140840932154
3455.0,0.03256014769818148
3454.0,0.03270935730048165
3453.0,0.032848206502793235
3452.0,0.03298745006575194
3451.0,0.033137503887862026
3450.0,0.033302078458578875
3449.0,0.033470679818202856
3448.0,0.0336208132020042
3447.0,0.033738815040734234
3446.0,0.03383862125022015
3445.0,0.03395016169985385
3444.0,0.0340898983547259
3443.0,0.03424884244326165
3442.0,0.034405233541212776
3441.0,0.03454435551873624
3440.0,0.03466827285473957
3439.0,0.03479107953855228
3438.0,0.03492568998930362
3437.0,0.03507244240419566
3436.0,0.03521958184580653
3435.0,0.03535617088926962
3434.0,0.03548225213487096
3433.0,0.03560372275583083
3432.0,0.035722407165287164
3431.0,0.035837001672847445
3430.0,0.035951037109502405
3429.0,0.03607237583007155
3428.0,0.0362043249041457
3427.0,0.03634278853654147
3426.0,0.03648274324777956
3425.0,0.03662237203537744
3424.0,0.03675962943197802
3423.0,0.03688937496143362
3422.0,0.03700670721791568
3421.0,0.037112014032246184
3420.0,0.03721141938941583
3419.0,0.03731214814438015
3418.0,0.03741700058817807
3417.0,0.03752254662850723
3416.0,0.03762410980671364
3415.0,0.03772357259594605
3414.0,0.0378297814384729
3413.0,0.03794875667132257
3412.0,0.038075755253965525
3411.0,0.038199199432798876
3410.0,0.03831018872602881
3409.0,0.03840670027005781
3408.0,0.03849201622840252
3407.0,0.038573004383841744
3406.0,0.03865777945495092
3405.0,0.03875092314462239
3404.0,0.038851105750182725
3403.0,0.038954724309958326
3402.0,0.03905927580271151
3401.0,0.03916083957247043
3400.0,0.039252638679465025
3399.0,0.039331378667159085
3398.0,0.03940341043144844
3397.0,0.039479899947798505
3396.0,0.03956623998170376
3395.0,0.039658597973007505
3394.0,0.03974917636382856
3393.0,0.039832177268708135
3392.0,0.03990704327492174
3391.0,0.03997925650640802
3390.0,0.04005624588718519
3389.0,0.04013947533587814
3388.0,0.04022117989241232
3387.0,0.04029071831372415
3386.0,0.040343572508398054
3385.0,0.04038412772520061
3384.0,0.040423178371217915
3383.0,0.04047380353690044
3382.0,0.04054384358585683
3381.0,0.04062710657025988
3380.0,0.04070478842519927
3379.0,0.04076087736998649
3378.0,0.04079566529459128
3377.0,0.040821776299690034
3376.0,0.04085029237046135
3375.0,0.04088493263061176
3374.0,0.0409261039738997
3373.0,0.04097371504570718
3372.0,0.041025684267978646
3371.0,0.04107775424748226
3370.0,0.04112558126489159
3369.0,0.04116584807923083
3368.0,0.04119702498281761
3367.0,0.041221599093220984
3366.0,0.04124598363585605
3365.0,0.04127522120367712
3364.0,0.04130805980538698
3363.0,0.04133844145027959
3362.0,0.04136090612003103
3361.0,0.0413744309433894
3360.0,0.04138332382888103
3359.0,0.04139456964376877
3358.0,0.041410982585011816
3357.0,0.04142623639649554
3356.0,0.04143056468035765
3355.0,0.04142262644073761
3354.0,0.04141138724933601
3353.0,0.04140512338224083
3352.0,0.04140383041136323
3351.0,0.04140459458921974
3350.0,0.04140854347928901
3349.0,0.04141776127703724
3348.0,0.04142938919852144
3347.0,0.041438052218002105
3346.0,0.04144219102903504
3345.0,0.041444244060666074
3344.0,0.041446496436186184
3343.0,0.04144887236315689
3342.0,0.04144777864261051
3341.0,0.041435489225684546
3340.0,0.041405758068886356
3339.0,0.041363512461247476
3338.0,0.041323956022809624
3337.0,0.04129706737547266
3336.0,0.04127694097690379
3335.0,0.041251616590576565
3334.0,0.04121902726664957
3333.0,0.041186444694906774
3332.0,0.04115793600699268
3331.0,0.04113067148876405
3330.0,0.041102763962188475
3329.0,0.04107721149992056
3328.0,0.04105599728624239
3327.0,0.0410346052826413
3326.0,0.04100485211038233
3325.0,0.040962026646188386
3324.0,0.04090948926502975
3323.0,0.04085782958587792
3322.0,0.04081837342783232
3321.0,0.040794853431617636
3320.0,0.04078133589030697
3319.0,0.04076864591809741
3318.0,0.04075062093658345
3317.0,0.04072347437394793
3316.0,0.04068403204128434
3315.0,0.04063325036307274
3314.0,0.040579314562598626
3313.0,0.04053250219244046
3312.0,0.04049664629588637
3311.0,0.04046747584565853
3310.0,0.04043791660757553
3309.0,0.040402884426035644
3308.0,0.040361206106123995
3307.0,0.04031618404858499
3306.0,0.040273233784508235
3305.0,0.040234488707628746
3304.0,0.04019667984874202
3303.0,0.040155785707231
3302.0,0.0401115006095843
3301.0,0.040065237843130784
3300.0,0.04001714162623301
3299.0,0.03996854546668142
3298.0,0.03992456573125467
3297.0,0.039889491839319335
3296.0,0.039860520874153225
3295.0,0.03982973677469394
3294.0,0.039792035366638535
3293.0,0.03974867554030421
3292.0,0.039703891867675256
3291.0,0.03966019677340103
3290.0,0.03961614956617705
3289.0,0.039567261522613036
3288.0,0.039510763043843496
3287.0,0.03945091759282017
3286.0,0.03939688662718174
3285.0,0.03935270335670178
3284.0,0.03931202125953648
3283.0,0.039266271297498295
3282.0,0.039215808641129425
3281.0,0.03916882668744342
3280.0,0.03913055439798147
3279.0,0.03909760928442223
3278.0,0.0390623445839144
3277.0,0.03901930997270173
3276.0,0.03896815969645652
3275.0,0.038913827953243205
3274.0,0.03886386401932431
3273.0,0.03882247967842567
3272.0,0.0387865424249306
3271.0,0.038748660589186766
3270.0,0.03870327664115853
3269.0,0.03864854853717878
3268.0,0.038585062939136903
3267.0,0.03851640868295245
3266.0,0.038449869650236695
3265.0,0.038392333729760364
3264.0,0.03834449433653199
3263.0,0.03830089042903801
3262.0,0.03825514186509753
3261.0,0.03820324522599435
3260.0,0.03814311376827018
3259.0,0.03807457209560468
3258.0,0.038000457838063495
3257.0,0.03792575836969081
3256.0,0.037854935081101916
3255.0,0.03779034930884964
3254.0,0.037731801904610514
3253.0,0.03767595649810519
3252.0,0.03761783709463648
3251.0,0.03755528556934011
3250.0,0.03749100691842791
3249.0,0.03742787254159233
3248.0,0.03736331010582006
3247.0,0.037291505011795636
3246.0,0.037211333581078254
3245.0,0.037129410020135305
3244.0,0.03705417572492191
3243.0,0.03698840782449266
3242.0,0.036927899014520246
3241.0,0.03686577558591834
3240.0,0.03679747464392019
3239.0,0.03672284433130131
3238.0,0.036644471937972156
3237.0,0.03656458355446525
3236.0,0.03648406994500642
3235.0,0.03640351432248363
3234.0,0.03632260434634932
3233.0,0.03623811832402779
3232.0,0.03614582474201552
3231.0,0.036046586237418174
3230.0,0.03594812321157459
3229.0,0.03585775639817827
3228.0,0.03577495991151827
3227.0,0.03569380777575936
3226.0,0.035610968381242586
3225.0,0.0355272980635467
3224.0,0.03544186780162235
3223.0,0.03534877605538521
3222.0,0.03524212887034385
3221.0,0.03512303836566112
3220.0,0.035001046874773914
3219.0,0.034888892789857406
3218.0,0.03479387424560358
3217.0,0.034711326207600965
3216.0,0.03462642761403222
3215.0,0.03452551963865646
3214.0,0.03440764753603479
3213.0,0.03428407945237242
3212.0,0.034166380679889044
3211.0,0.03405705831692243
3210.0,0.03395149953115588
3209.0,0.03384488822964212
3208.0,0.033734822896533755
3207.0,0.03362017569381479
3206.0,0.03350163092004828
3205.0,0.03338333688531006
3204.0,0.03327091499917267
3203.0,0.033166736019832325
3202.0,0.03306820398777412
3201.0,0.032970139071699295
3200.0,0.03286657963047407
3199.0,0.03275086627186047
3198.0,0.03261830713218303
3197.0,0.03247184080192971
3196.0,0.03232312325717046
3195.0,0.03218475808763539
3194.0,0.03206101309693217
3193.0,0.031946297114759936
3192.0,0.03183053155569989
3191.0,0.03170469243748536
3190.0,0.031564815559612366
3189.0,0.031415769849431924
3188.0,0.03127084583023403
3187.0,0.031142174891401767
3186.0,0.031028654629144586
3185.0,0.03091607645911844
3184.0,0.030791158597376217
3183.0,0.03065310037126042
3182.0,0.03050976506289134
3181.0,0.030366546018022966
3180.0,0.030222837337091336
3179.0,0.0300770074658834
3178.0,0.029930313269489483
3177.0,0.02978583398582273
3176.0,0.029646188990940014
3175.0,0.029512304145175857
3174.0,0.029382442511497377
3173.0,0.029252770411629037
3172.0,0.029120784196971873
3171.0,0.028987469901598183
3170.0,0.028853946630786404
3169.0,0.028717006905641867
3168.0,0.028571327256278176
3167.0,0.028416476835049845
3166.0,0.0282590911263101
3165.0,0.02810750339354853
3164.0,0.02796605217959971
3163.0,0.02783470789727206
3162.0,0.027711519241725376
3161.0,0.02759325436915306
3160.0,0.027474267627835003
3159.0,0.027347124658141434
3158.0,0.027206669942488593
3157.0,0.02705486066168932
3156.0,0.026901054507693842
3155.0,0.026755503477459187
3154.0,0.02662183681635208
3153.0,0.026496362562960455
3152.0,0.026373205306986693
3151.0,0.026247588850907586
3150.0,0.026115570259723234
3149.0,0.02597591754696561
3148.0,0.025834030217434457
3147.0,0.025698869013005065
3146.0,0.02557254603041737
3145.0,0.025446814542523802
3144.0,0.02531327412108241
3143.0,0.025173011318861422
3142.0,0.025032261894256357
3141.0,0.02489318620864121
3140.0,0.024754994520987273
3139.0,0.024620865716366278
3138.0,0.024495473105320548
3137.0,0.024376058159928375
3136.0,0.02425396695355873
3135.0,0.02412586766182881
3134.0,0.02399717633002874
3133.0,0.023873346126979392
3132.0,0.023753479339469717
3131.0,0.023634182890954838
3130.0,0.023513758270125067
3129.0,0.023390124932518193
3128.0,0.023261050297956647
3127.0,0.02313006221576788
3126.0,0.02300650711451144
3125.0,0.022895279429308038
3124.0,0.022789636081700024
3123.0,0.0226779111783678
3122.0,0.02255562083987486
3121.0,0.022427754334172382
3120.0,0.022301535066479226
3119.0,0.022180646661675726
3118.0,0.022064735005566095
3117.0,0.021951472278516085
3116.0,0.02183950285161414
3115.0,0.021730533698614708
3114.0,0.021627300136097757
3113.0,0.02152872267268187
3112.0,0.021429715397520352
3111.0,0.021326917588258457
3110.0,0.021222053376460347
3109.0,0.021118702883600068
3108.0,0.021018226922289447
3107.0,0.020920115225686733
3106.0,0.020823236314591112
3105.0,0.020724751061434437
3104.0,0.02062117257940228
3103.0,0.020513089473041847
3102.0,0.020406302037656174
3101.0,0.020305699961393982
3100.0,0.020209684213366018
3099.0,0.020113362160840358
3098.0,0.02001490626207542
3097.0,0.019915910176592593
3096.0,0.019817988306350297
3095.0,0.019721916558606098
3094.0,0.019628651283854524
3093.0,0.0195378264433767
3092.0,0.019446206694176373
3091.0,0.019350822165475186
3090.0,0.01925324623902354
3089.0,0.019158457131870192
3088.0,0.01906943041288973
3087.0,0.018984108665106237
3086.0,0.018897412424274916
3085.0,0.018805275001859648
3084.0,0.018707900041912896
3083.0,0.018610230548450814
3082.0,0.01851791920847767
3081.0,0.018431567771699808
3080.0,0.018346527339403125
3079.0,0.018259181424725927
3078.0,0.01817080679354628
3077.0,0.0180841309560737
3076.0,0.017999181045571258
3075.0,0.017915076375185742
3074.0,0.01783295743151732
3073.0,0.01775334881122379
3072.0,0.017672967384141158
3071.0,0.017587586093714823
3070.0,0.0174973355414932
3069.0,0.01740594527723068
3068.0,0.017315866382071582
3067.0,0.01722767162414793
3066.0,0.017142645523809733
3065.0,0.01706184540580541
3064.0,0.016982318718482353
3063.0,0.01689880715502102
3062.0,0.016810469879267768
3061.0,0.016722420900124407
3060.0,0.016639271337204296
3059.0,0.016559356798577864
3058.0,0.01647733351118806
3057.0,0.01639058197478218
3056.0,0.016301019554427365
3055.0,0.01621177499783654
3054.0,0.01612380780580074
3053.0,0.016036063746091157
3052.0,0.015947632366790462
3051.0,0.015858754249350192
3050.0,0.01576977142938054
3049.0,0.015679785512899235
3048.0,0.015587475966125242
3047.0,0.015493380789906554
3046.0,0.015400052286856727
3045.0,0.015309709069348892
3044.0,0.01522272694537647
3043.0,0.015139197025345538
3042.0,0.015060138787239503
3041.0,0.014985755684986706
3040.0,0.014913230785943997
3039.0,0.014837970961608288
3038.0,0.014757439594727202
3037.0,0.014673567090763005
3036.0,0.014591819167904686
3035.0,0.014517498539449957
3034.0,0.014451133154012263
3033.0,0.01438681720804363
3032.0,0.01431658696838865
3031.0,0.01423734180254625
3030.0,0.014153131063229445
3029.0,0.014070109640468237
3028.0,0.013991695682040617
3027.0,0.013918725773088522
3026.0,0.013851336555459077
3025.0,0.013788029651078925
3024.0,0.013723670350385853
3023.0,0.013651130858304886
3022.0,0.013566420649480559
3021.0,0.01347330382543207
3020.0,0.013382913746759
3019.0,0.01330678638877979
3018.0,0.013247523113730094
3017.0,0.013195475374773075
3016.0,0.013137602362186668
3015.0,0.013069171565971375
3014.0,0.012996128202604259
3013.0,0.012927182207529206
3012.0,0.012866731716691306
3011.0,0.012814378570165917
3010.0,0.012766002970394992
3009.0,0.01271484369603956
3008.0,0.012656253382255046
3007.0,0.012593127560930664
3006.0,0.0125330547371965
3005.0,0.012478532197432349
3004.0,0.012423813680184097
3003.0,0.012363520443718407
3002.0,0.012299649781550437
3001.0,0.012238333009768248
3000.0,0.012183570885737627
2999.0,0.01213746244406928
2998.0,0.012101236454498203
2997.0,0.012071773257917631
2996.0,0.012040646306536187
2995.0,0.012002026761837216
2994.0,0.011959331914795222
2993.0,0.01192012318727298
2992.0,0.011885970822609093
2991.0,0.011852236825348339
2990.0,0.011815793644339148
2989.0,0.011779400385563955
2988.0,0.01174855322684185
2987.0,0.011727015947588865
2986.0,0.011713651949157173
2985.0,0.011701681054507942
2984.0,0.011683890416318765
2983.0,0.011661102428291135
2982.0,0.0116426956748212
2981.0,0.011634817370523192
2980.0,0.011633153437754078
2979.0,0.01163140535846838
2978.0,0.011633321976697622
2977.0,0.011647804380167805
2976.0,0.01167562355622511
2975.0,0.011708596981221961
2974.0,0.011743675505853285
2973.0,0.011789057292472174
2972.0,0.011855026911454384
2971.0,0.01194310103883039
2970.0,0.012047503026004165
2969.0,0.01216181405858135
2968.0,0.012282147607600042
2967.0,0.012406986351480818
2966.0,0.01253610256912658
2965.0,0.012666955020090406
2964.0,0.01279090448204378
2963.0,0.012896445936731045
2962.0,0.012976987112068995
2961.0,0.013033987061161337
2960.0,0.013072073601985753
2959.0,0.013096046518418628
2958.0,0.013113704101428562
2957.0,0.013137785441510588
2956.0,0.013181581296030658
2955.0,0.013253861127130652
2954.0,0.01335813882806553
2953.0,0.01349150105434851
2952.0,0.013639397812465592
2951.0,0.013772280343028652
2950.0,0.01385238525485503
2949.0,0.013846849672519881
2948.0,0.013740751263155312
2947.0,0.013540588423834201
2946.0,0.013269319137990022
2945.0,0.012955383913425263
2944.0,0.012623631163308805
2943.0,0.01229282365922652
2942.0,0.011977914092138471
2941.0,0.011692431971245212
2940.0,0.01144764645811931
2939.0,0.011251578227599538
2938.0,0.011107318812679802
2937.0,0.011010790695832967
2936.0,0.01095144845678525
2935.0,0.010919166042994883
2934.0,0.010910801270914526
2933.0,0.010929549422508103
2932.0,0.010977012635549564
2931.0,0.011049115492879345
2930.0,0.011139276383097713
2929.0,0.011243407562507031
2928.0,0.01136021314302524
2927.0,0.011487895698251791
2926.0,0.011621542666370626
2925.0,0.011754708287834465
2924.0,0.011885078538065178
2923.0,0.01201910052566538
2922.0,0.012169075541094991
2921.0,0.012342140006371558
2920.0,0.012530992008782604
2919.0,0.012713959498493752
2918.0,0.012863528406813797
2917.0,0.01295742075849241
2916.0,0.01298789716345883
2915.0,0.012964238081026529
2914.0,0.01290356959689645
2913.0,0.012818331736211462
2912.0,0.012712353216588963
2911.0,0.012589217346224394
2910.0,0.012459549185516287
2909.0,0.012335786663177908
2908.0,0.012222072309534133
2907.0,0.012111597874178655
2906.0,0.011994786919649371
2905.0,0.01186702066658478
2904.0,0.011730622648414294
2903.0,0.011591309026059518
2902.0,0.011453431589387492
2901.0,0.011315926539384612
2900.0,0.011174332276172923
2899.0,0.011026757915281576
2898.0,0.0108780588921889
2897.0,0.01073629378619368
2896.0,0.010606256690414978
2895.0,0.010488731779545348
2894.0,0.010384488909004359
2893.0,0.010296467239126274
2892.0,0.01022798547027577
2891.0,0.010180597975741891
2890.0,0.010153019937225985
2889.0,0.010139911372250978
2888.0,0.010132769636346661
2887.0,0.010125309015113444
2886.0,0.010118925540115188
2885.0,0.010121345329509259
2884.0,0.010139360079644852
2883.0,0.010172802828654556
2882.0,0.010215437288687419
2881.0,0.010259611994111923
2880.0,0.01030026018246217
2879.0,0.010333648943588923
2878.0,0.010353263699162184
2877.0,0.010349465567187653
2876.0,0.01031712254475904
2875.0,0.01026418683057121
2874.0,0.010208928731866249
2873.0,0.010167107283217156
2872.0,0.01014310533136968
2871.0,0.010133653387501752
2870.0,0.010135105280280776
2869.0,0.01014255802328874
2868.0,0.0101449326588438
2867.0,0.010125467363317051
2866.0,0.01006614839239419
2865.0,0.009951034578968093
2864.0,0.009768687310658067
2863.0,0.009519175131776199
2862.0,0.009219161912741908
2861.0,0.008897989036496655
2860.0,0.008584789767189654
2859.0,0.008299190650699432
2858.0,0.00804948300255363
2857.0,0.00783520802061696
2856.0,0.007652056483713024
2855.0,0.007498320418234193
2854.0,0.007378521609163042
2853.0,0.007299860091976786
2852.0,0.007266679833504293
2851.0,0.007278591571716153
2850.0,0.007332032398382225
2849.0,0.007420974777102239
2848.0,0.007538712412426839
2847.0,0.007681547866226917
2846.0,0.00784933616020038
2845.0,0.008040219008104556
2844.0,0.008246607097927931
2843.0,0.008457169723100122
2842.0,0.008660505604378864
2841.0,0.008844691886492406
2840.0,0.00899777240690647
2839.0,0.00911120957658124
2838.0,0.009180580686990994
2837.0,0.009198840327775173
2836.0,0.009153036779051093
2835.0,0.009034271959524874
2834.0,0.008851223161129743
2833.0,0.008630175224523418
2832.0,0.008399751685827227
2831.0,0.008177723032206327
2830.0,0.007970691479776089
2829.0,0.007781047112442683
2828.0,0.007611434933582909
2827.0,0.007463782015230805
2826.0,0.007337010507294175
2825.0,0.007226827082035325
2824.0,0.0071290314721203125
2823.0,0.007042610891824565
2822.0,0.00696805900202186
2821.0,0.006902556207221117
2820.0,0.006839901217264812
2819.0,0.00677646830456189
2818.0,0.0067140675646640705
2817.0,0.006654917248568397
2816.0,0.006597690700160386
2815.0,0.00654136861968959
2814.0,0.00648914372978333
2813.0,0.006443877421361497
2812.0,0.006402324612140525
2811.0,0.006358695762532674
2810.0,0.006312180483766721
2809.0,0.0062665534320507435
2808.0,0.0062240622512726934
2807.0,0.00618445892790449
2806.0,0.006148873387704291
2805.0,0.006118704901277318
2804.0,0.006090059809607524
2803.0,0.006054740355559362
2802.0,0.0060086881217775445
2801.0,0.005956879512536637
2800.0,0.005908828413120157
2799.0,0.005870806304341693
2798.0,0.005842983670349054
2797.0,0.0058207093565717
2796.0,0.0057976385600135545
2795.0,0.005769977410096032
2794.0,0.0057384981651196635
2793.0,0.005706061243565776
2792.0,0.005674382841863967
2791.0,0.005644427211353072
2790.0,0.00561794615624716
2789.0,0.005595667935004966
2788.0,0.005575018958015337
2787.0,0.005552465974086007
2786.0,0.005526948232290552
2785.0,0.005498958224958942
2784.0,0.0054681677408555986
2783.0,0.0054352138913203235
2782.0,0.005404051261524183
2781.0,0.005378053617037733
2780.0,0.005354439705492525
2779.0,0.005327033942022504
2778.0,0.0052946568558676944
2777.0,0.005263137719325157
2776.0,0.0052383402803311534
2775.0,0.005219999163560324
2774.0,0.005203244654919601
2773.0,0.0051835331288646825
2772.0,0.00515957132395565
2771.0,0.00513360959042271
2770.0,0.005109737541918214
2769.0,0.005090676294483761
2768.0,0.005076046647481802
2767.0,0.005064523003025072
2766.0,0.0050560652049941295
2765.0,0.005050022771796623
2764.0,0.005042813564033871
2763.0,0.005030459768994204
2762.0,0.005013102936816923
2761.0,0.004994688614356554
2760.0,0.004978659421827836
2759.0,0.0049655139768952725
2758.0,0.00495315526576712
2757.0,0.0049376027085879315
2756.0,0.0049150106761128715
2755.0,0.004885934230307583
2754.0,0.0048564703304256555
2753.0,0.004832684536776035
2752.0,0.004815081646756545
2751.0,0.004800343947894711
2750.0,0.004786138065530021
2749.0,0.004771680528799908
2748.0,0.004756049364909642
2747.0,0.0047396503891845845
2746.0,0.004725511209639535
2745.0,0.004715728611013451
2744.0,0.004708331690562637
2743.0,0.004701001902099594
2742.0,0.004695357026027281
2741.0,0.004693106510510418
2740.0,0.004690241363952184
2739.0,0.004680765776304452
2738.0,0.004665356642875263
2737.0,0.004651040148918559
2736.0,0.004642377682339938
2735.0,0.00463736119303665
2734.0,0.004632184136897549
2733.0,0.004625274113698379
2732.0,0.004616507463908426
2731.0,0.00460689264602
2730.0,0.004599622200200047
2729.0,0.004597277469772438
2728.0,0.0045974037447684465
2727.0,0.004594688283105758
2726.0,0.004587977384519308
2725.0,0.004581013013564823
2724.0,0.004575666275250439
2723.0,0.004568819513887886
2722.0,0.004557791096780918
2721.0,0.004544624951005408
2720.0,0.004532431692341228
2719.0,0.004520101368101497
2718.0,0.004503051569057994
2717.0,0.004478355745515746
2716.0,0.004447888581819629
2715.0,0.004417378077462438
2714.0,0.0043922189478201095
2713.0,0.0043729793374210285
2712.0,0.0043553509697046066
2711.0,0.004335944328273756
2710.0,0.004317040130301648
2709.0,0.00430323036832525
2708.0,0.004294977230589181
2707.0,0.004288802685126532
2706.0,0.004282708628927698
2705.0,0.004277548406821725
2704.0,0.004273144068235015
2703.0,0.004266989385640444
2702.0,0.00425725988569012
2701.0,0.004243978492687538
2700.0,0.004227080386322642
2699.0,0.004207021575740092
2698.0,0.0041877263669834654
2697.0,0.004175046669154744
2696.0,0.0041706096829156655
2695.0,0.0041698099195164855
2694.0,0.004167089800135526
2693.0,0.00416068743354846
2692.0,0.004151547948906237
2691.0,0.004140300278303863
2690.0,0.004126842531612954
2689.0,0.004111080259476923
2688.0,0.004093202857153439
2687.0,0.00407464811861633
2686.0,0.004058921651671427
2685.0,0.004049249060079847
2684.0,0.0040450938852670615
2683.0,0.00404296117542509
2682.0,0.004040808746083748
2681.0,0.004039492014642524
2680.0,0.004039502557084203
2679.0,0.004038838668664992
2678.0,0.004034918621760045
2677.0,0.0040270733003505785
2676.0,0.004016618084026521
2675.0,0.004005931138963509
2674.0,0.003997595722759645
2673.0,0.003992449100008032
2672.0,0.003988041186853768
2671.0,0.003980713256942309
2670.0,0.003970023705574871
2669.0,0.003960230911696773
2668.0,0.003956794746996666
2667.0,0.003961858341574025
2666.0,0.0039727805473538805
2665.0,0.003984572734544242
2664.0,0.003994469088405076
2663.0,0.004004364180725437
2662.0,0.0040176166311823224
2661.0,0.004033202990517804
2660.0,0.004045673898139789
2659.0,0.004052106879023674
2658.0,0.004056079188003182
2657.0,0.004062240761987728
2656.0,0.004069564048732675
2655.0,0.004073800867164923
2654.0,0.0040744080890297634
2653.0,0.004075119842878029
2652.0,0.004078546372420597
2651.0,0.004084336345099472
2650.0,0.004091842398032343
2649.0,0.004100268848282202
2648.0,0.00410623889797399
2647.0,0.004105544800539598
2646.0,0.00409842647586511
2645.0,0.004090084147242939
2644.0,0.004084970738525089
2643.0,0.004083050778355143
2642.0,0.004082234884999191
2641.0,0.004081936105361196
2640.0,0.004083789419215222
2639.0,0.004090789014828533
2638.0,0.0041056293524049685
2637.0,0.0041274401947407405
2636.0,0.004149963568002435
2635.0,0.004165238456224037
2634.0,0.004169949819996443
2633.0,0.004167097248470349
2632.0,0.004162716237154345
2631.0,0.004162255025431813
2630.0,0.004168044577690349
2629.0,0.004177049789403434
2628.0,0.004181935938804447
2627.0,0.004177887150508061
2626.0,0.00416837756010083
2625.0,0.004162061017620539
2624.0,0.00416430426569259
2623.0,0.004173438513454636
2622.0,0.004183810052070388
2621.0,0.0041895243859437475
2620.0,0.004187124119195796
2619.0,0.0041782661691566495
2618.0,0.004169494409659819
2617.0,0.004166654153139741
2616.0,0.004169689399737083
2615.0,0.004174811420466903
2614.0,0.004180130078335522
2613.0,0.004186099355919041
2612.0,0.0041916376246216745
2611.0,0.004192875155015232
2610.0,0.00418577961147299
2609.0,0.004169056965406038
2608.0,0.004146464134940996
2607.0,0.0041271290590651185
2606.0,0.004120150553787593
2605.0,0.004126160620081593
2604.0,0.004137017577715351
2603.0,0.004145955572047504
2602.0,0.004153565420928764
2601.0,0.004160977936439395
2600.0,0.004163718827281779
2599.0,0.004158467217183466
2598.0,0.004151203091147426
2597.0,0.004150971042016431
2596.0,0.004157794584601645
2595.0,0.004163594931589012
2594.0,0.0041636208283652625
2593.0,0.004160295071701852
2592.0,0.004157325072933947
2591.0,0.004156547842584552
2590.0,0.004159892322742026
2589.0,0.004168322379391833
2588.0,0.004178457628926936
2587.0,0.004185172540199832
2586.0,0.004187223901740156
2585.0,0.00418630730342382
2584.0,0.004182121820897103
2583.0,0.0041731547012428824
2582.0,0.004160916235686388
2581.0,0.0041486438860561204
2580.0,0.0041372401382162236
2579.0,0.0041270072108884285
2578.0,0.004121265777911378
2577.0,0.004123067462137
2576.0,0.004129989737299169
2575.0,0.004136832667536293
2574.0,0.004141268224679013
2573.0,0.004142432538120595
2572.0,0.0041377506960070705
2571.0,0.004127318807151022
2570.0,0.004118029171666493
2569.0,0.004116427453399556
2568.0,0.004120297377573583
2567.0,0.00412413911026763
2566.0,0.004129538972195522
2565.0,0.004141076832326517
2564.0,0.004154369255033161
2563.0,0.004158931385009878
2562.0,0.004153611886410985
2561.0,0.004149919394549266
2560.0,0.004157757593924301
2559.0,0.00417494257977531
2558.0,0.004192873405853221
2557.0,0.004205699417137768
2556.0,0.0042117801949955735
2555.0,0.00421238823805878
2554.0,0.004211874380284303
2553.0,0.0042149214872005255
2552.0,0.004221609493562596
2551.0,0.004228240815471451
2550.0,0.004233170630051739
2549.0,0.0042383120996538175
2548.0,0.004245415262288716
2547.0,0.004254745974017425
2546.0,0.0042663661346072045
2545.0,0.004278280276794322
2544.0,0.0042847828225940415
2543.0,0.004282145666188703
2542.0,0.0042753919761183016
2541.0,0.004274332989253573
2540.0,0.00428328906052094
2539.0,0.0042993225837116514
2538.0,0.004318786778016832
2537.0,0.00433947269754844
2536.0,0.004357439646200963
2535.0,0.004368614935792732
2534.0,0.00437424456344566
2533.0,0.0043794601784940485
2532.0,0.004386308641566918
2531.0,0.004393566532656292
2530.0,0.004403233809841113
2529.0,0.004420595777610041
2528.0,0.004445809238570019
2527.0,0.004470222508134376
2526.0,0.004483795686823388
2525.0,0.004483954574121686
2524.0,0.004476129356559493
2523.0,0.004467453637853243
2522.0,0.00446034216083018
2521.0,0.004451481234057704
2520.0,0.0044384297054156875
2519.0,0.004427173666017279
2518.0,0.004428109908565897
2517.0,0.0044414633922678776
2516.0,0.004452224620869421
2515.0,0.0044455731470869776
2514.0,0.0044236958513254356
2513.0,0.004401507383881036
2512.0,0.004389201730211019
2511.0,0.004385459396624067
2510.0,0.0043844801384673145
2509.0,0.00438151180580476
2508.0,0.004372485822627106
2507.0,0.004356057918809472
2506.0,0.004337092639692389
2505.0,0.004322740804317583
2504.0,0.004314627786737838
2503.0,0.004309194260850495
2502.0,0.004304523239054329
2501.0,0.0043013769205430055
2500.0,0.004298318444403364
2499.0,0.004291639092684177
2498.0,0.004280525493488754
2497.0,0.004267535843302259
2496.0,0.004254040959791652
2495.0,0.004239250557847865
2494.0,0.004223659447053475
2493.0,0.004209404297067469
2492.0,0.004196970029006182
2491.0,0.004184550725491639
2490.0,0.0041704589005718854
2489.0,0.004154202284104857
2488.0,0.004136571095171007
2487.0,0.0041200199913806156
2486.0,0.0041059180521662115
2485.0,0.004090023836005546
2484.0,0.0040659476402510565
2483.0,0.0040362412378169696
2482.0,0.004013753664670127
2481.0,0.004006303554030889
2480.0,0.0040051702736060395
2479.0,0.003995642130905628
2478.0,0.003974906410656255
2477.0,0.003952294181609535
2476.0,0.0039352747803067375
2475.0,0.003923111715278464
2474.0,0.003912315348472825
2473.0,0.003900716571663177
2472.0,0.003886980233401157
2471.0,0.003872305779983057
2470.0,0.003861549014029798
2469.0,0.0038573072750251215
2468.0,0.0038547040666961907
2467.0,0.0038473222944403074
2466.0,0.00383593982283029
2465.0,0.003825936972072214
2464.0,0.0038188552118159852
2463.0,0.003812522341372782
2462.0,0.003806737683398542
2461.0,0.0038022843293727326
2460.0,0.003796720938167619
2459.0,0.0037878850684950095
2458.0,0.003779681532511738
2457.0,0.003778083495279992
2456.0,0.003783240653037036
2455.0,0.0037912670042806436
2454.0,0.003800945372598471
2453.0,0.003811867280062866
2452.0,0.003818643648145571
2451.0,0.0038147776054402996
2450.0,0.003801146264453448
2449.0,0.00378405431081258
2448.0,0.0037665167938714167
2447.0,0.0037480915629521097
2446.0,0.0037312854437457233
2445.0,0.0037205389260411958
2444.0,0.003715711484800324
2443.0,0.0037131118416276277
2442.0,0.003711698911464204
2441.0,0.003711952777018036
2440.0,0.0037106465817160934
2439.0,0.0037041098583498336
2438.0,0.003695559394381504
2437.0,0.003692085640712598
2436.0,0.003694867669599194
2435.0,0.0036985132610232816
2434.0,0.0036989252464917606
2433.0,0.003695657080552069
2432.0,0.003688240009687002
2431.0,0.003677357038099679
2430.0,0.0036688003714227292
2429.0,0.0036690065044256088
2428.0,0.003676255527366808
2427.0,0.003682023492638702
2426.0,0.0036809878582986745
2425.0,0.0036748800558826216
2424.0,0.0036677284456635584
2423.0,0.0036626083986389564
2422.0,0.003661761020654508
2421.0,0.0036643192696308117
2420.0,0.0036648747829823346
2419.0,0.0036591832902604987
2418.0,0.0036497931354097807
2417.0,0.0036416967195969183
2416.0,0.0036349726900817055
2415.0,0.0036264293230544153
2414.0,0.003615512998462039
2413.0,0.0036034805377040055
2412.0,0.0035903273799765866
2411.0,0.0035783973031154282
2410.0,0.0035749025386914426
2409.0,0.0035832021634644015
2408.0,0.0035944526031824343
2407.0,0.0035961419944487384
2406.0,0.003586865551426918
2405.0,0.003574749989397606
2404.0,0.0035637744306074018
2403.0,0.0035509171017712206
2402.0,0.0035360174174757474
2401.0,0.0035253012655319226
2400.0,0.003523286829165935
2399.0,0.00352767199943594
2398.0,0.003533869831848283
2397.0,0.0035395384144767264
2396.0,0.003543639040936023
2395.0,0.003545484366151417
2394.0,0.0035456039289454185
2393.0,0.003544596895171755
2392.0,0.0035419611755233968
2391.0,0.0035387766470699267
2390.0,0.0035392610202294146
2389.0,0.0035459390380824145
2388.0,0.00355559018889988
2387.0,0.0035637282006258974
2386.0,0.003569956261870899
2385.0,0.0035745091150934513
2384.0,0.0035732694885941265
2383.0,0.003561873356486895
2382.0,0.0035414236531814925
2381.0,0.0035139038249820224
2380.0,0.0034749024724121972
2379.0,0.003419375640407214
2378.0,0.0033541763068989545
2377.0,0.003297353165235554
2376.0,0.0032650751046348105
2375.0,0.003263747754946769
2374.0,0.0032905396144795773
2373.0,0.003332851863508168
2372.0,0.0033703286763158303
2371.0,0.0033886216508476194
2370.0,0.0033911829214081798
2369.0,0.0033905602415432944
2368.0,0.003392977267019282
2367.0,0.0033982085408053933
2366.0,0.003405135532639263
2365.0,0.003408485143751618
2364.0,0.003400955770237441
2363.0,0.003388690858209359
2362.0,0.003389353825267062
2361.0,0.003405424673234528
2360.0,0.0034193855189042434
2359.0,0.0034197376858375243
2358.0,0.00341414587444694
2357.0,0.0034104546106476247
2356.0,0.003403553901986367
2355.0,0.003391129527524677
2354.0,0.0033771074964855682
2353.0,0.0033700279808591923
2352.0,0.0033726428446916924
2351.0,0.0033844550780601124
2350.0,0.0034058995891695825
2349.0,0.003433882047749982
2348.0,0.0034621887574227553
2347.0,0.0034814621541288965
2346.0,0.003490624226028039
2345.0,0.0034987753996857775
2344.0,0.0035123970738489456
2343.0,0.00353135048019481
2342.0,0.00354661110981953
2341.0,0.0035550837919836684
2340.0,0.003560121378075266
2339.0,0.0035666131172623263
2338.0,0.00357200174208918
2337.0,0.0035687134602146358
2336.0,0.0035573794403903113
2335.0,0.0035450727332969056
2334.0,0.0035367533972215023
2333.0,0.0035308109921822813
2332.0,0.00352944833041504
2331.0,0.003535087105800786
2330.0,0.0035555634909933045
2329.0,0.003594623032063947
2328.0,0.00366302873602914
2327.0,0.00376249578827529
2326.0,0.00388283100754213
2325.0,0.0039931094225213295
2324.0,0.004058074511085527
2323.0,0.00406328480034622
2322.0,0.0040293956315675394
2321.0,0.003992099009251523
2320.0,0.003967358051751532
2319.0,0.003945555203160093
2318.0,0.003918059792219755
2317.0,0.0038878691885705415
2316.0,0.0038657555351922415
2315.0,0.003854951478966609
2314.0,0.0038564320927601753
2313.0,0.003864343189004654
2312.0,0.0038739057235436785
2311.0,0.0038798606536410603
2310.0,0.003886413375455375
2309.0,0.003896299220363342
2308.0,0.00390782596664621
2307.0,0.003914711076377257
2306.0,0.0039183075789598456
2305.0,0.003922338592115707
2304.0,0.003927014379690409
2303.0,0.003928679227508115
2302.0,0.003930548439334503
2301.0,0.003937656736943216
2300.0,0.003949488861973831
2299.0,0.003958518478892818
2298.0,0.003963123754933324
2297.0,0.003965384024319856
2296.0,0.003966823335545159
2295.0,0.003966881930650677
2294.0,0.003971467691916238
2293.0,0.003986812093371686
2292.0,0.004011339918712092
2291.0,0.004037160730810245
2290.0,0.004061951739416973
2289.0,0.004088719892237822
2288.0,0.004116678016552917
2287.0,0.004140744860094922
2286.0,0.00415849964364377
2285.0,0.00416931338469445
2284.0,0.004167338343210919
2283.0,0.004147296510646268
2282.0,0.004115130309218912
2281.0,0.0040844556239995845
2280.0,0.004061836998366165
2279.0,0.004046201887931407
2278.0,0.004038528984824769
2277.0,0.00404073459470485
2276.0,0.0040464174738673985
2275.0,0.004044762887247204
2274.0,0.00403393006322578
2273.0,0.004020497264792917
2272.0,0.0040097954351070095
2271.0,0.004005886951841333
2270.0,0.004015559566910985
2269.0,0.004037296091249932
2268.0,0.004051534282074532
2267.0,0.004038833458588338
2266.0,0.004005737577197174
2265.0,0.003977136097145638
2264.0,0.00396503789462633
2263.0,0.003962033729378455
2262.0,0.003963535715618669
2261.0,0.003976873322411074
2260.0,0.0040047731665019595
2259.0,0.004036204068855206
2258.0,0.00405803972001944
2257.0,0.004064303233366629
2256.0,0.004052925791887338
2255.0,0.004025776506168877
2254.0,0.003993536541825165
2253.0,0.003969336740428923
2252.0,0.0039576853486002215
2251.0,0.003957099483147993
2250.0,0.003968766640404027
2249.0,0.003989639015376816
2248.0,0.004004933192217302
2247.0,0.004001054012843117
2246.0,0.0039835688554644725
2245.0,0.003966969267749802
2244.0,0.0039540354532518526
2243.0,0.003941102932124296
2242.0,0.003935957082000257
2241.0,0.003949431654132997
2240.0,0.003973837347890109
2239.0,0.003990823897774252
2238.0,0.0039972506676205725
2237.0,0.004004019796769641
2236.0,0.004013061793121211
2235.0,0.004016926724047668
2234.0,0.004018084126825962
2233.0,0.0040266352620358875
2232.0,0.004039910239855791
2231.0,0.004045660304418848
2230.0,0.00404371713905267
2229.0,0.004042913924197705
2228.0,0.004038940975289964
2227.0,0.004018376426098392
2226.0,0.003984658212542089
2225.0,0.003957852205647957
2224.0,0.003947978825426893
2223.0,0.003949604489766026
2222.0,0.003961843218184558
2221.0,0.003990354571190609
2220.0,0.004028019392843103
2219.0,0.004054750141130042
2218.0,0.004058495069079224
2217.0,0.004040049470002891
2216.0,0.004003039007685471
2215.0,0.0039594137039463805
2214.0,0.003937419861657479
2213.0,0.003955493577079037
2212.0,0.0039917318530696185
2211.0,0.004006829861569337
2210.0,0.00399574936720366
2209.0,0.003988681800381493
2208.0,0.004001957624665757
2207.0,0.004019133688517918
2206.0,0.004023783050988807
2205.0,0.004020128287190509
2204.0,0.004014877259228224
2203.0,0.00400556787413262
2202.0,0.003994662013533416
2201.0,0.003992090806509804
2200.0,0.003997705102678051
2199.0,0.004002900252390889
2198.0,0.004011859572837141
2197.0,0.00403787659251892
2196.0,0.004075932594101129
2195.0,0.00410327832137918
2194.0,0.004110664823377848
2193.0,0.004110369639329065
2192.0,0.004111965495550201
2191.0,0.004114425337752663
2190.0,0.0041241560776334755
2189.0,0.004153532982851033
2188.0,0.004195686068834205
2187.0,0.004224115296317751
2186.0,0.0042218233382309974
2185.0,0.004190562060603851
2184.0,0.004132901275407948
2183.0,0.004054153574782413
2182.0,0.0039856532767444
2181.0,0.003973159189374728
2180.0,0.004026921944597069
2179.0,0.004104556618464552
2178.0,0.004150615726113459
2177.0,0.004138997156088952
2176.0,0.004082442634299425
2175.0,0.004022369406543743
2174.0,0.004006770899068398
2173.0,0.004055211040488509
2172.0,0.00414254401593049
2171.0,0.004230938266883199
2170.0,0.004308216809601651
2169.0,0.004377789902346032
2168.0,0.00442858979812795
2167.0,0.004444270602091051
2166.0,0.00443758520056428
2165.0,0.004448017048884533
2164.0,0.004500824955076367
2163.0,0.004582924191808628
2162.0,0.004642649432083533
2161.0,0.004592860943437274
2160.0,0.004354353885089575
2159.0,0.0039576041447478335
2158.0,0.0035740846449643726
2157.0,0.0033681065682472314
2156.0,0.00334395456792833
2155.0,0.003397510629742985
2154.0,0.0034591659596959878
2153.0,0.003521331654418781
2152.0,0.003576347810168959
2151.0,0.003601721068211897
2150.0,0.0036018336039011613
2149.0,0.003609427634639623
2148.0,0.0036350988624766862
2147.0,0.00365388135795147
2146.0,0.0036467577642211126
2145.0,0.0036224935665093473
2144.0,0.003594684066355464
2143.0,0.003568457186891782
2142.0,0.003553292903976849
2141.0,0.003559614277261755
2140.0,0.003578641242531494
2139.0,0.003588542067855797
2138.0,0.0035805194230610154
2137.0,0.003557234990571351
2136.0,0.00351218845041775
2135.0,0.0034377829249753336
2134.0,0.003352372224397276
2133.0,0.003291663932778255
2132.0,0.0032720987621612223
2131.0,0.0032834830912620294
2130.0,0.0033145087907539296
2129.0,0.003361251012808767
2128.0,0.0034140431163265338
2127.0,0.003458145313487347
2126.0,0.0034893798229301293
2125.0,0.0035136148960923028
2124.0,0.0035323455305736463
2123.0,0.0035434142182224353
2122.0,0.0035528191913647964
2121.0,0.0035701639101101295
2120.0,0.003594890150281081
2119.0,0.003621726711484738
2118.0,0.0036542830708014406
2117.0,0.0036963367914635715
2116.0,0.003734595576010185
2115.0,0.0037495046133591316
2114.0,0.0037417411988889945
2113.0,0.003730386724291699
2112.0,0.0037264786622561953
2111.0,0.003725628370468456
2110.0,0.0037256064575979346
2109.0,0.0037319559064199212
2108.0,0.003744984073729381
2107.0,0.0037574473834682395
2106.0,0.003765436499391219
2105.0,0.0037675198284059953
2104.0,0.0037567382921726193
2103.0,0.003730184075574795
2102.0,0.003702562785855623
2101.0,0.0036921376306150167
2100.0,0.003695346210957942
2099.0,0.0036925581034450822
2098.0,0.003675251828170996
2097.0,0.003650697798741355
2096.0,0.003625617399529359
2095.0,0.00360487705624503
2094.0,0.0036000254690166577
2093.0,0.0036166708335280463
2092.0,0.0036382170341591764
2091.0,0.0036431123376529685
2090.0,0.0036348428377364827
2089.0,0.0036356803077155267
2088.0,0.0036550267757511066
2087.0,0.0036832932061602783
2086.0,0.003712069498901993
2085.0,0.003739614132207366
2084.0,0.0037609415469834744
2083.0,0.003772775151794627
2082.0,0.003783127068584094
2081.0,0.0037963254280894898
2080.0,0.003796486732788343
2079.0,0.0037699548206474604
2078.0,0.003735530714497365
2077.0,0.0037245450059859046
2076.0,0.003736610410967533
2075.0,0.0037446303462569707
2074.0,0.0037386155738151133
2073.0,0.003731897133090342
2072.0,0.0037283218542160075
2071.0,0.003718696025843144
2070.0,0.0037096775588880506
2069.0,0.0037185228442153566
2068.0,0.003734779155623446
2067.0,0.003725019802057397
2066.0,0.0036843775426589898
2065.0,0.0036499635416221265
2064.0,0.0036517549962002765
2063.0,0.0036791148792977026
2062.0,0.003707445394116146
2061.0,0.0037271176388886315
2060.0,0.0037376673091508274
2059.0,0.0037405976608288274
2058.0,0.0037454924078787165
2057.0,0.0037595736914982376
2056.0,0.0037700579618619627
2055.0,0.003765441792213428
2054.0,0.003773780438597933
2053.0,0.003840260019713395
2052.0,0.00395797968784247
2051.0,0.0040565134450585025
2050.0,0.004072489263678819
2049.0,0.004009244302134449
2048.0,0.003916551635589188
2047.0,0.003834901479701616
2046.0,0.0037789491378888403
2045.0,0.003749378840232047
2044.0,0.0037371596474268954
2043.0,0.0037354141274388427
2042.0,0.0037570404826514714
2041.0,0.0038174891953044665
2040.0,0.003896993567730867
2039.0,0.003950475611574026
2038.0,0.0039573073605497205
2037.0,0.00393207090108062
2036.0,0.003891017856157652
2035.0,0.00384281072326472
2034.0,0.0038100722980508065
2033.0,0.003814789045342411
2032.0,0.003836019485787979
2031.0,0.003828009593001316
2030.0,0.0037839481344774844
2029.0,0.0037390998922634654
2028.0,0.0037105656253559245
2027.0,0.003680920237184442
2026.0,0.0036466476758133973
2025.0,0.0036314029294212597
2024.0,0.0036407408780690853
2023.0,0.0036503645306940873
2022.0,0.0036486089085768004
2021.0,0.003647345890546852
2020.0,0.0036445134627213914
2019.0,0.0036199786643186767
2018.0,0.003578392759544427
2017.0,0.0035545374231688064
2016.0,0.003562386655335097
2015.0,0.003577201605812028
2014.0,0.003578966604077776
2013.0,0.0035752933133064544
2012.0,0.003573973073216361
2011.0,0.0035689842935416488
2010.0,0.003561276969302496
2009.0,0.003559314399957333
2008.0,0.0035528625047929825
2007.0,0.0035197434123384
2006.0,0.003464607828581927
2005.0,0.003419110614332679
2004.0,0.0033996058068587283
2003.0,0.003394520860986002
2002.0,0.0033912708374725362
2001.0,0.0033865479410173567
2000.0,0.003374951046245904
1999.0,0.0033558641867921886
1998.0,0.003348258614493718
1997.0,0.0033695684595734946
1996.0,0.003402606961891376
1995.0,0.003413321615878205
1994.0,0.003396508412250331
1993.0,0.0033760624171653565
1992.0,0.0033669978559111424
1991.0,0.0033679411741862255
1990.0,0.003383361530989687
1989.0,0.0034179840852090085
1988.0,0.003455773205432439
1987.0,0.00347754145810391
1986.0,0.003493262911359705
1985.0,0.0035240318611012692
1984.0,0.0035642345982938852
1983.0,0.003600641696026432
1982.0,0.0036514507208135535
1981.0,0.003733247399793133
1980.0,0.003796355636653071
1979.0,0.003756230769314365
1978.0,0.0036067060859139837
1977.0,0.0034455696512237944
1976.0,0.0033560544945125323
1975.0,0.003324720793412042
1974.0,0.0033031917887679954
1973.0,0.0032784667022779097
1972.0,0.003257246772819925
1971.0,0.00323727296444103
1970.0,0.0032189632198612868
1969.0,0.003209382373207731
1968.0,0.003203336237173819
1967.0,0.0031928262569680442
1966.0,0.00319422011889416
1965.0,0.0032251022047186198
1964.0,0.0032611821542848983
1963.0,0.0032589563878535513
1962.0,0.003212811139943457
1961.0,0.0031526581915676684
1960.0,0.0030919247092429914
1959.0,0.0030222351231327335
1958.0,0.0029575949918363
1957.0,0.002934116036387007
1956.0,0.002959815318160087
1955.0,0.0030035982584644366
1954.0,0.003037216353199116
1953.0,0.0030563887567839412
1952.0,0.003062633931555714
1951.0,0.0030564779692562123
1950.0,0.0030471313582262336
1949.0,0.0030405079368552197
1948.0,0.003020961474757451
1947.0,0.002971939997237456
1946.0,0.0029095740259988934
1945.0,0.00286732419099032
1944.0,0.002853522534507039
1943.0,0.0028535057442996207
1942.0,0.0028668969735453765
1941.0,0.0029035989050200557
1940.0,0.002946263298474594
1939.0,0.0029632026926675304
1938.0,0.0029524875370321537
1937.0,0.002939423537375067
1936.0,0.002935678110808925
1935.0,0.0029294495227811714
1934.0,0.002915011119321821
1933.0,0.0029011099371543934
1932.0,0.002889764473953152
1931.0,0.0028749045351216256
1930.0,0.0028606472031321526
1929.0,0.0028570803684623614
1928.0,0.0028588110947704083
1927.0,0.0028493954424601564
1926.0,0.0028252184177792027
1925.0,0.0027963444927736726
1924.0,0.002769957365596895
1923.0,0.002749871155533291
1922.0,0.0027447109080055276
1921.0,0.002754900583277492
1920.0,0.002763508578271424
1919.0,0.0027604763162077605
1918.0,0.002761054334233434
1917.0,0.002781354645634749
1916.0,0.002804997988822869
1915.0,0.0028054531839149287
1914.0,0.0027863659265415512
1913.0,0.002768081281403012
1912.0,0.002751651621900138
1911.0,0.002725392068103798
1910.0,0.002697318822460791
1909.0,0.0026892966755413705
1908.0,0.0027005940270978506
1907.0,0.0027101730562126254
1906.0,0.0027131629677029047
1905.0,0.0027225584549448447
1904.0,0.002737963329444781
1903.0,0.002741737134141606
1902.0,0.002727815426515399
1901.0,0.0027118109481185015
1900.0,0.002707231419004959
1899.0,0.0027116482335827986
1898.0,0.002719580989050049
1897.0,0.00272779852154581
1896.0,0.002729439910757859
1895.0,0.0027218264984368596
1894.0,0.002715996631007243
1893.0,0.002718839705076361
1892.0,0.0027156084519416907
1891.0,0.002691633350430531
1890.0,0.0026624056475407472
1889.0,0.0026596589204954395
1888.0,0.002682440075536758
1887.0,0.0026962588185318105
1886.0,0.0026849652601008654
1885.0,0.0026659739519024335
1884.0,0.002656695762621011
1883.0,0.0026557249948178287
1882.0,0.002657791345150237
1881.0,0.0026631375599085027
1880.0,0.0026663936271391878
1879.0,0.002659556793424921
1878.0,0.002649520362713538
1877.0,0.002649932669334209
1876.0,0.0026552424400737512
1875.0,0.0026461171879106973
1874.0,0.0026181711415128473
1873.0,0.0025844753228430463
1872.0,0.0025527625848535142
1871.0,0.002522167809836402
1870.0,0.0025000204988037808
1869.0,0.0025022412318893407
1868.0,0.0025318744539697567
1867.0,0.002569906114853441
1866.0,0.002597971176994522
1865.0,0.0026144844889851946
1864.0,0.0026204116998726464
1863.0,0.002613463711061626
1862.0,0.002600959109886634
1861.0,0.002596380605696404
1860.0,0.002598815914371755
1859.0,0.002595521644771305
1858.0,0.00258637574478217
1857.0,0.0025848421519213045
1856.0,0.002593946275903754
1855.0,0.0026010650199919847
1854.0,0.002600218378644553
1853.0,0.0025990441216928975
1852.0,0.002597564554753527
1851.0,0.0025821486943227883
1850.0,0.002549114694816422
1849.0,0.0025107812779867665
1848.0,0.0024751417763481894
1847.0,0.0024431908483433453
1846.0,0.002427906340726668
1845.0,0.0024501791603380634
1844.0,0.0025031755251827864
1843.0,0.0025489276153740524
1842.0,0.0025636522049479167
1841.0,0.0025569212417097427
1840.0,0.002544652470174873
1839.0,0.002530820826971392
1838.0,0.002519378121228315
1837.0,0.002519275092079447
1836.0,0.002529611007244511
1835.0,0.0025358274489082617
1834.0,0.0025297379385894655
1833.0,0.0025196016134252774
1832.0,0.0025155364179279462
1831.0,0.0025211692107577903
1830.0,0.002541021392258105
1829.0,0.0025722202775632116
1828.0,0.002584459077887652
1827.0,0.0025556596883858224
1826.0,0.0025156086496296564
1825.0,0.002512257377609385
1824.0,0.0025507271529897
1823.0,0.0025941307260597224
1822.0,0.002619539706137754
1821.0,0.0026346711310581226
1820.0,0.002642360785612294
1819.0,0.002632608711163706
1818.0,0.0026129800312515027
1817.0,0.0026117887358603586
1816.0,0.0026411579576567155
1815.0,0.0026800291143760668
1814.0,0.0027055412981389255
1813.0,0.0027199418558628624
1812.0,0.002737022886901462
1811.0,0.00276419748613624
1810.0,0.002801734610416815
1809.0,0.0028437550468838856
1808.0,0.0028809164361978078
1807.0,0.0029088273929672457
1806.0,0.002929390249861928
1805.0,0.0029391838692891985
1804.0,0.002926551623768271
1803.0,0.002892808235473534
1802.0,0.002872100881934288
1801.0,0.0029060752738675126
1800.0,0.002989793488768498
1799.0,0.003070056476659391
1798.0,0.003103991975193355
1797.0,0.0030956339263666717
1796.0,0.0030745369239996733
1795.0,0.0030630068762790737
1794.0,0.003071212695998718
1793.0,0.0031003729134585108
1792.0,0.003137787913721187
1791.0,0.0031708752321187557
1790.0,0.0031993289953636526
1789.0,0.0032202713406544454
1788.0,0.0032191796161075334
1787.0,0.0031834747842105697
1786.0,0.003125820569780777
1785.0,0.0030799255113936434
1784.0,0.0030611928098532217
1783.0,0.0030457922623424276
1782.0,0.0030094223771534342
1781.0,0.0029620442548706437
1780.0,0.0029262673942553083
1779.0,0.0029061820931245933
1778.0,0.0028888337664508567
1777.0,0.002965783410496173
1776.0,0.002963494623280656
1775.0,0.00296193625955186
1774.0,0.002958588247169705
1773.0,0.002951906777371755
1772.0,0.0029282301303963035
1771.0,0.0028821020272407957
1770.0,0.0028345392660840698
1769.0,0.0028044393619425373
1768.0,0.002785866388954475
1767.0,0.002763844623305775
1766.0,0.002662195919619567
1765.0,0.002678462611947771
1764.0,0.002660927648533697
1763.0,0.0026312055137967935
1762.0,0.0026213569580132803
1761.0,0.0026392634701340252
1760.0,0.0026498047530651232
1759.0,0.0026218150412025878
1758.0,0.002576929140162767
1757.0,0.0025650672154058675
1756.0,0.0025963891939091246
1755.0,0.0026191058950892233
1754.0,0.00258739917477819
1753.0,0.0025154814386499323
1752.0,0.0024489184532621574
1751.0,0.002416389447678158
1750.0,0.0024235351490658197
1749.0,0.0024638191401632208
1748.0,0.002515144108520046
1747.0,0.0025487830389063987
1746.0,0.002556321592223267
1745.0,0.002554543586002036
1744.0,0.0025614945583073926
1743.0,0.002586782545453288
1742.0,0.0026431259957738454
1741.0,0.0027412192545686787
1740.0,0.0028623441258650976
1739.0,0.0029516091048176264
1738.0,0.0029685040885037988
1737.0,0.0029285265384785208
1736.0,0.002886273449217425
1735.0,0.0028969993632119127
1734.0,0.002972750653071691
1733.0,0.0030752477426536154
1732.0,0.0031411421848413857
1731.0,0.0031525629510334103
1730.0,0.0031568037586400736
1729.0,0.003201154178639897
1728.0,0.0032819309634235785
1727.0,0.0033540758948454098
1726.0,0.003398915220494402
1725.0,0.003438179166259353
1724.0,0.0034899540870695603
1723.0,0.0035451334636943032
1722.0,0.0035880498364543345
1721.0,0.0036182821342858216
1720.0,0.003647548578715151
1719.0,0.0036891265894797385
1718.0,0.003753220913057109
1717.0,0.0038480427317894956
1716.0,0.003959706114148004
1715.0,0.004055695739395322
1714.0,0.004134324837892699
1713.0,0.0042144597019142015
1712.0,0.004299229182500657
1711.0,0.004379047640652041
1710.0,0.0044569274932764556
1709.0,0.0045510469473962105
1708.0,0.004668974734918423
1707.0,0.004802239609216843
1706.0,0.004943271509955081
1705.0,0.00508072166923435
1704.0,0.0051828944559178395
1703.0,0.005240294790205647
1702.0,0.005327562426770831
1701.0,0.005566616104306869
1700.0,0.0059196301740139816
1699.0,0.006164308329814406
1698.0,0.006233490260110339
1697.0,0.006278440893073252
1696.0,0.006443587968089065
1695.0,0.006704090089205005
1694.0,0.006929586567528859
1693.0,0.007073088414326268
1692.0,0.007185914334770916
1691.0,0.00731152330408905
1690.0,0.007458528450344974
1689.0,0.007616477880041744
1688.0,0.007767850561756608
1687.0,0.007909226369720803
1686.0,0.008086602703823035
1685.0,0.008363889597533676
1684.0,0.008692585467809075
1683.0,0.008943209667902697
1682.0,0.009080139767675115
1681.0,0.009178505032556997
1680.0,0.009317516535921815
1679.0,0.009498436006043763
1678.0,0.009697291423343512
1677.0,0.009918935123588267
1676.0,0.010180291836315879
1675.0,0.010444498227924225
1674.0,0.010655433582486518
1673.0,0.010814119029271534
1672.0,0.010962297052906708
1671.0,0.011130990926721145
1670.0,0.011321058461101314
1669.0,0.011523257800348217
1668.0,0.01171177570394814
1667.0,0.011859215654534882
1666.0,0.011986840101738831
1665.0,0.012142830788539572
1664.0,0.012343157319556935
1663.0,0.012545194499607695
1662.0,0.012704689850133193
1661.0,0.012834982607321101
1660.0,0.012960620056237038
1659.0,0.013082657018404656
1658.0,0.013195910597447999
1657.0,0.013300393291226674
1656.0,0.013403140741667648
1655.0,0.013534830410376078
1654.0,0.013719112976409414
1653.0,0.01393170475843857
1652.0,0.01412614795282573
1651.0,0.014197581530264151
1650.0,0.014188976898385448
1649.0,0.014204162450764318
1648.0,0.014249214095924943
1647.0,0.014279078095535216
1646.0,0.014285940241067037
1645.0,0.014304042903238222
1644.0,0.014318741803871413
1643.0,0.014316775033631601
1642.0,0.014303501601556998
1641.0,0.014298542003480588
1640.0,0.01431280161181253
1639.0,0.014336842463728877
1638.0,0.014365096330778005
1637.0,0.014397619336962273
1636.0,0.01440499873824768
1635.0,0.014362011528356587
1634.0,0.014279565314458065
1633.0,0.014169534180814665
1632.0,0.014059490528972549
1631.0,0.013963136843752144
1630.0,0.013877516913214845
1629.0,0.013794458346404624
1628.0,0.013700753706024332
1627.0,0.013588013478779136
1626.0,0.01346478980996755
1625.0,0.013343943951289891
1624.0,0.01321200030974616
1623.0,0.01304219830529644
1622.0,0.01285124014156456
1621.0,0.012678690206527997
1620.0,0.012534796680407604
1619.0,0.012408584466884571
1618.0,0.012280318234106477
1617.0,0.012128736898942753
1616.0,0.011950443112559715
1615.0,0.011754462590591102
1614.0,0.011549606751772495
1613.0,0.011352656661585279
1612.0,0.01116898923811437
1611.0,0.01098947578428681
1610.0,0.010809742699310712
1609.0,0.010636024302170326
1608.0,0.010471005631709891
1607.0,0.010312564388715422
1606.0,0.010165411655410581
1605.0,0.010033202967004138
1604.0,0.009904635392604954
1603.0,0.009769109123792455
1602.0,0.009635971160945528
1601.0,0.009518116646702057
1600.0,0.009410530067088413
1599.0,0.009302824536596739
1598.0,0.009198311261271679
1597.0,0.00910355807392474
1596.0,0.009013386791618026
1595.0,0.008922350985971952
1594.0,0.00883761341695425
1593.0,0.008765098841599017
1592.0,0.008696842238540727
1591.0,0.008626936937921662
1590.0,0.00856489161091716
1589.0,0.008519493850409588
1588.0,0.008482878675752793
1587.0,0.008445442234187797
1586.0,0.008412690467871402
1585.0,0.008394194374612887
1584.0,0.008386566700057862
1583.0,0.008384323027047915
1582.0,0.008396362950791596
1581.0,0.008427657366867571
1580.0,0.008461194301640636
1579.0,0.00848629278260219
1578.0,0.008528627712588341
1577.0,0.008620430427749681
1576.0,0.008741257215872614
1575.0,0.008833513917353411
1574.0,0.0088749946354823
1573.0,0.008894858377718032
1572.0,0.008935766249985688
1571.0,0.00902459767752591
1570.0,0.009156599299857595
1569.0,0.009291576943898074
1568.0,0.009387602588689998
1567.0,0.009448876389576621
1566.0,0.009525998641902159
1565.0,0.009645706460120048
1564.0,0.009771773247788561
1563.0,0.009857553840767521
1562.0,0.009920625239542066
1561.0,0.010054692719456667
1560.0,0.010356676687782135
1559.0,0.010740582161067073
1558.0,0.011047625570268239
1557.0,0.011216038888085105
1556.0,0.011261724313276232
1555.0,0.011306903059497142
1554.0,0.011417330825198992
1553.0,0.011577640933249159
1552.0,0.011724219918596178
1551.0,0.011848056080448706
1550.0,0.012003195278767687
1549.0,0.012219607453524746
1548.0,0.012448199729680243
1547.0,0.012627507053913025
1546.0,0.012764841475043151
1545.0,0.012910267062087775
1544.0,0.0130917587580314
1543.0,0.013308979001276904
1542.0,0.013572161347631609
1541.0,0.013892594649150276
1540.0,0.014221228872413514
1539.0,0.014465102991138165
1538.0,0.014587253166469001
1537.0,0.014632299331382402
1536.0,0.014674265805878906
1535.0,0.014758725403090298
1534.0,0.014906339896181122
1533.0,0.015092317800170691
1532.0,0.01526003400216724
1531.0,0.015383402814301332
1530.0,0.015485849060993262
1529.0,0.015591875457839438
1528.0,0.01569808338750003
1527.0,0.015803545573090744
1526.0,0.015935442017712884
1525.0,0.016106462481478703
1524.0,0.016280088780035985
1523.0,0.016426775127282068
1522.0,0.016566713475893488
1521.0,0.016728198772614517
1520.0,0.016891523935237733
1519.0,0.017020476906736925
1518.0,0.017127955664118497
1517.0,0.017246928990869624
1516.0,0.0173749511970427
1515.0,0.017489723877483383
1514.0,0.01758655785123879
1513.0,0.01767650680701126
1512.0,0.017752407368741764
1511.0,0.01779297906775192
1510.0,0.01780462464702149
1509.0,0.01783831620438055
1508.0,0.01796207728696208
1507.0,0.018221427348519333
1506.0,0.018605500516305943
1505.0,0.018949464373798647
1504.0,0.019112136269366548
1503.0,0.019163005800478937
1502.0,0.019208344277781033
1501.0,0.01930883794277522
1500.0,0.01945876480794652
1499.0,0.01961178045213658
1498.0,0.01975828587938067
1497.0,0.019933019510820875
1496.0,0.020133868941878536
1495.0,0.02031111145798454
1494.0,0.02044760414318958
1493.0,0.020562466389709655
1492.0,0.02066628091899347
1491.0,0.02076174832097789
1490.0,0.02088101796059738
1489.0,0.021069072511249235
1488.0,0.02130816631999449
1487.0,0.02154212196601966
1486.0,0.02174975945225958
1485.0,0.02193967730308119
1484.0,0.022114191992198967
1483.0,0.022275476395114124
1482.0,0.02244949894335851
1481.0,0.022657079912743256
1480.0,0.022873757363061922
1479.0,0.02306345065398088
1478.0,0.023233960287340018
1477.0,0.02341890071148694
1476.0,0.023622688640295954
1475.0,0.023832375107419083
1474.0,0.024077991099891935
1473.0,0.024409892457875868
1472.0,0.02479855141571264
1471.0,0.02515653713960054
1470.0,0.025456583729243133
1469.0,0.02572920769105503
1468.0,0.026000890902893467
1467.0,0.026289075477034064
1466.0,0.02662425500890255
1465.0,0.027014926068435016
1464.0,0.027393497224381596
1463.0,0.02768587390497985
1462.0,0.027900491776446223
1461.0,0.02808185321177415
1460.0,0.02824320993755036
1459.0,0.028382497128076223
1458.0,0.028535110394679642
1457.0,0.028752242569758998
1456.0,0.02900016893312705
1455.0,0.02920157765658187
1454.0,0.0293555415579982
1453.0,0.0294978462349291
1452.0,0.02962340692712397
1451.0,0.02971283475230685
1450.0,0.029767934460369953
1449.0,0.029794355234301753
1448.0,0.02977975244554959
1447.0,0.029727762446129926
1446.0,0.02967296258359764
1445.0,0.029633009449487303
1444.0,0.02959250507758982
1443.0,0.029543411186158084
1442.0,0.029505358966253017
1441.0,0.029490286807165502
1440.0,0.029476827299518338
1439.0,0.029447831411160412
1438.0,0.029431160955076845
1437.0,0.02946709490345218
1436.0,0.02954052602232172
1435.0,0.029596798763593554
1434.0,0.02961005140844207
1433.0,0.0295914496197072
1432.0,0.0295600380272258
1431.0,0.029532538445529635
1430.0,0.029529622563952144
1429.0,0.02955926335900439
1428.0,0.02960154899891897
1427.0,0.029633496771344983
1426.0,0.029660951985030177
1425.0,0.029706627376380013
1424.0,0.029769733131625828
1423.0,0.029827015279733866
1422.0,0.029868971321722438
1421.0,0.029907904036998355
1420.0,0.02995675893730188
1419.0,0.030015013393123468
1418.0,0.03009712979318918
1417.0,0.030212229505144975
1416.0,0.030333273821546505
1415.0,0.030438587706795348
1414.0,0.03053014557023262
1413.0,0.030611775001419594
1412.0,0.030674341212124534
1411.0,0.03071490925919075
1410.0,0.030751016008597344
1409.0,0.03078929005536852
1408.0,0.03080458665574956
1407.0,0.03077478160512198
1406.0,0.03071728182437085
1405.0,0.030665972924539944
1404.0,0.030620384910359566
1403.0,0.030555111609540192
1402.0,0.030462007466818965
1401.0,0.030346927157109946
1400.0,0.03020818318817247
1399.0,0.030047701455710337
1398.0,0.02988804734646764
1397.0,0.029739806177405525
1396.0,0.02958837149860218
1395.0,0.02943339515798872
1394.0,0.029303027282445042
1393.0,0.029201898523406232
1392.0,0.02908957880924318
1391.0,0.02893656863573932
1390.0,0.028750758680073256
1389.0,0.02855317196753679
1388.0,0.028363094915140948
1387.0,0.02821042071389547
1386.0,0.028125390626995553
1385.0,0.02809859349311662
1384.0,0.028098409098586182
1383.0,0.028124105373016097
1382.0,0.028208867794136377
1381.0,0.02838205702889214
1380.0,0.028649484981569235
1379.0,0.028994401261537132
1378.0,0.029363822535654137
1377.0,0.029654515646490905
1376.0,0.029732193601899888
1375.0,0.029493168387556584
1374.0,0.028958431544382105
1373.0,0.028280388311721673
1372.0,0.027593338389788342
1371.0,0.0269328495831531
1370.0,0.026301926986089894
1369.0,0.025724657184915324
1368.0,0.025230627840583414
1367.0,0.02482374708799749
1366.0,0.024479186094902274
1365.0,0.024161376071030798
1364.0,0.02384983347304616
1363.0,0.023563960017236655
1362.0,0.02335107311809513
1361.0,0.02322045976932774
1360.0,0.023119252337970995
1359.0,0.022989597647121027
1358.0,0.02280908913051956
1357.0,0.022577935869692093
1356.0,0.02230220844348876
1355.0,0.022000099281182968
1354.0,0.021702406333769905
1353.0,0.021427180064386445
1352.0,0.021167019011905434
1351.0,0.02091086243790374
1350.0,0.020660327864756273
1349.0,0.020421871459740792
1348.0,0.02019407306092506
1347.0,0.01997321161168315
1346.0,0.01976077697543264
1345.0,0.019555588935546438
1344.0,0.019347215913299114
1343.0,0.019123401818159903
1342.0,0.01887914339753425
1341.0,0.018619046480611787
1340.0,0.01836182859825144
1339.0,0.01814112986490762
1338.0,0.018250014634498317
1337.0,0.01806694785241292
1336.0,0.017766400821163725
1335.0,0.01765372930720394
1334.0,0.017529366665878156
1333.0,0.017396362780648437
1332.0,0.017253289585969007
1331.0,0.01710239742697201
1330.0,0.016950969764664536
1329.0,0.016801289512417657
1328.0,0.01664865968414961
1327.0,0.016491423877372187
1326.0,0.01633343126368348
1325.0,0.01617743983674942
1324.0,0.016022300279491468
1323.0,0.015867755096849765
1322.0,0.01571544037605434
1321.0,0.015564005762857339
1320.0,0.015411162600387922
1319.0,0.015261052069132777
1318.0,0.015121787772455354
1317.0,0.01499366915173432
1316.0,0.014868368307239727
1315.0,0.014740593524398736
1314.0,0.014613377285797549
1313.0,0.014492190688571473
1312.0,0.01438004815421606
1311.0,0.014277422154190941
1310.0,0.014180925660230494
1309.0,0.014084206238139097
1308.0,0.013985254907085133
1307.0,0.013890340187322053
1306.0,0.013803830026673642
1305.0,0.013718788360502039
1304.0,0.013624107074724567
1303.0,0.013518613053221842
1302.0,0.01341086675157488
1301.0,0.013306981482605649
1300.0,0.013206718867586164
1299.0,0.01310955942226039
1298.0,0.013016739921443645
1297.0,0.012927483944210122
1296.0,0.012839815651287174
1295.0,0.012753427815015242
1294.0,0.012666845991055702
1293.0,0.012574819457831959
1292.0,0.012474348087413335
1291.0,0.012370826482063392
1290.0,0.012272473792386614
1289.0,0.012181559554345828
1288.0,0.012096572458990781
1287.0,0.012018364476283346
1286.0,0.011947299083529392
1285.0,0.011878583925599099
1284.0,0.011807691251083113
1283.0,0.011737163165503831
1282.0,0.011671540772450813
1281.0,0.01160903754969532
1280.0,0.0115450649587128
1279.0,0.011480117404446094
1278.0,0.011417350580028043
1277.0,0.011355397079931903
1276.0,0.01129098577709343
1275.0,0.011225496701971607
1274.0,0.011162228710827341
1273.0,0.011100444666831659
1272.0,0.011038496108112472
1271.0,0.010979643768942775
1270.0,0.010927845371769399
1269.0,0.010880620341373853
1268.0,0.010832766546702044
1267.0,0.010784238966265056
1266.0,0.010738518265739672
1265.0,0.010695816454528257
1264.0,0.010654026575063301
1263.0,0.010614250629070114
1262.0,0.010579781309734011
1261.0,0.010552027050145631
1260.0,0.010532152078418868
1259.0,0.010522517906874631
1258.0,0.01052131945179446
1257.0,0.010519315878925906
1256.0,0.010507508310858426
1255.0,0.01048516238093606
1254.0,0.010456093991438754
1253.0,0.010421504188361862
1252.0,0.010382297356300495
1251.0,0.010343850784276964
1250.0,0.010311026010733172
1249.0,0.010281396346529983
1248.0,0.010249726671841253
1247.0,0.010216023162204081
1246.0,0.010183422698361092
1245.0,0.010151688304796272
1244.0,0.010119591692308923
1243.0,0.010090510231538386
1242.0,0.010068048108859296
1241.0,0.010048401050179878
1240.0,0.010024377026975756
1239.0,0.009995279956065521
1238.0,0.009966128033344696
1237.0,0.009938569861105808
1236.0,0.009909509779374355
1235.0,0.009878004226011294
1234.0,0.009847016170817171
1233.0,0.009818272803061636
1232.0,0.009790619467807602
1231.0,0.009763323803682628
1230.0,0.00973647771911054
1229.0,0.009708810321725535
1228.0,0.009679401752625017
1227.0,0.00965048639512244
1226.0,0.009624559039492036
1225.0,0.009600472365815158
1224.0,0.009576354942193648
1223.0,0.009553760138166506
1222.0,0.009534084371813545
1221.0,0.00951339436045902
1220.0,0.009486314526284817
1219.0,0.009453266939309056
1218.0,0.009418806411530908
1217.0,0.009384276559234872
1216.0,0.009347351088367895
1215.0,0.009307658925685535
1214.0,0.009267766061635128
1213.0,0.009229421069071224
1212.0,0.009193113771537201
1211.0,0.009160290548669906
1210.0,0.009131747677026247
1209.0,0.009105231632743127
1208.0,0.009078712436450889
1207.0,0.009054182604326562
1206.0,0.00903425518543631
1205.0,0.00901724556781661
1204.0,0.008999949180324669
1203.0,0.008982813175813988
1202.0,0.00896791968484831
1201.0,0.008954402339119918
1200.0,0.008940687691162911
1199.0,0.008929079991725429
1198.0,0.008923426231813478
1197.0,0.008923541199873724
1196.0,0.008925981884367285
1195.0,0.008928817772983983
1194.0,0.008931838380567946
1193.0,0.008934089881867186
1192.0,0.008935312898097604
1191.0,0.00893831434830071
1190.0,0.008946188093958423
1189.0,0.008958478457196562
1188.0,0.0089731844758421
1187.0,0.008990614189160891
1186.0,0.009012092243915432
1185.0,0.009036867659033977
1184.0,0.009063650154226591
1183.0,0.00909336152811393
1182.0,0.009127221962385648
1181.0,0.009164058203474166
1180.0,0.0092024624122568
1179.0,0.009243221931306821
1178.0,0.009286695544938162
1177.0,0.009330931185609964
1176.0,0.009376231734443735
1175.0,0.009428756608958555
1174.0,0.009494901171892325
1173.0,0.009573944682578989
1172.0,0.009659977556488215
1171.0,0.009748439883015096
1170.0,0.009835759168654784
1169.0,0.009914153777271843
1168.0,0.009972858989705919
1167.0,0.010006469571175226
1166.0,0.010018852692040418
1165.0,0.010017902597909177
1164.0,0.01000940258355004
1163.0,0.009996805363911065
1162.0,0.00998320019377457
1161.0,0.009971305383014472
1160.0,0.00996321852161958
1159.0,0.009960485875635973
1158.0,0.009962797151364994
1157.0,0.00996751065360671
1156.0,0.009973044118141672
1155.0,0.00998193746882724
1154.0,0.009997375513918199
1153.0,0.010017033668310837
1152.0,0.010033794048867931
1151.0,0.010043022326436514
1150.0,0.010046494108661676
1149.0,0.010048803382541402
1148.0,0.010052746886225098
1147.0,0.010058812958125418
1146.0,0.010066417871674442
1145.0,0.010074405064688359
1144.0,0.010082026776853058
1143.0,0.010090066907330828
1142.0,0.010099759634895523
1141.0,0.010110556962642358
1140.0,0.010120399281990758
1139.0,0.010128074649270437
1138.0,0.010133794205732934
1137.0,0.010137634223560385
1136.0,0.010139204175165355
1135.0,0.01013901821072071
1134.0,0.0101387025742799
1133.0,0.010139491802409216
1132.0,0.010141038220824057
1131.0,0.010140972027048287
1130.0,0.01013537073039263
1129.0,0.010121891084318635
1128.0,0.010103989529872917
1127.0,0.01008950165669085
1126.0,0.010082102784631616
1125.0,0.01007619988325674
1124.0,0.010063661672280186
1123.0,0.010043701711580682
1122.0,0.010022347123514713
1121.0,0.010003978936785604
1120.0,0.009988342016243327
1119.0,0.00997497104473989
1118.0,0.009964978050298582
1117.0,0.009957873328571745
1116.0,0.009951553491264203
1115.0,0.00994704771061784
1114.0,0.009949225139503944
1113.0,0.009960670139547151
1112.0,0.00997776121216185
1111.0,0.009994561802901135
1110.0,0.01000858180910586
1109.0,0.010021536078376435
1108.0,0.010036243524699055
1107.0,0.010054451738384831
1106.0,0.010075845761341358
1105.0,0.010097801951465053
1104.0,0.010117101908388285
1103.0,0.010132007695232459
1102.0,0.01014153104264977
1101.0,0.010143833007396118
1100.0,0.010137507243810925
1099.0,0.010126606527406299
1098.0,0.010118895710469415
1097.0,0.010119692563326205
1096.0,0.010129344057765333
1095.0,0.010147046108904257
1094.0,0.010173264608550066
1093.0,0.010207227327203137
1092.0,0.010245632855788674
1091.0,0.010285823863742266
1090.0,0.01032771363166509
1089.0,0.01037167766353221
1088.0,0.010419350387886396
1087.0,0.010479980235942595
1086.0,0.01056998029821947
1085.0,0.010695574618535434
1084.0,0.010832625141823756
1083.0,0.010930184127074484
1082.0,0.010943193829826045
1081.0,0.010865583893125601
1080.0,0.010732037945997211
1079.0,0.010590024282045842
1078.0,0.010468830532173927
1077.0,0.010369368728608826
1076.0,0.010277458315433603
1075.0,0.010182628178974777
1074.0,0.01008471256434964
1073.0,0.009988239351837765
1072.0,0.009896479304857875
1071.0,0.009810488079030408
1070.0,0.009729047886229287
1069.0,0.009648264099213502
1068.0,0.009564264990593646
1067.0,0.009477405404935683
1066.0,0.009391662185180224
1065.0,0.009309295109474362
1064.0,0.009228331563671003
1063.0,0.009146014783974164
1062.0,0.009062976068508758
1061.0,0.008983131666178975
1060.0,0.008910069460859378
1059.0,0.008843469432774757
1058.0,0.008778756519713049
1057.0,0.008711489140478288
1056.0,0.00864272658819509
1055.0,0.008578487161569243
1054.0,0.008522864537409169
1053.0,0.008473292806683507
1052.0,0.008424061564673242
1051.0,0.00837258233405648
1050.0,0.008320263528322304
1049.0,0.00826951640301424
1048.0,0.008222301423148773
1047.0,0.008178599985568722
1046.0,0.00813344392235583
1045.0,0.008078234467788614
1044.0,0.008007655686524109
1043.0,0.00792389821591284
1042.0,0.007832854567793934
1041.0,0.007738636133343062
1040.0,0.007643822921384449
1039.0,0.007551923478682061
1038.0,0.007465883288880723
1037.0,0.007385844974317603
1036.0,0.007310944950415246
1035.0,0.007241022452030671
1034.0,0.007174095206324034
1033.0,0.007105212789571698
1032.0,0.007031501960592122
1031.0,0.006956321129433726
1030.0,0.006885187945599596
1029.0,0.006819353498777679
1028.0,0.006756322768676996
1027.0,0.006694521478162642
1026.0,0.006634084875356151
1025.0,0.006574501861429875
1024.0,0.0065144996530898044
1023.0,0.006453505194157138
1022.0,0.006391426289611441
1021.0,0.006328359789277781
1020.0,0.006266071921455197
1019.0,0.006207911625766335
1018.0,0.006155460312045811
1017.0,0.00610701674393865
1016.0,0.006060553513545492
1015.0,0.00601574833280062
1014.0,0.005971991411367899
1013.0,0.005927465531474645
1012.0,0.005882157982620822
1011.0,0.005839329692930523
1010.0,0.005802182046938527
1009.0,0.00577107035425998
1008.0,0.005745053416122898
1007.0,0.0057235460794899
1006.0,0.005705401023687476
1005.0,0.005689575819637615
1004.0,0.005678524107641117
1003.0,0.005678333496602805
1002.0,0.0056935930285095734
1001.0,0.0057230417740395684
1000.0,0.0057589372397269314
999.0,0.005786811287232709
998.0,0.005786990503159615
997.0,0.005743326829288745
996.0,0.005654655987160058
995.0,0.005536219504001897
994.0,0.005408355645268643
993.0,0.005285345161786929
992.0,0.005174344386905513
991.0,0.00507844998153852
990.0,0.004996325485618255
989.0,0.004922643947993899
988.0,0.004853077478537794
987.0,0.004787318826936574
986.0,0.004726351451527463
985.0,0.004670655292333244
984.0,0.00462258268464565
983.0,0.004585941171660906
982.0,0.00456103504054877
981.0,0.004544642604554638
980.0,0.0045372420550354765
979.0,0.004545357723283275
978.0,0.004573494351003867
977.0,0.004617610492379208
976.0,0.004668515245061109
975.0,0.00471610135451201
974.0,0.004746909705604117
973.0,0.004743456298928612
972.0,0.004693221204805197
971.0,0.004598828021719874
970.0,0.004477066614375337
969.0,0.004348693041847278
968.0,0.004229966189679737
967.0,0.004129423033709722
966.0,0.004047328333859451
965.0,0.003978862039426339
964.0,0.003920219481051106
963.0,0.003870232615368641
962.0,0.0038260096628071442
961.0,0.0037819738436619408
960.0,0.0037359421491591693
959.0,0.0036921738607372566
958.0,0.0036553076985618464
957.0,0.00362448106941525
956.0,0.003596058907108109
955.0,0.003568566526033953
954.0,0.0035418935523516956
953.0,0.003514863181450875
952.0,0.003486924143838407
951.0,0.0034599670158160668
950.0,0.0034358906452034346
949.0,0.003414480892649615
948.0,0.0033952730098575816
947.0,0.0033786500551590184
946.0,0.003363710313003496
945.0,0.0033483507677946646
944.0,0.003332858147017531
943.0,0.0033199467796967384
942.0,0.0033098822627459544
941.0,0.0032992475923044814
940.0,0.0032858337059274503
939.0,0.0032708467259891837
938.0,0.0032551242663429215
937.0,0.003237654119243283
936.0,0.0032192612016611775
935.0,0.003202755382554108
934.0,0.0031873819006623637
933.0,0.0031681690265745925
932.0,0.00314330631461279
931.0,0.0031173496173731797
930.0,0.0030945016516864213
929.0,0.003073602192524177
928.0,0.003052705031730129
927.0,0.00303346217030685
926.0,0.0030171939793888066
925.0,0.003001196099495439
924.0,0.002983092619386358
923.0,0.0029650043079511345
922.0,0.002949548036099734
921.0,0.002935301283843386
920.0,0.0029199500061375385
919.0,0.0029045199778125986
918.0,0.0028909910240974062
917.0,0.00287901848168445
916.0,0.0028682557674539156
915.0,0.002860449930031635
914.0,0.002855952330484109
913.0,0.002851714673435605
912.0,0.0028460808441762705
911.0,0.0028417211607818524
910.0,0.002840037686245866
909.0,0.0028366201776839368
908.0,0.002827079137409566
907.0,0.002814583146359265
906.0,0.002807325534812959
905.0,0.0028109793357099927
904.0,0.0028271341682245595
903.0,0.0028554470339336915
902.0,0.0028920145193821727
901.0,0.0029271937429435303
900.0,0.0029493262314404635
899.0,0.002950636593220356
898.0,0.0029289621926636223
897.0,0.0028872245470927633
896.0,0.0028344031866398504
895.0,0.002783712906706224
894.0,0.0027451080797256224
893.0,0.0027209919568474215
892.0,0.0027127364967315624
891.0,0.002729736949712149
890.0,0.0027893258038334343
889.0,0.0029099085065273774
888.0,0.003105902243759743
887.0,0.0033847638290522295
886.0,0.003744582994036293
885.0,0.004177193459376999
884.0,0.004677079534789071
883.0,0.005246149294549698
882.0,0.005888649226135386
881.0,0.006602805088368547
880.0,0.007377346687752121
879.0,0.008193750650720168
878.0,0.009031580042425547
877.0,0.009874406737535618
876.0,0.010714442648425545
875.0,0.011552064618503888
874.0,0.012377952916520532
873.0,0.013133013663267357
872.0,0.013682621726970937
871.0,0.0138638302862585
870.0,0.013595819511099679
869.0,0.012951526411783541
868.0,0.012116991611513958
867.0,0.011287329229056469
866.0,0.010586782419062742
865.0,0.010052096647523769
864.0,0.009666219951289735
863.0,0.009401094949041842
862.0,0.009237534046524797
861.0,0.009161562011835418
860.0,0.009156202613193581
859.0,0.009201040405348021
858.0,0.009276910261562344
857.0,0.009367562283907385
856.0,0.009455523835381275
855.0,0.009516528944899572
854.0,0.009520318878223119
853.0,0.009441469860086338
852.0,0.009274424030822305
851.0,0.00903768693578346
850.0,0.008757957632836466
849.0,0.008450711788898922
848.0,0.008126164131462386
847.0,0.007815189776385048
846.0,0.007571758772372187
845.0,0.007433589152030391
844.0,0.007382259958463016
843.0,0.0073507010958531425
842.0,0.007271974587556447
841.0,0.007120784713296439
840.0,0.006914646099442574
839.0,0.00668914351827005
838.0,0.006475889010359713
837.0,0.006293464326284002
836.0,0.006147494470020897
835.0,0.006034416231485972
834.0,0.0059459218991762715
833.0,0.005872925726245079
832.0,0.0058084306375587105
831.0,0.0057488562871896055
830.0,0.005693779556858762
829.0,0.005644553725010692
828.0,0.005602555869093237
827.0,0.005567362014348553
826.0,0.005535783010428057
825.0,0.00550391479069356
824.0,0.005471734816081406
823.0,0.005444564831172078
822.0,0.005427661361969493
821.0,0.0054200965304910965
820.0,0.005416040755825035
819.0,0.005411068485228489
818.0,0.005405487716432941
817.0,0.005402587335188377
816.0,0.0054059806623889695
815.0,0.005418931160030546
814.0,0.005444144086931226
813.0,0.005482073763338417
812.0,0.00552866149414241
811.0,0.005574872850294885
810.0,0.005609627442331134
809.0,0.005625373201442392
808.0,0.005622434543090374
807.0,0.00560805548495024
806.0,0.005590147702264696
805.0,0.005572023107720408
804.0,0.005553928879971774
803.0,0.005537751334953872
802.0,0.0055267479940300235
801.0,0.005520430965804015
800.0,0.005513582626823398
799.0,0.0055026688453106935
798.0,0.00549109819181137
797.0,0.0054857821964684125
796.0,0.005489933559716269
795.0,0.005501478945967827
794.0,0.0055171391495378
793.0,0.005535052125951758
792.0,0.005553365789872802
791.0,0.005569155520328495
790.0,0.005580255574145609
789.0,0.005587196168832423
788.0,0.005592690050003759
787.0,0.005599827531990341
786.0,0.0056104090917126585
785.0,0.005623811610460078
784.0,0.00563746786210801
783.0,0.005649452209350602
782.0,0.005660356467582074
781.0,0.0056712481802068445
780.0,0.005680553207609407
779.0,0.00568558312735745
778.0,0.005687514232085491
777.0,0.005692083269839476
776.0,0.005703755773830253
775.0,0.005720994970133829
774.0,0.005738817160407826
773.0,0.005754455069067979
772.0,0.005768526573907876
771.0,0.00578188843063588
770.0,0.005793904150315433
769.0,0.00580396985593868
768.0,0.005813131971434703
767.0,0.005823638458310269
766.0,0.005837329415654799
765.0,0.005854171802017716
764.0,0.005871646992493651
763.0,0.005886071945652032
762.0,0.005895474711659817
761.0,0.005901028121327473
760.0,0.005905384781074687
759.0,0.005910656715872117
758.0,0.0059187488227124795
757.0,0.005931780294667644
756.0,0.005949671245331401
755.0,0.005967922568199141
754.0,0.005981035284334843
753.0,0.005989506200549027
752.0,0.0060009506494242346
751.0,0.006022210423155233
750.0,0.0060513205047628416
749.0,0.006079281253611849
748.0,0.006099561783235823
747.0,0.006113911001230758
746.0,0.00612831170801351
745.0,0.006145284610092054
744.0,0.006162207939118191
743.0,0.006176140334279637
742.0,0.0061876316795971865
741.0,0.00619934574491734
740.0,0.006213242625737282
739.0,0.0062304546676532815
738.0,0.0062521067442214764
737.0,0.006278479804484963
736.0,0.006308534710673814
735.0,0.006342191522777162
734.0,0.006382602627170721
733.0,0.006434624351675621
732.0,0.006501067783658344
731.0,0.006581582815289708
730.0,0.0066747546122608754
729.0,0.0067800498540331895
728.0,0.006896889412040424
727.0,0.0070241289693790294
726.0,0.0071614940408093256
725.0,0.007307398725208601
724.0,0.00745465918239214
723.0,0.007592670086346178
722.0,0.007715820868985559
721.0,0.00782656026530511
720.0,0.007928449710025733
719.0,0.008021287792172807
718.0,0.008109000165398304
717.0,0.008210318958832556
716.0,0.008352880662296811
715.0,0.008545649901777837
714.0,0.008751603360886021
713.0,0.008895684211462335
712.0,0.00891413724021797
711.0,0.008804341575655248
710.0,0.008624615166065988
709.0,0.008444629556035392
708.0,0.008300089195047634
707.0,0.008189931259261433
706.0,0.008102356216436547
705.0,0.008033948000635312
704.0,0.007992629212259215
703.0,0.007993194257172317
702.0,0.008041394083954623
701.0,0.008111496257213682
700.0,0.008148465926921722
699.0,0.008107807714981468
698.0,0.007995941974986577
697.0,0.007859240148171565
696.0,0.007735337598826827
695.0,0.007630931927751498
694.0,0.007540982335616342
693.0,0.007468601969344473
692.0,0.007417968691713775
691.0,0.007380586031486596
690.0,0.007344114938623178
689.0,0.007307373949192068
688.0,0.007276460632790827
687.0,0.007252118804783507
686.0,0.007229543498699333
685.0,0.007208243318992898
684.0,0.007192625245692651
683.0,0.007182634925386858
682.0,0.007172095608834238
681.0,0.0071561911660900125
680.0,0.007135926680060151
679.0,0.00711427311939283
678.0,0.0070929852531448866
677.0,0.007076357213671487
676.0,0.007066677282213921
675.0,0.007061594362858806
674.0,0.0070569689660091636
673.0,0.007050997511548239
672.0,0.0070398882852024565
671.0,0.007012745935641969
670.0,0.006950053394959646
669.0,0.00684089942790613
668.0,0.006741113721309994
667.0,0.006745050095731328
666.0,0.0068203846424801946
665.0,0.0068992756722362596
664.0,0.0069602921504119675
663.0,0.006993476906918572
662.0,0.006996453865724728
661.0,0.0069801743662824215
660.0,0.006952710014222636
659.0,0.006913899664086839
658.0,0.006871514878982944
657.0,0.006844462582498953
656.0,0.00683679089429721
655.0,0.006831888205863371
654.0,0.00681708245366475
653.0,0.006796689468028989
652.0,0.006775657664772313
651.0,0.006751013376197592
650.0,0.006723339650053117
649.0,0.0066986024316351665
648.0,0.006672993545661964
647.0,0.0066361402867350806
646.0,0.006593239180187798
645.0,0.006559735401862077
644.0,0.006534117168989223
643.0,0.006498156219773715
642.0,0.0064457859232315545
641.0,0.00639273979561965
640.0,0.006350471958752586
639.0,0.006311042260617064
638.0,0.006265914525803457
637.0,0.00621993857737823
636.0,0.006178932530249273
635.0,0.006144172784487808
634.0,0.006122208837681742
633.0,0.006118921265819675
632.0,0.006119640816703454
631.0,0.006095451171124356
630.0,0.00603703721138517
629.0,0.005965481047017565
628.0,0.0059016953934779605
627.0,0.0058426279337932645
626.0,0.00577213208810594
625.0,0.005677323906993055
624.0,0.005554866811427726
623.0,0.005422731732440362
622.0,0.005323859496317697
621.0,0.005288704246251044
620.0,0.005294985836005102
619.0,0.005286944094045296
618.0,0.005237430886701542
617.0,0.0051723282192310364
616.0,0.005126408377785165
615.0,0.005107824708574436
614.0,0.005110975224928316
613.0,0.0051302601762666725
612.0,0.005151946680078373
611.0,0.00515843845730095
610.0,0.0051540963245200935
609.0,0.005165184150708669
608.0,0.005203886066717164
607.0,0.005252172239680318
606.0,0.005289489577765054
605.0,0.005314130744467181
604.0,0.005327068419720979
603.0,0.005321994298551444
602.0,0.005301967385975487
601.0,0.0052821663609808
600.0,0.005266586846210371
599.0,0.005242614218343019
598.0,0.005206693236206893
597.0,0.005171014674425205
596.0,0.005136095181456005
595.0,0.005082424252731534
594.0,0.0050021672908083965
593.0,0.0049184782309718116
592.0,0.004856308548644323
591.0,0.004812791049411895
590.0,0.004767253622792702
589.0,0.004704274648348893
588.0,0.004616339092869064
587.0,0.004502803358478318
586.0,0.00437654996776989
585.0,0.004252075814178308
584.0,0.004121945057501402
583.0,0.003966131307158268
582.0,0.003792316721089097
581.0,0.003640685817432064
580.0,0.003540342785337272
579.0,0.0034778205133167575
578.0,0.0034133168375606758
577.0,0.0033225738423519734
576.0,0.0032157639517412734
575.0,0.003124260830903114
574.0,0.003071003687384035
573.0,0.003054758903185067
572.0,0.0030644481998107678
571.0,0.0030887345915112455
570.0,0.0031046422236812024
569.0,0.0030790680279037643
568.0,0.0029933110865549483
567.0,0.0028720736315353095
566.0,0.0027804028881121172
565.0,0.0027651990356931857
564.0,0.002812413872352878
563.0,0.0028609457133362956
562.0,0.0028549017593989994
561.0,0.0027964379132434623
560.0,0.0027400418596321514
559.0,0.002739700990245064
558.0,0.002796149846239962
557.0,0.0028543218025984434
556.0,0.0028555766181082663
555.0,0.0027824104181402368
554.0,0.0026668152448689926
553.0,0.0025594949262890184
552.0,0.0024929831281573934
551.0,0.002468594419609815
550.0,0.0024510187859078953
