cm-1,A
4000.0,0.0022566972950520126
3999.0,0.0022562032048293636
3998.0,0.0022577567152673034
3997.0,0.0022593418309056947
3996.0,0.002258526476168858
3995.0,0.0022549571994890235
3994.0,0.0022505101029830317
3993.0,0.002246887498714347
3992.0,0.002244470070948524
3991.0,0.002243992453610565
3990.0,0.002247781067497518
3989.0,0.0022579973406397537
3988.0,0.00227335038835225
3987.0,0.002288617609307351
3986.0,0.0022988073988965234
3985.0,0.0023029338982533225
3984.0,0.0023037844788322192
3983.0,0.0023048326016310737
3982.0,0.0023071898433110437
3981.0,0.0023096852258090005
3980.0,0.002310494993424327
3979.0,0.002308645149606119
3978.0,0.002304733506661067
3977.0,0.002300438420653408
3976.0,0.002297605540433182
3975.0,0.0022967499785563426
3974.0,0.002296638761814445
3973.0,0.0022957714041047256
3972.0,0.0022939496261567566
3971.0,0.0022925601972631953
3970.0,0.0022928378982950016
3969.0,0.0022942164658117676
3968.0,0.002294654065218284
3967.0,0.0022926323031521433
3966.0,0.0022889840596916292
3965.0,0.002286136848155272
3964.0,0.002285901492089574
3963.0,0.002288378155926458
3962.0,0.002292800404384114
3961.0,0.0022986696014123537
3960.0,0.0023050075462657535
3959.0,0.002309618359460426
3958.0,0.0023103122479954325
3957.0,0.002307859658260131
3956.0,0.0023064451193654705
3955.0,0.0023093736800019367
3954.0,0.002315378570234893
3953.0,0.0023192201578849407
3952.0,0.002316868398318638
3951.0,0.002310190805655459
3950.0,0.00230519215059774
3949.0,0.00230643497872264
3948.0,0.0023126481056137127
3947.0,0.0023187597753075075
3946.0,0.0023218163362665138
3945.0,0.0023216672982559446
3944.0,0.002319029397229569
3943.0,0.0023148259341148293
3942.0,0.0023096750240517595
3941.0,0.002304393951371749
3940.0,0.0022998160244467056
3939.0,0.0022970849989640586
3938.0,0.0022979820809309603
3937.0,0.002303146439492254
3936.0,0.0023105054599874457
3935.0,0.002316269187419927
3934.0,0.0023183304120248348
3933.0,0.0023182062454995553
3932.0,0.0023190348104388395
3931.0,0.0023210586678652804
3930.0,0.0023217585365592017
3929.0,0.002320718814833129
3928.0,0.0023207269741082016
3927.0,0.0023244402501203226
3926.0,0.0023301567521925876
3925.0,0.0023329024049944013
3924.0,0.002330685634992601
3923.0,0.002326800840396084
3922.0,0.002325924636451597
3921.0,0.0023297376771685124
3920.0,0.0023361321270445575
3919.0,0.002341134806738117
3918.0,0.00234120037732479
3917.0,0.0023363738919304237
3916.0,0.0023312582286579946
3915.0,0.0023313550334463215
3914.0,0.002337520435996111
3913.0,0.002345373511410464
3912.0,0.00234932193194886
3911.0,0.0023470016261010525
3910.0,0.0023399994921759317
3909.0,0.0023321829716505564
3908.0,0.00232749734809748
3907.0,0.0023273948486319763
3906.0,0.002329581139445286
3905.0,0.0023297535171930847
3904.0,0.002326884913183166
3903.0,0.0023252260079049776
3902.0,0.002328650221020005
3901.0,0.002334863033978881
3900.0,0.0023383839449295975
3899.0,0.0023378497769059904
3898.0,0.0023369119689154805
3897.0,0.0023387543725303566
3896.0,0.002341947467865098
3895.0,0.0023440462920760975
3894.0,0.002344561703134418
3893.0,0.002344105621132838
3892.0,0.0023418563605142606
3891.0,0.002336270343982267
3890.0,0.0023291488039001162
3889.0,0.0023250982165990914
3888.0,0.002325877216695687
3887.0,0.0023281655201943226
3886.0,0.0023300610844462517
3885.0,0.0023347333138619324
3884.0,0.0023438852690322474
3883.0,0.002353932837761071
3882.0,0.0023567249733268984
3881.0,0.002346561598778726
3880.0,0.002328207593192689
3879.0,0.002312726754101933
3878.0,0.0023077547160734874
3877.0,0.002313038075840923
3876.0,0.0023215340081087716
3875.0,0.002325491296668751
3874.0,0.0023244365749548867
3873.0,0.0023251313364428183
3872.0,0.0023313090596212135
3871.0,0.0023374855437270064
3870.0,0.002337981514691523
3869.0,0.0023366004676943003
3868.0,0.0023392035189989755
3867.0,0.0023430017657440757
3866.0,0.002338387371093838
3865.0,0.0023241980918979645
3864.0,0.002311606717689354
3863.0,0.0023090473455060143
3862.0,0.0023123772435088615
3861.0,0.002315226289126791
3860.0,0.0023177496824744806
3859.0,0.002323422047645518
3858.0,0.0023344473167708386
3857.0,0.0023497721206350783
3856.0,0.0023635349109944435
3855.0,0.0023650860308829227
3854.0,0.002348093493727185
3853.0,0.0023252477156857996
3852.0,0.0023133679357653786
3851.0,0.0023148521925408444
3850.0,0.0023233228778331587
3849.0,0.0023323059047003214
3848.0,0.002339151579352829
3847.0,0.0023438960624734186
3846.0,0.002346436651268326
3845.0,0.0023476529502198893
3844.0,0.0023487637515042037
3843.0,0.002350400637549892
3842.0,0.0023533373639532916
3841.0,0.0023584169499087943
3840.0,0.0023647755703832957
3839.0,0.0023706608841306126
3838.0,0.0023755089417036475
3837.0,0.0023785425248063373
3836.0,0.0023789272484427545
3835.0,0.0023779621677365694
3834.0,0.002376897338966854
3833.0,0.0023738172248693613
3832.0,0.002365769990017459
3831.0,0.0023549576022685644
3830.0,0.002349233355959471
3829.0,0.0023546080036494343
3828.0,0.0023679432072921808
3827.0,0.002379789166097407
3826.0,0.0023852721907222946
3825.0,0.002389395473881742
3824.0,0.002397886942528578
3823.0,0.0024071418846041337
3822.0,0.0024079847398171504
3821.0,0.0024009958886397212
3820.0,0.0023981798945959558
3819.0,0.002407448197876523
3818.0,0.002423946672698526
3817.0,0.002434738906738696
3816.0,0.002433960536634562
3815.0,0.002430959866640465
3814.0,0.0024359320408937676
3813.0,0.00244693627335671
3812.0,0.002454898126365234
3811.0,0.002455738830393416
3810.0,0.0024536826511512497
3809.0,0.002453115344705631
3808.0,0.0024518800971496876
3807.0,0.0024464528628627847
3806.0,0.0024401564805915845
3805.0,0.002440599199999581
3804.0,0.002449655041121478
3803.0,0.0024616110252975703
3802.0,0.0024710484885443968
3801.0,0.0024791523265905446
3800.0,0.0024888162649147755
3799.0,0.0024979406124616783
3798.0,0.002502940686170666
3797.0,0.0025028332097957063
3796.0,0.002501492371783349
3795.0,0.0025036585317592544
3794.0,0.002509452470590359
3793.0,0.002515636155492376
3792.0,0.0025198562734871062
3791.0,0.0025231556074155484
3790.0,0.0025279528403101504
3789.0,0.002534997008623496
3788.0,0.002543285091884572
3787.0,0.0025517672261513935
3786.0,0.0025593481966527777
3785.0,0.002564407372430985
3784.0,0.002565960633177972
3783.0,0.0025658175977627765
3782.0,0.0025674530476392224
3781.0,0.0025724679943736027
3780.0,0.002579178875424742
3779.0,0.0025853672542204215
3778.0,0.002591633675485162
3777.0,0.0026003325883946432
3776.0,0.0026113189360142796
3775.0,0.0026220495719374267
3774.0,0.002632260120533519
3773.0,0.0026446197987802953
3772.0,0.0026595319805265607
3771.0,0.0026729586382535676
3770.0,0.0026817050874784346
3769.0,0.002687631427420363
3768.0,0.0026936695162713504
3767.0,0.00269940657264552
3766.0,0.0027030403326015638
3765.0,0.0027055124407573804
3764.0,0.002710827971816752
3763.0,0.0027221926432300985
3762.0,0.0027375006107114496
3761.0,0.002751416078315556
3760.0,0.002761505159653013
3759.0,0.002769943931505125
3758.0,0.0027790600363178895
3757.0,0.0027886894990464444
3756.0,0.0027989874145445907
3755.0,0.002809973054734201
3754.0,0.0028199650328797933
3753.0,0.0028272875120217865
3752.0,0.002834745433247199
3751.0,0.0028465778061608667
3750.0,0.0028601617147149677
3749.0,0.0028701479181440026
3748.0,0.0028780742177168884
3747.0,0.0028879565201134173
3746.0,0.002896306312290386
3745.0,0.0028975001316811078
3744.0,0.0028959466526631197
3743.0,0.002901278132950209
3742.0,0.0029142630928612485
3741.0,0.002928535318664654
3740.0,0.0029387648862105745
3739.0,0.002946960879966775
3738.0,0.0029590970724869027
3737.0,0.002975518824354014
3736.0,0.002991587013426145
3735.0,0.003004242217745111
3734.0,0.0030153080814951227
3733.0,0.0030272606314530387
3732.0,0.003039617410702471
3731.0,0.0030511762759717837
3730.0,0.0030627510331963223
3729.0,0.0030755761913608126
3728.0,0.0030886160067381332
3727.0,0.0031008787638969982
3726.0,0.0031146492003326894
3725.0,0.0031326988734462794
3724.0,0.003153776925456684
3723.0,0.003175143112759368
3722.0,0.003196799436985637
3721.0,0.0032204418217644023
3720.0,0.003246451572416701
3719.0,0.003274489251728521
3718.0,0.0033046999252708716
3717.0,0.0033374185168041437
3716.0,0.0033719546946021093
3715.0,0.0034057195045939254
3714.0,0.0034365639226693256
3713.0,0.003466899158646901
3712.0,0.003502058746793559
3711.0,0.0035422038870549493
3710.0,0.0035814361917381327
3709.0,0.003615544542752998
3708.0,0.0036443468699797745
3707.0,0.0036698897158999964
3706.0,0.0036963476956318186
3705.0,0.003729057967754361
3704.0,0.003771852789500601
3703.0,0.0038254873133307258
3702.0,0.0038874141634550954
3701.0,0.003952802546991346
3700.0,0.004017614433755448
3699.0,0.004080818714826734
3698.0,0.004141741561610402
3697.0,0.004198433117169344
3696.0,0.004251116825601403
3695.0,0.004304229890141505
3694.0,0.004362435497536904
3693.0,0.0044267587975849055
3692.0,0.0044954850391999155
3691.0,0.004568327437147695
3690.0,0.0046476687031418926
3689.0,0.004732287304188036
3688.0,0.004815155608412913
3687.0,0.004892798608288389
3686.0,0.004970262392925696
3685.0,0.005050830182990563
3684.0,0.005130619982551206
3683.0,0.005206434290950286
3682.0,0.00528288331383052
3681.0,0.005365589107673128
3680.0,0.005453245974740822
3679.0,0.005543738332836728
3678.0,0.005645767083613435
3677.0,0.005775196511059934
3676.0,0.005932239242869649
3675.0,0.00608736748973396
3674.0,0.006215875023336715
3673.0,0.006329411206688127
3672.0,0.006453502939515002
3671.0,0.006603120324895122
3670.0,0.006773369281884411
3669.0,0.0069417834915031455
3668.0,0.007092516512894316
3667.0,0.007231278915053926
3666.0,0.007372090974125806
3665.0,0.007523120496694414
3664.0,0.007683882020644454
3663.0,0.007850563282878911
3662.0,0.008021036366035848
3661.0,0.008193489046728243
3660.0,0.008367150651356741
3659.0,0.008547166012315123
3658.0,0.008746156677476144
3657.0,0.008968364869889018
3656.0,0.009192759129185825
3655.0,0.009390237727558823
3654.0,0.0095573596762709
3653.0,0.009717546799122173
3652.0,0.009899549827733478
3651.0,0.010124726130842863
3650.0,0.010396580444833329
3649.0,0.010691164228867877
3648.0,0.010969955150296909
3647.0,0.01120903813482213
3646.0,0.011411535189399451
3645.0,0.01159862094814719
3644.0,0.0117934832418124
3643.0,0.012009464009220447
3642.0,0.012245722954539538
3641.0,0.01249147382327888
3640.0,0.012734871514562452
3639.0,0.012969037717765954
3638.0,0.013194501880863987
3637.0,0.013418886426862384
3636.0,0.013652336942494282
3635.0,0.01389690734550367
3634.0,0.014140087132162232
3633.0,0.014366376493437517
3632.0,0.014579065841182848
3631.0,0.014812268834671401
3630.0,0.015110143512340038
3629.0,0.015465990139118823
3628.0,0.01580054602807756
3627.0,0.01605997157938155
3626.0,0.01626683526668951
3625.0,0.01646122463660147
3624.0,0.016661408567539077
3623.0,0.016869980602272152
3622.0,0.017094643409426603
3621.0,0.01735087207551899
3620.0,0.017642793912514325
3619.0,0.017944690536790653
3618.0,0.018219537588983047
3617.0,0.018456168936387806
3616.0,0.01867235562547753
3615.0,0.018892559198962985
3614.0,0.019128057153837672
3613.0,0.01937001064076586
3612.0,0.019602335679108393
3611.0,0.019825400589581033
3610.0,0.020060056714191584
3609.0,0.02032167886743128
3608.0,0.0205959512720511
3607.0,0.020852083889170408
3606.0,0.02107765477044991
3605.0,0.021284420906482613
3604.0,0.021489682744861432
3603.0,0.021705006512253006
3602.0,0.02193641074750226
3601.0,0.022182470898202716
3600.0,0.022433645118419936
3599.0,0.022680312744924592
3598.0,0.022922249401071407
3597.0,0.02316621452482265
3596.0,0.023415637397560488
3595.0,0.023665893611284607
3594.0,0.02390693417289561
3593.0,0.024127647595246375
3592.0,0.02432239756052137
3591.0,0.024503129900254054
3590.0,0.024703198597436055
3589.0,0.024959683625000922
3588.0,0.025274732147823706
3587.0,0.025599654189522328
3586.0,0.025882406472481877
3585.0,0.02611396797540496
3584.0,0.02631761900325636
3583.0,0.026520917407388347
3582.0,0.026742631673523014
3581.0,0.026985844028877166
3580.0,0.027238154752709628
3579.0,0.027485004265358375
3578.0,0.027724463566818777
3577.0,0.02796509256861894
3576.0,0.028212037177183045
3575.0,0.02846217941009748
3574.0,0.02870953459513234
3573.0,0.028948308396124677
3572.0,0.029173072870669663
3571.0,0.02938678037783183
3570.0,0.029610102979827455
3569.0,0.02987561538610766
3568.0,0.0302006450348678
3567.0,0.030559368702065506
3566.0,0.030898186151425845
3565.0,0.03118445156039728
3564.0,0.031424288253490064
3563.0,0.03164493413268487
3562.0,0.03187261277353172
3561.0,0.0321181195450097
3560.0,0.032374646306865026
3559.0,0.03263078209775826
3558.0,0.03288273454236817
3557.0,0.033131024944995514
3556.0,0.033374876775542316
3555.0,0.03361848582573867
3554.0,0.033875044753926595
3553.0,0.03415213178364277
3552.0,0.03443507455969924
3551.0,0.034700236741010436
3550.0,0.0349438412341052
3549.0,0.035185806755924885
3548.0,0.03544751592696657
3547.0,0.035732460122261084
3546.0,0.03602637491303995
3545.0,0.03630981154936091
3544.0,0.03657017844146461
3543.0,0.036807979050200605
3542.0,0.037034656538856556
3541.0,0.03726291335625786
3540.0,0.03749927874766387
3539.0,0.037746378666925255
3538.0,0.038007431307115765
3537.0,0.038280875314872384
3536.0,0.038553607103235445
3535.0,0.03880929173900544
3534.0,0.039043998426152006
3533.0,0.039267680851274314
3532.0,0.039493454975688506
3531.0,0.039730986324101714
3530.0,0.039986021311330874
3529.0,0.04025641432232528
3528.0,0.04052903533896437
3527.0,0.04079062829175735
3526.0,0.041042562598370004
3525.0,0.04129782450298194
3524.0,0.04156291486183805
3523.0,0.041829523127394234
3522.0,0.04208616164569819
3521.0,0.04233145620480847
3520.0,0.042573685277711174
3519.0,0.042821749393131554
3518.0,0.04307772147401077
3517.0,0.04333527208429533
3516.0,0.043585545345521594
3515.0,0.043826725073415396
3514.0,0.04406667450760114
3513.0,0.044315008518881885
3512.0,0.04457556006457809
3511.0,0.04484783586218421
3510.0,0.04512859035674416
3509.0,0.04540750417373546
3508.0,0.0456692367083612
3507.0,0.04590918620114521
3506.0,0.04614354188273296
3505.0,0.04639674961384195
3504.0,0.04667919453746334
3503.0,0.046980022073786376
3502.0,0.047279426501287504
3501.0,0.04756314338087736
3500.0,0.047826938705377714
3499.0,0.04807623514164272
3498.0,0.048323309699268346
3497.0,0.04857818767407149
3496.0,0.048841644443543254
3495.0,0.04911003268597284
3494.0,0.049383069286516985
3493.0,0.04966132056627846
3492.0,0.04994057685416958
3491.0,0.050216417771358234
3490.0,0.05049220784315948
3489.0,0.050774554609635786
3488.0,0.05106149299617013
3487.0,0.05134222735004666
3486.0,0.051609376739129915
3485.0,0.05186668943960912
3484.0,0.05212586482991941
3483.0,0.05239923888886092
3482.0,0.05269143194179984
3481.0,0.05299346825442742
3480.0,0.05328838626011629
3479.0,0.053567447465133124
3478.0,0.05383765720766658
3477.0,0.05411041973468571
3476.0,0.054388137669552264
3475.0,0.05466645736671571
3474.0,0.0549432991613859
3473.0,0.0552180902904081
3472.0,0.055486969377002204
3471.0,0.055747445343752644
3470.0,0.056005832956899544
3469.0,0.05627222340412173
3468.0,0.05654865371758118
3467.0,0.05682829650333155
3466.0,0.05710528594125422
3465.0,0.057379382079543746
3464.0,0.05765288958508175
3463.0,0.05792874721093633
3462.0,0.05820984787263303
3461.0,0.05849577064569944
3460.0,0.05878197875423552
3459.0,0.0590653896068547
3458.0,0.05934703241179954
3457.0,0.059625816261506086
3456.0,0.05989613977459686
3455.0,0.06015727005083617
3454.0,0.060418728802732115
3453.0,0.06068846785968231
3452.0,0.06096070005813824
3451.0,0.061224959566273926
3450.0,0.06148437000882297
3449.0,0.061755243541549196
3448.0,0.06204788036079553
3447.0,0.06235406505269511
3446.0,0.06265537976766063
3445.0,0.062940038523018
3444.0,0.06321007508848403
3443.0,0.06347640300736253
3442.0,0.0637481435561498
3441.0,0.06402388550086413
3440.0,0.06429441341542032
3439.0,0.0645546678122738
3438.0,0.0648089961826346
3437.0,0.06506395850198178
3436.0,0.06532202808041865
3435.0,0.06558403106236821
3434.0,0.06585047342861985
3433.0,0.06611658038815403
3432.0,0.06637323789027648
3431.0,0.06661831790053122
3430.0,0.06686116284759927
3429.0,0.06711042618732009
3428.0,0.0673628322193515
3427.0,0.06760901141887728
3426.0,0.06784427819372764
3425.0,0.06806833382299068
3424.0,0.06828155411112623
3423.0,0.06848856604509784
3422.0,0.06869964305786527
3421.0,0.06892062638534412
3420.0,0.06914468162027478
3419.0,0.069359788616609
3418.0,0.06956005759550679
3417.0,0.0697454310928301
3416.0,0.06991714942541158
3415.0,0.07008035194241931
3414.0,0.07024595657018588
3413.0,0.07042243902603337
3412.0,0.07060814524664387
3411.0,0.07079567418909644
3410.0,0.07097975361360868
3409.0,0.07115767650656936
3408.0,0.07132786210062422
3407.0,0.07149277129425655
3406.0,0.07165809650855286
3405.0,0.07182470887864303
3404.0,0.07198667413612538
3403.0,0.0721410545335365
3402.0,0.07229362956561734
3401.0,0.07245057065457323
3400.0,0.07261112935961671
3399.0,0.07277300697092262
3398.0,0.07293679318746683
3397.0,0.07309944460287411
3396.0,0.07325184186532507
3395.0,0.07339041495488469
3394.0,0.07352450137082564
3393.0,0.07366451430605617
3392.0,0.07380851625483298
3391.0,0.07394777087957516
3390.0,0.07407919930774683
3389.0,0.07420455520480268
3388.0,0.07432375289181234
3387.0,0.07443746859870552
3386.0,0.0745514281880972
3385.0,0.07466953075425248
3384.0,0.07478664751130368
3383.0,0.07489624718610575
3382.0,0.07500072810974064
3381.0,0.07510598973008044
3380.0,0.0752100300268733
3379.0,0.07530570435877963
3378.0,0.07539228147379384
3377.0,0.07547552311314948
3376.0,0.07555741652603232
3375.0,0.07563376102942698
3374.0,0.0757016961266157
3373.0,0.07576295580300835
3372.0,0.07581968638589666
3371.0,0.07587234439880161
3370.0,0.07592180723453128
3369.0,0.07596973773087969
3368.0,0.07601713276408716
3367.0,0.07606494858471163
3366.0,0.07611433795168221
3365.0,0.07616392757432879
3364.0,0.07620978372030514
3363.0,0.07625048466267824
3362.0,0.07628862218284399
3361.0,0.07632467214938897
3360.0,0.0763539397641892
3359.0,0.07637339529808314
3358.0,0.07638712525809215
3357.0,0.07640040610568195
3356.0,0.07641241043985139
3355.0,0.07641975975044864
3354.0,0.07642352549838752
3353.0,0.07642732953523329
3352.0,0.07643114447650198
3351.0,0.07643186116647596
3350.0,0.07642841426211201
3349.0,0.07642225701842255
3348.0,0.07641397425605899
3347.0,0.07640239651152314
3346.0,0.0763857882090634
3345.0,0.07636203841359086
3344.0,0.07632989243059381
3343.0,0.07629130414515355
3342.0,0.07624941834764097
3341.0,0.07620320183165832
3340.0,0.07614833202814499
3339.0,0.07608532095784987
3338.0,0.0760219842445405
3337.0,0.07596453124018386
3336.0,0.07590995021867258
3335.0,0.07585040090043428
3334.0,0.0757818156486762
3333.0,0.07570556980994782
3332.0,0.07562557866962104
3331.0,0.07554642870142808
3330.0,0.07547047868882091
3329.0,0.07539419542014895
3328.0,0.07531091481275161
3327.0,0.07521941979298236
3326.0,0.07512621869921371
3325.0,0.07503727054025763
3324.0,0.07495151178868704
3323.0,0.07486465330845204
3322.0,0.07477503235470245
3321.0,0.0746832833878397
3320.0,0.07459040568853442
3319.0,0.07449860829397684
3318.0,0.0744099819977402
3317.0,0.0743222168874245
3316.0,0.07422991875754456
3315.0,0.07413195749923
3314.0,0.07403279342846468
3313.0,0.0739348359311535
3312.0,0.07383501312822957
3311.0,0.07373163617679751
3310.0,0.07362892338258811
3309.0,0.07353059680582084
3308.0,0.07343390839388889
3307.0,0.0733347075430997
3306.0,0.07323462353940832
3305.0,0.07313858169141502
3304.0,0.07304794610365979
3303.0,0.07295982170229273
3302.0,0.07287070988042965
3301.0,0.07277798662673872
3300.0,0.07268055663507163
3299.0,0.07258066671736152
3298.0,0.07248216783995945
3297.0,0.07238484626923393
3296.0,0.0722840897297356
3295.0,0.07217855920684826
3294.0,0.07207404389566896
3293.0,0.07197614139078293
3292.0,0.07188237270842343
3291.0,0.07178560352596973
3290.0,0.07168322665797858
3289.0,0.07157931041763282
3288.0,0.07147876974513534
3287.0,0.07138204920431951
3286.0,0.07128478412484077
3285.0,0.07118132553298318
3284.0,0.07106988979979721
3283.0,0.07095521158489548
3282.0,0.07084466996358395
3281.0,0.07074148006449164
3280.0,0.07064353780492566
3279.0,0.0705482862394358
3278.0,0.07045506471731422
3277.0,0.07036218246785102
3276.0,0.07026574453883826
3275.0,0.07016331543547796
3274.0,0.0700561818333109
3273.0,0.0699469049308294
3272.0,0.06983725286811716
3271.0,0.06972919893335565
3270.0,0.06962496148910105
3269.0,0.06952497403743797
3268.0,0.06942774419562889
3267.0,0.06933130862827463
3266.0,0.06923218770583289
3265.0,0.06912442925733012
3264.0,0.06900457895320569
3263.0,0.06887791204775105
3262.0,0.06875524735701655
3261.0,0.06864257620144781
3260.0,0.06853728613763453
3259.0,0.06843457294640809
3258.0,0.06833285242136518
3257.0,0.06823180353701325
3256.0,0.0681298186698091
3255.0,0.06802560316514478
3254.0,0.06791923993668612
3253.0,0.06781052953174907
3252.0,0.06769921269584886
3251.0,0.06758688311450657
3250.0,0.06747466987609067
3249.0,0.06735870683291978
3248.0,0.06723260385269822
3247.0,0.06709593177245832
3246.0,0.06695621073368031
3245.0,0.06682075742219301
3244.0,0.06669012832038063
3243.0,0.06656110807057003
3242.0,0.06643202875725128
3241.0,0.06630253289468793
3240.0,0.06617104156430727
3239.0,0.06603491795394358
3238.0,0.06589160061904636
3237.0,0.06573892606327933
3236.0,0.06557677509949636
3235.0,0.06540885057763955
3234.0,0.06523997440611
3233.0,0.0650711167589186
3232.0,0.06490000762103382
3231.0,0.06472691988292721
3230.0,0.06455630526437532
3229.0,0.06439153471544323
3228.0,0.06423065605854036
3227.0,0.06406804258339087
3226.0,0.06389779991349613
3225.0,0.06371578878714569
3224.0,0.06352205942288366
3223.0,0.06332250531832515
3222.0,0.06312531333567614
3221.0,0.06293430629562373
3220.0,0.06274689393919554
3219.0,0.06255805225103617
3218.0,0.062364183802017706
3217.0,0.0621639923038943
3216.0,0.061958884698867095
3215.0,0.06175274206016211
3214.0,0.06154880124401986
3213.0,0.061346908018842614
3212.0,0.06114564581824164
3211.0,0.06094519837518193
3210.0,0.06074488966574324
3209.0,0.06054024179334463
3208.0,0.06032737649552295
3207.0,0.06010929236613447
3206.0,0.05989282185148079
3205.0,0.05967983379604301
3204.0,0.0594663115455763
3203.0,0.0592496169296884
3202.0,0.05903098074212628
3201.0,0.058810531608535895
3200.0,0.05858596243187911
3199.0,0.058357742119354745
3198.0,0.05813026490385298
3197.0,0.057905465234201106
3196.0,0.057679781903021185
3195.0,0.05744965024522634
3194.0,0.057215757853120344
3193.0,0.05697974705282501
3192.0,0.05674095157242738
3191.0,0.05649929521105517
3190.0,0.05625823714148339
3189.0,0.05602161482017345
3188.0,0.055789216316761495
3187.0,0.055557509859806044
3186.0,0.05532295978296565
3185.0,0.05508314717272074
3184.0,0.054836920826194915
3183.0,0.05458548146111684
3182.0,0.05433190591903985
3181.0,0.05407841855999131
3180.0,0.053825413984537114
3179.0,0.05357317552018911
3178.0,0.05332227855006162
3177.0,0.05307212145368406
3176.0,0.05282168108012761
3175.0,0.05257216296513739
3174.0,0.05232612341634725
3173.0,0.0520831950545184
3172.0,0.051839400358551495
3171.0,0.05159166825206868
3170.0,0.05134049875957825
3169.0,0.05108749099190318
3168.0,0.05083320848368889
3167.0,0.05057853808352979
3166.0,0.05032513772448964
3165.0,0.05007316417670853
3164.0,0.04982104744654058
3163.0,0.049568569152005054
3162.0,0.049317573541653996
3161.0,0.04906834718479765
3160.0,0.048818121838021346
3159.0,0.048565089877911596
3158.0,0.04831153575135911
3157.0,0.04806106125791293
3156.0,0.04781464561682914
3155.0,0.04757095496430972
3154.0,0.04732842392670711
3153.0,0.04708554671779416
3152.0,0.04684122976887353
3151.0,0.046596602780391794
3150.0,0.046354868997765954
3149.0,0.0461177138914669
3148.0,0.04588341419041744
3147.0,0.045649967378936514
3146.0,0.04541815890753985
3145.0,0.0451897805728287
3144.0,0.04496452510781954
3143.0,0.04474050227073583
3142.0,0.044516560604744765
3141.0,0.04429238743662064
3140.0,0.04406729713314939
3139.0,0.04384068951584574
3138.0,0.0436133586721888
3137.0,0.04338725578510756
3136.0,0.043164598464226114
3135.0,0.04294771045622518
3134.0,0.04273812828284575
3133.0,0.042534511101773156
3132.0,0.042332474968052015
3131.0,0.042127952460097866
3130.0,0.04192022842027341
3129.0,0.04171093960086515
3128.0,0.04150120716765459
3127.0,0.04129074462055422
3126.0,0.04107873266272285
3125.0,0.04086450171199822
3124.0,0.04064796968019213
3123.0,0.040430076485205454
3122.0,0.04021224958364257
3121.0,0.03999539552741909
3120.0,0.03978061651115757
3119.0,0.0395708604556228
3118.0,0.03936997966863286
3117.0,0.03917942565797298
3116.0,0.03899715383862247
3115.0,0.0388203124812942
3114.0,0.03864761945929478
3113.0,0.03847870145745371
3112.0,0.038313295486712896
3111.0,0.03815201572722252
3110.0,0.03799575365100053
3109.0,0.03784300828308698
3108.0,0.037689376665767986
3107.0,0.03753112911443127
3106.0,0.037367791586902156
3105.0,0.037199972070930745
3104.0,0.037026562521759794
3103.0,0.03684544422158414
3102.0,0.03665525593264885
3101.0,0.03645508459821083
3100.0,0.036244117055331544
3099.0,0.03602396081286046
3098.0,0.035800446038769175
3097.0,0.03558117052859024
3096.0,0.035371352146817366
3095.0,0.03517222484273702
3094.0,0.0349824929847299
3093.0,0.034800587712094336
3092.0,0.0346267848994731
3091.0,0.03446413202432691
3090.0,0.034315409763746474
3089.0,0.0341777445555991
3088.0,0.034042020783842705
3087.0,0.03390023352319344
3086.0,0.033752840108284686
3085.0,0.03360641563838173
3084.0,0.03346485839945618
3083.0,0.03332471888783438
3082.0,0.03317850448916584
3081.0,0.03302080825241285
3080.0,0.03285147143649581
3079.0,0.032675230278559515
3078.0,0.03249890729660692
3077.0,0.032327230102948655
3076.0,0.03216022683777476
3075.0,0.031994745646099665
3074.0,0.03182826279181189
3073.0,0.031660747671196136
3072.0,0.03149361905382319
3071.0,0.03132780184777322
3070.0,0.03116230591216239
3069.0,0.030993971946772843
3068.0,0.0308194012687915
3067.0,0.030638204655106666
3066.0,0.030453786984610466
3065.0,0.0302698527014073
3064.0,0.030086813446467263
3063.0,0.029903171586959328
3062.0,0.02971976489398378
3061.0,0.029541050823038068
3060.0,0.029372341843297456
3059.0,0.029216460267341905
3058.0,0.029072254442195446
3057.0,0.028934489837008723
3056.0,0.028794811419124447
3055.0,0.028644244524483
3054.0,0.028475985967198383
3053.0,0.02828652590212098
3052.0,0.028075643672923624
3051.0,0.027846350869857425
3050.0,0.027603796057045746
3049.0,0.027352861521216718
3048.0,0.027097165883648668
3047.0,0.026841089291814658
3046.0,0.02659126028839251
3045.0,0.026354016504082468
3044.0,0.026131135979098014
3043.0,0.025919868423578324
3042.0,0.025717422306158522
3041.0,0.025523658568887112
3040.0,0.025339091476528006
3039.0,0.025161796134888934
3038.0,0.024987946529692984
3037.0,0.024815056314254368
3036.0,0.02464396296931724
3035.0,0.024477880486099092
3034.0,0.02431978877533723
3033.0,0.02417060578419521
3032.0,0.024029353429280573
3031.0,0.023894489192549478
3030.0,0.0237644785992442
3029.0,0.023637055054909845
3028.0,0.023509071253653605
3027.0,0.02337831241968605
3026.0,0.023245740874709854
3025.0,0.023115526056427756
3024.0,0.022992471629028816
3023.0,0.022878723992039163
3022.0,0.02277197079097797
3021.0,0.022666969862611918
3020.0,0.022560303482629773
3019.0,0.022454062420199518
3018.0,0.022354015837228187
3017.0,0.02226350429530315
3016.0,0.022180431790826932
3015.0,0.022100653266291747
3014.0,0.022022339671069167
3013.0,0.02194623791628064
3012.0,0.02187321586064299
3011.0,0.021803172516635955
3010.0,0.021735033920268727
3009.0,0.021666500599325456
3008.0,0.02159522156903735
3007.0,0.02152151348994963
3006.0,0.02144867440772879
3005.0,0.02137919506231058
3004.0,0.021311895843579995
3003.0,0.02124434575302242
3002.0,0.021176230284730906
3001.0,0.021108567994741118
3000.0,0.02104139830819733
2999.0,0.020975141372218602
2998.0,0.02091304354600433
2997.0,0.020859079575702193
2996.0,0.020813489761621937
2995.0,0.020773008077005436
2994.0,0.02073537999082517
2993.0,0.02070128815859537
2992.0,0.020671771158453655
2991.0,0.020646757682647527
2990.0,0.020627041480641362
2989.0,0.020615247511762427
2988.0,0.02061322290799169
2987.0,0.02061983634786723
2986.0,0.02063248469202827
2985.0,0.020649858284108136
2984.0,0.020672098110055284
2983.0,0.0206991134435689
2982.0,0.020730072507287395
2981.0,0.020764980871694805
2980.0,0.02080636462622878
2979.0,0.0208582739710131
2978.0,0.020922215267919375
2977.0,0.020994308962182906
2976.0,0.02106819538018374
2975.0,0.021141789950373066
2974.0,0.02121945437734404
2973.0,0.021306352721718397
2972.0,0.021402199667056972
2971.0,0.021502163958325635
2970.0,0.021602303524268642
2969.0,0.021701429923379627
2968.0,0.02179864000819647
2967.0,0.021891765817005516
2966.0,0.021978391359868475
2965.0,0.02205563867504677
2964.0,0.022118248715337782
2963.0,0.022158854813206775
2962.0,0.02217136823824439
2961.0,0.022154124531646422
2960.0,0.02210936762013401
2959.0,0.022040040928243014
2958.0,0.021946521390609177
2957.0,0.021826299211849906
2956.0,0.021677421589242536
2955.0,0.021502496767721896
2954.0,0.021308043318544367
2953.0,0.021098856030254687
2952.0,0.02087470294079275
2951.0,0.020633867015595008
2950.0,0.020378137491681717
2949.0,0.02011243933448851
2948.0,0.019841248365924772
2947.0,0.019568278267577986
2946.0,0.019298591662951243
2945.0,0.019037827163567785
2944.0,0.018789002537900286
2943.0,0.0185522239074741
2942.0,0.01832768709804193
2941.0,0.018116856870284085
2940.0,0.01792081725455482
2939.0,0.01773974586495846
2938.0,0.01757391544179622
2937.0,0.0174230314355625
2936.0,0.01728495013080982
2935.0,0.01715735698404642
2934.0,0.017040023700568518
2933.0,0.01693314327466406
2932.0,0.01683400050999213
2931.0,0.016738565183956732
2930.0,0.016646053771197707
2929.0,0.01655840530658675
2928.0,0.016475013807009335
2927.0,0.01639123139141259
2926.0,0.016303223245048792
2925.0,0.01621171571559099
2924.0,0.01612023239127003
2923.0,0.016031354904693557
2922.0,0.01594435840623244
2921.0,0.015854135114008957
2920.0,0.01575316267674086
2919.0,0.01563740376000072
2918.0,0.015510458897469527
2917.0,0.015379236914813504
2916.0,0.015246905744164395
2915.0,0.015112843807078391
2914.0,0.014978424820036342
2913.0,0.014848807313386673
2912.0,0.01472879469294355
2911.0,0.014620123425433177
2910.0,0.014522433501242629
2909.0,0.014433669592647098
2908.0,0.014349256226589502
2907.0,0.014264126755574045
2906.0,0.014176617235176964
2905.0,0.0140883562559178
2904.0,0.014000795797690091
2903.0,0.01391482442002043
2902.0,0.013833543416312405
2901.0,0.013761073965315524
2900.0,0.01369740402288124
2899.0,0.013637435101733542
2898.0,0.013576802577018513
2897.0,0.013516152119601993
2896.0,0.013458756456857394
2895.0,0.013406507657525464
2894.0,0.013359437312101966
2893.0,0.013316448865071603
2892.0,0.013274400323491467
2891.0,0.013228259310549212
2890.0,0.013173916731838861
2889.0,0.013110011158551557
2888.0,0.013036906037552016
2887.0,0.012956027987986582
2886.0,0.012870904246065967
2885.0,0.012785907197743002
2884.0,0.012702037310880482
2883.0,0.01261548018949981
2882.0,0.012522542554936953
2881.0,0.012424934012633053
2880.0,0.012328726705286638
2879.0,0.012238951156951469
2878.0,0.012156088843368532
2877.0,0.012077605192395322
2876.0,0.01200140323618558
2875.0,0.01192769097552402
2874.0,0.011857385275014856
2873.0,0.011788763544506288
2872.0,0.011716978393592198
2871.0,0.01163797301925038
2870.0,0.011552577193545388
2869.0,0.011465344196568975
2868.0,0.01138021363279941
2867.0,0.011299127903132932
2866.0,0.01122367778918868
2865.0,0.011155184145126512
2864.0,0.011093045632907687
2863.0,0.011035714055190216
2862.0,0.01098375986590313
2861.0,0.01093963716332792
2860.0,0.01090405544799641
2859.0,0.01087490762952943
2858.0,0.010849722800502752
2857.0,0.010826155517306367
2856.0,0.010799930746522201
2855.0,0.010765758010975615
2854.0,0.010721262013297686
2853.0,0.010666996453480742
2852.0,0.010601185414074031
2851.0,0.010516952927803106
2850.0,0.010407143572407995
2849.0,0.010270987736299312
2848.0,0.010114994211760518
2847.0,0.009949518752599085
2846.0,0.009785049533526548
2845.0,0.009629567143608936
2844.0,0.009486498001674748
2843.0,0.009355117708482602
2842.0,0.00923364725269693
2841.0,0.009121415260334909
2840.0,0.009018321238058534
2839.0,0.008923671516267143
2838.0,0.008836149313411515
2837.0,0.00875403542652501
2836.0,0.008675237454990027
2835.0,0.008598306587469047
2834.0,0.008523647869914365
2833.0,0.008452788394592113
2832.0,0.008386454478762384
2831.0,0.00832421680207069
2830.0,0.008265504213879555
2829.0,0.008209486951177737
2828.0,0.00815443918145837
2827.0,0.008098875961367116
2826.0,0.008043278435029907
2825.0,0.007989245065949965
2824.0,0.007937132205068982
2823.0,0.007886147449200647
2822.0,0.007836415179659268
2821.0,0.007789163874222011
2820.0,0.007744848635134272
2819.0,0.00770236680361918
2818.0,0.007659803688542782
2817.0,0.007614940903629222
2816.0,0.007566194649052171
2815.0,0.007515062447478623
2814.0,0.007466768363431924
2813.0,0.007425832737237693
2812.0,0.007391328465449995
2811.0,0.007358494699581556
2810.0,0.0073241697939542775
2809.0,0.007288482256337204
2808.0,0.007252013995409671
2807.0,0.007214457493213216
2806.0,0.007176169719880136
2805.0,0.007137941803215753
2804.0,0.007098649069535097
2803.0,0.007055846980333815
2802.0,0.007009454809921413
2801.0,0.006962731618885205
2800.0,0.006918944325512891
2799.0,0.006878759570343916
2798.0,0.006841434207222883
2797.0,0.0068063882915868484
2796.0,0.006772722998937214
2795.0,0.006738895792500643
2794.0,0.006703621237627518
2793.0,0.006666320196910644
2792.0,0.006626952590463702
2791.0,0.0065867169383277925
2790.0,0.006548355439694949
2789.0,0.006513728965591682
2788.0,0.006481468236449053
2787.0,0.006448857335622413
2786.0,0.006415349904790535
2785.0,0.006382245661888364
2784.0,0.006349615133051962
2783.0,0.006316242085402623
2782.0,0.006282380022453137
2781.0,0.006249676492777361
2780.0,0.006218206681035158
2779.0,0.006186293744575948
2778.0,0.006153641708599075
2777.0,0.006122083947400961
2776.0,0.006092610763467906
2775.0,0.006063983823141952
2774.0,0.006035039776112511
2773.0,0.006006236749030125
2772.0,0.00597818502147895
2771.0,0.005950588189881263
2770.0,0.005923335491718661
2769.0,0.0058969466905232784
2768.0,0.005871364391909197
2767.0,0.005845823800327683
2766.0,0.0058203105640374855
2765.0,0.005795744205158151
2764.0,0.005772620165257834
2763.0,0.005750849152560049
2762.0,0.005730546608995011
2761.0,0.005711118400396589
2760.0,0.00569003823240174
2759.0,0.005665044575554906
2758.0,0.005637580310406128
2757.0,0.005611628646106782
2756.0,0.0055885980355622035
2755.0,0.005565416508711847
2754.0,0.005538488353943755
2753.0,0.00550799030357013
2752.0,0.005477529217096613
2751.0,0.005450673029545676
2750.0,0.0054280899490070506
2749.0,0.0054068397268854755
2748.0,0.005382522788715222
2747.0,0.005353329814261535
2746.0,0.0053220916660289596
2745.0,0.005293434297069273
2744.0,0.005269329597588658
2743.0,0.005248497468062551
2742.0,0.005228944834209026
2741.0,0.0052090597753113276
2740.0,0.00518699719828446
2739.0,0.005161468151592193
2738.0,0.005133295968207879
2737.0,0.005104650504628217
2736.0,0.005077001984871531
2735.0,0.005050947286302028
2734.0,0.005027097781188368
2733.0,0.005005370117759401
2732.0,0.004984123631496152
2731.0,0.004961712334569862
2730.0,0.004938137216785973
2729.0,0.004913786804451097
2728.0,0.004887947084254641
2727.0,0.004860523011244828
2726.0,0.004833679382750339
2725.0,0.004809310998810991
2724.0,0.00478628662486958
2723.0,0.004762759037592727
2722.0,0.0047398385392675435
2721.0,0.004719926082057586
2720.0,0.0047023695174470284
2719.0,0.004684028022924979
2718.0,0.004663450842904945
2717.0,0.0046416017236864116
2716.0,0.0046191204790236706
2715.0,0.0045958892546673746
2714.0,0.004572821866355254
2713.0,0.00455113391726671
2712.0,0.004530242802442352
2711.0,0.0045091272875882075
2710.0,0.004489115471256065
2709.0,0.004472235009673919
2708.0,0.0044574650481967164
2707.0,0.004441779029409463
2706.0,0.0044242860390616345
2705.0,0.004406287812411116
2704.0,0.004387981529001794
2703.0,0.0043687265300787915
2702.0,0.004350079005192639
2701.0,0.004334495039782022
2700.0,0.004320934654788197
2699.0,0.004305560180607676
2698.0,0.0042873410404600685
2697.0,0.004269507885008325
2696.0,0.004254651766064158
2695.0,0.004241702314820406
2694.0,0.004228619208121572
2693.0,0.004214994792292752
2692.0,0.004200965444418048
2691.0,0.004186053617391061
2690.0,0.0041701519364126145
2689.0,0.004153791306646052
2688.0,0.004137175255426791
2687.0,0.0041209160507255675
2686.0,0.004107375300961899
2685.0,0.004098477610383636
2684.0,0.004092118798355171
2683.0,0.004083484177761283
2682.0,0.0040703634932203
2681.0,0.00405493394690218
2680.0,0.004040275728396688
2679.0,0.004027603784125413
2678.0,0.004016744652873294
2677.0,0.004006622299519402
2676.0,0.003995097264697501
2675.0,0.0039808146857617886
2674.0,0.003965447813439157
2673.0,0.003951946400160925
2672.0,0.003940875773262518
2671.0,0.003930729999791695
2670.0,0.003921142721294066
2669.0,0.003913037740437215
2668.0,0.003906292526926955
2667.0,0.003900593904656519
2666.0,0.0038982431764965266
2665.0,0.0039025920667719602
2664.0,0.0039135101619327956
2663.0,0.003927627042796211
2662.0,0.003943083623313966
2661.0,0.0039607073356847464
2660.0,0.003980049618604337
2659.0,0.003997506317480009
2658.0,0.004009364532254432
2657.0,0.00401429622608615
2656.0,0.00401291181606039
2655.0,0.004007789704554326
2654.0,0.004003904432121001
2653.0,0.004005479360055799
2652.0,0.004011475948523148
2651.0,0.004017114974397048
2650.0,0.004020112618349639
2649.0,0.004022313027970002
2648.0,0.004025051608025895
2647.0,0.004026747340321265
2646.0,0.0040261198350289035
2645.0,0.004024344361835224
2644.0,0.004022794677302331
2643.0,0.004021636798729702
2642.0,0.0040216880690237475
2641.0,0.0040245804502504375
2640.0,0.004029964406244646
2639.0,0.004035313415857145
2638.0,0.004039528346210723
2637.0,0.004044089520080725
2636.0,0.004050018874441858
2635.0,0.004056614211992071
2634.0,0.004063803471986626
2633.0,0.004072525312249761
2632.0,0.004081626161398918
2631.0,0.004087290412787514
2630.0,0.004086975665883658
2629.0,0.004081961653773189
2628.0,0.004075398432557219
2627.0,0.00406970562808826
2626.0,0.0040657460704463435
2625.0,0.0040622026965891345
2624.0,0.0040562326793498575
2623.0,0.004047351726976342
2622.0,0.004039618235005487
2621.0,0.004036738734778403
2620.0,0.004036092100473358
2619.0,0.004031886909684167
2618.0,0.004023430981817852
2617.0,0.004015487029929881
2616.0,0.004010741744114632
2615.0,0.0040069421914157785
2614.0,0.004001937057666636
2613.0,0.0039963802561559444
2612.0,0.003990451466951892
2611.0,0.003982743977998991
2610.0,0.003973852390894395
2609.0,0.00396679713278976
2608.0,0.0039624007546955374
2607.0,0.003958152981556568
2606.0,0.003952736708578905
2605.0,0.003947755138592959
2604.0,0.003944043501805247
2603.0,0.003940285997195565
2602.0,0.003936331026281395
2601.0,0.003933845561262255
2600.0,0.003932537987709128
2599.0,0.00392974926536574
2598.0,0.003924953827555173
2597.0,0.003920939217749081
2596.0,0.003919410259525921
2595.0,0.003918956113128564
2594.0,0.003918374915533705
2593.0,0.00391843327481729
2592.0,0.003919504004226748
2591.0,0.003920799843157942
2590.0,0.003922499305113411
2589.0,0.00392549946515237
2588.0,0.0039290479822575355
2587.0,0.003932017405568113
2586.0,0.003935890807973456
2585.0,0.003942371471800007
2584.0,0.003948675005957432
2583.0,0.003949876512219338
2582.0,0.003945896094035306
2581.0,0.0039415677492247525
2580.0,0.003939777581140066
2579.0,0.003939182971808432
2578.0,0.0039382915923184625
2577.0,0.003936681554747372
2576.0,0.003932512011781828
2575.0,0.003924422668364319
2574.0,0.003916275831101497
2573.0,0.003914401580783043
2572.0,0.003919155140520302
2571.0,0.0039243905235275735
2570.0,0.003926072187546374
2569.0,0.003926057083426045
2568.0,0.003926563716306616
2567.0,0.003926404104537411
2566.0,0.003924219954953129
2565.0,0.003920755741680021
2564.0,0.0039164357169310425
2563.0,0.003910849249978253
2562.0,0.003905419816439178
2561.0,0.003902153804607804
2560.0,0.0038993094504622475
2559.0,0.0038931813883709733
2558.0,0.0038848504722753677
2557.0,0.0038802124834123944
2556.0,0.00388229449887477
2555.0,0.003888044465334685
2554.0,0.003893508171885476
2553.0,0.0038973834416737045
2552.0,0.0038984721494737798
2551.0,0.0038946833962063346
2550.0,0.003886404838619975
2549.0,0.0038771922854990903
2548.0,0.003870004952869619
2547.0,0.003865815235392483
2546.0,0.0038657036797564463
2545.0,0.003870152780551258
2544.0,0.0038761750368418394
2543.0,0.0038793081966892115
2542.0,0.003878691129350697
2541.0,0.0038766568207037203
2540.0,0.003874222169518016
2539.0,0.0038714030625328815
2538.0,0.0038707721063696377
2537.0,0.003875238231134148
2536.0,0.0038826693436674617
2535.0,0.0038878808811389116
2534.0,0.003889720942131936
2533.0,0.003891193431294053
2532.0,0.003893208094919961
2531.0,0.0038939776917986347
2530.0,0.003894402226217981
2529.0,0.003897930595523371
2528.0,0.0039042379508511882
2527.0,0.003908291938203228
2526.0,0.003906886731095152
2525.0,0.0039020147427186232
2524.0,0.0038974393675111074
2523.0,0.003895742994415324
2522.0,0.0038980272832798007
2521.0,0.0039021172030612216
2520.0,0.0039021191545769336
2519.0,0.0038946070608236434
2518.0,0.003884108065559622
2517.0,0.003877483797501337
2516.0,0.003874537702629576
2515.0,0.0038700132114720363
2514.0,0.0038630863954473614
2513.0,0.003857901619594548
2512.0,0.00385568319772668
2511.0,0.00385346794120155
2510.0,0.0038503235964222346
2509.0,0.003847690208190914
2508.0,0.0038433406088736136
2507.0,0.0038322942398199087
2506.0,0.0038150770013677705
2505.0,0.0037987868855054096
2504.0,0.0037885273241959495
2503.0,0.0037832229518032353
2502.0,0.003780490967014067
2501.0,0.00377960389066425
2500.0,0.003778485946441576
2499.0,0.003773373455819823
2498.0,0.0037630495850058043
2497.0,0.0037494220949374144
2496.0,0.003733929383162078
2495.0,0.0037178338674223503
2494.0,0.0037052369050404686
2493.0,0.0037000116895108646
2492.0,0.003699527777302378
2491.0,0.003696535345508587
2490.0,0.003687264295054884
2489.0,0.003673314906443817
2488.0,0.003657214929470477
2487.0,0.0036417202347583458
2486.0,0.0036315915297754154
2485.0,0.00362907898240531
2484.0,0.0036285837935241894
2483.0,0.0036226920029644276
2482.0,0.0036126530607881752
2481.0,0.003605819361634283
2480.0,0.003603595032137478
2479.0,0.0035998601786167792
2478.0,0.003591334494380591
2477.0,0.003581275974457754
2476.0,0.0035718968625343727
2475.0,0.0035612030096073876
2474.0,0.00354949114831593
2473.0,0.003541813601946684
2472.0,0.0035412585305541894
2471.0,0.0035452367242850757
2470.0,0.003549958854377277
2469.0,0.0035533451387079057
2468.0,0.0035530114169010077
2467.0,0.003547524655589651
2466.0,0.0035406430478796503
2465.0,0.0035383896744724157
2464.0,0.0035409092584560257
2463.0,0.0035429134610614026
2462.0,0.0035428285142760944
2461.0,0.0035453940770734443
2460.0,0.0035541992129532393
2459.0,0.0035674821840943494
2458.0,0.0035821668846530725
2457.0,0.0035961833348380594
2456.0,0.003606085181946557
2455.0,0.003608637118069342
2454.0,0.003606279081738927
2453.0,0.003605625649658591
2452.0,0.0036092864572608756
2451.0,0.0036139628933814063
2450.0,0.003616760445644224
2449.0,0.003617700761433803
2448.0,0.003615917375079788
2447.0,0.003609915898553419
2446.0,0.003602599065924826
2445.0,0.0035997796888821987
2444.0,0.003602251388066145
2443.0,0.0036048589412041813
2442.0,0.0036046072429392444
2441.0,0.0036044030943610823
2440.0,0.003607668298967277
2439.0,0.0036141256864740123
2438.0,0.0036217174112016014
2437.0,0.0036282823029793482
2436.0,0.0036313607398326207
2435.0,0.0036308135401908297
2434.0,0.00363093937044143
2433.0,0.00363536295123474
2432.0,0.0036413766105526553
2431.0,0.0036446882494285474
2430.0,0.003647337856724076
2429.0,0.003653947762120453
2428.0,0.00366237511405518
2427.0,0.0036666360609301655
2426.0,0.0036681935477288026
2425.0,0.0036751621695621257
2424.0,0.003689414684571085
2423.0,0.0037029457723286325
2422.0,0.00370885367374771
2421.0,0.0037085347532155727
2420.0,0.0037065595591924223
2419.0,0.0037058552224676277
2418.0,0.0037096495845780134
2417.0,0.003720858825607785
2416.0,0.003737051501410892
2415.0,0.0037520023188098673
2414.0,0.003764091895077146
2413.0,0.003777540213166835
2412.0,0.003794046437934526
2411.0,0.0038091404666085694
2410.0,0.0038182695725035255
2409.0,0.0038207971869882503
2408.0,0.0038168053629472846
2407.0,0.0038062148420859006
2406.0,0.0037929575264104226
2405.0,0.0037840837136084056
2404.0,0.0037825474817230007
2403.0,0.0037855946409392875
2402.0,0.0037910494937427996
2401.0,0.003799790973289343
2400.0,0.003811100501909156
2399.0,0.0038213363876083957
2398.0,0.0038289809013299907
2397.0,0.0038360351067931375
2396.0,0.0038429387838488215
2395.0,0.0038470585115391916
2394.0,0.003847724805101413
2393.0,0.003847913223786194
2392.0,0.003849304997557916
2391.0,0.003849839582134305
2390.0,0.0038474071560269576
2389.0,0.0038422689879790478
2388.0,0.0038349157708571684
2387.0,0.003824968869444354
2386.0,0.0038125601537821454
2385.0,0.0037973189136111104
2384.0,0.0037763069783200128
2383.0,0.003747005915392971
2382.0,0.0037121225219285932
2381.0,0.003677301996874235
2380.0,0.003644320997197724
2379.0,0.0036114336147630675
2378.0,0.003580404963048925
2377.0,0.0035566643599012453
2376.0,0.003541460903836755
2375.0,0.003530931236910867
2374.0,0.003524303918115355
2373.0,0.003524818437570484
2372.0,0.0035298125925232937
2371.0,0.003528989271949416
2370.0,0.0035163988081760795
2369.0,0.00349515917941775
2368.0,0.0034685792256410894
2367.0,0.0034385455009623552
2366.0,0.003414509254993585
2365.0,0.0034092670743063186
2364.0,0.003421137985644816
2363.0,0.0034344364337810882
2362.0,0.003440446844425539
2361.0,0.0034430264460594013
2360.0,0.0034438602702772988
2359.0,0.003438888588220802
2358.0,0.0034313574639403144
2357.0,0.003430265716620303
2356.0,0.00343428404580242
2355.0,0.003433614883236148
2354.0,0.003427707321154187
2353.0,0.0034264193570127813
2352.0,0.0034317832700956194
2351.0,0.0034351976708421883
2350.0,0.0034324700469282876
2349.0,0.0034271544084519823
2348.0,0.0034219204410495764
2347.0,0.003416880806461872
2346.0,0.0034177207302615283
2345.0,0.003432760444648163
2344.0,0.003458851607250099
2343.0,0.003484067270303046
2342.0,0.00350431993636126
2341.0,0.003524678988877538
2340.0,0.003545451370648456
2339.0,0.003560537143697858
2338.0,0.0035678866442482877
2337.0,0.0035710147327885702
2336.0,0.003570019239952746
2335.0,0.0035618288321474442
2334.0,0.0035494118954331865
2333.0,0.003541830681275268
2332.0,0.0035423511149202617
2331.0,0.003546116146423037
2330.0,0.003553877876758183
2329.0,0.0035809147319503815
2328.0,0.003647624036473598
2327.0,0.0037615444970178725
2326.0,0.003905941039857616
2325.0,0.004040188369446862
2324.0,0.0041177310686470745
2323.0,0.004118925133123323
2322.0,0.0040688550273166165
2321.0,0.004012689693614768
2320.0,0.0039754753152651265
2319.0,0.003955579589846517
2318.0,0.003945509466710987
2317.0,0.003941565360346541
2316.0,0.0039373510012172
2315.0,0.00392579248383495
2314.0,0.003909801284151757
2313.0,0.0038997194318472553
2312.0,0.0038991847810591427
2311.0,0.0039033031161574937
2310.0,0.003910652538286947
2309.0,0.003925119344400443
2308.0,0.003945623087819554
2307.0,0.003965114216234239
2306.0,0.003981355938605024
2305.0,0.0039991801428479155
2304.0,0.004020843307395047
2303.0,0.004043298969409952
2302.0,0.004065548874093251
2301.0,0.004090406798384209
2300.0,0.004118182495716191
2299.0,0.004147273988764066
2298.0,0.004180669774743677
2297.0,0.004222163084213429
2296.0,0.004266562835224865
2295.0,0.004304377578461444
2294.0,0.0043374780814205306
2293.0,0.004378186344744485
2292.0,0.004430679008516692
2291.0,0.0044841929911879335
2290.0,0.004528762804713355
2289.0,0.004566863803486087
2288.0,0.004604104888569767
2287.0,0.004637411415178153
2286.0,0.004658911931239113
2285.0,0.004664978779252482
2284.0,0.00465667335170705
2283.0,0.004637272438326911
2282.0,0.004613171731335819
2281.0,0.004591229746062686
2280.0,0.004571827881472414
2279.0,0.0045502220476547435
2278.0,0.0045253547525375935
2277.0,0.004500567632390972
2276.0,0.004475993007099726
2275.0,0.004449721145008306
2274.0,0.004426261391484374
2273.0,0.004413062088370417
2272.0,0.004408375021809012
2271.0,0.004403272733218349
2270.0,0.004395220307132831
2269.0,0.004387284673749005
2268.0,0.004375870954470131
2267.0,0.004355192910921482
2266.0,0.0043341003384982126
2265.0,0.0043307091437192234
2264.0,0.0043464660493968054
2263.0,0.004362786933059176
2262.0,0.004368426403134293
2261.0,0.00437381053990433
2260.0,0.004391245148629847
2259.0,0.004415165779908564
2258.0,0.0044295363238566286
2257.0,0.004423094198154828
2256.0,0.00439268169562734
2255.0,0.004344360081954475
2254.0,0.004296910958431258
2253.0,0.004271527379686536
2252.0,0.004271679356355935
2251.0,0.0042828142371599
2250.0,0.00429351717134456
2249.0,0.004303801669363787
2248.0,0.004311653236342563
2247.0,0.00430862096051408
2246.0,0.004294667410105217
2245.0,0.004283465415301168
2244.0,0.00428565603627782
2243.0,0.004297728027069862
2242.0,0.004310980126104988
2241.0,0.004319476242606573
2240.0,0.004317816217097433
2239.0,0.0043050197204580285
2238.0,0.004293225934307751
2237.0,0.00429786763154783
2236.0,0.004316028232204001
2235.0,0.004328717130845817
2234.0,0.00432654035097043
2233.0,0.004317533258417905
2232.0,0.004308253056120711
2231.0,0.00429561667209126
2230.0,0.004281247607703869
2229.0,0.004275369306266891
2228.0,0.004279959789976646
2227.0,0.004283966831987352
2226.0,0.004280942512672772
2225.0,0.004276704215662369
2224.0,0.004275523737374622
2223.0,0.004273916688143397
2222.0,0.0042713327137570084
2221.0,0.0042718474859148245
2220.0,0.004272730631664459
2219.0,0.004266594182283379
2218.0,0.004255960113554764
2217.0,0.004249397553849106
2216.0,0.0042442409281050735
2215.0,0.004232017437985731
2214.0,0.0042195867530299205
2213.0,0.004222976136750652
2212.0,0.004239655271515273
2211.0,0.004250109123272099
2210.0,0.0042488289629888905
2209.0,0.0042497656701449196
2208.0,0.004257478322099551
2207.0,0.0042569927426831305
2206.0,0.004238715125712247
2205.0,0.004211592045349358
2204.0,0.004186133895336965
2203.0,0.004165031962123327
2202.0,0.00415394472083555
2201.0,0.0041594520710235856
2200.0,0.004172166741046179
2199.0,0.00417436410774075
2198.0,0.004167651454902204
2197.0,0.004170594890340313
2196.0,0.004187324310778565
2195.0,0.004203126866650559
2194.0,0.004213193521542682
2193.0,0.0042286661063510485
2192.0,0.004250364484148605
2191.0,0.004264382241697586
2190.0,0.004269293178615992
2189.0,0.0042804242828631016
2188.0,0.004300837866673677
2187.0,0.004314763804712335
2186.0,0.004315145188665086
2185.0,0.004308668305158187
2184.0,0.004287654636497103
2183.0,0.004230819106329828
2182.0,0.004145000153499317
2181.0,0.0040747208492879685
2180.0,0.004052669685459657
2179.0,0.004065325285657686
2178.0,0.004079217310955846
2177.0,0.00407637126461456
2176.0,0.0040575484439637245
2175.0,0.004037069368461178
2174.0,0.004041819654281348
2173.0,0.00409095015462813
2172.0,0.004170699771055558
2171.0,0.004251715034384354
2170.0,0.0043292673178404965
2169.0,0.004418610461944955
2168.0,0.004512701301963996
2167.0,0.004578977249080466
2166.0,0.00460833832777877
2165.0,0.004637066963010993
2164.0,0.004701582693280094
2163.0,0.004787293366264521
2162.0,0.00482349353187417
2161.0,0.004712209185364739
2160.0,0.004387590917604024
2159.0,0.003904567698074072
2158.0,0.0034550823424828827
2157.0,0.00321886742136346
2156.0,0.003205244637286306
2155.0,0.0032955836991398614
2154.0,0.0033964101569126594
2153.0,0.0034908250036486343
2152.0,0.0035813453030331373
2151.0,0.003653630958073452
2150.0,0.0037003986083518374
2149.0,0.003732661975542788
2148.0,0.0037527605721776264
2147.0,0.0037492203367788047
2146.0,0.0037251069699553337
2145.0,0.0037008168962267968
2144.0,0.0036840646620295483
2143.0,0.0036667490236463735
2142.0,0.0036525212339792792
2141.0,0.0036551760466721987
2140.0,0.0036681539420495854
2139.0,0.0036670934195086966
2138.0,0.0036442582780931536
2137.0,0.0036108129535658414
2136.0,0.003566317841729812
2135.0,0.0035008417375434015
2134.0,0.0034301018201282228
2133.0,0.003392754242574471
2132.0,0.0034050097029142677
2131.0,0.0034472234623394537
2130.0,0.0034982284290537963
2129.0,0.0035530093694344862
2128.0,0.003605054920766534
2127.0,0.0036417584638570666
2126.0,0.003665722339814911
2125.0,0.0036965132093776873
2124.0,0.0037420678986390286
2123.0,0.0037885887191688467
2122.0,0.0038249356159913393
2121.0,0.003855968024336193
2120.0,0.003885480574971069
2119.0,0.003908314301940837
2118.0,0.003928198728731866
2117.0,0.003961823659382799
2116.0,0.00401288460745204
2115.0,0.004059966026599895
2114.0,0.004081913515699758
2113.0,0.004080688729099966
2112.0,0.0040701946501654155
2111.0,0.004058060521487035
2110.0,0.004049108714482485
2109.0,0.004050938010793886
2108.0,0.00406328679798264
2107.0,0.004073298426989695
2106.0,0.0040710750605780265
2105.0,0.004060051639473022
2104.0,0.004046116710711706
2103.0,0.004029252890966811
2102.0,0.0040118095656308615
2101.0,0.004001740074981798
2100.0,0.004000224317441903
2099.0,0.003996480299100724
2098.0,0.0039785022363298325
2097.0,0.003939968576012231
2096.0,0.0038796071605539228
2095.0,0.003809385619010424
2094.0,0.0037605422352115433
2093.0,0.003759624161685028
2092.0,0.003797010840930844
2091.0,0.0038367507055966678
2090.0,0.0038570626385935006
2089.0,0.0038640676741747877
2088.0,0.0038685880225701533
2087.0,0.0038724992011335765
2086.0,0.003879370578902577
2085.0,0.0038951574006446527
2084.0,0.003912928837069668
2083.0,0.003917930370805831
2082.0,0.003912251752419383
2081.0,0.003913626817290149
2080.0,0.003925314254903803
2079.0,0.003929483094852579
2078.0,0.00391630530756118
2077.0,0.00389676241091505
2076.0,0.0038805501426084554
2075.0,0.00386329648627842
2074.0,0.0038425135869289175
2073.0,0.003823569465087295
2072.0,0.0038035864173849906
2071.0,0.0037725381916695003
2070.0,0.003735374237646248
2069.0,0.003709285026572394
2068.0,0.0036942746924121857
2067.0,0.003672970060008586
2066.0,0.0036442011992755046
2065.0,0.0036280678246529805
2064.0,0.003630693655060153
2063.0,0.0036333720220095597
2062.0,0.0036242889397018778
2061.0,0.003611839284500461
2060.0,0.003601957363823897
2059.0,0.003590978009399629
2058.0,0.003583323378150268
2057.0,0.0035854972752331
2056.0,0.003583693616560528
2055.0,0.0035673953879308802
2054.0,0.0035758659907748477
2053.0,0.0036671985185858015
2052.0,0.0038254407892753303
2051.0,0.003946925844313666
2050.0,0.0039436934220053125
2049.0,0.0038328298131004458
2048.0,0.0036996875674514835
2047.0,0.0036020561714644214
2046.0,0.003548944380872485
2045.0,0.003536881498161798
2044.0,0.003554351832056046
2043.0,0.0035742296781949754
2042.0,0.0035805479869790444
2041.0,0.003585952456188489
2040.0,0.0035999182807785247
2039.0,0.0036053212095258002
2038.0,0.003588076593259579
2037.0,0.0035586920972183887
2036.0,0.003524224689116828
2035.0,0.00347299618966055
2034.0,0.003409453041026945
2033.0,0.003366544153886672
2032.0,0.0033562939809687335
2031.0,0.0033475331553504003
2030.0,0.0033167881086547473
2029.0,0.0032802831682020076
2028.0,0.003254780063884366
2027.0,0.0032301030029490262
2026.0,0.003206132205802469
2025.0,0.003213646325904923
2024.0,0.0032681425664651286
2023.0,0.0033391868877948277
2022.0,0.0033884268995777837
2021.0,0.0034064124625179087
2020.0,0.003398464785391792
2019.0,0.0033698111491321167
2018.0,0.0033403029731353495
2017.0,0.0033361757715431274
2016.0,0.003350194232041166
2015.0,0.0033489573930795204
2014.0,0.0033298579305132583
2013.0,0.0033272893258480428
2012.0,0.0033519886019083528
2011.0,0.0033680699601672855
2010.0,0.0033447779509725353
2009.0,0.00328996350512884
2008.0,0.003220593489682732
2007.0,0.003144561752709709
2006.0,0.0030862085871458354
2005.0,0.0030807723491098394
2004.0,0.0031239285716388055
2003.0,0.003171646197195936
2002.0,0.003201446223110516
2001.0,0.0032330160320392163
2000.0,0.0032796797450327514
1999.0,0.0033222661824678927
1998.0,0.0033474737605177665
1997.0,0.003371018977166642
1996.0,0.0034035561361271836
1995.0,0.00342953811127573
1994.0,0.0034380557671444484
1993.0,0.003444142874345211
1992.0,0.0034622335478454334
1991.0,0.00348693909305361
1990.0,0.0035154705177103244
1989.0,0.0035556968659052886
1988.0,0.003599877493894778
1987.0,0.003627237094591443
1986.0,0.0036435242903069954
1985.0,0.003682006616588095
1984.0,0.0037555485406685876
1983.0,0.0038456349367761164
1982.0,0.003942227600279496
1981.0,0.00404365923902532
1980.0,0.0041056487972166
1979.0,0.004050784908180159
1978.0,0.0038687020539163834
1977.0,0.003659565371869184
1976.0,0.0035264241316551466
1975.0,0.003474647204353758
1974.0,0.0034603290488779757
1973.0,0.0034661157917545925
1972.0,0.0034845582979616332
1971.0,0.0034885078207143147
1970.0,0.0034651480679851908
1969.0,0.0034427769057662786
1968.0,0.0034495990267347154
1967.0,0.0034757085838037585
1966.0,0.0035006672360395914
1965.0,0.0035230145404487696
1964.0,0.0035386857569568524
1963.0,0.0035287867251895012
1962.0,0.003492710249761097
1961.0,0.00346104011390404
1960.0,0.003454665569638104
1959.0,0.003462548457670289
1958.0,0.0034755324135252756
1957.0,0.003504479332275385
1956.0,0.0035500048824292155
1955.0,0.0035901222302605405
1954.0,0.003613357524845712
1953.0,0.00363280047708812
1952.0,0.0036551571128980546
1951.0,0.003667725005917831
1950.0,0.003666022485258552
1949.0,0.0036620952404778266
1948.0,0.0036545119235019633
1947.0,0.003623285723751422
1946.0,0.003567191628107507
1945.0,0.0035124372708051016
1944.0,0.003471430283393817
1943.0,0.0034261939538398024
1942.0,0.003368081165774505
1941.0,0.0033172197677127785
1940.0,0.0032841385908923006
1939.0,0.003250639471159863
1938.0,0.0032034291548253937
1937.0,0.0031542394162210247
1936.0,0.0031137402587311123
1935.0,0.003073533861185054
1934.0,0.003029884115979749
1933.0,0.0029961539798693
1932.0,0.002975777622387032
1931.0,0.002951181757236463
1930.0,0.002912568731370805
1929.0,0.0028741392084451357
1928.0,0.0028483095153699744
1927.0,0.0028276356093078197
1926.0,0.002803625013080626
1925.0,0.0027791807261390135
1924.0,0.0027558941659859646
1923.0,0.002731356521962853
1922.0,0.0027146474380784656
1921.0,0.0027188728042861435
1920.0,0.0027334893644341417
1919.0,0.0027289063552194052
1918.0,0.0026972379921579035
1917.0,0.0026631210917354483
1916.0,0.002640953030568823
1915.0,0.002617237080809765
1914.0,0.002585427691478285
1913.0,0.002560848080319064
1912.0,0.002551055062658096
1911.0,0.0025401347581685725
1910.0,0.0025173239984926225
1909.0,0.0024968036433359072
1908.0,0.0024910076018167275
1907.0,0.0024905098475566196
1906.0,0.0024858882176268878
1905.0,0.0024820686162172105
1904.0,0.0024798117395344503
1903.0,0.0024672268503684192
1902.0,0.0024419882653437942
1901.0,0.002421004287825998
1900.0,0.0024141128347350688
1899.0,0.0024096207581046874
1898.0,0.002397525884228757
1897.0,0.002383772875985698
1896.0,0.002372520200853163
1895.0,0.002356561594979223
1894.0,0.0023375881746198392
1893.0,0.0023316920218773313
1892.0,0.0023418052458465295
1891.0,0.002347500646617229
1890.0,0.002334243318870369
1889.0,0.002312801088390103
1888.0,0.0022947343230293273
1887.0,0.0022743795521468803
1886.0,0.0022501763720227915
1885.0,0.0022368713391570983
1884.0,0.0022426526177900924
1883.0,0.002253972288901033
1882.0,0.0022561985028278614
1881.0,0.002252413944939606
1880.0,0.002249517947178302
1879.0,0.002244677395165811
1878.0,0.0022382880903897453
1877.0,0.0022399744162840485
1876.0,0.0022499245689953395
1875.0,0.00225438193983743
1874.0,0.0022498196309866316
1873.0,0.0022510948787651153
1872.0,0.002265490372380619
1871.0,0.0022777463942948765
1870.0,0.0022725207751928917
1869.0,0.002258392752759196
1868.0,0.0022504577848132
1867.0,0.002246160469053228
1866.0,0.0022413914048188305
1865.0,0.0022433425467590787
1864.0,0.002252807817455881
1863.0,0.0022578278087932724
1862.0,0.0022540624888184348
1861.0,0.0022539882264111413
1860.0,0.002264760175850585
1859.0,0.0022754417344106933
1858.0,0.002277848226344103
1857.0,0.0022811044982215902
1856.0,0.0022932765393479104
1855.0,0.0023075244964467353
1854.0,0.0023177669216715947
1853.0,0.002331053542326115
1852.0,0.002351455780117476
1851.0,0.0023677756478008207
1850.0,0.0023740989640989086
1849.0,0.0023849608324627994
1848.0,0.0024136875854489587
1847.0,0.002450119235410599
1846.0,0.0024747111710480578
1845.0,0.0024836513267936667
1844.0,0.0024866137825715283
1843.0,0.0024899043274337635
1842.0,0.002497232178573731
1841.0,0.0025142154875582474
1840.0,0.00253963199614729
1839.0,0.002563704104591767
1838.0,0.002581313703924844
1837.0,0.002599166100335399
1836.0,0.002623433631470333
1835.0,0.0026511885133936384
1834.0,0.0026818270999675047
1833.0,0.0027216989954638887
1832.0,0.0027674926892894435
1831.0,0.0027989262279539077
1830.0,0.002806747698588503
1829.0,0.0028102334527505325
1828.0,0.0028257785621262103
1827.0,0.0028446104719413723
1826.0,0.002854280235671357
1825.0,0.0028596622928881987
1824.0,0.002869200677626347
1823.0,0.002876146065479641
1822.0,0.0028713940891419193
1821.0,0.0028577343935885357
1820.0,0.002838065343493465
1819.0,0.00280673660615879
1818.0,0.0027659921193159
1817.0,0.002737033787772098
1816.0,0.0027371112302805502
1815.0,0.0027562996823059303
1814.0,0.002774137436597238
1813.0,0.0027852596273487853
1812.0,0.002794488315262001
1811.0,0.00280100819617798
1810.0,0.0028017207986586723
1809.0,0.00280271508155878
1808.0,0.0028118538150624455
1807.0,0.002825886605424361
1806.0,0.0028382784777014882
1805.0,0.002851492642295198
1804.0,0.002871086133575586
1803.0,0.0028933640052009844
1802.0,0.002911996628955517
1801.0,0.0029314601545242167
1800.0,0.002956151885442573
1799.0,0.0029767585308443124
1798.0,0.0029854241551825235
1797.0,0.0029932133157266755
1796.0,0.0030155368020717667
1795.0,0.003048217441165945
1794.0,0.0030717568760808825
1793.0,0.00307732200869616
1792.0,0.0030766168660018695
1791.0,0.0030803312656543847
1790.0,0.0030869999498049396
1789.0,0.0030978939230856253
1788.0,0.0031174685459157254
1787.0,0.003141732202780278
1786.0,0.0031620728715101598
1785.0,0.003180423447835187
1784.0,0.003207709037630123
1783.0,0.0032416885397242544
1782.0,0.0032674083699077805
1781.0,0.0032835596144243705
1780.0,0.0033045146895385067
1779.0,0.003336086400606648
1778.0,0.0033694820316715864
1777.0,0.0034030623776212087
1776.0,0.0034465496093212776
1775.0,0.003500991766205089
1774.0,0.0035529285589921107
1773.0,0.0035963279748857024
1772.0,0.003645830528843686
1771.0,0.0037057965363484586
1770.0,0.003758162188177214
1769.0,0.0037989333350323083
1768.0,0.003850291312468071
1767.0,0.003926994786605023
1766.0,0.0040170240805081974
1765.0,0.0041078910052882
1764.0,0.0042077707770668575
1763.0,0.004328248781779382
1762.0,0.0044613197931810105
1761.0,0.004593123392378572
1760.0,0.0047317676031680975
1759.0,0.004894779630109572
1758.0,0.005085246978327668
1757.0,0.005303454323749245
1756.0,0.005554020602590941
1755.0,0.005829803768808496
1754.0,0.006118864070989016
1753.0,0.006440105371622731
1752.0,0.006854880108043728
1751.0,0.007410194235017611
1750.0,0.008081071083276575
1749.0,0.008829258189320717
1748.0,0.009670595469827724
1747.0,0.010631850031791713
1746.0,0.011724441708563543
1745.0,0.012983140673209282
1744.0,0.014448675409303436
1743.0,0.016099488662864685
1742.0,0.01789599365798321
1741.0,0.019906102702267853
1740.0,0.02221482815686804
1739.0,0.02463325649139294
1738.0,0.026797450417465445
1737.0,0.028670784446814163
1736.0,0.03063809639040168
1735.0,0.03325946926838792
1734.0,0.0365048247238481
1733.0,0.039495963159603624
1732.0,0.041863568504394426
1731.0,0.04404019159683516
1730.0,0.04634673411971978
1729.0,0.04875661010095703
1728.0,0.05111083008336628
1727.0,0.05336990051303851
1726.0,0.055595289507371734
1725.0,0.05783386929204247
1724.0,0.06008925463608525
1723.0,0.06229621712515265
1722.0,0.06430904033177556
1721.0,0.06603663478355785
1720.0,0.06760394807974021
1719.0,0.06930871080992146
1718.0,0.07122019881352273
1717.0,0.07288711146101227
1716.0,0.07397434070513823
1715.0,0.07465318709348621
1714.0,0.07501447152048223
1713.0,0.07490377594844064
1712.0,0.07427043047434154
1711.0,0.07321596453781244
1710.0,0.07178160923882465
1709.0,0.06992543618162173
1708.0,0.06765082149155026
1707.0,0.0649644881027865
1706.0,0.06187749873178905
1705.0,0.05872892712783414
1704.0,0.05606222700848734
1703.0,0.053936456966874706
1702.0,0.05182430749018799
1701.0,0.049044715308297855
1700.0,0.0459282550876425
1699.0,0.043595723282264756
1698.0,0.04210720564791513
1697.0,0.04075173816442558
1696.0,0.03919597846465998
1695.0,0.03772292083426721
1694.0,0.03668702571823144
1693.0,0.03599516677045184
1692.0,0.03540984906373414
1691.0,0.034813879933344845
1690.0,0.0342337754975645
1689.0,0.03376186710002405
1688.0,0.03342661782458221
1687.0,0.0331727727641793
1686.0,0.03293088237375401
1685.0,0.03266046553878705
1684.0,0.03239598321094424
1683.0,0.03219693526708681
1682.0,0.03205328121808039
1681.0,0.031933518139849064
1680.0,0.03182151325425545
1679.0,0.03170966793223078
1678.0,0.031600440972197365
1677.0,0.03149739555823519
1676.0,0.03139177155012045
1675.0,0.03127119640802097
1674.0,0.031155238468416037
1673.0,0.03107599083420401
1672.0,0.031027774615962567
1671.0,0.03097820657884323
1670.0,0.030914812358966995
1669.0,0.030855847951225347
1668.0,0.030805629283556783
1667.0,0.030748576322200634
1666.0,0.03068683934599111
1665.0,0.030637167893965707
1664.0,0.03060295970373804
1663.0,0.03056597242100379
1662.0,0.030514815651780706
1661.0,0.030462656031733995
1660.0,0.030419053349156885
1659.0,0.030375185749286222
1658.0,0.03033023437617232
1657.0,0.030287659681039497
1656.0,0.030244169187355605
1655.0,0.03018878647765802
1654.0,0.030147203683899705
1653.0,0.030158089809050145
1652.0,0.03016502380225459
1651.0,0.030135604387835198
1650.0,0.030095974177639873
1649.0,0.030048798734613774
1648.0,0.030007033226492744
1647.0,0.02997440349299415
1646.0,0.029928053378712877
1645.0,0.029858869419243268
1644.0,0.02977941392576188
1643.0,0.029689130358663933
1642.0,0.029584823065852736
1641.0,0.029480254746215635
1640.0,0.029380130230855808
1639.0,0.029266760029261717
1638.0,0.029124568805294102
1637.0,0.028957680814995647
1636.0,0.02877061469060377
1635.0,0.028547351861040324
1634.0,0.02828878509325053
1633.0,0.028022553140485535
1632.0,0.027755734879866132
1631.0,0.027476531622806305
1630.0,0.027178125256
1629.0,0.02686177585072168
1628.0,0.026532999208764837
1627.0,0.026197312845411096
1626.0,0.02585792388833095
1625.0,0.025509671598933706
1624.0,0.025138777261934735
1623.0,0.024750917819614547
1622.0,0.024385684124217835
1621.0,0.024075336252922096
1620.0,0.023813543508359576
1619.0,0.023579454511622692
1618.0,0.023368904080353577
1617.0,0.02318765280228338
1616.0,0.023014774109556657
1615.0,0.02280676988325302
1614.0,0.02253645781763521
1613.0,0.02219485998342365
1612.0,0.021784090549714544
1611.0,0.021318947808268193
1610.0,0.020822019825444328
1609.0,0.020313721341592084
1608.0,0.019808578811143063
1607.0,0.019319716297894255
1606.0,0.0188540622985364
1605.0,0.018406491775918715
1604.0,0.017967425789150976
1603.0,0.017537762448926467
1602.0,0.01712765157610622
1601.0,0.016741716604614897
1600.0,0.01637892299598651
1599.0,0.016043063295661224
1598.0,0.01573884628909099
1597.0,0.015460727786379996
1596.0,0.015199697251016338
1595.0,0.014958552655336556
1594.0,0.01474598266711442
1593.0,0.014559257410448296
1592.0,0.014388620461199712
1591.0,0.014235331667501187
1590.0,0.014110775726184754
1589.0,0.014021892789618805
1588.0,0.013972746074937245
1587.0,0.013980887500210652
1586.0,0.014075569442074144
1585.0,0.01427983715603049
1584.0,0.01460220407374057
1583.0,0.015034207229576598
1582.0,0.015538053075419025
1581.0,0.016037373079358857
1580.0,0.016443002604737907
1579.0,0.01668166518197698
1578.0,0.01669725950281549
1577.0,0.016444811744055546
1576.0,0.015965608893664666
1575.0,0.015434049588381897
1574.0,0.014985662791814132
1573.0,0.014613244166557626
1572.0,0.014265003020953612
1571.0,0.013911708391898998
1570.0,0.013558139420443188
1569.0,0.013240229826721232
1568.0,0.012986204295569253
1567.0,0.012791712314871796
1566.0,0.012633234112214432
1565.0,0.012488449512041408
1564.0,0.012353203188803582
1563.0,0.012237562014415136
1562.0,0.012147578587589523
1561.0,0.012084002033665732
1560.0,0.012016640540013241
1559.0,0.01193880558458007
1558.0,0.011868628943476562
1557.0,0.011782863036933728
1556.0,0.011688659953725847
1555.0,0.01160436680417919
1554.0,0.011536211746625157
1553.0,0.0114792008469982
1552.0,0.011418233925718701
1551.0,0.01135105242761515
1550.0,0.01128631859109771
1549.0,0.011226633207163625
1548.0,0.011165286288457591
1547.0,0.011100846836661378
1546.0,0.011037823927752398
1545.0,0.010980334780259645
1544.0,0.010930930584843521
1543.0,0.01088816202123618
1542.0,0.010840356010925754
1541.0,0.01076494518230194
1540.0,0.010663993298771773
1539.0,0.01057232155670913
1538.0,0.010516214855604488
1537.0,0.010491526699444809
1536.0,0.010473464562148458
1535.0,0.010450018755158897
1534.0,0.01042799826003075
1533.0,0.010408277082732207
1532.0,0.010380078005713231
1531.0,0.010347218624547795
1530.0,0.010323046482883798
1529.0,0.01030303899342415
1528.0,0.010271582427355644
1527.0,0.010227556358304708
1526.0,0.010185129705570192
1525.0,0.010146920994252176
1524.0,0.01009768936099961
1523.0,0.010027118543762295
1522.0,0.009947602974156247
1521.0,0.00988091424198565
1520.0,0.009833233048789242
1519.0,0.009799556002274192
1518.0,0.009772179185008775
1517.0,0.009745175329420964
1516.0,0.00972165895849841
1515.0,0.009715837724439675
1514.0,0.009752062243752625
1513.0,0.009850575299171443
1512.0,0.010026949322880079
1511.0,0.010286968538096835
1510.0,0.010645804066420003
1509.0,0.011160100509007417
1508.0,0.011973648168521393
1507.0,0.013130089605166501
1506.0,0.014142130021350174
1505.0,0.014500648639890059
1504.0,0.014286063424607982
1503.0,0.01372790553604726
1502.0,0.012970387736779965
1501.0,0.012141463794980203
1500.0,0.011348251345600066
1499.0,0.010654838905677482
1498.0,0.010078114658871443
1497.0,0.009629942071492485
1496.0,0.009309872599685036
1495.0,0.009097208784383784
1494.0,0.008973564213241
1493.0,0.008922444513748039
1492.0,0.008911878082715813
1491.0,0.008910749154918775
1490.0,0.00892744590569388
1489.0,0.0089863521185929
1488.0,0.009068360753376676
1487.0,0.009144667740188142
1486.0,0.009224080280974673
1485.0,0.009324790632428902
1484.0,0.009442424719185544
1483.0,0.009566443173998455
1482.0,0.009707877012007246
1481.0,0.009877064220939981
1480.0,0.010053818283273177
1479.0,0.010216428131384545
1478.0,0.01037802580696468
1477.0,0.010559174527738503
1476.0,0.010745302738698082
1475.0,0.010912371281287794
1474.0,0.011083890612638944
1473.0,0.0113075442091783
1472.0,0.011562824994507294
1471.0,0.011789819866503662
1470.0,0.01199689516313663
1469.0,0.012227866977894635
1468.0,0.012497649712316013
1467.0,0.012811794216990425
1466.0,0.013200523848697101
1465.0,0.013683271048966328
1464.0,0.014197434020792887
1463.0,0.014665772591515216
1462.0,0.015098367640245237
1461.0,0.015534019059025534
1460.0,0.01597545935960029
1459.0,0.016419236217128787
1458.0,0.016919487290228817
1457.0,0.017481912944440365
1456.0,0.017936441045572075
1455.0,0.018189825606875144
1454.0,0.018329331205229817
1453.0,0.01841968624692082
1452.0,0.01845802196037031
1451.0,0.018438066329152406
1450.0,0.01838696072798879
1449.0,0.018330885536310702
1448.0,0.018265350411413927
1447.0,0.018190510961777914
1446.0,0.018128804279514115
1445.0,0.018090822314628587
1444.0,0.01805607244028661
1443.0,0.01800480483973966
1442.0,0.017939146817987323
1441.0,0.01786019364723344
1440.0,0.017748234960281203
1439.0,0.017575984232342932
1438.0,0.017316448549171477
1437.0,0.016943671223368352
1436.0,0.016484521501168522
1435.0,0.016021780847357815
1434.0,0.015595162729969358
1433.0,0.015179809362923992
1432.0,0.014750663141160227
1431.0,0.014318544405815863
1430.0,0.013917845138773293
1429.0,0.013575747796927308
1428.0,0.013304116133785012
1427.0,0.01310223635955841
1426.0,0.012959476834193177
1425.0,0.012871289950444835
1424.0,0.012844562605199127
1423.0,0.01287742675505689
1422.0,0.012963005166179098
1421.0,0.01312820918730305
1420.0,0.013450561143332412
1419.0,0.013999017766727344
1418.0,0.014761220482057847
1417.0,0.015715265583605285
1416.0,0.016915748623895322
1415.0,0.01844119674026279
1414.0,0.020328861545963
1413.0,0.022534544562153147
1412.0,0.024865563892233496
1411.0,0.026967343935499523
1410.0,0.02847934074623753
1409.0,0.02919622877747613
1408.0,0.02905363181655346
1407.0,0.02809859172469754
1406.0,0.026527541879542427
1405.0,0.024661336131193822
1404.0,0.022834024752313584
1403.0,0.021263100731883144
1402.0,0.019978610222493826
1401.0,0.018873234604088795
1400.0,0.01783110796847284
1399.0,0.01684723310420578
1398.0,0.01599718812079206
1397.0,0.015286694917251962
1396.0,0.014633995059532761
1395.0,0.013987918561895674
1394.0,0.013382633371874328
1393.0,0.012863060283485467
1392.0,0.012421735639791123
1391.0,0.012030570730723509
1390.0,0.011673275434265763
1389.0,0.011341646277195487
1388.0,0.011038080781478589
1387.0,0.010788553529458645
1386.0,0.010621198617658818
1385.0,0.01053418459045587
1384.0,0.010511421773402047
1383.0,0.010549581371718396
1382.0,0.010653302172394371
1381.0,0.010820669376800488
1380.0,0.011046030835481939
1379.0,0.011324186246559289
1378.0,0.011642765154783867
1377.0,0.011984489498986008
1376.0,0.012341305258068876
1375.0,0.012709797020988178
1374.0,0.01306430178692716
1373.0,0.01335263756496666
1372.0,0.01353024105380999
1371.0,0.013574383159501983
1370.0,0.013462362521215174
1369.0,0.013166083505452612
1368.0,0.012679252755182412
1367.0,0.012038036570225966
1366.0,0.011296388421768624
1365.0,0.010489231602303428
1364.0,0.009641162469500532
1363.0,0.00881123266741047
1362.0,0.008092275481270289
1361.0,0.0075389495401890876
1360.0,0.007135502742379779
1359.0,0.006841343550353792
1358.0,0.006627707826723665
1357.0,0.006477730985767555
1356.0,0.006381112897358564
1355.0,0.006334272970118982
1354.0,0.006336773877486185
1353.0,0.006385258680058384
1352.0,0.00647678574124015
1351.0,0.006615940000493042
1350.0,0.006811171753535978
1349.0,0.007065689747083713
1348.0,0.007375569001970346
1347.0,0.007735365156905823
1346.0,0.00813844201813556
1345.0,0.008569247537908628
1344.0,0.008998948420846396
1343.0,0.00939151409836539
1342.0,0.009711028348479995
1341.0,0.00992048738979068
1340.0,0.009981151548952823
1339.0,0.00986673422252667
1338.0,0.00958203611328652
1337.0,0.009162604524014963
1336.0,0.008662368041733452
1335.0,0.008143558646702558
1334.0,0.0076632562990398695
1333.0,0.007260402572347979
1332.0,0.006956095512966097
1331.0,0.0067601213847385665
1330.0,0.006670158960868212
1329.0,0.006672081255039635
1328.0,0.0067499397272118705
1327.0,0.006893682722559028
1326.0,0.00709547909721729
1325.0,0.007344165969264117
1324.0,0.007625884634504318
1323.0,0.007927575919111455
1322.0,0.008239475478571893
1321.0,0.008556631330252196
1320.0,0.008877961811965991
1319.0,0.009202741106218243
1318.0,0.0095288543849183
1317.0,0.009855524713755054
1316.0,0.010186977614576124
1315.0,0.01053283176471692
1314.0,0.010904919576634751
1313.0,0.011311015092166204
1312.0,0.01174962411197278
1311.0,0.012213030974728884
1310.0,0.01269562272483312
1309.0,0.01319445606269596
1308.0,0.01370125957605825
1307.0,0.014202361619546931
1306.0,0.014692801746095656
1305.0,0.015186736722748631
1304.0,0.015711752958932894
1303.0,0.01630027900578651
1302.0,0.0169864589407654
1301.0,0.017797414760444184
1300.0,0.018736664057287834
1299.0,0.019781363100066722
1298.0,0.020901314178181196
1297.0,0.022072437587125352
1296.0,0.02326867423929871
1295.0,0.024458572956472992
1294.0,0.025622838930993066
1293.0,0.02675990623940131
1292.0,0.027864062290087713
1291.0,0.02891669967377808
1290.0,0.029908491173174644
1289.0,0.030847528318595434
1288.0,0.03173346890513347
1287.0,0.03254740576689038
1286.0,0.03327899735740447
1285.0,0.033937896025942285
1284.0,0.03452793036329162
1283.0,0.03503786689467031
1282.0,0.03546807967307169
1281.0,0.03583900346979693
1280.0,0.03616463035872367
1279.0,0.036446857189240754
1278.0,0.03670518634645623
1277.0,0.03698376707225983
1276.0,0.03732177233059839
1275.0,0.03774448118120454
1274.0,0.03828799236084146
1273.0,0.03899909627532894
1272.0,0.03989677012181215
1271.0,0.040958492648575706
1270.0,0.04215392080946514
1269.0,0.04346314695956809
1268.0,0.0448513943608568
1267.0,0.04626313361739238
1266.0,0.047660226182422785
1265.0,0.049031371959840156
1264.0,0.05034852642825764
1263.0,0.05155580561627624
1262.0,0.05261786217146539
1261.0,0.05353397711734945
1260.0,0.05429184762307085
1259.0,0.05486353556600423
1258.0,0.05526539867825552
1257.0,0.05556758401914074
1256.0,0.05583013482383898
1255.0,0.05608064212721168
1254.0,0.0563588000238131
1253.0,0.056722671645831196
1252.0,0.05719514837684939
1251.0,0.057754722533612635
1250.0,0.0583916836576677
1249.0,0.05912253151888994
1248.0,0.059938294134123105
1247.0,0.06079514509814268
1246.0,0.06167198312217771
1245.0,0.062581464910747
1244.0,0.06350776913645324
1243.0,0.06439217747613706
1242.0,0.06519677468376005
1241.0,0.0659193313070555
1240.0,0.06652749091006743
1239.0,0.0669435951962727
1238.0,0.06711281551916096
1237.0,0.06702132917743919
1236.0,0.06663566709268201
1235.0,0.06590024758971494
1234.0,0.06481293371620762
1233.0,0.0634350680666646
1232.0,0.061820166099171514
1231.0,0.06000025859666416
1230.0,0.058038258273867514
1229.0,0.05601949386789458
1228.0,0.0539868260738481
1227.0,0.05194039513838663
1226.0,0.04989621503604857
1225.0,0.047892646373817474
1224.0,0.045946245019191104
1223.0,0.044051704828772985
1222.0,0.04222212696960039
1221.0,0.04048698117137856
1220.0,0.03885414906138266
1219.0,0.037310503656608505
1218.0,0.03585585729810704
1217.0,0.03450399741191203
1216.0,0.033253879511544224
1215.0,0.03208860577604225
1214.0,0.031000416852424884
1213.0,0.029992768767304785
1212.0,0.029060862499071978
1211.0,0.02819170235443374
1210.0,0.027380522809364906
1209.0,0.026628132907242277
1208.0,0.025925773606207257
1207.0,0.025260273355396514
1206.0,0.024630365767421506
1205.0,0.024041533895760525
1204.0,0.023488672710199245
1203.0,0.022959056165776284
1202.0,0.022448074905911497
1201.0,0.021957211095247245
1200.0,0.02148056978463877
1199.0,0.021008143528434324
1198.0,0.020540102551451025
1197.0,0.020085397551360306
1196.0,0.019648835036405594
1195.0,0.01923042800029257
1194.0,0.01883365948516894
1193.0,0.018463666894152034
1192.0,0.018120558349526156
1191.0,0.01780429802366975
1190.0,0.01752328366808309
1189.0,0.017289680706556353
1188.0,0.01710971841581723
1187.0,0.01698630233063107
1186.0,0.016927177487414527
1185.0,0.016941814312954398
1184.0,0.017032296689496757
1183.0,0.017194310589092137
1182.0,0.017424141419672107
1181.0,0.01771609549805204
1180.0,0.01805337467291155
1179.0,0.01841013116326873
1178.0,0.018763144882686256
1177.0,0.01909253831274853
1176.0,0.01937072925630186
1175.0,0.01956203775018728
1174.0,0.019636350197169614
1173.0,0.01957495380419276
1172.0,0.01936676958795878
1171.0,0.01901609235615218
1170.0,0.018556426361816643
1169.0,0.018042758259451692
1168.0,0.017527508189423
1167.0,0.017049189969577074
1166.0,0.016635322612621756
1165.0,0.01630025588040434
1164.0,0.016041417019728714
1163.0,0.01584802151426845
1162.0,0.015714633687259987
1161.0,0.015641839856781286
1160.0,0.015628232567249968
1159.0,0.01567090278676831
1158.0,0.015772659620374392
1157.0,0.015941066915011428
1156.0,0.016180560549641808
1155.0,0.016492081648604547
1154.0,0.0168792947885131
1153.0,0.017347249319835112
1152.0,0.01789438582343944
1151.0,0.018513791457041497
1150.0,0.019203247929337062
1149.0,0.019965088024446936
1148.0,0.020794681291706058
1147.0,0.02167969299055766
1146.0,0.02261294957316144
1145.0,0.02359283046498762
1144.0,0.024606652700965133
1143.0,0.02562805539837597
1142.0,0.026636495197703294
1141.0,0.027623366358401243
1140.0,0.028574158213198017
1139.0,0.029466226021239647
1138.0,0.030292211275911758
1137.0,0.03106374473217976
1136.0,0.031785953191328854
1135.0,0.03245387022679312
1134.0,0.03308039387944306
1133.0,0.033700005789272174
1132.0,0.03433855983758273
1131.0,0.03500746535905942
1130.0,0.03573176641083002
1129.0,0.036550899543017594
1128.0,0.037481797466420025
1127.0,0.03851053616089422
1126.0,0.03962654048977869
1125.0,0.04082897755781786
1124.0,0.042088289317966064
1123.0,0.04333983639908473
1122.0,0.044530492143238176
1121.0,0.04563292547003885
1120.0,0.04660315009318277
1119.0,0.04737327208267626
1118.0,0.047903059285847885
1117.0,0.04819246602222091
1116.0,0.04823743147931366
1115.0,0.04803517248770585
1114.0,0.04764822981500391
1113.0,0.047207359747590584
1112.0,0.04684076572985693
1111.0,0.046646430342546036
1110.0,0.046721200648692
1109.0,0.047145671193035615
1108.0,0.04792354660912
1107.0,0.04898477189457805
1106.0,0.05026301181885576
1105.0,0.05172747355590802
1104.0,0.05333383634125552
1103.0,0.05500826665285692
1102.0,0.056704394588556625
1101.0,0.058416408033433356
1100.0,0.060111488139971456
1099.0,0.061714683040208426
1098.0,0.06318584572457593
1097.0,0.06453858840256489
1096.0,0.06575859791348054
1095.0,0.0667854466656984
1094.0,0.0675991068886666
1093.0,0.06823544162022029
1092.0,0.06869442789044619
1091.0,0.068927821491146
1090.0,0.06893733132011327
1089.0,0.06878762560246225
1088.0,0.06850422819421079
1087.0,0.06805529226372146
1086.0,0.06744559400117126
1085.0,0.06672499534822147
1084.0,0.06589009140352077
1083.0,0.06487790781771678
1082.0,0.06366904748383151
1081.0,0.06230333389544293
1080.0,0.06079106568280043
1079.0,0.05910653709836648
1078.0,0.05727439359765879
1077.0,0.05537377232456428
1076.0,0.053454716984093105
1075.0,0.05152719845922905
1074.0,0.0496256156522532
1073.0,0.047808076847664686
1072.0,0.04609425840592673
1071.0,0.04446771399661289
1070.0,0.04293444529684157
1069.0,0.04152233439771077
1068.0,0.04022932760497698
1067.0,0.0390254969270181
1066.0,0.037902502054888404
1065.0,0.03687561645821229
1064.0,0.03594270530016158
1063.0,0.035085059699726896
1062.0,0.034306007801744996
1061.0,0.03362952014586074
1060.0,0.0330624411805984
1059.0,0.032594267812234616
1058.0,0.03223142828400988
1057.0,0.03199511879140965
1056.0,0.03188478192424611
1055.0,0.03187747207268783
1054.0,0.031965866440122656
1053.0,0.032164456797881935
1052.0,0.032471139415056284
1051.0,0.032854911573477516
1050.0,0.03329050016916295
1049.0,0.03376718038246772
1048.0,0.0342539346779672
1047.0,0.03470005261283816
1046.0,0.035079097181385216
1045.0,0.035392454846035884
1044.0,0.03562857241745738
1043.0,0.035759344762180276
1042.0,0.03577818324035843
1041.0,0.03570342387971174
1040.0,0.035541967850252335
1039.0,0.03528701881245955
1038.0,0.034953067110718286
1037.0,0.034575750384522146
1036.0,0.03417517949207273
1035.0,0.03375278017627219
1034.0,0.03332217392202136
1033.0,0.03290722795456205
1032.0,0.03250836053077388
1031.0,0.03210447961515809
1030.0,0.0316907199979795
1029.0,0.03128683447343292
1028.0,0.030914493163386597
1027.0,0.030603933467949783
1026.0,0.03042961003855283
1025.0,0.030515265583077607
1024.0,0.031001831261355584
1023.0,0.03202228492451855
1022.0,0.03368137442977463
1021.0,0.0359998243842304
1020.0,0.03883472514045221
1019.0,0.041848463111782974
1018.0,0.04456374990001484
1017.0,0.046455560435855414
1016.0,0.04706185312148365
1015.0,0.04616943960671956
1014.0,0.04398408150211599
1013.0,0.041053571317195225
1012.0,0.03797030140524786
1011.0,0.035135973686159075
1010.0,0.0327177465103031
1009.0,0.0307147097399295
1008.0,0.029046588538774433
1007.0,0.027631875982171608
1006.0,0.026427770047877434
1005.0,0.025414350748976827
1004.0,0.024558763045202568
1003.0,0.02381306742432432
1002.0,0.023141062867882353
1001.0,0.02252793066619884
1000.0,0.021964860402529623
999.0,0.021441739098709233
998.0,0.020955165839572472
997.0,0.020507366288950987
996.0,0.020094731258351813
995.0,0.019709224418185723
994.0,0.019350631190468082
993.0,0.019024758949673034
992.0,0.018729638813652544
991.0,0.018455851947638602
990.0,0.018200385313692967
989.0,0.01796797643342282
988.0,0.0177589536583129
987.0,0.017567808148475975
986.0,0.01739371485350958
985.0,0.01724038498817941
984.0,0.017104728180915206
983.0,0.016976905771979776
982.0,0.016852642347683716
981.0,0.01673500082262674
980.0,0.01662333379562393
979.0,0.016511268500453792
978.0,0.016396487793868864
977.0,0.016281667121189884
976.0,0.0161645295504262
975.0,0.01603703007502148
974.0,0.01589488224302664
973.0,0.015737852873370897
972.0,0.015560532332302732
971.0,0.01535343611466072
970.0,0.015114278601932894
969.0,0.014849164558467593
968.0,0.014563227058412523
967.0,0.01425967910458684
966.0,0.013946877570022082
965.0,0.013635533913885722
964.0,0.013328588109142184
963.0,0.01302294682475899
962.0,0.012720883507239891
961.0,0.01243098655071851
960.0,0.0121582738361602
959.0,0.011901547157256012
958.0,0.011659982852125772
957.0,0.011434510718342623
956.0,0.011222978532725001
955.0,0.011021474748818174
954.0,0.01083067137211468
953.0,0.010654305156824403
952.0,0.01049160508701549
951.0,0.010337731625050799
950.0,0.010191254821060806
949.0,0.010054367991430193
948.0,0.009925717870577284
947.0,0.009799894668950624
946.0,0.009674917859946303
945.0,0.00955445739422918
944.0,0.009441889151114928
943.0,0.009337123522998548
942.0,0.009239423237824985
941.0,0.009148299331124328
940.0,0.009061276138343998
939.0,0.008975335305029551
938.0,0.008890760937955385
937.0,0.008809475434352412
936.0,0.008730200322512382
935.0,0.008649725933280946
934.0,0.00856796863050201
933.0,0.00848673939120205
932.0,0.008404297284858133
931.0,0.008316487743220947
930.0,0.008223065029567631
929.0,0.008127939801569879
928.0,0.008033383223553637
927.0,0.007938709487914126
926.0,0.007844354660573328
925.0,0.007752551106761827
924.0,0.007664152120048362
923.0,0.007579154659424242
922.0,0.007499958607170199
921.0,0.007429939979181923
920.0,0.007369582999388485
919.0,0.007318434166901399
918.0,0.007280203490032208
917.0,0.007261447331954664
916.0,0.007265761296508338
915.0,0.0072938919831072955
914.0,0.0073494108515658775
913.0,0.007439587925445509
912.0,0.007570136714471291
911.0,0.007743246651037072
910.0,0.00796091113035072
909.0,0.00822495002152177
908.0,0.00853195786114534
907.0,0.008872442579970262
906.0,0.00923635826999819
905.0,0.009614715175926662
904.0,0.009994318710274959
903.0,0.010357272808071798
902.0,0.010689001109835675
901.0,0.010981771546678704
900.0,0.011229023390435446
899.0,0.01142393472466392
898.0,0.011566166779469412
897.0,0.011662445267515427
896.0,0.011718749746181062
895.0,0.011739895408832624
894.0,0.011737505490683108
893.0,0.011729041214710911
892.0,0.011727472624661707
891.0,0.01174005797589896
890.0,0.011777151064660953
889.0,0.01185250218269792
888.0,0.01197383905927735
887.0,0.012142898986322974
886.0,0.012366990655786066
885.0,0.012661674384438312
884.0,0.0130404304733815
883.0,0.013512167974091327
882.0,0.014091847351916612
881.0,0.014799968362770727
880.0,0.015640469096800683
879.0,0.016583972494959142
878.0,0.017577722867073157
877.0,0.018562309636342873
876.0,0.019471644614186136
875.0,0.020230698954179414
874.0,0.02076572385740018
873.0,0.021009807929240905
872.0,0.02090587246883888
871.0,0.02043783473517858
870.0,0.01966801298976537
869.0,0.018717950067845206
868.0,0.017705428074287002
867.0,0.0167122255518838
866.0,0.01579492353928916
865.0,0.014992626959026957
864.0,0.014319530181825888
863.0,0.013768758344519901
862.0,0.013329996259232969
861.0,0.012995736271159537
860.0,0.012752680041601152
859.0,0.01258077825063357
858.0,0.01246433614118653
857.0,0.01239479944457808
856.0,0.0123607479044874
855.0,0.012344657154590079
854.0,0.012332328127629976
853.0,0.012317514201753699
852.0,0.012296868916976188
851.0,0.012270015747721446
850.0,0.012244645871319244
849.0,0.012230426963791233
848.0,0.01222688917832038
847.0,0.0122274602992119
846.0,0.012234363214166762
845.0,0.012256549643723608
844.0,0.01229233483749317
843.0,0.012327350407399802
842.0,0.012351407478317821
841.0,0.012364390421695199
840.0,0.012363439633560382
839.0,0.01233855846476082
838.0,0.012285211603383785
837.0,0.012209326820918295
836.0,0.012116606461116893
835.0,0.012008439950785665
834.0,0.011890514990690975
833.0,0.011773094490240034
832.0,0.01165996767236795
831.0,0.011548608833630371
830.0,0.011443203710938155
829.0,0.011354789823170106
828.0,0.011285435445946273
827.0,0.011225852864882362
826.0,0.011172765866446235
825.0,0.01113383368927761
824.0,0.011111016927485343
823.0,0.011095961445001249
822.0,0.011085741632287462
821.0,0.011085455901120544
820.0,0.011093826318700931
819.0,0.011103785624749271
818.0,0.011117402353863354
817.0,0.011144212721514082
816.0,0.011184014437947674
815.0,0.011225592516932864
814.0,0.011263877834061686
813.0,0.011303952924909252
812.0,0.01134583368598524
811.0,0.011380441620812438
810.0,0.01140453778763376
809.0,0.011425290916034784
808.0,0.011445397244653478
807.0,0.011456803384139395
806.0,0.011453201159663463
805.0,0.011435707718662407
804.0,0.0114027674300697
803.0,0.011348535476634353
802.0,0.011278047691016115
801.0,0.011217048882715228
800.0,0.011208143652880136
799.0,0.01130589598483379
798.0,0.0115639008116627
797.0,0.011997333696746607
796.0,0.012545431919959195
795.0,0.013083366767151182
794.0,0.013484917021846586
793.0,0.013675871286343875
792.0,0.013639606505597455
791.0,0.013404005186626908
790.0,0.013032782537056836
789.0,0.012601407701261367
788.0,0.012161399341104221
787.0,0.011732818551290238
786.0,0.011327842737172689
785.0,0.01096291396718422
784.0,0.010645742415906958
783.0,0.010369048239926942
782.0,0.010124109593885
781.0,0.00990820067415861
780.0,0.009715757688554524
779.0,0.009536561862827891
778.0,0.00936740107240263
777.0,0.009213220843841168
776.0,0.009073448915756194
775.0,0.008939464435650288
774.0,0.008808108823201918
773.0,0.008684503668985055
772.0,0.00856829274141975
771.0,0.0084502840440628
770.0,0.008326223110081053
769.0,0.008201183017490694
768.0,0.008077375080713697
767.0,0.007951030636316173
766.0,0.007824377891356277
765.0,0.007706585842559947
764.0,0.007598758668847025
763.0,0.00749101893962659
762.0,0.0073780801711667825
761.0,0.007265094996621839
760.0,0.007154983265501385
759.0,0.007043436221202546
758.0,0.006930023646894877
757.0,0.00682070473677659
756.0,0.006715640690709582
755.0,0.006608050808348984
754.0,0.006498803689477134
753.0,0.006398425795519389
752.0,0.006311465945245542
751.0,0.00623394067348444
750.0,0.006170438656899063
749.0,0.006139186053733606
748.0,0.006156167469151801
747.0,0.006229578974169852
746.0,0.006375803622403456
745.0,0.006627093497292756
744.0,0.007019227120266043
743.0,0.007587342698425988
742.0,0.008378271158219174
741.0,0.009444753108003467
740.0,0.010810210207457635
739.0,0.012447751705480823
738.0,0.014300265471142524
737.0,0.016305091632358146
736.0,0.018394214005162217
735.0,0.020503047289654682
734.0,0.022607465485537007
733.0,0.024737098534596214
732.0,0.026937755256426707
731.0,0.029244132466940603
730.0,0.03169825251614811
729.0,0.034350816789173344
728.0,0.0372057840364461
727.0,0.040171785225159046
726.0,0.04306280417234645
725.0,0.04560059981693625
724.0,0.047422876086260536
723.0,0.04818334351495256
722.0,0.04771665063078783
721.0,0.046118304520899434
720.0,0.043695229643653244
719.0,0.04085648994985732
718.0,0.03798708635169215
717.0,0.035349450927180365
716.0,0.0330669050691529
715.0,0.03117147283451055
714.0,0.029650396438193637
713.0,0.028457109578194792
712.0,0.027510377739508027
711.0,0.02671907849825801
710.0,0.02602087652966864
709.0,0.025388829222103206
708.0,0.02480511081637153
707.0,0.02425001471021624
706.0,0.023717305287049222
705.0,0.023213731875313347
704.0,0.02273314012370565
703.0,0.02224901382978257
702.0,0.021738604169707243
701.0,0.02119747143155102
700.0,0.020629073817607972
699.0,0.02004259122246411
698.0,0.019465801283048582
697.0,0.018937034557703063
696.0,0.01847454758542278
695.0,0.018069247433261427
694.0,0.017710620964179236
693.0,0.017400176569921513
692.0,0.017134204724781905
691.0,0.016895676501719976
690.0,0.01667505176938267
689.0,0.016481408053128355
688.0,0.016322594637275176
687.0,0.01619313381890782
686.0,0.016091641705276605
685.0,0.016027213700200594
684.0,0.015998212173530466
683.0,0.015986383632563442
682.0,0.01597677932813106
681.0,0.01596105037536708
680.0,0.01591867720357079
679.0,0.015820942213160355
678.0,0.01566220499853548
677.0,0.015467006001921794
676.0,0.015260693193700246
675.0,0.015054395500655814
674.0,0.01485803890005601
673.0,0.01468288607918843
672.0,0.014524200777643399
671.0,0.01436562967209051
670.0,0.014205162301050778
669.0,0.014071933370005826
668.0,0.013995043339029983
667.0,0.013926905673355378
666.0,0.013814200354998803
665.0,0.013681667741155808
664.0,0.013557471138140147
663.0,0.013439084201761368
662.0,0.013320680691526011
661.0,0.01321338586811617
660.0,0.013125830354367932
659.0,0.013047840748212327
658.0,0.012970916218121235
657.0,0.012901425155054581
656.0,0.012836411013984871
655.0,0.012753577783949612
654.0,0.012642374868988553
653.0,0.012520042691921172
652.0,0.012401175612040585
651.0,0.012280623193161137
650.0,0.012159880720506978
649.0,0.012058048126481744
648.0,0.011978699639489165
647.0,0.011896369680822142
646.0,0.011793300323816328
645.0,0.011679226357063414
644.0,0.01155946824598697
643.0,0.011418689754887884
642.0,0.011255596560102412
641.0,0.01109977012729111
640.0,0.0109713544429598
639.0,0.01085470308072338
638.0,0.010735973095560281
637.0,0.010644264738032198
636.0,0.010633109175975604
635.0,0.010735411562180781
634.0,0.010935245487203801
633.0,0.011156209730088424
632.0,0.011269332660368517
631.0,0.011159739843991167
630.0,0.010837430373962165
629.0,0.01043830895103193
628.0,0.010083124825912892
627.0,0.009790267406128532
626.0,0.00952726983133657
625.0,0.009283944231344363
624.0,0.009065604020458546
623.0,0.008861707363905211
622.0,0.008663203434169129
621.0,0.008481046807900475
620.0,0.00831897692248603
619.0,0.00816106927856564
618.0,0.008009646549217077
617.0,0.007898038218231509
616.0,0.007841014361580051
615.0,0.007811556468102537
614.0,0.007788285024090808
613.0,0.007784240395990159
612.0,0.007805761523747422
611.0,0.007827864047481706
610.0,0.007835970542156151
609.0,0.007850756232875997
608.0,0.00788353606027627
607.0,0.007909643289928197
606.0,0.007913205439923625
605.0,0.007915073195442494
604.0,0.007926419538889104
603.0,0.00792208662528817
602.0,0.007887879519635533
601.0,0.00784522176937099
600.0,0.0078037279770942665
599.0,0.007738658866621707
598.0,0.00763825463505893
597.0,0.007527231406091808
596.0,0.007420294080040491
595.0,0.007299619491461124
594.0,0.007156153679871248
593.0,0.007004806149751873
592.0,0.006840779383833673
591.0,0.00663750848173535
590.0,0.006410412059364613
589.0,0.0062165572792079495
588.0,0.006069237861133444
587.0,0.005913004700603627
586.0,0.005702955779295901
585.0,0.005462342576630055
584.0,0.0052313587330313285
583.0,0.005011758269635437
582.0,0.00479407178572531
581.0,0.004591568556405376
580.0,0.004412258651807813
579.0,0.004232003169833005
578.0,0.004027533686857291
577.0,0.0038134689529961963
576.0,0.003624229149200797
575.0,0.0034823642831664503
574.0,0.003392148791698184
573.0,0.0033473493133780487
572.0,0.003329355655487396
571.0,0.0033055566448988213
570.0,0.00325560874271022
569.0,0.003195245822972979
568.0,0.0031491198346852833
567.0,0.003115795946640987
566.0,0.0030756167704445933
565.0,0.0030209098018079503
564.0,0.002963204999854918
563.0,0.002922118092350344
562.0,0.002913483212015998
561.0,0.0029351054843210437
560.0,0.0029637658859212445
559.0,0.0029725534225364426
558.0,0.002958756211752865
557.0,0.00293848042586505
556.0,0.0029022048012168067
555.0,0.0028102665693153193
554.0,0.0026521975253377284
553.0,0.0024720045112567694
552.0,0.0023171492780728106
551.0,0.002206522805612782
550.0,0.002140257136045612
