cm-1,A
4000.0,0.0032966221814025934
3999.0,0.003303535833149372
3998.0,0.00330975207354477
3997.0,0.0033118725606757875
3996.0,0.003308746078144787
3995.0,0.003303032794759411
3994.0,0.0032993167313051146
3993.0,0.003300115867802395
3992.0,0.0033042176656248538
3991.0,0.0033086831623200556
3990.0,0.0033114666058058255
3989.0,0.0033125199844033885
3988.0,0.003312503912233219
3987.0,0.003311690822074596
3986.0,0.0033102531808753763
3985.0,0.003308683190215588
3984.0,0.003307574044586376
3983.0,0.003307124427103198
3982.0,0.003307492303791345
3981.0,0.0033090814034398806
3980.0,0.0033124571110426408
3979.0,0.0033176821648096726
3978.0,0.0033232987323540955
3977.0,0.0033263093550504504
3976.0,0.003323451559168131
3975.0,0.0033138795130396425
3974.0,0.0033005882041715175
3973.0,0.003289208107603525
3972.0,0.0032848036008231944
3971.0,0.0032884554151009476
3970.0,0.0032969173192014126
3969.0,0.0033049841560361263
3968.0,0.0033090417818178747
3967.0,0.0033089368784154872
3966.0,0.0033068497962138784
3965.0,0.003304786885025417
3964.0,0.003303006671812112
3963.0,0.003301532640669038
3962.0,0.0033015432733307067
3961.0,0.003304497403060702
3960.0,0.0033103849095831557
3959.0,0.003317102848672502
3958.0,0.00332249361575727
3957.0,0.0033263955303733193
3956.0,0.0033296970629342953
3955.0,0.00333225524454307
3954.0,0.003332587868804719
3953.0,0.003329679870095713
3952.0,0.003324758459278547
3951.0,0.003320543783422676
3950.0,0.003319746724449982
3949.0,0.003323067545431808
3948.0,0.003328472201118984
3947.0,0.00333217122897352
3946.0,0.003330047612812851
3945.0,0.003320854863263249
3944.0,0.003307959274885806
3943.0,0.0032984687971580147
3942.0,0.003298476611941113
3941.0,0.0033060223942696807
3940.0,0.003312744059176736
3939.0,0.0033127140747791417
3938.0,0.003308274127020271
3937.0,0.003306954540978629
3936.0,0.0033131191866424816
3935.0,0.0033240218793794147
3934.0,0.0033325822338524285
3933.0,0.00333468901584681
3932.0,0.003331720834842348
3931.0,0.003328493625965074
3930.0,0.003328687686587007
3929.0,0.003330750783071908
3928.0,0.0033299878182383533
3927.0,0.003322151831302165
3926.0,0.0033077190537595643
3925.0,0.003293092342048648
3924.0,0.003286294329077776
3923.0,0.003290183366417291
3922.0,0.003299728968510127
3921.0,0.003307998091912981
3920.0,0.003312250094603999
3919.0,0.0033145321553060296
3918.0,0.003318809429943001
3917.0,0.003326801248769145
3916.0,0.0033374065120948876
3915.0,0.0033474490850090785
3914.0,0.0033518524288994687
3913.0,0.003346482141180985
3912.0,0.0033318298116766683
3911.0,0.0033140621344543812
3910.0,0.0033013019095404147
3909.0,0.0032973591307270105
3908.0,0.0032998988834989657
3907.0,0.0033040185566794583
3906.0,0.0033079585355802136
3905.0,0.00331434563787706
3904.0,0.0033275262781369943
3903.0,0.0033464508910941186
3902.0,0.0033623779554648216
3901.0,0.0033668900626309846
3900.0,0.00335899699180747
3899.0,0.003346128707365458
3898.0,0.0033365668954695935
3897.0,0.003330936218855823
3896.0,0.0033254826160013786
3895.0,0.0033169425864889926
3894.0,0.0033042399680425546
3893.0,0.0032892851648556355
3892.0,0.0032774580805685167
3891.0,0.003276758959999842
3890.0,0.003289843085376643
3889.0,0.003308743744540105
3888.0,0.0033216018682046006
3887.0,0.0033220532437626005
3886.0,0.003315716524181656
3885.0,0.0033163095275879316
3884.0,0.003328307898258438
3883.0,0.0033397080110162307
3882.0,0.00333687532598175
3881.0,0.003321661469478248
3880.0,0.003310590819388771
3879.0,0.0033144464786345673
3878.0,0.0033254950260457952
3877.0,0.003329177707896892
3876.0,0.0033199395265488965
3875.0,0.003306309895423208
3874.0,0.0033045938751525075
3873.0,0.0033229981595305335
3872.0,0.0033515181815963746
3871.0,0.003370479853454275
3870.0,0.0033712395061693008
3869.0,0.003365180726887922
3868.0,0.0033643436547751114
3867.0,0.0033643740446150936
3866.0,0.0033540960083709905
3865.0,0.0033311382291732698
3864.0,0.003307699626171173
3863.0,0.003296453377866786
3862.0,0.0032965835124091156
3861.0,0.0032998023323648406
3860.0,0.0033008373971559236
3859.0,0.003299540060657827
3858.0,0.003297420542884906
3857.0,0.0032964951709727117
3856.0,0.0033012247538956934
3855.0,0.0033140467280757804
3854.0,0.0033330477283656547
3853.0,0.003352827639998459
3852.0,0.003368026057433051
3851.0,0.003373856632126457
3850.0,0.003368974452957414
3849.0,0.0033578588384266927
3848.0,0.0033458805092964113
3847.0,0.0033356937138591053
3846.0,0.0033264486040586027
3845.0,0.003316510232262054
3844.0,0.003308868046843389
3843.0,0.0033088004953060815
3842.0,0.0033182548711919195
3841.0,0.003332639990880421
3840.0,0.003343208162463221
3839.0,0.0033446367902869876
3838.0,0.003340324970520759
3837.0,0.0033375891316544063
3836.0,0.003340080652143065
3835.0,0.00334493409397278
3834.0,0.0033482506150060197
3833.0,0.003348283216511652
3832.0,0.0033459258709546665
3831.0,0.0033440171754050823
3830.0,0.0033426672239921275
3829.0,0.003337472462656881
3828.0,0.0033249258625469673
3827.0,0.0033098932815985773
3826.0,0.0033041220806889517
3825.0,0.0033142557503151827
3824.0,0.0033330074102608945
3823.0,0.00334281453232403
3822.0,0.003333931459460612
3821.0,0.0033206873986051802
3820.0,0.003326746131082115
3819.0,0.0033510575146650607
3818.0,0.0033734796537589233
3817.0,0.003379170478089757
3816.0,0.003370531424770071
3815.0,0.003361503548943142
3814.0,0.003358357760990761
3813.0,0.0033550891903298312
3812.0,0.0033467312060457754
3811.0,0.0033357572437248597
3810.0,0.0033273315841841344
3809.0,0.003322092222629842
3808.0,0.003316241103833083
3807.0,0.0033120160621732155
3806.0,0.003318613169317468
3805.0,0.0033370611938153914
3804.0,0.0033552501748658897
3803.0,0.003357863824817991
3802.0,0.0033431596770901037
3801.0,0.0033315881466850564
3800.0,0.0033389287379675505
3799.0,0.0033555817394221015
3798.0,0.0033652181693646756
3797.0,0.003364578792014809
3796.0,0.0033621165742783385
3795.0,0.0033635437762686675
3794.0,0.003365050955597467
3793.0,0.003361084656094385
3792.0,0.0033529499436392805
3791.0,0.0033472263129293465
3790.0,0.0033485152728574647
3789.0,0.0033553835433865068
3788.0,0.003361849193878096
3787.0,0.0033625764607887213
3786.0,0.003356516828142614
3785.0,0.0033477700120436455
3784.0,0.0033427728070779747
3783.0,0.0033455252208531754
3782.0,0.0033534192043761755
3781.0,0.0033598982482041283
3780.0,0.0033608625248431534
3779.0,0.003360162537963717
3778.0,0.0033644262907004873
3777.0,0.003373386112456831
3776.0,0.003381433554667812
3775.0,0.003385227170554804
3774.0,0.003386886560670441
3773.0,0.003389699927150061
3772.0,0.00339339786403226
3771.0,0.003396105648376298
3770.0,0.0034014780731654055
3769.0,0.0034154747521594423
3768.0,0.003434111658107042
3767.0,0.0034451475682054245
3766.0,0.0034415513366469995
3765.0,0.003429517744376431
3764.0,0.0034214388290545582
3763.0,0.003422789182184259
3762.0,0.003430737413276986
3761.0,0.0034406544307120273
3760.0,0.00344935526846142
3759.0,0.003456059775226189
3758.0,0.0034606282544247967
3757.0,0.003463725860139391
3756.0,0.0034664572667252435
3755.0,0.003471202703153868
3754.0,0.003480200065983461
3753.0,0.0034935702775850033
3752.0,0.0035057703562199937
3751.0,0.0035095480345067633
3750.0,0.0035061592903779665
3749.0,0.0035019209707307236
3748.0,0.0035003022742172733
3747.0,0.0034990052538547882
3746.0,0.0034932334185136336
3745.0,0.0034809659800178767
3744.0,0.0034722237520651176
3743.0,0.0034735887445090574
3742.0,0.0034778328987583726
3741.0,0.0034779511182414548
3740.0,0.0034764236045741236
3739.0,0.0034815111511172806
3738.0,0.0034958989098578027
3737.0,0.0035100477673412804
3736.0,0.003510869348164687
3735.0,0.0035017353969222275
3734.0,0.0034996220702607182
3733.0,0.003509904875741694
3732.0,0.0035228979430574573
3731.0,0.003531943540132896
3730.0,0.003538606271284609
3729.0,0.0035446171826424826
3728.0,0.003547965927950046
3727.0,0.003547456219222719
3726.0,0.0035487368675929318
3725.0,0.003558266008002865
3724.0,0.003572573778140315
3723.0,0.003582184542109795
3722.0,0.003584253379034813
3721.0,0.0035838946249973965
3720.0,0.0035856733129267654
3719.0,0.0035909276340464202
3718.0,0.0036018311380682745
3717.0,0.003622706779568414
3716.0,0.0036551411682769217
3715.0,0.003695500434425017
3714.0,0.003737464407833785
3713.0,0.0037763893018544154
3712.0,0.0038115434234863767
3711.0,0.0038452219552944714
3710.0,0.00388013607047816
3709.0,0.003916226898782822
3708.0,0.003951239698156918
3707.0,0.0039841613937391515
3706.0,0.004016791452861264
3705.0,0.0040530587012607595
3704.0,0.004096907062164091
3703.0,0.004149599343702224
3702.0,0.004208633327285137
3701.0,0.004269433561248533
3700.0,0.00432812153802393
3699.0,0.00438201113295825
3698.0,0.004428254086549488
3697.0,0.004464204118823812
3696.0,0.004490747683009453
3695.0,0.0045134384736554905
3694.0,0.004537025689540695
3693.0,0.004560293303538219
3692.0,0.0045787155023494465
3691.0,0.004591279103703598
3690.0,0.004604318142722685
3689.0,0.004625821456436834
3688.0,0.004654958919858291
3687.0,0.004684374880744107
3686.0,0.004710266533762486
3685.0,0.004733704104913984
3684.0,0.004757257841058192
3683.0,0.004782793894109425
3682.0,0.004811545644760068
3681.0,0.004844531314709278
3680.0,0.004883320272295128
3679.0,0.004930583945658246
3678.0,0.004988163199975535
3677.0,0.005051699964386633
3676.0,0.005112053152338707
3675.0,0.005172317522993915
3674.0,0.005242850471730542
3673.0,0.005319935075573767
3672.0,0.005392175360706405
3671.0,0.005450603761478606
3670.0,0.005497781576449767
3669.0,0.005546703186211047
3668.0,0.00560166974272471
3667.0,0.0056547404639820855
3666.0,0.005703996858707629
3665.0,0.005755212826807325
3664.0,0.005812617222847262
3663.0,0.005874085112458479
3662.0,0.00593536837375591
3661.0,0.0059962384616383466
3660.0,0.006059845702534348
3659.0,0.00612833815213994
3658.0,0.006200741651276058
3657.0,0.006274735348040503
3656.0,0.006350264468219463
3655.0,0.006430347606972423
3654.0,0.006517780601449462
3653.0,0.006612510215013178
3652.0,0.0067131565728554745
3651.0,0.006816445803374921
3650.0,0.006918171837770649
3649.0,0.007011398823528945
3648.0,0.0070882637012113
3647.0,0.007146772446806702
3646.0,0.0071967834148115774
3645.0,0.007249340035102166
3644.0,0.007308278331132527
3643.0,0.007371676259470545
3642.0,0.00743668397927616
3641.0,0.007502812714774888
3640.0,0.007569609131464129
3639.0,0.007637206688317065
3638.0,0.007709587291617893
3637.0,0.007792512921203509
3636.0,0.007886686380054804
3635.0,0.007984181606145705
3634.0,0.008076169409180305
3633.0,0.008162075999918968
3632.0,0.008249021697009888
3631.0,0.008343098595387673
3630.0,0.008442845423062674
3629.0,0.00854072713924916
3628.0,0.008634305921199816
3627.0,0.008725507996328485
3626.0,0.008812450102797225
3625.0,0.008895355407007276
3624.0,0.008977873525529964
3623.0,0.009064300277260948
3622.0,0.009154911566666042
3621.0,0.009242223304757763
3620.0,0.009314852936348013
3619.0,0.009370384589488827
3618.0,0.009419469242292122
3617.0,0.009471148657083863
3616.0,0.009524936227184063
3615.0,0.009577015105767278
3614.0,0.009626972793067913
3613.0,0.009678924456366622
3612.0,0.00973561394172934
3611.0,0.00979518650609951
3610.0,0.009854325751670277
3609.0,0.009910023434922182
3608.0,0.009961045994765166
3607.0,0.010009868719126345
3606.0,0.010061020582111406
3605.0,0.010116691193334016
3604.0,0.010175642113806366
3603.0,0.010235775955900413
3602.0,0.01029543900261011
3601.0,0.010352245034902351
3600.0,0.010404070828316963
3599.0,0.010451925542334695
3598.0,0.010499823440841643
3597.0,0.01055066498766004
3596.0,0.010603141265703771
3595.0,0.01065439985118378
3594.0,0.010705496238118218
3593.0,0.01076067329235686
3592.0,0.010821896048623507
3591.0,0.01088721948004568
3590.0,0.010953767480305826
3589.0,0.011018565566170108
3588.0,0.011079339744124134
3587.0,0.01113917114255604
3586.0,0.011203389209796395
3585.0,0.011270535874541835
3584.0,0.011335109201613208
3583.0,0.0113955585965525
3582.0,0.011454995970709491
3581.0,0.011515223772669564
3580.0,0.0115745593531392
3579.0,0.01163186629945279
3578.0,0.011689985064311896
3577.0,0.011751410007864062
3576.0,0.011813649832499136
3575.0,0.011872618385552135
3574.0,0.011929236255871395
3573.0,0.011988857766085223
3572.0,0.012054047187315328
3571.0,0.0121223560049064
3570.0,0.012190442634224892
3569.0,0.012257044506836408
3568.0,0.01232083189649732
3567.0,0.012381497416579122
3566.0,0.012442981964830596
3565.0,0.012507852989512147
3564.0,0.012572971867852174
3563.0,0.012634998333720485
3562.0,0.01269488817610484
3561.0,0.012756183632013468
3560.0,0.012819822715747012
3559.0,0.01288376274980846
3558.0,0.01294681028048539
3557.0,0.013010273090787831
3556.0,0.013076138052752762
3555.0,0.013145397888035263
3554.0,0.013217204003766733
3553.0,0.013288575777208461
3552.0,0.01335644620185666
3551.0,0.01342098916156046
3550.0,0.013485675434537676
3549.0,0.013553644926059608
3548.0,0.013624318311114162
3547.0,0.013694181239371408
3546.0,0.013760756153602626
3545.0,0.013824003893791195
3544.0,0.013885045248822673
3543.0,0.013945346938601392
3542.0,0.014006840586742512
3541.0,0.014070337372265429
3540.0,0.014134109123116398
3539.0,0.01419643115701381
3538.0,0.014258484561834532
3537.0,0.0143225570637985
3536.0,0.014388741856942423
3535.0,0.014455414769710566
3534.0,0.014522084675519516
3533.0,0.014589009877725972
3532.0,0.014655115756287723
3531.0,0.014718391811696135
3530.0,0.014779161799777257
3529.0,0.014840737564892719
3528.0,0.014906200548308615
3527.0,0.014975244745896885
3526.0,0.015043895255360994
3525.0,0.015106879200274363
3524.0,0.015162383163159106
3523.0,0.015215975570141219
3522.0,0.015276628265141146
3521.0,0.01534712554270309
3520.0,0.015421003934899157
3519.0,0.015490364009007405
3518.0,0.015553991943622444
3517.0,0.015615638235619244
3516.0,0.01567726822951013
3515.0,0.015737726323359645
3514.0,0.015796769930860783
3513.0,0.01585643057981435
3512.0,0.01591806513107811
3511.0,0.015980772776836155
3510.0,0.016043559892135812
3509.0,0.016107106652934435
3508.0,0.016173004999162747
3507.0,0.016242308126901375
3506.0,0.01631399370331672
3505.0,0.016383872512734893
3504.0,0.016446861232764214
3503.0,0.01650262211051127
3502.0,0.016557308304028975
3501.0,0.016617153462951093
3500.0,0.016682588164821037
3499.0,0.016750657275390032
3498.0,0.016819290367799118
3497.0,0.01688720577771546
3496.0,0.0169529418592905
3495.0,0.01701628566869645
3494.0,0.017079012091426867
3493.0,0.017142052262137653
3492.0,0.017204012350787227
3491.0,0.01726444839146101
3490.0,0.017326289008222934
3489.0,0.017391977045932594
3488.0,0.017459889052781487
3487.0,0.01752765884339892
3486.0,0.017596189414932434
3485.0,0.017666837341374864
3484.0,0.017736783776618515
3483.0,0.01780107361347344
3482.0,0.017858659343679986
3481.0,0.017912795790569994
3480.0,0.017966353795457787
3479.0,0.018020362245635944
3478.0,0.018076099857480554
3477.0,0.01813507903586033
3476.0,0.018197353597841952
3475.0,0.0182618836482059
3474.0,0.018327589211359473
3473.0,0.01839222173716045
3472.0,0.018452440459090357
3471.0,0.01850803059341677
3470.0,0.01856477416580849
3469.0,0.018629222417901433
3468.0,0.018700411726181664
3467.0,0.018769511551887
3466.0,0.01882801069030543
3465.0,0.018874872157517392
3464.0,0.018917012330488613
3463.0,0.018964668626955457
3462.0,0.01902387114428971
3461.0,0.01909083984073851
3460.0,0.019154590849999042
3459.0,0.019206857531490526
3458.0,0.01924941368493134
3457.0,0.019291483530272352
3456.0,0.019341712852128823
3455.0,0.019402459246955973
3454.0,0.019468658792753623
3453.0,0.019530606483509228
3452.0,0.019582034593379122
3451.0,0.01962729647252978
3450.0,0.01967725999595185
3449.0,0.019736492166437303
3448.0,0.01979777261719879
3447.0,0.01985236263251442
3446.0,0.019901386556061416
3445.0,0.01995175858467739
3444.0,0.020005386922940828
3443.0,0.020059114592891412
3442.0,0.020111576679464352
3441.0,0.020164192112384183
3440.0,0.020216847758098448
3439.0,0.020267939931115135
3438.0,0.02031811780979296
3437.0,0.02036935656426058
3436.0,0.020420522401064366
3435.0,0.020468580486606026
3434.0,0.02051452078295044
3433.0,0.020563581694470003
3432.0,0.02061886683075972
3431.0,0.020677833906566467
3430.0,0.020735840120694193
3429.0,0.020790051591164788
3428.0,0.02083900047931045
3427.0,0.02088151828697565
3426.0,0.020918136402806816
3425.0,0.02095236829561357
3424.0,0.020989083981623333
3423.0,0.021031485118916813
3422.0,0.021079145252483836
3421.0,0.021128547290009486
3420.0,0.02117637683656538
3419.0,0.021222435303598297
3418.0,0.021268409022367415
3417.0,0.02131392919650593
3416.0,0.021356121464562526
3415.0,0.021393751517355772
3414.0,0.02142918127350998
3413.0,0.021464795245334085
3412.0,0.021500341502436775
3411.0,0.021535780385554804
3410.0,0.021573654794896615
3409.0,0.021615963370630445
3408.0,0.021660894240261776
3407.0,0.021705348288537367
3406.0,0.02174818603303325
3405.0,0.02178844263360377
3404.0,0.021823229744927813
3403.0,0.021851096567513977
3402.0,0.02187562081073024
3401.0,0.021901746382736745
3400.0,0.02193018709631027
3399.0,0.021958830822466475
3398.0,0.02198788383812345
3397.0,0.022019462344931368
3396.0,0.022053531359258995
3395.0,0.022088396750399863
3394.0,0.022124326107065016
3393.0,0.022162488506398112
3392.0,0.022200337581497444
3391.0,0.022232079138221932
3390.0,0.02225448500112014
3389.0,0.02226981587927585
3388.0,0.022283149289206966
3387.0,0.022298804607288298
3386.0,0.02231872532711453
3385.0,0.022341762079268655
3384.0,0.02236461976714968
3383.0,0.022385289210394937
3382.0,0.02240508592322198
3381.0,0.02242599582775202
3380.0,0.02244749561801564
3379.0,0.02246808654171227
3378.0,0.022488451176739834
3377.0,0.022510375779515455
3376.0,0.02253312474100691
3375.0,0.02255364349749831
3374.0,0.022569725702652924
3373.0,0.022581123131678545
3372.0,0.022588450253293646
3371.0,0.02259340668908799
3370.0,0.02259922922060427
3369.0,0.02260842258685751
3368.0,0.022620090568501092
3367.0,0.022631018433801525
3366.0,0.02263901956379106
3365.0,0.022643999861017564
3364.0,0.02264717405873182
3363.0,0.022651031575958373
3362.0,0.02265874400972372
3361.0,0.02267158959415167
3360.0,0.022687450317024623
3359.0,0.02270310293318574
3358.0,0.02271677776681925
3357.0,0.022727595273435857
3356.0,0.022734744772958306
3355.0,0.022739112140993258
3354.0,0.022743464550435067
3353.0,0.022748888461736685
3352.0,0.02275287757152169
3351.0,0.02275316383856839
3350.0,0.022751492350852404
3349.0,0.02275099690201844
3348.0,0.022751635968198448
3347.0,0.022751342096665253
3346.0,0.022750600265772077
3345.0,0.022752273251440306
3344.0,0.022757430082616742
3343.0,0.022763738207425152
3342.0,0.022768003940114356
3341.0,0.022768310868792718
3340.0,0.022764402955913976
3339.0,0.022757861475960244
3338.0,0.022751378779009967
3337.0,0.022746293762980235
3336.0,0.02274143481863027
3335.0,0.022735830828891985
3334.0,0.022731127880971
3333.0,0.022729665827534367
3332.0,0.02273126781252092
3331.0,0.022733647636608418
3330.0,0.022734505561749444
3329.0,0.022731906299069893
3328.0,0.022724595212866378
3327.0,0.02271424049514093
3326.0,0.0227056392481228
3325.0,0.022701848015346256
3324.0,0.022700357679649435
3323.0,0.02269660185453468
3322.0,0.0226900339460277
3321.0,0.022683629409609284
3320.0,0.022678261967174516
3319.0,0.022671429535988157
3318.0,0.022662023446061715
3317.0,0.02265324940539972
3316.0,0.022649093371471318
3315.0,0.022649493899315205
3314.0,0.022650295383930073
3313.0,0.022647574238985314
3312.0,0.02264134196047779
3311.0,0.022634877568759575
3310.0,0.022630567795441484
3309.0,0.02262688073948203
3308.0,0.022620369377880933
3307.0,0.02261033365791384
3306.0,0.022600155741945082
3305.0,0.022593931398021377
3304.0,0.022593076918054195
3303.0,0.022595807888530276
3302.0,0.022597964104545804
3301.0,0.022594365205550773
3300.0,0.022582320604714184
3299.0,0.0225650601097541
3298.0,0.02254976042107241
3297.0,0.0225408931321906
3296.0,0.022536938255317687
3295.0,0.022533678146212942
3294.0,0.022528057697710505
3293.0,0.022518301304472722
3292.0,0.022503679768633777
3291.0,0.022486300400912835
3290.0,0.022470806093838936
3289.0,0.02246024889396717
3288.0,0.022453661750882394
3287.0,0.022448278578058783
3286.0,0.022441725139660817
3285.0,0.02243107499833191
3284.0,0.022413491414228093
3283.0,0.022390248606823048
3282.0,0.02236720240213656
3281.0,0.022348355763023246
3280.0,0.02233095806094789
3279.0,0.0223096538208517
3278.0,0.02228339410481741
3277.0,0.022255532416039423
3276.0,0.02222903660652142
3275.0,0.02220469325313519
3274.0,0.022182518928239046
3273.0,0.02216170973497582
3272.0,0.022139852600435866
3271.0,0.022114768817431206
3270.0,0.022086743833435375
3269.0,0.022057171959860514
3268.0,0.022026235203016047
3267.0,0.021993903715657966
3266.0,0.021962003540680657
3265.0,0.021932852808366005
3264.0,0.02190643596958652
3263.0,0.02188073609095788
3262.0,0.02185399515984206
3261.0,0.021825025916452998
3260.0,0.02179229166661244
3259.0,0.02175485104209142
3258.0,0.021713811802472106
3257.0,0.02167131163006289
3256.0,0.02162848730556725
3255.0,0.02158556615636365
3254.0,0.021543236510205618
3253.0,0.021502953939908545
3252.0,0.021466509819147307
3251.0,0.021435354937351884
3250.0,0.02140870739743017
3249.0,0.021381867272147023
3248.0,0.021348803257211526
3247.0,0.021307994326218525
3246.0,0.021263951603052472
3245.0,0.02122169234947725
3244.0,0.02118159793957592
3243.0,0.02114123810714711
3242.0,0.021099970047507403
3241.0,0.021059417973199563
3240.0,0.02102084742796968
3239.0,0.020984135830708645
3238.0,0.02094842911368266
3237.0,0.020912389893840172
3236.0,0.02087466054483084
3235.0,0.02083511813348938
3234.0,0.020794589509389273
3233.0,0.020753039960905804
3232.0,0.020709938822433167
3231.0,0.02066679267578976
3230.0,0.02062653277530107
3229.0,0.02058922469403264
3228.0,0.02055098980395865
3227.0,0.020509022686954866
3226.0,0.020465191772149942
3225.0,0.020422796285565033
3224.0,0.02038195108211983
3223.0,0.02034030195959559
3222.0,0.020296528329415305
3221.0,0.020251114495454126
3220.0,0.02020512840816102
3219.0,0.020159765946553637
3218.0,0.02011560517362925
3217.0,0.02007126387192872
3216.0,0.02002474068177441
3215.0,0.019977324822838274
3214.0,0.019933663600613653
3213.0,0.01989621809922015
3212.0,0.019861652644283512
3211.0,0.019824346625490968
3210.0,0.019781246164135593
3209.0,0.019732086048696036
3208.0,0.019677733398701977
3207.0,0.01962060054743895
3206.0,0.01956440648106649
3205.0,0.019511081537362883
3204.0,0.01945956465065218
3203.0,0.019409195333271904
3202.0,0.019361679049080635
3201.0,0.0193175414358316
3200.0,0.01927349795550598
3199.0,0.019226406742370392
3198.0,0.019177640196226566
3197.0,0.019130353687603817
3196.0,0.019084013770564654
3195.0,0.019034867029758984
3194.0,0.018980717990510293
3193.0,0.018922639904783763
3192.0,0.018863304151630032
3191.0,0.018805899953640362
3190.0,0.01875332547692675
3189.0,0.0187053914293691
3188.0,0.01865752456486694
3187.0,0.018604670295052316
3186.0,0.018546246785203835
3185.0,0.01848578681851919
3184.0,0.018426662663761268
3183.0,0.01836998888541671
3182.0,0.018315165925675655
3181.0,0.018260304334032088
3180.0,0.01820320653103084
3179.0,0.018144071147304635
3178.0,0.018086269024633297
3177.0,0.01803235067417267
3176.0,0.017980251018698608
3175.0,0.017925294737171037
3174.0,0.017865250703630986
3173.0,0.017802020209000523
3172.0,0.0177396198692317
3171.0,0.017682164627576404
3170.0,0.01763215165441138
3169.0,0.017588091577003303
3168.0,0.0175442637030899
3167.0,0.017494935064872964
3166.0,0.017438684865625775
3165.0,0.01737812784647667
3164.0,0.01731672666700996
3163.0,0.017256939350166284
3162.0,0.017199596175259506
3161.0,0.017143211325260536
3160.0,0.017085077590203883
3159.0,0.017024564837694735
3158.0,0.016964336870602552
3157.0,0.016906865810408234
3156.0,0.01685154077629375
3155.0,0.016796727604427904
3154.0,0.016742994496869806
3153.0,0.01669198408168288
3152.0,0.016643428268983934
3151.0,0.016594954397133085
3150.0,0.016544003117083886
3149.0,0.01648848190069397
3148.0,0.016427314689158964
3147.0,0.016362629561969315
3146.0,0.016300082550394262
3145.0,0.016244458702568496
3144.0,0.016195461649341724
3143.0,0.016149224321941436
3142.0,0.016102782480081564
3141.0,0.016055270696329435
3140.0,0.016006539335938093
3139.0,0.015957040600176033
3138.0,0.015908595490585483
3137.0,0.015862463906649634
3136.0,0.015817168944990287
3135.0,0.0157700287749475
3134.0,0.015720668585518675
3133.0,0.0156712922839512
3132.0,0.015623883382213776
3131.0,0.015578429411698607
3130.0,0.01553385481934286
3129.0,0.01548942605059599
3128.0,0.015445455275650187
3127.0,0.015402889462779519
3126.0,0.015361314375362093
3125.0,0.01531742305041476
3124.0,0.015267457869542929
3123.0,0.015212163094106043
3122.0,0.015157178766184234
3121.0,0.01510691506465835
3120.0,0.015060187894412758
3119.0,0.015013715316674864
3118.0,0.014967569114298727
3117.0,0.01492454174196807
3116.0,0.014885610806185404
3115.0,0.014848944029070797
3114.0,0.014812978979126451
3113.0,0.014777734523004564
3112.0,0.01474297597761529
3111.0,0.014707233200602802
3110.0,0.01466936732756674
3109.0,0.01463004104859321
3108.0,0.014591348863009772
3107.0,0.0145546886022355
3106.0,0.014518744801707041
3105.0,0.01447983874607836
3104.0,0.014435765973148811
3103.0,0.014389345093123
3102.0,0.014346429564278153
3101.0,0.01431007103606586
3100.0,0.014278403395543624
3099.0,0.014248682208894359
3098.0,0.014220207634394227
3097.0,0.01419220219280955
3096.0,0.014162190699793457
3095.0,0.014128737604445073
3094.0,0.01409353894579243
3093.0,0.014058194136524954
3092.0,0.014021319363126731
3091.0,0.013981607853102585
3090.0,0.013941504181160774
3089.0,0.01390470887390213
3088.0,0.013871530659531815
3087.0,0.013839431818911362
3086.0,0.013806995396123636
3085.0,0.01377364331384614
3084.0,0.01373690701212958
3083.0,0.0136941285630962
3082.0,0.013647261751664318
3081.0,0.013602756034399744
3080.0,0.013565151591206701
3079.0,0.013533229138366845
3078.0,0.013502864622471453
3077.0,0.013471552120084168
3076.0,0.013439257093759748
3075.0,0.013406639037552551
3074.0,0.013373849608970412
3073.0,0.013340155656527283
3072.0,0.013304159879207241
3071.0,0.013265106280953114
3070.0,0.013224298476851932
3069.0,0.013184350192619555
3068.0,0.013146570702027092
3067.0,0.01310978487838687
3066.0,0.013071964928003799
3065.0,0.01303269592977606
3064.0,0.012993695828622724
3063.0,0.01295684434078463
3062.0,0.012921815772924814
3061.0,0.012885838541296052
3060.0,0.01284617153577443
3059.0,0.012802809141083029
3058.0,0.012758400260768412
3057.0,0.012715814388065233
3056.0,0.012676505347813454
3055.0,0.012640074370646997
3054.0,0.012604113648561236
3053.0,0.012565118189213636
3052.0,0.01252185990424911
3051.0,0.012477663307575469
3050.0,0.012437069670485728
3049.0,0.012400007562836442
3048.0,0.012361694983708612
3047.0,0.012318748090485693
3046.0,0.012272184682405528
3045.0,0.012224168720988972
3044.0,0.012174977400229709
3043.0,0.012125532130741483
3042.0,0.01207982063271565
3041.0,0.012042342195307702
3040.0,0.012013808324300605
3039.0,0.011990435837649806
3038.0,0.011965828957391365
3037.0,0.011933419103971271
3036.0,0.01189047435370527
3035.0,0.011841714543658835
3034.0,0.01179635256541071
3033.0,0.011759047470322852
3032.0,0.011726207556837065
3031.0,0.011692181813228163
3030.0,0.011656645478349872
3029.0,0.011622496896624628
3028.0,0.011589879812873445
3027.0,0.011555959343117178
3026.0,0.011519214306631229
3025.0,0.011480910132406062
3024.0,0.011442756298537773
3023.0,0.0114055853381116
3022.0,0.011369463428065784
3021.0,0.011333283617874945
3020.0,0.011295273705951304
3019.0,0.011255806768413316
3018.0,0.011218523822289746
3017.0,0.0111868617599181
3016.0,0.01116027226294222
3015.0,0.011135471370275558
3014.0,0.011109681211454892
3013.0,0.011081754445713077
3012.0,0.011052229578723058
3011.0,0.011024179754339912
3010.0,0.011001636075562924
3009.0,0.010984958289553336
3008.0,0.010969650803155774
3007.0,0.010951722676191114
3006.0,0.01093187282211211
3005.0,0.010912718712154058
3004.0,0.01089429982480621
3003.0,0.010875373335766802
3002.0,0.010856565287914602
3001.0,0.010839317520475037
3000.0,0.010823521631983295
2999.0,0.01080952868089386
2998.0,0.010799970919079227
2997.0,0.010795821749803662
2996.0,0.01079207302964455
2995.0,0.01078230915888566
2994.0,0.010767080844990813
2993.0,0.010754255559846222
2992.0,0.010750256171429173
2991.0,0.010754682475931494
2990.0,0.010763058214119865
2989.0,0.010771669842244468
2988.0,0.010778609666195
2987.0,0.010783088795295773
2986.0,0.010785562486990691
2985.0,0.010787402963809901
2984.0,0.01078996929116687
2983.0,0.010794419422293575
2982.0,0.010801748355884726
2981.0,0.01081183932769897
2980.0,0.010823290402666398
2979.0,0.01083542569296982
2978.0,0.010849511807300705
2977.0,0.01086640916825582
2976.0,0.010884462503067297
2975.0,0.010901394667981382
2974.0,0.01091734113141441
2973.0,0.010933846116750873
2972.0,0.010951026873764674
2971.0,0.010967665155887261
2970.0,0.010983402195523382
2969.0,0.010998894233114337
2968.0,0.011014505078272103
2967.0,0.011030369972958157
2966.0,0.011046455979678883
2965.0,0.011060859476400725
2964.0,0.011069579866900584
2963.0,0.0110702570641496
2962.0,0.01106500811670324
2961.0,0.01105756218330046
2960.0,0.011048996715768523
2959.0,0.011038354086537309
2958.0,0.011025753892575678
2957.0,0.011012009657094375
2956.0,0.010996328739004819
2955.0,0.010977199369526115
2954.0,0.010955219497575271
2953.0,0.010932900889259991
2952.0,0.010912531650773683
2951.0,0.010895959715275646
2950.0,0.01088501478969028
2949.0,0.010879914186148943
2948.0,0.010878054881595534
2947.0,0.010876884940296906
2946.0,0.010876874057714418
2945.0,0.010880407945106942
2944.0,0.010888940832439404
2943.0,0.010903124813192411
2942.0,0.010923367031924983
2941.0,0.010947630005393123
2940.0,0.010970662756107087
2939.0,0.01098867992042887
2938.0,0.011003832115781289
2937.0,0.011020897723590243
2936.0,0.01104045910357843
2935.0,0.011058265177942419
2934.0,0.011069749979849972
2933.0,0.011072675265993743
2932.0,0.011066873293131307
2931.0,0.011054921556898637
2930.0,0.011041476579000925
2929.0,0.011027913489516924
2928.0,0.011009125970863454
2927.0,0.010979309565205979
2926.0,0.010940271613013284
2925.0,0.010899142782002129
2924.0,0.010858518538099689
2923.0,0.010813570036090625
2922.0,0.010759052764063507
2921.0,0.010695495890787587
2920.0,0.010627459933752326
2919.0,0.010559776505733042
2918.0,0.010495964728297374
2917.0,0.010437418202555868
2916.0,0.010382868654653668
2915.0,0.010330329344309363
2914.0,0.010279662435097743
2913.0,0.010231772681867915
2912.0,0.010186051800670181
2911.0,0.010140592281739438
2910.0,0.010094303660336885
2909.0,0.010046863039135287
2908.0,0.009997445532135527
2907.0,0.00994565403023812
2906.0,0.00989361408166431
2905.0,0.009845014624136776
2904.0,0.009801633088155102
2903.0,0.009762157817061192
2902.0,0.009724070327299297
2901.0,0.009685371405001544
2900.0,0.009646148014481045
2899.0,0.009608361489829674
2898.0,0.009574451399783461
2897.0,0.009544589781371503
2896.0,0.00951603423533683
2895.0,0.00948613704033568
2894.0,0.009454581056819296
2893.0,0.009421787277437275
2892.0,0.009387356791336171
2891.0,0.009351981324494886
2890.0,0.009319314515957472
2889.0,0.009293189186594063
2888.0,0.009273416296995091
2887.0,0.009256401641211276
2886.0,0.009239335717160901
2885.0,0.009222516141057983
2884.0,0.009208057945192085
2883.0,0.009197458473822055
2882.0,0.009189775720204579
2881.0,0.009181207699978194
2880.0,0.009168009667912544
2879.0,0.009150180784699766
2878.0,0.009131097156477449
2877.0,0.009112699877050857
2876.0,0.009093950415156177
2875.0,0.009075001024193431
2874.0,0.009059046385004738
2873.0,0.009047043464780503
2872.0,0.009033466506168413
2871.0,0.009011134650598248
2870.0,0.008979431414275395
2869.0,0.008944217917425057
2868.0,0.008910929438073235
2867.0,0.008881090716666363
2866.0,0.008854284114417481
2865.0,0.008830158201594374
2864.0,0.00880823784784929
2863.0,0.008788633800125567
2862.0,0.00877240925932282
2861.0,0.00875898609228215
2860.0,0.00874433269464074
2859.0,0.008724635066679734
2858.0,0.008700981111606993
2857.0,0.008677110964185063
2856.0,0.008653185121698489
2855.0,0.008625142598631376
2854.0,0.008589908401427551
2853.0,0.008548706039524364
2852.0,0.008505131616834657
2851.0,0.008462089672752195
2850.0,0.008420743236786807
2849.0,0.008380028155811393
2848.0,0.008337206696123147
2847.0,0.008290060772570296
2846.0,0.008238381295346282
2845.0,0.008182784493669014
2844.0,0.008123677562953166
2843.0,0.008062757703105793
2842.0,0.008003488827460258
2841.0,0.007948174723086055
2840.0,0.007895743840914134
2839.0,0.00784440858103888
2838.0,0.0077948509070193284
2837.0,0.00774892112577294
2836.0,0.007706821367345289
2835.0,0.007667939506638447
2834.0,0.007632977017030106
2833.0,0.007602539777591703
2832.0,0.007574679299652555
2831.0,0.007546512146303221
2830.0,0.007517494293979835
2829.0,0.00748864522229134
2828.0,0.0074594473702234345
2827.0,0.007428411175915311
2826.0,0.007396089671564627
2825.0,0.007364920738708756
2824.0,0.0073362198722141565
2823.0,0.00730964315786958
2822.0,0.007285002309972017
2821.0,0.007262299482544976
2820.0,0.007240372534960779
2819.0,0.007217894585523086
2818.0,0.007195565331593193
2817.0,0.007175128121905466
2816.0,0.007156361985855597
2815.0,0.007136991502914242
2814.0,0.007115404612784478
2813.0,0.0070917293546412345
2812.0,0.007066554992601013
2811.0,0.00704044459137256
2810.0,0.007014723970448252
2809.0,0.006991008627259343
2808.0,0.0069698015372358525
2807.0,0.006950571238431173
2806.0,0.0069327468749666825
2805.0,0.006915732717795312
2804.0,0.006898591335217363
2803.0,0.006880928967727188
2802.0,0.00686338963157849
2801.0,0.006846474271573607
2800.0,0.0068299813716068
2799.0,0.006814328236057923
2798.0,0.006800671433978648
2797.0,0.00678847913384209
2796.0,0.0067747979429462375
2795.0,0.006757575927966091
2794.0,0.006737974149603577
2793.0,0.006717852911281614
2792.0,0.006697152354751502
2791.0,0.006675727696672178
2790.0,0.006655693791701535
2789.0,0.006639057753539944
2788.0,0.006624536230633518
2787.0,0.006609342729763204
2786.0,0.00659287463544761
2785.0,0.0065763993919688915
2784.0,0.006560419648055489
2783.0,0.006544904383386256
2782.0,0.006531022451968455
2781.0,0.006519861424272636
2780.0,0.006510102962708767
2779.0,0.006499240460773515
2778.0,0.006486265302268564
2777.0,0.00647128885496364
2776.0,0.006453929959150282
2775.0,0.006434474880127901
2774.0,0.00641544679690757
2773.0,0.006399368193371257
2772.0,0.00638573432150327
2771.0,0.0063725679327665844
2770.0,0.00635980343086786
2769.0,0.006348458830851745
2768.0,0.006337457226713984
2767.0,0.006324214537294397
2766.0,0.006308097583766682
2765.0,0.006290873798380413
2764.0,0.006274096779437639
2763.0,0.006258439907058377
2762.0,0.006244980353014433
2761.0,0.006234642122965247
2760.0,0.006226410961270176
2759.0,0.006218080369651772
2758.0,0.006208456088953747
2757.0,0.006197374152453698
2756.0,0.0061843907982301015
2755.0,0.006169569991902243
2754.0,0.006154892722162901
2753.0,0.0061426507480701305
2752.0,0.006132742467580916
2751.0,0.006123066973638994
2750.0,0.006111892293309523
2749.0,0.0060984569094884805
2748.0,0.006082606877341136
2747.0,0.006065878476938871
2746.0,0.0060516614531251275
2745.0,0.006041862972927166
2744.0,0.006033979826718165
2743.0,0.006023630490891804
2742.0,0.006009515995128509
2741.0,0.00599429567500244
2740.0,0.0059814440816670375
2739.0,0.00597289770903027
2738.0,0.00596847108790789
2737.0,0.005965349134244932
2736.0,0.0059589293003148615
2735.0,0.0059466281194867025
2734.0,0.005930458877345232
2733.0,0.0059144989145666705
2732.0,0.005900592851176487
2731.0,0.005888212696353029
2730.0,0.005876921813511005
2729.0,0.005866564618497553
2728.0,0.005856034260716418
2727.0,0.005844190290608163
2726.0,0.005831620081216907
2725.0,0.005819790216578216
2724.0,0.005809156524206168
2723.0,0.005799363674185908
2722.0,0.005790124625398812
2721.0,0.0057804495298246494
2720.0,0.00576866589404422
2719.0,0.005755040832005276
2718.0,0.005742732273878003
2717.0,0.005733890618424182
2716.0,0.005726376685312916
2715.0,0.005716515103202839
2714.0,0.005703825090062385
2713.0,0.00569077303098999
2712.0,0.005679210327369721
2711.0,0.00566927227092193
2710.0,0.0056604165768024215
2709.0,0.005651094776699992
2708.0,0.005638650723920727
2707.0,0.005622133123106941
2706.0,0.005604253184258255
2705.0,0.00558862267460464
2704.0,0.00557615104799947
2703.0,0.005566093863805867
2702.0,0.005558690941626851
2701.0,0.00555403992754195
2700.0,0.005549853274610194
2699.0,0.005543366040546778
2698.0,0.005534648031729922
2697.0,0.005525540469671481
2696.0,0.0055163548210681364
2695.0,0.005506084265968546
2694.0,0.0054951108081033725
2693.0,0.00548512052525679
2692.0,0.005477058099091638
2691.0,0.005470859445464717
2690.0,0.005465997439556325
2689.0,0.0054603579685714625
2688.0,0.005450409359694008
2687.0,0.005435288307979636
2686.0,0.005419423273341756
2685.0,0.005408335099877527
2684.0,0.005402606577661927
2683.0,0.005398247214197074
2682.0,0.005391776848563945
2681.0,0.005382634102325045
2680.0,0.005371873895831675
2679.0,0.005361369679514024
2678.0,0.005353222532352714
2677.0,0.005347490753266575
2676.0,0.0053412535139266285
2675.0,0.00533212607275296
2674.0,0.005321516360842611
2673.0,0.0053124053160778575
2672.0,0.005305588334953911
2671.0,0.005300563584360066
2670.0,0.005298013287436991
2669.0,0.0052982470692074825
2668.0,0.005298839458709425
2667.0,0.0052978622256899255
2666.0,0.0052986382524105695
2665.0,0.005307612985390835
2664.0,0.005327154373846677
2663.0,0.0053532262796329045
2662.0,0.005379619467804058
2661.0,0.0054022145894284754
2660.0,0.005419684759697607
2659.0,0.005433100098701949
2658.0,0.005445107948457999
2657.0,0.0054574190200603456
2656.0,0.005469255487267311
2655.0,0.005479583638294677
2654.0,0.005489296383008193
2653.0,0.005498876946318344
2652.0,0.005505518777902349
2651.0,0.005506056425031053
2650.0,0.005502068889132082
2649.0,0.0054991881198765595
2648.0,0.005501226481964148
2647.0,0.005507267497808907
2646.0,0.0055136680725040325
2645.0,0.005516730528296167
2644.0,0.005514643045646338
2643.0,0.005509528565160317
2642.0,0.005506839718656049
2641.0,0.005510083985135524
2640.0,0.005516876523156768
2639.0,0.0055222417993534036
2638.0,0.005524301236370453
2637.0,0.005524334656759998
2636.0,0.005523333189389226
2635.0,0.005521849697365121
2634.0,0.005521364615292227
2633.0,0.005522183169761267
2632.0,0.0055213463548520565
2631.0,0.005516445422656659
2630.0,0.005510224190041629
2629.0,0.005507613502964429
2628.0,0.005509286066172466
2627.0,0.005512062334000026
2626.0,0.005514479988982842
2625.0,0.005517647723560094
2624.0,0.005521184745509601
2623.0,0.005522692490834581
2622.0,0.00552128377155422
2621.0,0.005518180972969012
2620.0,0.005513966476403223
2619.0,0.005508529195464089
2618.0,0.00550331389244182
2617.0,0.005500436971592284
2616.0,0.005499988945384675
2615.0,0.00550093740009272
2614.0,0.00550348139841073
2613.0,0.00550722523394946
2612.0,0.005508613190216067
2611.0,0.005504148737604468
2610.0,0.005495361153459205
2609.0,0.005487127382602105
2608.0,0.005481898253829964
2607.0,0.005478987552410376
2606.0,0.005478026034705121
2605.0,0.005478842019839563
2604.0,0.005478871517973421
2603.0,0.005475024190749229
2602.0,0.005467896553727618
2601.0,0.005460737264363303
2600.0,0.005454764510559679
2599.0,0.005448774917012433
2598.0,0.0054424250940822575
2597.0,0.005436500007634744
2596.0,0.005430778449314305
2595.0,0.005424901747180826
2594.0,0.005420330715408933
2593.0,0.00541844375284063
2592.0,0.005417964220991211
2591.0,0.005417090440590045
2590.0,0.005416240212587633
2589.0,0.0054154057995160635
2588.0,0.0054110146659812
2587.0,0.005399511782567823
2586.0,0.005382734951587663
2585.0,0.005366357666776614
2584.0,0.005354479330768339
2583.0,0.0053482901463956425
2582.0,0.005347380668025477
2581.0,0.0053491083298993795
2580.0,0.0053494065923404555
2579.0,0.005347356338846047
2578.0,0.005345974800501913
2577.0,0.005345641487567649
2576.0,0.005341533537950902
2575.0,0.005332013227450208
2574.0,0.005324439391101892
2573.0,0.00532623628113442
2572.0,0.00533377085471761
2571.0,0.005336689052757662
2570.0,0.005330516419422384
2569.0,0.005318624571026759
2568.0,0.005305094235856828
2567.0,0.005292822289173781
2566.0,0.005286326968060682
2565.0,0.005288549050496981
2564.0,0.005295411185344556
2563.0,0.005299720959572877
2562.0,0.005299622791922282
2561.0,0.0052977246215670576
2560.0,0.00529411905574768
2559.0,0.005287015565119036
2558.0,0.005279087704466369
2557.0,0.005276024757295102
2556.0,0.005278772338306755
2555.0,0.0052828889431460945
2554.0,0.005285279004693996
2553.0,0.005286122477182103
2552.0,0.005285095657439303
2551.0,0.005281710554895347
2550.0,0.005278979613360388
2549.0,0.005280981121186608
2548.0,0.0052867834912398645
2547.0,0.005291614565148024
2546.0,0.0052935393657167875
2545.0,0.005294261899477933
2544.0,0.005294463529461421
2543.0,0.005293424188227298
2542.0,0.005292365031970291
2541.0,0.005293233088031876
2540.0,0.0052952213375288375
2539.0,0.005297279634859686
2538.0,0.00530265117642948
2537.0,0.005315641711115102
2536.0,0.005335071479619237
2535.0,0.005355611069442587
2534.0,0.005374007594241546
2533.0,0.005389160817605263
2532.0,0.005398536149644228
2531.0,0.005400932256572728
2530.0,0.005401432191951442
2529.0,0.0054070927275612765
2528.0,0.005417942353404686
2527.0,0.005427773963604386
2526.0,0.0054335250435542945
2525.0,0.0054384622832429575
2524.0,0.005446102111453325
2523.0,0.005455930094793983
2522.0,0.005465082168219252
2521.0,0.005470280978841017
2520.0,0.005469015566084143
2519.0,0.005462890231685419
2518.0,0.005458161698882656
2517.0,0.005458574411723657
2516.0,0.0054593165217674535
2515.0,0.005452853605521386
2514.0,0.0054387613304740815
2513.0,0.005422810444379266
2512.0,0.005408451298884549
2511.0,0.005394816803365314
2510.0,0.005381294491985048
2509.0,0.005368051582882781
2508.0,0.0053531203607024925
2507.0,0.005334752957454625
2506.0,0.005315850086902627
2505.0,0.005300494216794873
2504.0,0.005286905816249397
2503.0,0.005269515505157572
2502.0,0.005247494349082067
2501.0,0.005225695538369801
2500.0,0.005207347107966387
2499.0,0.0051909072220624325
2498.0,0.00517395281230735
2497.0,0.0051553316198758225
2496.0,0.005133668704695968
2495.0,0.005108353416042599
2494.0,0.0050819883293113524
2493.0,0.005057957143108224
2492.0,0.005036001134418057
2491.0,0.0050139026802504
2490.0,0.004992256836248189
2489.0,0.004973461105777917
2488.0,0.004957168561675393
2487.0,0.004941104449478902
2486.0,0.004925250198750111
2485.0,0.004911119009143626
2484.0,0.004898002000063853
2483.0,0.004883857245765416
2482.0,0.0048686145301354
2481.0,0.004853182096231695
2480.0,0.004837235648873844
2479.0,0.004821614869254355
2478.0,0.004810105890599295
2477.0,0.0048041881691747185
2476.0,0.004798529718271245
2475.0,0.004786849402046841
2474.0,0.004770268712056705
2473.0,0.004754907523813512
2472.0,0.004743287297411876
2471.0,0.0047332647767852854
2470.0,0.004723438230810766
2469.0,0.004714114089745954
2468.0,0.0047044240948822215
2467.0,0.004693762694714972
2466.0,0.0046849013793866055
2465.0,0.004680842840709889
2464.0,0.004679943793118475
2463.0,0.004678742026019728
2462.0,0.004677956930295169
2461.0,0.004680740355235384
2460.0,0.004686531017733351
2459.0,0.004691600123912381
2458.0,0.004694543231823889
2457.0,0.004696592323355523
2456.0,0.00469767936524384
2455.0,0.004696440479732677
2454.0,0.004692931039749277
2453.0,0.004687549931716773
2452.0,0.004679052949310253
2451.0,0.004667394232722943
2450.0,0.004656235164021217
2449.0,0.0046485082091064465
2448.0,0.0046419165427404796
2447.0,0.004633073306574679
2446.0,0.004623309951714518
2445.0,0.004615688704755092
2444.0,0.004609092052815686
2443.0,0.004600422311688943
2442.0,0.004590329048593008
2441.0,0.0045817199266471485
2440.0,0.004574625950762435
2439.0,0.004566998017144274
2438.0,0.0045581648715162845
2437.0,0.00454734998972533
2436.0,0.004532135765941121
2435.0,0.004513385614826086
2434.0,0.004498113014966478
2433.0,0.00449158983079451
2432.0,0.004489269268325701
2431.0,0.004482518872522618
2430.0,0.004469973783123871
2429.0,0.004457477353456467
2428.0,0.004449004353377044
2427.0,0.004443385600394774
2426.0,0.004437984788948807
2425.0,0.004430083618715571
2424.0,0.0044166713971139
2423.0,0.004398514731831175
2422.0,0.0043827922518154885
2421.0,0.004376426757439952
2420.0,0.004378228419484353
2419.0,0.0043818493541807795
2418.0,0.004383714445662674
2417.0,0.0043831596248428955
2416.0,0.004378047477313923
2415.0,0.004366572396996505
2414.0,0.004351963678837268
2413.0,0.004340077742236959
2412.0,0.0043330735392962325
2411.0,0.004328959373836346
2410.0,0.004324960559172884
2409.0,0.004317546136020293
2408.0,0.004302490249253054
2407.0,0.004280079388618546
2406.0,0.004257490760295935
2405.0,0.004241244942168042
2404.0,0.0042300824413718996
2403.0,0.00421960991401276
2402.0,0.004210069630715867
2401.0,0.004204339676734199
2400.0,0.004201617159560587
2399.0,0.004198663754959457
2398.0,0.004194632545805736
2397.0,0.004189714678818553
2396.0,0.0041822009593188965
2395.0,0.00417215725324442
2394.0,0.004164480285364752
2393.0,0.0041624055688673
2392.0,0.00416133439774957
2391.0,0.004155172853846695
2390.0,0.004145894806922256
2389.0,0.004140542678771016
2388.0,0.004140751184476523
2387.0,0.004141384136204554
2386.0,0.004137897774171478
2385.0,0.00412923129309556
2384.0,0.004114695670632225
2383.0,0.004093504697638825
2382.0,0.0040662489228441715
2381.0,0.004031864124264097
2380.0,0.003985091540138413
2379.0,0.00392454329100991
2378.0,0.0038627803889529364
2377.0,0.003818964433342789
2376.0,0.0037998423881576548
2375.0,0.0037963370132886795
2374.0,0.0037990639424873365
2373.0,0.0038067282553219126
2372.0,0.0038178413199550223
2371.0,0.003827549853791734
2370.0,0.0038364811843083005
2369.0,0.003848737624966044
2368.0,0.0038586413495290666
2367.0,0.0038556770793072978
2366.0,0.003842774500880502
2365.0,0.0038319128289217227
2364.0,0.003825658726368362
2363.0,0.0038246682824837367
2362.0,0.0038391396166195697
2361.0,0.003866051207338294
2360.0,0.0038763206691009595
2359.0,0.0038543271620440026
2358.0,0.0038252065132009907
2357.0,0.0038160226000742573
2356.0,0.003817715646791714
2355.0,0.00381217438131155
2354.0,0.003798724448623129
2353.0,0.0037837137295178057
2352.0,0.003773268509479174
2351.0,0.0037772352426738787
2350.0,0.0038017666114686125
2349.0,0.0038375609032655564
2348.0,0.003865996292102659
2347.0,0.0038751318164988438
2346.0,0.0038731510639806992
2345.0,0.0038836909440477553
2344.0,0.0039122711809229
2343.0,0.003939626614400168
2342.0,0.003947913845322142
2341.0,0.003938806450126521
2340.0,0.003924988365576573
2339.0,0.0039179849141913045
2338.0,0.003927044036577807
2337.0,0.003949454547474529
2336.0,0.003968710550218525
2335.0,0.003970265704555437
2334.0,0.003957825243184803
2333.0,0.003941290042874816
2332.0,0.00392433767971969
2331.0,0.003908012627994526
2330.0,0.003910904014182761
2329.0,0.0039600723941593105
2328.0,0.004071855474327087
2327.0,0.004240155132207702
2326.0,0.00443409134587247
2325.0,0.004599446269201062
2324.0,0.00467731410279206
2323.0,0.004648770743793987
2322.0,0.0045574479252787625
2321.0,0.0044689986978574785
2320.0,0.004416203875765188
2319.0,0.004393141488738182
2318.0,0.004388226337336047
2317.0,0.004392037558998621
2316.0,0.0043922698312428106
2315.0,0.004378542672577073
2314.0,0.004358101938731986
2313.0,0.004347006299150139
2312.0,0.004351534782357862
2311.0,0.004363900193913446
2310.0,0.004377002133536989
2309.0,0.004388717357876165
2308.0,0.004397803164298565
2307.0,0.004405006029584158
2306.0,0.004417280228179293
2305.0,0.004439611280722904
2304.0,0.004467253864657019
2303.0,0.004491916591486714
2302.0,0.004513245443375889
2301.0,0.004534280521397311
2300.0,0.0045533692902596495
2299.0,0.004567956405996044
2298.0,0.004583934202946799
2297.0,0.00460763050617167
2296.0,0.00463488858216162
2295.0,0.004657704120873157
2294.0,0.004679647307242498
2293.0,0.004711673719515119
2292.0,0.004755391301621158
2291.0,0.0048018541693530085
2290.0,0.004845248314194922
2289.0,0.004886448031155685
2288.0,0.004922908701807743
2287.0,0.004946903948933267
2286.0,0.004954699541367812
2285.0,0.004949058773417846
2284.0,0.004932181440243899
2283.0,0.0049053387494042274
2282.0,0.004875058977357478
2281.0,0.004850421655037508
2280.0,0.004833499198851076
2279.0,0.004820597393677513
2278.0,0.00481134397804281
2277.0,0.004807331480367788
2276.0,0.0048045654507574516
2275.0,0.004797991596958491
2274.0,0.0047919119424360895
2273.0,0.004794070910086052
2272.0,0.0048015663340060235
2271.0,0.004803415031656902
2270.0,0.0047952620643967265
2269.0,0.004780002130903634
2268.0,0.00475749073422453
2267.0,0.004726580993096569
2266.0,0.004695170513395517
2265.0,0.004674654545778975
2264.0,0.004665505725206313
2263.0,0.004660603801801248
2262.0,0.00466047104931171
2261.0,0.004672293379351793
2260.0,0.004695442937100171
2259.0,0.004719953625257907
2258.0,0.004737115878576497
2257.0,0.004740490358935642
2256.0,0.004722362010863257
2255.0,0.0046832047923966195
2254.0,0.004641579782647513
2253.0,0.004619143870606326
2252.0,0.004618628182490904
2251.0,0.004628252777623222
2250.0,0.004642773085927643
2249.0,0.004664011442332348
2248.0,0.004686988699420142
2247.0,0.004701422674267934
2246.0,0.004707272337309705
2245.0,0.00471243871843496
2244.0,0.0047180983008996156
2243.0,0.00472098661227694
2242.0,0.004726227975177277
2241.0,0.004741008524824656
2240.0,0.004758071693070152
2239.0,0.004762671267783258
2238.0,0.004754292058234441
2237.0,0.004745822359750178
2236.0,0.004742798923169301
2235.0,0.004739587459859062
2234.0,0.004734968704475326
2233.0,0.004735246276323295
2232.0,0.004741665755057925
2231.0,0.004748585361715216
2230.0,0.004752972379684595
2229.0,0.004753724193647134
2228.0,0.004746304112596511
2227.0,0.00473160495298392
2226.0,0.004724048152973009
2225.0,0.004735051254727386
2224.0,0.004754156309921964
2223.0,0.00476234879628231
2222.0,0.004757776685601971
2221.0,0.0047518516169972515
2220.0,0.004747672406185962
2219.0,0.004741481247155407
2218.0,0.004738308366256463
2217.0,0.004745111544569593
2216.0,0.004753532085343031
2215.0,0.004750859399212152
2214.0,0.004743337995316244
2213.0,0.004747944071496206
2212.0,0.004764592008740399
2211.0,0.0047769304973011
2210.0,0.004777287195235477
2209.0,0.004771005246765152
2208.0,0.004760508838272882
2207.0,0.0047457815793118885
2206.0,0.004736896350943313
2205.0,0.004745398492668069
2204.0,0.004764846492679861
2203.0,0.004778788244606873
2202.0,0.004784339352293894
2201.0,0.004789583490137434
2200.0,0.004794462021005304
2199.0,0.004794447729785414
2198.0,0.004797623162525413
2197.0,0.004816882281227226
2196.0,0.004847910628802674
2195.0,0.004874052865862511
2194.0,0.004888917400280819
2193.0,0.004897586754319671
2192.0,0.004903347386209601
2191.0,0.004911368601124722
2190.0,0.004936080312725355
2189.0,0.004983305640657088
2188.0,0.00503338078795156
2187.0,0.005061982482056814
2186.0,0.005066321253233108
2185.0,0.0050503232076827545
2184.0,0.004999680456013683
2183.0,0.00490331934633729
2182.0,0.004792088111438857
2181.0,0.00472267984012091
2180.0,0.004720433944345173
2179.0,0.004760260225290593
2178.0,0.004798279522482718
2177.0,0.004801830410537775
2176.0,0.004763499019580395
2175.0,0.004712489245072499
2174.0,0.00470130156465267
2173.0,0.0047567075105420025
2172.0,0.004852966528242158
2171.0,0.004951617602060138
2170.0,0.005046745915591903
2169.0,0.005146992379735451
2168.0,0.005236953468553078
2167.0,0.005291468735461402
2166.0,0.005318683283550477
2165.0,0.005356973321776861
2164.0,0.005428309628844765
2163.0,0.005510269169429303
2162.0,0.005534005383740602
2161.0,0.005392996670887216
2160.0,0.005006353398374216
2159.0,0.004438662587659752
2158.0,0.003918187437740923
2157.0,0.003648360791015789
2156.0,0.0036322640425481487
2155.0,0.003734947960036368
2154.0,0.003847339407464536
2153.0,0.00393267357212295
2152.0,0.0039813409809450915
2151.0,0.003993365387748851
2150.0,0.003990830160702842
2149.0,0.003998445624440394
2148.0,0.004010808128400164
2147.0,0.004009442185725708
2146.0,0.00399892737741516
2145.0,0.003995224300109917
2144.0,0.0039934910449931915
2143.0,0.003980715391673748
2142.0,0.00396599740481176
2141.0,0.003965257751558156
2140.0,0.00396841202556659
2139.0,0.003952152554148192
2138.0,0.003912734091212871
2137.0,0.0038574438037919413
2136.0,0.0037803600097934065
2135.0,0.0036800470286418507
2134.0,0.003588851716371388
2133.0,0.0035481203290813204
2132.0,0.003562511520565694
2131.0,0.0036065292480963887
2130.0,0.0036647775641221805
2129.0,0.003735209323936727
2128.0,0.003805872971105714
2127.0,0.003859335035836604
2126.0,0.0038961740392371444
2125.0,0.003929280931107879
2124.0,0.003959644256043826
2123.0,0.0039805834992132725
2122.0,0.003999916166283661
2121.0,0.004033017055298217
2120.0,0.004076638352760922
2119.0,0.00411382021792856
2118.0,0.004142382104226578
2117.0,0.004175983773661309
2116.0,0.004217459587126596
2115.0,0.004253008403622745
2114.0,0.004273410698174546
2113.0,0.004281647628856022
2112.0,0.004279818751527167
2111.0,0.004267346083102366
2110.0,0.0042527509938469765
2109.0,0.004248843239307732
2108.0,0.004255724343702189
2107.0,0.004264399420438825
2106.0,0.004274120836448361
2105.0,0.0042888961349870905
2104.0,0.004301534676027185
2103.0,0.00430125050099609
2102.0,0.0042939759076409305
2101.0,0.0042947069426937275
2100.0,0.004301554124564039
2099.0,0.0042957338123090745
2098.0,0.004265326958978724
2097.0,0.004213118258516953
2096.0,0.0041469383119168675
2095.0,0.0040813150148757815
2094.0,0.004041946902692451
2093.0,0.004045073525699087
2092.0,0.004076415325928289
2091.0,0.004108944104505478
2090.0,0.004135457706187647
2089.0,0.004165470104080682
2088.0,0.004199111746371549
2087.0,0.004227151826707627
2086.0,0.004251071592244407
2085.0,0.0042798365126590285
2084.0,0.004309733166659941
2083.0,0.004328525077206247
2082.0,0.004336599649395093
2081.0,0.004343300650652517
2080.0,0.004346737235704969
2079.0,0.004339056333076954
2078.0,0.004327865768782158
2077.0,0.004329121580413176
2076.0,0.004340867943066346
2075.0,0.004346185282311984
2074.0,0.004339118827286249
2073.0,0.0043267555334126845
2072.0,0.004311810727517808
2071.0,0.004295088794606841
2070.0,0.004288056201331333
2069.0,0.004298047936061236
2068.0,0.00430807347001748
2067.0,0.004297822730175321
2066.0,0.0042767963872891905
2065.0,0.004269899381320468
2064.0,0.00427784663510148
2063.0,0.004281186222847907
2062.0,0.004275540789797596
2061.0,0.004271845512624328
2060.0,0.004271847034524225
2059.0,0.004273188146297586
2058.0,0.0042870300527360515
2057.0,0.004317995302737726
2056.0,0.0043423128375759375
2055.0,0.004347938326375001
2054.0,0.004381940781596106
2053.0,0.004501671298555271
2052.0,0.004679705907313673
2051.0,0.004809008198706732
2050.0,0.004813256410371633
2049.0,0.0047198372974913754
2048.0,0.004611678588171353
2047.0,0.004539051977660725
2046.0,0.004504415276395602
2045.0,0.004496687944341703
2044.0,0.004504699569407674
2043.0,0.0045196886931446086
2042.0,0.004545700935013361
2041.0,0.004591691153045812
2040.0,0.004648592307766908
2039.0,0.004695140390326473
2038.0,0.004723072665969347
2037.0,0.004730513849763096
2036.0,0.0047009237595174004
2035.0,0.0046232572628677054
2034.0,0.004525907696071017
2033.0,0.0044513005917376945
2032.0,0.004401097054748232
2031.0,0.0043500173678509375
2030.0,0.004303380198096935
2029.0,0.004290917037046621
2028.0,0.004309437020189666
2027.0,0.004323676117941785
2026.0,0.004322126216757405
2025.0,0.004322979840228521
2024.0,0.00432876773129347
2023.0,0.004322610072973749
2022.0,0.004307010115654684
2021.0,0.004300079195583058
2020.0,0.004294968886107913
2019.0,0.004267013837185255
2018.0,0.004220244262552618
2017.0,0.004186044210956485
2016.0,0.004176527633874057
2015.0,0.0041798479709359284
2014.0,0.004195928859556466
2013.0,0.004232835575089825
2012.0,0.004274548747906128
2011.0,0.004293171860395691
2010.0,0.004284426731860112
2009.0,0.004254236667393521
2008.0,0.004187868560365908
2007.0,0.004079465129985708
2006.0,0.003976250125334827
2005.0,0.003938951309619124
2004.0,0.003967315617478983
2003.0,0.004013380675296539
2002.0,0.004053390659200275
2001.0,0.0040970874419015155
2000.0,0.004141835725622885
1999.0,0.004168696172025884
1998.0,0.00417890204774609
1997.0,0.0041901249039253165
1996.0,0.004200096205629381
1995.0,0.004195052768613188
1994.0,0.004188019337084866
1993.0,0.004207215235887542
1992.0,0.0042477777990592505
1991.0,0.004278864790616113
1990.0,0.004297717513208194
1989.0,0.004327665249382374
1988.0,0.004368759051410461
1987.0,0.004398929070125507
1986.0,0.004420830800256469
1985.0,0.004463425509818396
1984.0,0.004538778164753219
1983.0,0.004636472607620647
1982.0,0.004749959038670654
1981.0,0.0048574236075973444
1980.0,0.004887068845761636
1979.0,0.004766990773527528
1978.0,0.004526461515824204
1977.0,0.004291809937125164
1976.0,0.004152504213234822
1975.0,0.004091060014674656
1974.0,0.0040577320909243346
1973.0,0.004035986477266803
1972.0,0.00402185670517554
1971.0,0.004005174947266471
1970.0,0.003989542302466825
1969.0,0.003987866585947184
1968.0,0.003991362333515948
1967.0,0.003980699840722252
1966.0,0.003965423519331174
1965.0,0.003967925674375063
1964.0,0.003974591250485244
1963.0,0.003949581607669268
1962.0,0.0038898677727091796
1961.0,0.0038253817608664012
1960.0,0.003770684224955784
1959.0,0.003720248334241366
1958.0,0.003685079326823365
1957.0,0.0036852566918101188
1956.0,0.0037093034560865437
1955.0,0.003724996728261271
1954.0,0.0037264791030746265
1953.0,0.0037328307947387057
1952.0,0.0037448542192414606
1951.0,0.0037434372203002672
1950.0,0.003728498004865852
1949.0,0.0037188475611934185
1948.0,0.003714236263580521
1947.0,0.0036951589830105666
1946.0,0.0036614734966068617
1945.0,0.0036362354993058053
1944.0,0.0036294178908814353
1943.0,0.00362952383722256
1942.0,0.0036311234940198714
1941.0,0.0036401186075228843
1940.0,0.00365133136460958
1939.0,0.0036519994599722183
1938.0,0.0036451336603026277
1937.0,0.003643146252871237
1936.0,0.003642152429151011
1935.0,0.0036299599886120497
1934.0,0.0036141637883378057
1933.0,0.003613131608362889
1932.0,0.0036217795153977907
1931.0,0.003617404145002058
1930.0,0.003597981402847886
1929.0,0.0035818123704504648
1928.0,0.0035727587306708802
1927.0,0.0035534869382532566
1926.0,0.0035182676292150094
1925.0,0.003485763634573187
1924.0,0.003474371348407468
1923.0,0.003486698983180442
1922.0,0.0035170474567310624
1921.0,0.003556632958187365
1920.0,0.0035886138842877264
1919.0,0.00359661177636092
1918.0,0.0035861380322623304
1917.0,0.0035784301180022716
1916.0,0.003577632821000597
1915.0,0.0035714558369277206
1914.0,0.003557817408884894
1913.0,0.0035473710241899527
1912.0,0.003543518625269676
1911.0,0.0035408293546434133
1910.0,0.0035422502721648556
1909.0,0.003553928067274646
1908.0,0.0035672893612079845
1907.0,0.003567007839459282
1906.0,0.003556236406370028
1905.0,0.0035521874018312094
1904.0,0.0035569041438989844
1903.0,0.0035577758604684218
1902.0,0.0035528047998583346
1901.0,0.0035509504391569506
1900.0,0.0035502458669366536
1899.0,0.0035388564003569676
1898.0,0.003518788795102965
1897.0,0.003506363045980285
1896.0,0.0035063367897438884
1895.0,0.0035065476036878693
1894.0,0.003500734806319507
1893.0,0.003495761040854725
1892.0,0.003493666518811866
1891.0,0.0034889005127831394
1890.0,0.0034843333874057894
1889.0,0.003488839520169913
1888.0,0.003498515865440663
1887.0,0.0035030152183305845
1886.0,0.0035042994703928096
1885.0,0.003510439627049779
1884.0,0.0035169777316133542
1883.0,0.003512933443670093
1882.0,0.0035022168659413853
1881.0,0.0034984165146342704
1880.0,0.0035019470829530364
1879.0,0.0035020088958924223
1878.0,0.003497577149314338
1877.0,0.0034977365043028005
1876.0,0.00350012961548693
1875.0,0.003490177472937686
1874.0,0.003464154609611681
1873.0,0.003433905693015114
1872.0,0.0034079056916710804
1871.0,0.003386718534726084
1870.0,0.0033779277551901784
1869.0,0.0033948381088741656
1868.0,0.0034284065607217335
1867.0,0.003452166370543065
1866.0,0.0034591750799479724
1865.0,0.0034604129088040498
1864.0,0.003458709887038413
1863.0,0.003449200712124531
1862.0,0.0034363240220067967
1861.0,0.003430294088028491
1860.0,0.003428891600175969
1859.0,0.0034217720185467687
1858.0,0.0034109023962607906
1857.0,0.0034078511987573534
1856.0,0.0034123402524676594
1855.0,0.003412280558873444
1854.0,0.0034058459480703494
1853.0,0.0033992162081098926
1852.0,0.0033892955459800624
1851.0,0.0033667516454155685
1850.0,0.0033325352354592955
1849.0,0.0032995589519347625
1848.0,0.003276890454402142
1847.0,0.0032691256694814454
1846.0,0.003285193748338718
1845.0,0.003325358930970045
1844.0,0.003361840107295359
1843.0,0.003366328841528156
1842.0,0.003350525374212303
1841.0,0.0033389017684503763
1840.0,0.0033323536665143794
1839.0,0.003319579620939286
1838.0,0.0033054836780361543
1837.0,0.0033052072324611308
1836.0,0.0033121765628125834
1835.0,0.0033054458647989267
1834.0,0.0032861581614577417
1833.0,0.0032763297550491206
1832.0,0.00328644282224708
1831.0,0.0033046961066397714
1830.0,0.0033173171125967806
1829.0,0.00332073416858358
1828.0,0.0033150113097144152
1827.0,0.0033059980629538245
1826.0,0.00330636063043029
1825.0,0.0033245924373314847
1824.0,0.0033491729135543187
1823.0,0.0033620875998992346
1822.0,0.003362719456945961
1821.0,0.003357399167940552
1820.0,0.0033419026231892674
1819.0,0.0033092863205827923
1818.0,0.0032713813247532567
1817.0,0.003251918991300779
1816.0,0.0032546758902903677
1815.0,0.0032640391448038875
1814.0,0.0032734514442097525
1813.0,0.0032923702404003153
1812.0,0.0033247101055905
1811.0,0.003358880121776541
1810.0,0.003387768793484246
1809.0,0.0034186709029748077
1808.0,0.003456706462990465
1807.0,0.0034946149556420343
1806.0,0.003523252056053571
1805.0,0.0035417273333277033
1804.0,0.0035559390875981225
1803.0,0.0035804884994812694
1802.0,0.0036328750288385377
1801.0,0.003711000792701047
1800.0,0.0037822654852944044
1799.0,0.003813534811024138
1798.0,0.0038070028177605957
1797.0,0.0037894557865077224
1796.0,0.00377917956514211
1795.0,0.003777611432573428
1794.0,0.0037797917235863343
1793.0,0.0037787737098681547
1792.0,0.0037656332407237404
1791.0,0.0037360541602833685
1790.0,0.003699797848372433
1789.0,0.0036666849456276273
1788.0,0.0036324237647330196
1787.0,0.003590107790181927
1786.0,0.003546754414736767
1785.0,0.003516335839068031
1784.0,0.003497002797153338
1783.0,0.0034786937431530783
1782.0,0.0034618344412597536
1781.0,0.0034530380598829886
1780.0,0.00344744120499067
1779.0,0.003429849208616436
1778.0,0.003399030309015548
1777.0,0.0033650822284519264
1776.0,0.003336239082170929
1775.0,0.0033231222460530993
1774.0,0.0033412930497119992
1773.0,0.003389211234382282
1772.0,0.003430752383409427
1771.0,0.003431496194358767
1770.0,0.0034112123862313735
1769.0,0.003414992375983544
1768.0,0.0034505462216077843
1767.0,0.0034882432222480956
1766.0,0.00351054624968629
1765.0,0.0035300439064796375
1764.0,0.0035609274110766113
1763.0,0.00360113953220202
1762.0,0.0036394286125703747
1761.0,0.0036681485136983447
1760.0,0.0036865143591554815
1759.0,0.003702909414052976
1758.0,0.0037343940285630463
1757.0,0.0037835058016250497
1756.0,0.0038227940950868343
1755.0,0.003826516284562536
1754.0,0.003806374248436545
1753.0,0.003793217215111602
1752.0,0.003801274783157482
1751.0,0.00381943624443054
1750.0,0.0038438942267512016
1749.0,0.003881546038681992
1748.0,0.003914153598173427
1747.0,0.003917568815020627
1746.0,0.0039002685464432935
1745.0,0.0038917516097398434
1744.0,0.003903742830582817
1743.0,0.003926186978621794
1742.0,0.003955167831850167
1741.0,0.003988782871338153
1740.0,0.003996590630178621
1739.0,0.00394676644511734
1738.0,0.0038631625787081863
1737.0,0.0037988717823594182
1736.0,0.0037807671561653324
1735.0,0.0037836112375771143
1734.0,0.003766497363328838
1733.0,0.003743262180863352
1732.0,0.0037461887358508856
1731.0,0.003768778864878789
1730.0,0.0037967164274665677
1729.0,0.0038285132285226413
1728.0,0.0038552972271345895
1727.0,0.0038655921406499207
1726.0,0.0038648699985769554
1725.0,0.00387327023401122
1724.0,0.0038945719312281158
1723.0,0.0039074913522660045
1722.0,0.003903737173447431
1721.0,0.0038984907663577534
1720.0,0.003904380793241096
1719.0,0.003919013801084595
1718.0,0.003950856987186622
1717.0,0.004017623692408409
1716.0,0.004110019777789296
1715.0,0.004196218773851423
1714.0,0.004259519154162501
1713.0,0.004310810081544516
1712.0,0.00436249527473708
1711.0,0.004412820299617346
1710.0,0.00446325536087173
1709.0,0.004526347518861468
1708.0,0.0046104614711956465
1707.0,0.004706978905510813
1706.0,0.004801257554518193
1705.0,0.00487981122572821
1704.0,0.004938428749801042
1703.0,0.005009016418335265
1702.0,0.005155159552503108
1701.0,0.005381337863069941
1700.0,0.005570563301165251
1699.0,0.005636477815157909
1698.0,0.005671902764499846
1697.0,0.005806164571136335
1696.0,0.006045680872075888
1695.0,0.006265501596442632
1694.0,0.0064090064903788895
1693.0,0.006525847759978931
1692.0,0.0066490455163941715
1691.0,0.006779856321318797
1690.0,0.0069117180936671485
1689.0,0.007033962753355076
1688.0,0.007133646809126639
1687.0,0.007226018119604863
1686.0,0.007372006821361769
1685.0,0.007631167990620476
1684.0,0.007943023457976648
1683.0,0.008145821537311802
1682.0,0.008247986644961769
1681.0,0.008357151566753823
1680.0,0.008501904707649055
1679.0,0.008655876358244937
1678.0,0.00881063362175982
1677.0,0.008999174325771991
1676.0,0.00922738402610519
1675.0,0.009429897708481813
1674.0,0.009558847237458043
1673.0,0.009660965445993349
1672.0,0.009796058165691637
1671.0,0.009974981131331006
1670.0,0.010178362855326065
1669.0,0.010371564578271928
1668.0,0.01052139330619961
1667.0,0.01062840578321004
1666.0,0.010729567329682973
1665.0,0.010866668614788825
1664.0,0.011045538959429328
1663.0,0.011225270902287414
1662.0,0.01136614037994283
1661.0,0.011476918648772969
1660.0,0.011581736542959686
1659.0,0.011675557169220585
1658.0,0.011743381367504422
1657.0,0.011786103298166168
1656.0,0.011836728325287583
1655.0,0.011943980518904503
1654.0,0.01213880272079636
1653.0,0.012322901500216627
1652.0,0.012364265422266684
1651.0,0.012342320328019418
1650.0,0.012347815327119604
1649.0,0.012385225300707285
1648.0,0.0124649284503888
1647.0,0.012560328657824527
1646.0,0.012610670808244686
1645.0,0.012614428366559472
1644.0,0.012611827166700854
1643.0,0.012610776853730342
1642.0,0.012606230269499214
1641.0,0.012599013858748788
1640.0,0.012587020448545256
1639.0,0.012567154583759187
1638.0,0.012557460108895722
1637.0,0.012582677035646816
1636.0,0.012618266210658122
1635.0,0.012583374011016514
1634.0,0.012476086345146816
1633.0,0.012367523356465227
1632.0,0.012281536825963744
1631.0,0.012203714721063148
1630.0,0.012120429459617056
1629.0,0.012024720609181267
1628.0,0.011908644869184469
1627.0,0.011771077001108207
1626.0,0.011630840311874736
1625.0,0.01150389532116227
1624.0,0.011371191244463808
1623.0,0.011198437078487243
1622.0,0.010993951490772123
1621.0,0.010799547955366341
1620.0,0.010633204608466468
1619.0,0.010485315630013495
1618.0,0.010340185908492072
1617.0,0.010179032429089982
1616.0,0.009994256256799769
1615.0,0.00980659227647619
1614.0,0.00963811983308307
1613.0,0.009487026722680923
1612.0,0.009335541392071862
1611.0,0.009172903925438269
1610.0,0.009009376948380145
1609.0,0.008861034744407704
1608.0,0.008725077736851347
1607.0,0.008590633971208293
1606.0,0.008459938460790179
1605.0,0.008339128426363866
1604.0,0.008225875618705887
1603.0,0.008117338941774955
1602.0,0.00801967127417561
1601.0,0.007935401179540502
1600.0,0.00785339049581047
1599.0,0.007765495088952289
1598.0,0.0076797656290367965
1597.0,0.007605982320764605
1596.0,0.00754038185958991
1595.0,0.007476323715390396
1594.0,0.007417776949100181
1593.0,0.007368708268407969
1592.0,0.007322034956177842
1591.0,0.007272979799094933
1590.0,0.007230571668905152
1589.0,0.0072022501557442754
1588.0,0.007179897074240854
1587.0,0.007154168088311338
1586.0,0.00713093620063622
1585.0,0.007116909474278163
1584.0,0.007106667177195675
1583.0,0.007096193559712416
1582.0,0.0070897111162007
1581.0,0.007084365536173266
1580.0,0.007067106639466624
1579.0,0.007042725484450136
1578.0,0.007047682253006674
1577.0,0.007113655834871783
1576.0,0.007202790537296718
1575.0,0.007252799359990191
1574.0,0.007274501834014447
1573.0,0.007303729461682484
1572.0,0.007353840129176628
1571.0,0.007425832760465462
1570.0,0.0075167715574385625
1569.0,0.007604976469258982
1568.0,0.007663032664696218
1567.0,0.007704630989925137
1566.0,0.007763534807146285
1565.0,0.007839273027986727
1564.0,0.007892242978245123
1563.0,0.007903246762857308
1562.0,0.007917528763961857
1561.0,0.008022097361032468
1560.0,0.008250540474219142
1559.0,0.008560935379265324
1558.0,0.008759163194567316
1557.0,0.008827224569503129
1556.0,0.008896059421903798
1555.0,0.009006057184622315
1554.0,0.009148594805225004
1553.0,0.00929192286524535
1552.0,0.009425657836695675
1551.0,0.009573295773763675
1550.0,0.009762359510799947
1549.0,0.00997084499063103
1548.0,0.01014409909904504
1547.0,0.010271095467800643
1546.0,0.010391814663104591
1545.0,0.010549164921010499
1544.0,0.010738182863909564
1543.0,0.010928130066766649
1542.0,0.011136021727796838
1541.0,0.011427108041866158
1540.0,0.011777397967016042
1539.0,0.012022119579848986
1538.0,0.012140512567201923
1537.0,0.012238940886858948
1536.0,0.012363809602581651
1535.0,0.012533009846872924
1534.0,0.012756478567633553
1533.0,0.012995527118416842
1532.0,0.01318267845092827
1531.0,0.013316021801192846
1530.0,0.013443899531432834
1529.0,0.013596598852922161
1528.0,0.01377251763471704
1527.0,0.013960797051633445
1526.0,0.01415398340187016
1525.0,0.014336839122008272
1524.0,0.01449780439610339
1523.0,0.014662301190780411
1522.0,0.014886833168182043
1521.0,0.015155472059982016
1520.0,0.015373853157721
1519.0,0.015533717207667226
1518.0,0.015709423613582345
1517.0,0.015945938333815957
1516.0,0.01618887091314921
1515.0,0.016370021426915234
1514.0,0.01651067698476082
1513.0,0.016651452681274385
1512.0,0.016781667252564324
1511.0,0.016869862252405256
1510.0,0.016931699563898457
1509.0,0.017042697727817163
1508.0,0.017302800750074603
1507.0,0.017747003972322924
1506.0,0.0181759976023277
1505.0,0.018427066706265805
1504.0,0.01856732169575468
1503.0,0.01867804314631154
1502.0,0.01881092687425314
1501.0,0.01899153624561698
1500.0,0.01919661855693218
1499.0,0.019392310585436386
1498.0,0.019602282042509692
1497.0,0.019871252416573813
1496.0,0.02015225204227535
1495.0,0.02036615790653055
1494.0,0.020529288839044348
1493.0,0.02069660419807758
1492.0,0.020884815760318667
1491.0,0.021092361090580516
1490.0,0.02134250253208988
1489.0,0.021638764657127604
1488.0,0.02192859432497212
1487.0,0.02217514556562082
1486.0,0.02239525308836604
1485.0,0.022609636449541587
1484.0,0.022814895611114976
1483.0,0.023014926853303974
1482.0,0.023234634097881658
1481.0,0.023477161732742672
1480.0,0.023702351997588984
1479.0,0.023889294654217803
1478.0,0.024069573943685807
1477.0,0.02427564039810961
1476.0,0.024489294191571958
1475.0,0.0246932686929366
1474.0,0.02494049685324546
1473.0,0.025284725936038484
1472.0,0.025646053165162944
1471.0,0.025907916782111882
1470.0,0.026087556123856458
1469.0,0.026250481682774354
1468.0,0.026418529354906527
1467.0,0.026598479191399016
1466.0,0.026818835933695873
1465.0,0.027086000726914288
1464.0,0.027329900254275535
1463.0,0.02749107755022502
1462.0,0.02759986867798836
1461.0,0.027702362910605252
1460.0,0.027807414514602603
1459.0,0.02793093664948229
1458.0,0.028152016619622373
1457.0,0.028494079228654955
1456.0,0.028784791743097737
1455.0,0.02894171718135758
1454.0,0.02905679426290088
1453.0,0.02918898999971098
1452.0,0.029323253911486033
1451.0,0.029429512778431186
1450.0,0.029525376057626618
1449.0,0.029644382736846837
1448.0,0.02977079098141904
1447.0,0.029866992924468393
1446.0,0.02993969755189243
1445.0,0.030012437410224253
1444.0,0.03008126605106763
1443.0,0.030132891969824542
1442.0,0.03017560194206774
1441.0,0.03021742792252268
1440.0,0.030245313456542307
1439.0,0.030262112830249724
1438.0,0.03031643304612875
1437.0,0.03044700126559581
1436.0,0.03059311418364239
1435.0,0.03068124113396991
1434.0,0.03074062817404697
1433.0,0.030821957511370797
1432.0,0.03092584529311665
1431.0,0.031030946132691244
1430.0,0.031140925782558733
1429.0,0.031260261852018856
1428.0,0.031353229313535534
1427.0,0.03139820788956647
1426.0,0.031433793723967846
1425.0,0.031502667611478366
1424.0,0.03158209567797832
1423.0,0.03161657043757053
1422.0,0.031610311894058
1421.0,0.031608469475456286
1420.0,0.031619195059547606
1419.0,0.03161432293204541
1418.0,0.03159062076054728
1417.0,0.031557506133488206
1416.0,0.03148958914618619
1415.0,0.03136362745933718
1414.0,0.031194686620671062
1413.0,0.031002615347054625
1412.0,0.03077470593909641
1411.0,0.030496046921257368
1410.0,0.030186209619433517
1409.0,0.029864996795065345
1408.0,0.029516038685015296
1407.0,0.02912325085067892
1406.0,0.028707895310849257
1405.0,0.028296496336703565
1404.0,0.02788875476018397
1403.0,0.02748712720872161
1402.0,0.027107863132487926
1401.0,0.0267390594096335
1400.0,0.026338933368040267
1399.0,0.02589883959061954
1398.0,0.025464494806931692
1397.0,0.025057131669882826
1396.0,0.024642410288592414
1395.0,0.024198446720511538
1394.0,0.023755586125017485
1393.0,0.023339352348662905
1392.0,0.022934146810847357
1391.0,0.022522715079910053
1390.0,0.022106376133785566
1389.0,0.021684480930861526
1388.0,0.021250743202102032
1387.0,0.020822961331486915
1386.0,0.02043469549918111
1385.0,0.020081583001768214
1384.0,0.01972843998105588
1383.0,0.01935905822955762
1382.0,0.01898530444525602
1381.0,0.01861547177860345
1380.0,0.01824369328165115
1379.0,0.01787286984190926
1378.0,0.01751670096291591
1377.0,0.01717379561559795
1376.0,0.01682730623556277
1375.0,0.016477258268650243
1374.0,0.016146173699652797
1373.0,0.01584362229600353
1372.0,0.015556337662746725
1371.0,0.015274512423407324
1370.0,0.01499758110613595
1369.0,0.014721924124580083
1368.0,0.01444293029143293
1367.0,0.014164298266536153
1366.0,0.013887617269449305
1365.0,0.01360133067530659
1364.0,0.013300726283818
1363.0,0.013011533276083762
1362.0,0.012764691315925359
1361.0,0.012552784149584724
1360.0,0.012346326408561115
1359.0,0.012134051377205815
1358.0,0.011921589036976793
1357.0,0.011711333212305546
1356.0,0.011502745241307987
1355.0,0.011302766652175349
1354.0,0.011117495822013743
1353.0,0.01094035727267165
1352.0,0.01076312233801626
1351.0,0.010589356734881237
1350.0,0.010425233837273081
1349.0,0.010266692131079754
1348.0,0.010108613127967191
1347.0,0.009956386383028202
1346.0,0.009815406017497842
1345.0,0.009677771565275222
1344.0,0.009531541141093525
1343.0,0.009374827247349275
1342.0,0.009212192448982873
1341.0,0.009049047579695484
1340.0,0.008898335279585973
1339.0,0.00877818316745257
1338.0,0.008690430804350911
1337.0,0.008615149201088159
1336.0,0.008534789086937772
1335.0,0.008448347080500898
1334.0,0.008358488803151876
1333.0,0.00826140906843287
1332.0,0.008157256123796034
1331.0,0.008056850188955604
1330.0,0.0079678742829822
1329.0,0.00788478226406279
1328.0,0.007800978607498442
1327.0,0.007719526313706034
1326.0,0.0076441102966854965
1325.0,0.007570246912514289
1324.0,0.007493400803456892
1323.0,0.007416760106122491
1322.0,0.007342711306130168
1321.0,0.007266407910556048
1320.0,0.0071859621361514345
1319.0,0.007109747317655013
1318.0,0.007044276857908529
1317.0,0.00698399658056964
1316.0,0.006922057145820278
1315.0,0.006861121606686962
1314.0,0.006805976414021402
1313.0,0.006754546648028261
1312.0,0.006703483784281702
1311.0,0.0066540584744314395
1310.0,0.0066057766355270865
1309.0,0.006553140915723416
1308.0,0.006495029957785425
1307.0,0.006438491620904589
1306.0,0.006387950745461446
1305.0,0.00633924360744792
1304.0,0.006289144321796291
1303.0,0.0062415823511774455
1302.0,0.0061986414375570145
1301.0,0.0061552550152933535
1300.0,0.006108682320631203
1299.0,0.006064315594934958
1298.0,0.006026243598497419
1297.0,0.005991023903124866
1296.0,0.005956180086109077
1295.0,0.005925550537353892
1294.0,0.00590084138468506
1293.0,0.0058767772822396445
1292.0,0.005850433994470444
1291.0,0.005827135844690235
1290.0,0.005811966871408237
1289.0,0.00580337030224214
1288.0,0.0057995306832384335
1287.0,0.005802441758466604
1286.0,0.005811176896357635
1285.0,0.005819703631970015
1284.0,0.0058258767920320136
1283.0,0.005834667425373264
1282.0,0.00584879239112792
1281.0,0.005864466796427225
1280.0,0.005880008351584391
1279.0,0.005899850766395293
1278.0,0.005925840573915604
1277.0,0.0059531278580058355
1276.0,0.005978875127795005
1275.0,0.006006788286600246
1274.0,0.006039295189551302
1273.0,0.006073385760941871
1272.0,0.006108155007450161
1271.0,0.00614852443250586
1270.0,0.0061972460841039165
1269.0,0.006250840735127218
1268.0,0.00630736426477611
1267.0,0.006370500729048665
1266.0,0.006441939428089157
1265.0,0.0065168306001426885
1264.0,0.006591246953003846
1263.0,0.006667596512332459
1262.0,0.006748834820580163
1261.0,0.006833748133813142
1260.0,0.006921566701254718
1259.0,0.007015345434559143
1258.0,0.007117382677546755
1257.0,0.0072266177092186554
1256.0,0.007343338001567241
1255.0,0.007470818871049669
1254.0,0.007609866255603873
1253.0,0.007757078699233033
1252.0,0.007910753685582646
1251.0,0.008073107339315802
1250.0,0.008244433935014436
1249.0,0.008420126101152909
1248.0,0.008595942790526652
1247.0,0.008772361957514848
1246.0,0.008951699680030662
1245.0,0.00913424179651913
1244.0,0.009318980596405445
1243.0,0.00950506990417627
1242.0,0.0096906804370342
1241.0,0.00987261813476495
1240.0,0.010048638897479164
1239.0,0.010218825865954077
1238.0,0.010384246364982586
1237.0,0.010545607400554498
1236.0,0.010703387050530535
1235.0,0.010857561763716345
1234.0,0.011006634434376016
1233.0,0.011148317094394249
1232.0,0.011282029710638427
1231.0,0.011410018730860023
1230.0,0.011535326314391586
1229.0,0.011658983161204207
1228.0,0.011779679887613628
1227.0,0.011895650873275283
1226.0,0.012006043350333898
1225.0,0.012110590584440712
1224.0,0.01220910493372582
1223.0,0.012302153464241981
1222.0,0.01239169476349097
1221.0,0.012479862253758318
1220.0,0.012567047961029233
1219.0,0.012651923859585301
1218.0,0.012733204077895084
1217.0,0.012810510790465229
1216.0,0.012883822107489274
1215.0,0.012953429388343055
1214.0,0.01302039709920405
1213.0,0.013085867654038973
1212.0,0.01315004810247622
1211.0,0.013212933846263878
1210.0,0.013275455599691063
1209.0,0.013338511346661381
1208.0,0.013401553427293041
1207.0,0.013463626527855026
1206.0,0.0135249883165044
1205.0,0.013586026093395376
1204.0,0.013645615265133533
1203.0,0.01370268079601547
1202.0,0.013758520454775904
1201.0,0.013815241106057276
1200.0,0.013872890476786113
1199.0,0.01393078565664281
1198.0,0.013990588941063229
1197.0,0.01405476408036965
1196.0,0.01412292124627106
1195.0,0.014193261439846484
1194.0,0.014267007593961836
1193.0,0.014347540554872435
1192.0,0.01443511356248207
1191.0,0.014526441386652131
1190.0,0.014619776250387989
1189.0,0.014716539539476069
1188.0,0.014817502953791379
1187.0,0.014921516122908603
1186.0,0.015028644725601104
1185.0,0.015140429039741662
1184.0,0.01525604359858946
1183.0,0.015371943308892404
1182.0,0.015485709801181243
1181.0,0.015596321030909077
1180.0,0.015700415276801997
1179.0,0.015793310421708798
1178.0,0.01587444213630097
1177.0,0.015946930999838616
1176.0,0.016011883732258116
1175.0,0.016068786988724933
1174.0,0.016121375988201465
1173.0,0.0161767459498188
1172.0,0.016237966635796387
1171.0,0.016303310971675918
1170.0,0.01637249027159779
1169.0,0.016447242091937098
1168.0,0.016525885009216226
1167.0,0.016604438092971012
1166.0,0.016683753374161673
1165.0,0.016768267997305897
1164.0,0.016856970829206057
1163.0,0.016943283103992644
1162.0,0.017024780040952592
1161.0,0.017105235880974637
1160.0,0.017186128001516785
1159.0,0.017264723658967755
1158.0,0.017341976955123347
1157.0,0.0174234729306188
1156.0,0.01751031680831128
1155.0,0.01759749689455713
1154.0,0.017683381334054286
1153.0,0.017772417506115964
1152.0,0.017866327734757274
1151.0,0.0179614636580017
1150.0,0.018057204903389995
1149.0,0.018158306880012517
1148.0,0.0182665447143143
1147.0,0.018378537504272447
1146.0,0.018493651083426915
1145.0,0.018615075253135854
1144.0,0.018741320479210975
1143.0,0.01886624681321765
1142.0,0.01899002572475574
1141.0,0.01912027165562677
1140.0,0.01925971480627927
1139.0,0.0194025010505889
1138.0,0.019545056506284762
1137.0,0.019690204111415678
1136.0,0.019838192947478753
1135.0,0.019984794041405955
1134.0,0.020130912213559362
1133.0,0.02028280377081779
1132.0,0.020440164797850362
1131.0,0.020595439937162875
1130.0,0.020747176096392213
1129.0,0.020901865261311416
1128.0,0.02106037588835699
1127.0,0.021215946536756194
1126.0,0.02136852405998994
1125.0,0.021527027069525403
1124.0,0.021694055492877763
1123.0,0.021862749599635044
1122.0,0.022032267195413284
1121.0,0.02221131843787684
1120.0,0.022402801841149993
1119.0,0.02260021848178558
1118.0,0.022802877152557178
1117.0,0.02301870133962021
1116.0,0.023248120742490348
1115.0,0.02348172694773123
1114.0,0.02371844426081153
1113.0,0.02396901807603993
1112.0,0.02423677094398541
1111.0,0.02451291351681136
1110.0,0.02479585015151333
1109.0,0.02509590773499525
1108.0,0.025415568878975035
1107.0,0.025744492345754738
1106.0,0.026078588713021458
1105.0,0.0264234312182967
1104.0,0.02677482596930515
1103.0,0.027118904738009833
1102.0,0.027456426060352673
1101.0,0.027802960179458394
1100.0,0.028158700413575863
1099.0,0.02850561672624382
1098.0,0.0288382332997806
1097.0,0.029170907369825125
1096.0,0.02950708193054072
1095.0,0.029831263074294838
1094.0,0.03013933581777948
1093.0,0.03044607299827952
1092.0,0.030754212148185807
1091.0,0.031047528134834045
1090.0,0.03132326355763488
1089.0,0.031599559897183195
1088.0,0.03188225504859502
1087.0,0.03215758957486472
1086.0,0.0324262338332426
1085.0,0.032707020847857815
1084.0,0.032994659057767585
1083.0,0.03325135543300556
1082.0,0.03345563892614051
1081.0,0.033625351792220724
1080.0,0.03378029624153515
1079.0,0.03391912366997528
1078.0,0.03404500637715499
1077.0,0.03417587350404411
1076.0,0.034314226055681525
1075.0,0.034440574397461544
1074.0,0.034549016357541595
1073.0,0.034655788609900845
1072.0,0.034763333833501525
1071.0,0.03485267443576082
1070.0,0.034921238282364944
1069.0,0.034990982054740674
1068.0,0.03506919071527315
1067.0,0.035138316325195644
1066.0,0.03519358329084305
1065.0,0.035253647021439447
1064.0,0.03532488792127895
1063.0,0.035391662765045344
1062.0,0.0354509652695395
1061.0,0.035521009712880185
1060.0,0.03560536904903842
1059.0,0.035683965144423166
1058.0,0.03574922237610745
1057.0,0.03581633789248202
1056.0,0.03588901304513791
1055.0,0.03595079129289268
1054.0,0.03600065481836403
1053.0,0.03606291460850776
1052.0,0.03614943571405394
1051.0,0.03624594349692475
1050.0,0.03634743413494626
1049.0,0.036466362680756606
1048.0,0.03659473753592524
1047.0,0.0367044125105585
1046.0,0.03679207004167407
1045.0,0.03688040843175435
1044.0,0.03697337941884625
1043.0,0.037051128140001645
1042.0,0.03711042390984744
1041.0,0.03717041164445541
1040.0,0.03723354819002117
1039.0,0.03727966382806924
1038.0,0.03730513188299165
1037.0,0.037330201213527134
1036.0,0.037360136233863465
1035.0,0.0373757166388712
1034.0,0.03736971451895588
1033.0,0.03735709895717598
1032.0,0.037341629269920774
1031.0,0.037308560183634314
1030.0,0.03725753082154625
1029.0,0.03720661152424593
1028.0,0.03715664613320761
1027.0,0.03708704563664833
1026.0,0.03699371072185674
1025.0,0.03689665688855396
1024.0,0.03680392470700341
1023.0,0.03670161650708108
1022.0,0.03658566713303168
1021.0,0.03647056117111932
1020.0,0.03635976897141305
1019.0,0.03623963356233442
1018.0,0.036108770433710545
1017.0,0.03598217027856462
1016.0,0.03586113012857041
1015.0,0.0357303148444062
1014.0,0.03558843724669963
1013.0,0.035450698308675546
1012.0,0.03531756725109011
1011.0,0.03517256163957019
1010.0,0.03501392286610988
1009.0,0.03485698856127666
1008.0,0.03470125846580221
1007.0,0.03452682687967655
1006.0,0.03432871308521842
1005.0,0.03412387581175015
1004.0,0.03391843317325578
1003.0,0.03369888498871129
1002.0,0.03346145751263128
1001.0,0.03322022297620288
1000.0,0.03297956744129059
999.0,0.03272664752454627
998.0,0.03245705706497207
997.0,0.03218210454843547
996.0,0.03190582832244548
995.0,0.03162010944239182
994.0,0.03132673491571611
993.0,0.031039355969544387
992.0,0.030758905592207703
991.0,0.030471154668809848
990.0,0.030172648819872083
989.0,0.02987545011185254
988.0,0.029583276279668988
987.0,0.029286511762899203
986.0,0.028983591516626918
985.0,0.02868416988478807
984.0,0.0283881576464151
983.0,0.028083935815938973
982.0,0.02777009632649341
981.0,0.02745757928087978
980.0,0.027147741657684646
979.0,0.026829865865165323
978.0,0.026503012173493136
977.0,0.026179153631823507
976.0,0.025861978923803694
975.0,0.02554290713890509
974.0,0.025220037549963294
973.0,0.024901306282692617
972.0,0.024587044185665954
971.0,0.024268871719695686
970.0,0.0239477937186167
969.0,0.023634657975683086
968.0,0.023330390297139483
967.0,0.023023980230404868
966.0,0.022712528487193927
965.0,0.022405917840796857
964.0,0.022109056961933174
963.0,0.021816664229801396
962.0,0.021528060722657102
961.0,0.021250295298237597
960.0,0.020983386883493514
959.0,0.02071788667966262
958.0,0.02045019834244644
957.0,0.02018643843157441
956.0,0.019928877067898403
955.0,0.01967236458550432
954.0,0.01941640653118177
953.0,0.019167446645414653
952.0,0.018926945831063673
951.0,0.018689723473245483
950.0,0.01845545906092612
949.0,0.018229112377781426
948.0,0.018008958470846274
947.0,0.017787462522035603
946.0,0.017565482367072116
945.0,0.0173527889832804
944.0,0.017152428409830753
943.0,0.016956669860288983
942.0,0.016760370744715435
941.0,0.016566792482346226
940.0,0.01637799311589685
939.0,0.016190856779539322
938.0,0.016005362361127023
937.0,0.015826078639024563
936.0,0.015652590473304626
935.0,0.015478323368223454
934.0,0.01530155953327092
933.0,0.015128390850203184
932.0,0.014962286511062656
931.0,0.014799595131176325
930.0,0.014637645346432544
929.0,0.014478915498653353
928.0,0.014324827882543217
927.0,0.014173212634667764
926.0,0.014024249705630609
925.0,0.013881787465573357
924.0,0.013746841704121663
923.0,0.013616251731196807
922.0,0.013489025339001339
921.0,0.013367474324644343
920.0,0.013251180804216087
919.0,0.013136214521690205
918.0,0.013021030236497543
917.0,0.01290684718171731
916.0,0.012791908080320297
915.0,0.012671819130284076
914.0,0.012545842301086026
913.0,0.012416288900072545
912.0,0.012281561159049208
911.0,0.012136700135779614
910.0,0.011981049133507705
909.0,0.01181857525892762
908.0,0.011650547535264424
907.0,0.01147503018770785
906.0,0.01129360440344292
905.0,0.011111498952439791
904.0,0.010930672483676074
903.0,0.010749126189674635
902.0,0.01056692794054186
901.0,0.010386938443127935
900.0,0.01020975615637527
899.0,0.010033845669340149
898.0,0.00986019911234072
897.0,0.009691339736537677
896.0,0.00952618948377113
895.0,0.009361600820347376
894.0,0.009198574913395893
893.0,0.009041861261860407
892.0,0.008894239949657337
891.0,0.008757648587723
890.0,0.008642268155253426
889.0,0.008572600702754946
888.0,0.00858449979308282
887.0,0.008715511800246293
886.0,0.008991638665327545
885.0,0.009417861965230657
884.0,0.00998373658906123
883.0,0.01068409279772595
882.0,0.01153393708431378
881.0,0.012552449405927982
880.0,0.013721415884460353
879.0,0.014961035009163189
878.0,0.01615739733315702
877.0,0.017218713590512254
876.0,0.018103920780055807
875.0,0.018802536571262372
874.0,0.01928312592585578
873.0,0.01944573236282114
872.0,0.019141518992768107
871.0,0.018292563040713132
870.0,0.017010083562628203
869.0,0.015562483858345903
868.0,0.014217063447324148
867.0,0.013120991373393526
866.0,0.012295830941878388
865.0,0.011694079949292027
864.0,0.01125175951846294
863.0,0.010915998607229728
862.0,0.010655051538392121
861.0,0.010455359710615422
860.0,0.01031070243394925
859.0,0.010214795128380697
858.0,0.010159738853129607
857.0,0.010129674731845742
856.0,0.010089502707190862
855.0,0.009987184913463221
854.0,0.009780649150611151
853.0,0.009469651444482863
852.0,0.00910307889713684
851.0,0.008752416498062923
850.0,0.00846646922974703
849.0,0.008241683047631697
848.0,0.008038329488863138
847.0,0.007829014692869722
846.0,0.007625783973176632
845.0,0.0074558621351457546
844.0,0.007322584456373326
843.0,0.007203635269187983
842.0,0.007082216918390564
841.0,0.006964439339430218
840.0,0.0068646601548257614
839.0,0.006787547021852044
838.0,0.0067293678142165535
837.0,0.006686561120000167
836.0,0.006656061106288065
835.0,0.006633292130153996
834.0,0.006616025682701499
833.0,0.006606556293214728
832.0,0.006606013259669927
831.0,0.00661034002918927
830.0,0.006615294615346476
829.0,0.00662150356881276
828.0,0.006631461260168878
827.0,0.006646093788264156
826.0,0.006667300867106646
825.0,0.006697430793421336
824.0,0.00673200580480165
823.0,0.0067606311552379
822.0,0.006780203507881836
821.0,0.006799475133592227
820.0,0.0068266903963925245
819.0,0.006860466431568514
818.0,0.0068953062867166855
817.0,0.006928849135149061
816.0,0.006960846663986095
815.0,0.006991156960853517
814.0,0.007022240194860883
813.0,0.00705890485960939
812.0,0.007102589573485729
811.0,0.007149994361675302
810.0,0.007199364460166113
809.0,0.007253229623567519
808.0,0.007313028419904024
807.0,0.0073764766674098425
806.0,0.007442423648767618
805.0,0.007512620820996258
804.0,0.0075860747140826645
803.0,0.007657249549412399
802.0,0.00772223915379335
801.0,0.007780923191255005
800.0,0.007831061615286131
799.0,0.00786722701974416
798.0,0.007888533199873557
797.0,0.00790073040888825
796.0,0.007907968003147945
795.0,0.007908988149687192
794.0,0.007903355729494384
793.0,0.007893770560860498
792.0,0.007880161453285272
791.0,0.007859656714951806
790.0,0.007834822979251456
789.0,0.007813622007115889
788.0,0.007798270072735997
787.0,0.007782691929529163
786.0,0.007764150356396757
785.0,0.007748971799519578
784.0,0.007742307739083515
783.0,0.007740111166735834
782.0,0.007735705173949652
781.0,0.0077269859218745615
780.0,0.007712499428990471
779.0,0.007687942773416808
778.0,0.00765205402662374
777.0,0.007609958465098271
776.0,0.007566138994765603
775.0,0.007519870322031547
774.0,0.00747113483526457
773.0,0.0074247088598437955
772.0,0.007384320198722842
771.0,0.007348575372946359
770.0,0.007316247354183594
769.0,0.007289870102527388
768.0,0.007270633062362726
767.0,0.007255561829587986
766.0,0.00724331229963548
765.0,0.007237064557891379
764.0,0.007238332536740144
763.0,0.007243487184737024
762.0,0.00724930379389432
761.0,0.007256174642351955
760.0,0.007263209687082998
759.0,0.007266630797925446
758.0,0.007266409621654223
757.0,0.007268012899825708
756.0,0.007274244602550802
755.0,0.007281607648193836
754.0,0.007287678304055545
753.0,0.007294956682177946
752.0,0.0073039100566037254
751.0,0.007309954778607892
750.0,0.007311540316016087
749.0,0.007314125497387398
748.0,0.007321701790222786
747.0,0.007330991181777387
746.0,0.007338480160064385
745.0,0.007346430340920043
744.0,0.007357214801553925
743.0,0.007367999994521661
742.0,0.007375739803511576
741.0,0.007381459444352685
740.0,0.007385095058778683
739.0,0.007382526987432787
738.0,0.007372653985278489
737.0,0.0073614291482630885
736.0,0.00735430577761265
735.0,0.007350256273517033
734.0,0.007347181639764996
733.0,0.00734744685921331
732.0,0.007353560998284143
731.0,0.0073638149354833
730.0,0.007376341946794904
729.0,0.007392705790319724
728.0,0.0074139566034507835
727.0,0.007438822709973309
726.0,0.0074690138744009475
725.0,0.007509327985081594
724.0,0.007559544901182602
723.0,0.007614033411074547
722.0,0.007673067677608229
721.0,0.007746473035505798
720.0,0.007842035159532584
719.0,0.007960590514473656
718.0,0.008111693023655692
717.0,0.008322143619788792
716.0,0.008612665411490215
715.0,0.008959939753527997
714.0,0.009283849573109272
713.0,0.009481628341712886
712.0,0.009488079851798809
711.0,0.009318919619129767
710.0,0.009060877613599288
709.0,0.008809389585485003
708.0,0.008611623258756106
707.0,0.00846614750612635
706.0,0.008360269809433885
705.0,0.008290914628517653
704.0,0.008256463169843416
703.0,0.008250184633357355
702.0,0.008265167901613987
701.0,0.008291018181853673
700.0,0.008305308795788167
699.0,0.0082852816804685
698.0,0.008233198656480888
697.0,0.008174785201795428
696.0,0.008127672446923159
695.0,0.008087014232981792
694.0,0.008044513764724738
693.0,0.008003419618347801
692.0,0.007967767740366232
691.0,0.007932583873297058
690.0,0.007894737166482408
689.0,0.007860550750174252
688.0,0.007833955856653614
687.0,0.007810692140988312
686.0,0.007790738517535867
685.0,0.007779947639342781
684.0,0.007774283470275558
683.0,0.0077603892561470995
682.0,0.007736620397647378
681.0,0.007716359241961346
680.0,0.0077056442170819
679.0,0.007694681970343873
678.0,0.007677713293683728
677.0,0.0076634167901108805
676.0,0.007655403120891956
675.0,0.0076452652005938055
674.0,0.007629157447171166
673.0,0.007610676291046283
672.0,0.007583978939204561
671.0,0.007535097729927186
670.0,0.007464987277211605
669.0,0.007406855485733671
668.0,0.0074053022617626765
667.0,0.007442251571325262
666.0,0.007456666478651178
665.0,0.007436785010577427
664.0,0.007407066744685994
663.0,0.007375960976830364
662.0,0.007340140037753351
661.0,0.007303117572428549
660.0,0.007270206311289142
659.0,0.007238264564343342
658.0,0.007206116967693283
657.0,0.007182180841151858
656.0,0.007165900111873465
655.0,0.0071422373317816985
654.0,0.007106570252824336
653.0,0.00707568123400225
652.0,0.007060679990495635
651.0,0.007049900618847051
650.0,0.007031268371698669
649.0,0.0070114163639865765
648.0,0.006996235553100839
647.0,0.006975087447514655
646.0,0.006942166999707931
645.0,0.006910501661571793
644.0,0.006889586019701572
643.0,0.006870532607932411
642.0,0.006845567856537001
641.0,0.006822052702741209
640.0,0.006801922879411568
639.0,0.006770533025304103
638.0,0.006722765880435367
637.0,0.006676319064304695
636.0,0.006642140109708601
635.0,0.006608305844054734
634.0,0.006568311190970644
633.0,0.006536461298585556
632.0,0.006518226492592557
631.0,0.0064951518715485445
630.0,0.006453839465927562
629.0,0.006401957941034046
628.0,0.0063408848359547704
627.0,0.006253927472341889
626.0,0.00614063165694928
625.0,0.0060296832908281195
624.0,0.005935817162455467
623.0,0.005838358931468833
622.0,0.0057230478524933175
621.0,0.005609923158346327
620.0,0.005517714475744305
619.0,0.0054402196916900885
618.0,0.005374338561881813
617.0,0.005333825009858179
616.0,0.005315559231693414
615.0,0.005295115512186152
614.0,0.0052735092898064505
613.0,0.005283524117303033
612.0,0.005335865387128651
611.0,0.005401409701563749
610.0,0.005462626859280562
609.0,0.0055383921899441815
608.0,0.0056323086426392065
607.0,0.005707591568312237
606.0,0.005745976640403204
605.0,0.00577981505545329
604.0,0.005830371193760266
603.0,0.005871864976491515
602.0,0.00588762627850091
601.0,0.005904375194952537
600.0,0.0059375808882752516
599.0,0.0059547082406000065
598.0,0.00592777920544822
597.0,0.005876312953370487
596.0,0.005825505318351205
595.0,0.005771715278948007
594.0,0.005714522656743897
593.0,0.005672050506674457
592.0,0.005634704367750154
591.0,0.005556569211515868
590.0,0.005430084337496661
589.0,0.005307722942580011
588.0,0.005215998936791024
587.0,0.005116225048603569
586.0,0.004976919502164284
585.0,0.0048275684850302945
584.0,0.004701560310536212
583.0,0.004583655260405753
582.0,0.004452107441176325
581.0,0.004324208622642307
580.0,0.004220056775909288
579.0,0.004129490747469823
578.0,0.004045973665770263
577.0,0.003981590288489392
576.0,0.003921060990869538
575.0,0.0038184582777455126
574.0,0.003677965357281071
573.0,0.003570506265130738
572.0,0.0035421147430138404
571.0,0.00356688723977836
570.0,0.0035980640858020076
569.0,0.003622515619770462
568.0,0.003633716241126298
567.0,0.0036104457084040736
566.0,0.0035692210089709325
565.0,0.0035656471135213728
564.0,0.0036038773523697637
563.0,0.0036129829317850734
562.0,0.0035533393864866595
561.0,0.0034838277523337093
560.0,0.0034696718380831312
559.0,0.0034926663319873024
558.0,0.003494625783700373
557.0,0.003466187971186946
556.0,0.003437677599426014
555.0,0.00342710528801134
554.0,0.003437092474364427
553.0,0.0034578204971718613
552.0,0.0034486270129331104
551.0,0.0033620115271670546
550.0,0.0032193530640751214
