cm-1,A
4000.0,0.0003933676243896289
3999.0,0.00041863411334050905
3998.0,0.0004561045136516253
3997.0,0.0004905537758369072
3996.0,0.0005046244278782055
3995.0,0.0004936023175778617
3994.0,0.0004735324205597767
3993.0,0.0004737509543308741
3992.0,0.0005174587873880698
3991.0,0.0006049021475507546
3990.0,0.0007103886896897265
3989.0,0.0007961046771649254
3988.0,0.0008400794463647139
3987.0,0.0008481497697673422
3986.0,0.0008427168329631848
3985.0,0.000840871728041267
3984.0,0.0008342356494922551
3983.0,0.0008039984296521595
3982.0,0.0007553385030877281
3981.0,0.0007233703762428703
3980.0,0.0007393197941938734
3979.0,0.000793634353753919
3978.0,0.0008457374146694221
3977.0,0.0008709977623215463
3976.0,0.000886292218324685
3975.0,0.0009190138387500865
3974.0,0.0009605607242251816
3973.0,0.0009683751997070318
3972.0,0.0009233008357942968
3971.0,0.0008608455110607604
3970.0,0.0008390532929822211
3969.0,0.0008917149053322805
3968.0,0.0009989203027740224
3967.0,0.0011048838835670495
3966.0,0.0011531474525255303
3965.0,0.0011181974812327052
3964.0,0.001022696522479544
3963.0,0.0009249669944553212
3962.0,0.000889181482181734
3961.0,0.0009358446201846154
3960.0,0.0010286450744891994
3959.0,0.0011062088049478853
3958.0,0.001109772634135136
3957.0,0.0010331499264212372
3956.0,0.0009292119225667982
3955.0,0.0008613925084515334
3954.0,0.000847173002100173
3953.0,0.0008552672875350503
3952.0,0.0008574693897659448
3951.0,0.0008627303714837942
3950.0,0.0009048282623712852
3949.0,0.000982078670173866
3948.0,0.0010327932456817707
3947.0,0.0010112643596560849
3946.0,0.000962056434527135
3945.0,0.0009571248168927238
3944.0,0.001014547619006081
3943.0,0.0010952947234821268
3942.0,0.0011321625920929085
3941.0,0.001128127174360026
3940.0,0.0011742164180976603
3939.0,0.0012992651391575327
3938.0,0.0014108688350085328
3937.0,0.0014200182535237943
3936.0,0.001332555870458988
3935.0,0.0012114138108277397
3934.0,0.0011059022031248492
3933.0,0.0010501509553530316
3932.0,0.0010689673529759754
3931.0,0.0011239128057956623
3930.0,0.0011486542110847493
3929.0,0.0011247553537466455
3928.0,0.0010673352807325544
3927.0,0.0010081673893805928
3926.0,0.000972415568004285
3925.0,0.0009676704636341366
3924.0,0.0009717143350100703
3923.0,0.0009725428666356025
3922.0,0.0010071720176170595
3921.0,0.0010479075720936665
3920.0,0.0010407704846796088
3919.0,0.0010602123100260418
3918.0,0.0011955440920306615
3917.0,0.001374554144393132
3916.0,0.0014561887179985016
3915.0,0.00145827127983361
3914.0,0.0015182797951346014
3913.0,0.0016575753426775362
3912.0,0.0017604486192255245
3911.0,0.001748567461445789
3910.0,0.001623715086685784
3909.0,0.0014300377182582926
3908.0,0.0011857357083242485
3907.0,0.000910256884471921
3906.0,0.0006539010687968581
3905.0,0.000490319873021396
3904.0,0.0004097872030670094
3903.0,0.00032239009459433723
3902.0,0.0002978959746790799
3901.0,0.0005017871073418655
3900.0,0.0008645937188151319
3899.0,0.0011251036504018952
3898.0,0.0011927028262527792
3897.0,0.001232004735674857
3896.0,0.0013463865313332627
3895.0,0.0014389489814836676
3894.0,0.0014492132318536582
3893.0,0.001500542971323713
3892.0,0.0016740364251427017
3891.0,0.0017414202092018091
3890.0,0.001525988553832485
3889.0,0.001375802323707537
3888.0,0.0015306317916809259
3887.0,0.0017230309763694275
3886.0,0.0016808438428005104
3885.0,0.0013621334976570568
3884.0,0.0009005438949872798
3883.0,0.0006472316362585622
3882.0,0.0006966762695856093
3881.0,0.0008512255020015026
3880.0,0.0009509929844851474
3879.0,0.00091544356402913
3878.0,0.0009532398386259897
3877.0,0.0012173389719804199
3876.0,0.0014021439417251863
3875.0,0.0012258860265608323
3874.0,0.0007795248887046717
3873.0,0.00035828034233401
3872.0,0.0002743546247106917
3871.0,0.0005962191986010213
3870.0,0.000982436741268437
3869.0,0.0009781467412543965
3868.0,0.0007031797504995201
3867.0,0.0006794336299112127
3866.0,0.0007985406948315191
3865.0,0.0007128372485708028
3864.0,0.0006168900095993119
3863.0,0.0007451523907151232
3862.0,0.0010173168366184948
3861.0,0.0012919169171393893
3860.0,0.0014419419308396618
3859.0,0.0014417434357666186
3858.0,0.0013233624376177734
3857.0,0.001141744056629805
3856.0,0.0009729658500434524
3855.0,0.0009761484352746241
3854.0,0.0014335307281403576
3853.0,0.0018530327966984773
3852.0,0.001311173875126889
3851.0,0.0008294764524167117
3850.0,0.0012816426536235385
3849.0,0.0019268293253198732
3848.0,0.0022086295456652163
3847.0,0.002236891005259949
3846.0,0.002173267314006094
3845.0,0.0019958944521588683
3844.0,0.0016423247450013632
3843.0,0.0011086513684680404
3842.0,0.00048405023771171986
3841.0,-2.5991877590620348e-05
3840.0,-0.0002385390285980604
3839.0,-0.00010432614236195303
3838.0,0.00018677019819990544
3837.0,0.00038940349712999946
3836.0,0.0005307197217671849
3835.0,0.0007945547251564408
3834.0,0.0011809440132217637
3833.0,0.001548302682463777
3832.0,0.0017800982308455709
3831.0,0.0018518576481650496
3830.0,0.0018535954372073307
3829.0,0.0018906305574137696
3828.0,0.0019257739112239101
3827.0,0.0018170510196423104
3826.0,0.001488910746578317
3825.0,0.0010710773043772232
3824.0,0.0008003880761661437
3823.0,0.0007136841643904136
3822.0,0.0007544252211905038
3821.0,0.0008811367122658845
3820.0,0.0006888444713038333
3819.0,0.000423206578836024
3818.0,0.0007629039730122551
3817.0,0.0014519490318458143
3816.0,0.001917454699239876
3815.0,0.0019327880486474146
3814.0,0.0018300814700481227
3813.0,0.00208184325510807
3812.0,0.002454962605396265
3811.0,0.0024792280860783545
3810.0,0.0022054610555368335
3809.0,0.0019501549744600655
3808.0,0.0018531350151038475
3807.0,0.001752702634572668
3806.0,0.0014101434461978157
3805.0,0.0010383914240454923
3804.0,0.0010256797250098012
3803.0,0.0012267385787757745
3802.0,0.001385834479492306
3801.0,0.0013027598920750541
3800.0,0.0008823748952124233
3799.0,0.0007761015275172651
3798.0,0.0012690414653047733
3797.0,0.0017881662150633984
3796.0,0.0019461350604102392
3795.0,0.0018722349899118612
3794.0,0.001923916988855836
3793.0,0.0022108394755072872
3792.0,0.0024971754908113533
3791.0,0.00258518678033848
3790.0,0.0025087583387237867
3789.0,0.0023668647601106877
3788.0,0.0022194763276325528
3787.0,0.002118545835155079
3786.0,0.002110160136284153
3785.0,0.002141186852752673
3784.0,0.0020786966799599873
3783.0,0.0019026325611052946
3782.0,0.0017384561899363117
3781.0,0.0016551436669732158
3780.0,0.0016492239752533841
3779.0,0.0017029093623415256
3778.0,0.0017790500048513198
3777.0,0.001959770944297898
3776.0,0.0022699976111578883
3775.0,0.002488434563574936
3774.0,0.0024427680570529462
3773.0,0.0022551046509970635
3772.0,0.002167324031995658
3771.0,0.0022593756285341693
3770.0,0.0023639222158753385
3769.0,0.0022672036094044477
3768.0,0.0020571231101353445
3767.0,0.001983229493036959
3766.0,0.0020237300178306532
3765.0,0.0019915615283275555
3764.0,0.0018543854178879153
3763.0,0.0017798113579058318
3762.0,0.0018235920451051546
3761.0,0.0017935386620786314
3760.0,0.0016146446474568634
3759.0,0.0014312747682225365
3758.0,0.001290568295462092
3757.0,0.001144887795453976
3756.0,0.0010170762982653395
3755.0,0.0009248622045023368
3754.0,0.0007667755914955538
3753.0,0.00043882823459205503
3752.0,0.00020789998402463922
3751.0,0.0005017586159441526
3750.0,0.0008891410049352011
3749.0,0.0008001479916624251
3748.0,0.0006197746072243893
3747.0,0.0008224940415644888
3746.0,0.0013520876889702741
3745.0,0.001942437254834943
3744.0,0.0020522490972559766
3743.0,0.0014432027212408572
3742.0,0.0010567338346981043
3741.0,0.0012783302885182746
3740.0,0.0013395589714371107
3739.0,0.0009465201413439697
3738.0,0.0004381992863961566
3737.0,9.513743520176646e-05
3736.0,-2.8304848744253527e-05
3735.0,-9.745054884234116e-06
3734.0,7.510958819477572e-05
3733.0,0.00033486220097075133
3732.0,0.0007336671069983415
3731.0,0.0010470932082305164
3730.0,0.001273150913862829
3729.0,0.00150700445805529
3728.0,0.0016655993013321366
3727.0,0.0016469924797636983
3726.0,0.0015229165428486922
3725.0,0.001439542083054174
3724.0,0.0014781820802162388
3723.0,0.001559414264746867
3722.0,0.001562463091950155
3721.0,0.0015032433260094586
3720.0,0.0015079697380901147
3719.0,0.0016438722473746765
3718.0,0.0018086657643571011
3717.0,0.0018625153085897045
3716.0,0.0018017951322193537
3715.0,0.0017057413299293722
3714.0,0.0015682445060754523
3713.0,0.0013754363051064296
3712.0,0.0013022284350819148
3711.0,0.0014079339222451154
3710.0,0.0014843954114879057
3709.0,0.0016032303714318451
3708.0,0.001920612154183373
3707.0,0.00231377003455929
3706.0,0.0026075709059343944
3705.0,0.002765578548844418
3704.0,0.002836103390737167
3703.0,0.0028706140117055814
3702.0,0.0028961843111213253
3701.0,0.0028740366943600104
3700.0,0.0028380004143687687
3699.0,0.0029622803032852167
3698.0,0.0032691501441243992
3697.0,0.003536794875986961
3696.0,0.003580997527898578
3695.0,0.0034197640194667516
3694.0,0.0031411921059153313
3693.0,0.0027530919878863778
3692.0,0.002303053566544043
3691.0,0.0020818664519797712
3690.0,0.002345469594690241
3689.0,0.002727623254486256
3688.0,0.0027038020896431843
3687.0,0.0025531113107403434
3686.0,0.00278315645164814
3685.0,0.003309212406220595
3684.0,0.0037262817980506114
3683.0,0.0038592944490792097
3682.0,0.0038100158154391285
3681.0,0.003672967180888131
3680.0,0.0033826427069800664
3679.0,0.0029071702499473117
3678.0,0.002482991193295453
3677.0,0.0024519172793653864
3676.0,0.002931694196692547
3675.0,0.0031989301914823647
3674.0,0.0027662175819706545
3673.0,0.002623404629528663
3672.0,0.003146203669486854
3671.0,0.003694451580722173
3670.0,0.0040874185797607696
3669.0,0.004235227246656218
3668.0,0.004214528912095
3667.0,0.004505068146629435
3666.0,0.005036690861411515
3665.0,0.005425610661429494
3664.0,0.005598898519837903
3663.0,0.0056934642715372775
3662.0,0.005811253330121797
3661.0,0.0059484520598464714
3660.0,0.006082396276558696
3659.0,0.00623144769868746
3658.0,0.006412827521944537
3657.0,0.006561722198670135
3656.0,0.0065097110704955795
3655.0,0.006181819867153406
3654.0,0.005843782696491868
3653.0,0.005621942926470032
3652.0,0.005247607911753037
3651.0,0.004716219839857273
3650.0,0.004783676957982053
3649.0,0.005527833684854797
3648.0,0.0058131268498485475
3647.0,0.0056690566555327206
3646.0,0.005848331842194045
3645.0,0.006431766143543641
3644.0,0.007143607047652632
3643.0,0.007739580149467653
3642.0,0.008156469808667105
3641.0,0.008448379943499678
3640.0,0.008677852847899698
3639.0,0.008859897819297285
3638.0,0.008973988664796635
3637.0,0.009048170870156275
3636.0,0.00915792594361566
3635.0,0.00928104313906874
3634.0,0.009304071622494848
3633.0,0.009194507738770653
3632.0,0.009104018510112631
3631.0,0.009172855849242535
3630.0,0.009539939882918926
3629.0,0.010300991987004852
3628.0,0.010787566630050427
3627.0,0.010739043745614744
3626.0,0.010924283250433885
3625.0,0.01133163333613494
3624.0,0.011458876631282927
3623.0,0.011289387635868803
3622.0,0.011086684635903479
3621.0,0.011042402670448693
3620.0,0.011183630343880173
3619.0,0.01136003281567066
3618.0,0.011356678242151079
3617.0,0.011294486516491273
3616.0,0.011424441349536216
3615.0,0.011724121141981826
3614.0,0.01207820742661875
3613.0,0.012432594897723066
3612.0,0.012758252726290773
3611.0,0.013098263572913564
3610.0,0.0135092184091339
3609.0,0.013967814408978072
3608.0,0.014387805262155277
3607.0,0.01464059546202624
3606.0,0.014737429592468893
3605.0,0.014817692237654397
3604.0,0.01490407000873338
3603.0,0.01496192788244765
3602.0,0.015048772611308905
3601.0,0.015245694333763632
3600.0,0.0155253580077205
3599.0,0.015789471880414997
3598.0,0.01598712882089104
3597.0,0.01612170701978128
3596.0,0.016247014071768682
3595.0,0.01641815172968111
3594.0,0.016610529319293486
3593.0,0.01675786543535661
3592.0,0.016863920850259412
3591.0,0.01694395581504026
3590.0,0.016981669483333624
3589.0,0.017039443470143512
3588.0,0.01728490332968989
3587.0,0.01761235108739763
3586.0,0.017778978495865523
3585.0,0.01798398849511465
3584.0,0.018429227722411002
3583.0,0.018938971804183424
3582.0,0.01931008278021206
3581.0,0.01953186490277145
3580.0,0.019716509943009712
3579.0,0.019942828068284884
3578.0,0.02019341965716442
3577.0,0.020402538941459554
3576.0,0.020560443039682644
3575.0,0.02072923584578483
3574.0,0.020956105287206202
3573.0,0.02119076396573906
3572.0,0.021315583856731504
3571.0,0.021231759013085896
3570.0,0.020921195203509917
3569.0,0.020498646140161777
3568.0,0.020292149478149175
3567.0,0.020565851263113805
3566.0,0.021037262987226957
3565.0,0.021403831812387128
3564.0,0.02178289696498387
3563.0,0.022248607240951263
3562.0,0.022743150044121724
3561.0,0.023235390405158537
3560.0,0.023678655836089402
3559.0,0.023997862951249827
3558.0,0.02417628286955443
3557.0,0.024278955034539737
3556.0,0.024378009892521004
3555.0,0.024519824060562596
3554.0,0.02473335573425727
3553.0,0.025015979734188416
3552.0,0.025288454663760555
3551.0,0.025464803672777852
3550.0,0.025556905240567494
3549.0,0.0256171027971622
3548.0,0.025667376165539085
3547.0,0.02575787574903748
3546.0,0.025964739931438316
3545.0,0.026275898846163426
3544.0,0.02659734821892217
3543.0,0.026871419666940524
3542.0,0.02710436524967625
3541.0,0.027327855965511776
3540.0,0.02756272294179704
3539.0,0.02780935333067373
3538.0,0.02806309626242929
3537.0,0.028327230316832992
3536.0,0.028591124608164764
3535.0,0.028824304945387954
3534.0,0.029014338407544
3533.0,0.029178484741560103
3532.0,0.029337966897385402
3531.0,0.029500178686370303
3530.0,0.02966346872818429
3529.0,0.02981526705980564
3528.0,0.029938465446112984
3527.0,0.030029247746930436
3526.0,0.030116968995504582
3525.0,0.030255983211624447
3524.0,0.030490319651850617
3523.0,0.030807996220810284
3522.0,0.031137194460376723
3521.0,0.031413165021973284
3520.0,0.031624216360616214
3519.0,0.03179805095680455
3518.0,0.03198035725622997
3517.0,0.03220863156433674
3516.0,0.03247748583345038
3515.0,0.03273384077800581
3514.0,0.03292308176416555
3513.0,0.033040749439625865
3512.0,0.03313220765791936
3511.0,0.03323892622901788
3510.0,0.033364972843588594
3509.0,0.03349578922576408
3508.0,0.03363928682366546
3507.0,0.03382150893253138
3506.0,0.03403632248534115
3505.0,0.03424205260122851
3504.0,0.034430213949164526
3503.0,0.034640707674952004
3502.0,0.034900977129446245
3501.0,0.03519883979137774
3500.0,0.03549028567113957
3499.0,0.035715195544891824
3498.0,0.03584791974084503
3497.0,0.03593531574374336
3496.0,0.036071684036906214
3495.0,0.03632789967905579
3494.0,0.036694954043861555
3493.0,0.03709365939084234
3492.0,0.037434144273287236
3491.0,0.03767213224495362
3490.0,0.037822851593778295
3489.0,0.03792571655541435
3488.0,0.038004775001235544
3487.0,0.03807360796839745
3486.0,0.03816058602620082
3485.0,0.03829639574665843
3484.0,0.038482093090121995
3483.0,0.03869593985755691
3482.0,0.0389255151714934
3481.0,0.03916912680158756
3480.0,0.03941433044868819
3479.0,0.03963556558611915
3478.0,0.039814866956826074
3477.0,0.039959709097065824
3476.0,0.040100544406773915
3475.0,0.04026334356487198
3474.0,0.04044733557954798
3473.0,0.04063729565351581
3472.0,0.04082475450201607
3471.0,0.04101059096094243
3470.0,0.041200350639754
3469.0,0.041396443963279836
3468.0,0.04158469455054668
3467.0,0.04173904141095682
3466.0,0.041852085105719264
3465.0,0.04195537396283706
3464.0,0.04209845696928355
3463.0,0.042312612228827595
3462.0,0.04259338162919566
3461.0,0.04290163201858456
3460.0,0.04317435221087801
3459.0,0.043351513170646096
3458.0,0.043417535282448336
3457.0,0.0434241621174921
3456.0,0.043457728275129136
3455.0,0.04357651411835746
3454.0,0.043776306073894204
3453.0,0.04400258336717527
3452.0,0.044193041499626586
3451.0,0.04432058449183861
3450.0,0.04441203182936704
3449.0,0.04452201875526873
3448.0,0.044683513681765145
3447.0,0.04487094745988586
3446.0,0.04503216174154454
3445.0,0.04516204895869953
3444.0,0.045295334457871705
3443.0,0.04545029938852355
3442.0,0.04562784957487242
3441.0,0.04583137766395028
3440.0,0.046060953705716876
3439.0,0.04629479158602825
3438.0,0.04648844106581651
3437.0,0.04660932937945754
3436.0,0.04666907150450824
3435.0,0.04671844558976468
3434.0,0.046810788031868056
3433.0,0.04696128602023629
3432.0,0.047139301298202395
3431.0,0.0473026013470596
3430.0,0.04744191692964285
3429.0,0.04758189036173521
3428.0,0.047738616432478696
3427.0,0.04788479225813198
3426.0,0.04796738711314984
3425.0,0.04796470579213814
3424.0,0.04792609957375741
3423.0,0.04794755672843642
3422.0,0.04808847594385217
3421.0,0.04830402939444122
3420.0,0.04848262383936898
3419.0,0.04856486488683088
3418.0,0.04859613291497441
3417.0,0.04865933184651418
3416.0,0.04879361507234397
3415.0,0.04898326544240699
3414.0,0.04919309299979884
3413.0,0.04939052729185721
3412.0,0.049547092318765626
3411.0,0.04964592838720709
3410.0,0.04969612903008948
3409.0,0.049729900308846706
3408.0,0.04977942700198623
3407.0,0.04985797543758239
3406.0,0.04995645840066594
3405.0,0.05005025171116435
3404.0,0.05011241588393955
3403.0,0.05013395183286512
3402.0,0.050134803554443746
3401.0,0.05014685144091558
3400.0,0.050183286097041355
3399.0,0.05023054780414698
3398.0,0.05027185007623091
3397.0,0.05030564946888183
3396.0,0.050334667429145746
3395.0,0.05035001249735896
3394.0,0.05034376734936744
3393.0,0.05033211153350229
3392.0,0.050346521244337854
3391.0,0.05040303366202932
3390.0,0.05049594334335994
3389.0,0.050612803813800095
3388.0,0.050736614301442905
3387.0,0.050839366931329975
3386.0,0.050895702808819124
3385.0,0.050912068936721705
3384.0,0.050921194371000116
3383.0,0.050937031375979304
3382.0,0.05093850359464192
3381.0,0.050909632138819806
3380.0,0.050873903771576204
3379.0,0.050869505101765876
3378.0,0.050905754135274886
3377.0,0.05096188643652037
3376.0,0.05101339205203798
3375.0,0.051037547460129826
3374.0,0.0510137041033731
3373.0,0.05094887981560185
3372.0,0.05089172136783883
3371.0,0.050889465829283484
3370.0,0.0509322992529551
3369.0,0.05096710060538963
3368.0,0.050965409963089896
3367.0,0.050948913121246074
3366.0,0.050943111054309216
3365.0,0.05093966456300324
3364.0,0.05092023248794233
3363.0,0.05089012625419062
3362.0,0.05086661634465346
3361.0,0.05084972744883921
3360.0,0.05082428235714126
3359.0,0.050782439594179336
3358.0,0.050728701784326126
3357.0,0.05067174435617237
3356.0,0.050627802425792776
3355.0,0.050621431475577475
3354.0,0.05066041717732522
3353.0,0.05071047809481384
3352.0,0.050712910479163445
3351.0,0.050635400393108605
3350.0,0.05050058464332431
3349.0,0.05036336093674697
3348.0,0.05026530074788026
3347.0,0.05021177408140073
3346.0,0.050181547842065084
3345.0,0.05014988226622284
3344.0,0.050103924971369014
3343.0,0.05004115747442756
3342.0,0.049960631291968025
3341.0,0.049864575000844666
3340.0,0.04976767210293036
3339.0,0.04968887831343136
3338.0,0.04962501555108248
3337.0,0.049545892718058586
3336.0,0.04943504076981815
3335.0,0.049326137414627054
3334.0,0.049268766307790826
3333.0,0.04925663170363293
3332.0,0.04922067638848298
3331.0,0.04910893438082622
3330.0,0.04895435919234996
3329.0,0.048839534098440156
3328.0,0.0487986009887566
3327.0,0.04877692982754531
3326.0,0.04869414832179523
3325.0,0.04853297460402992
3324.0,0.0483541243826385
3323.0,0.04823048579434119
3322.0,0.0481780424411849
3321.0,0.04814952071153087
3320.0,0.04808847282448159
3319.0,0.04798706809536668
3318.0,0.04788979981627333
3317.0,0.04783735686999292
3316.0,0.047811613929137894
3315.0,0.04774776613138192
3314.0,0.047604576601501386
3313.0,0.04741374716374919
3312.0,0.04725119940897972
3311.0,0.04716337475269168
3310.0,0.047130386459065816
3309.0,0.04709554924172838
3308.0,0.04701945760484504
3307.0,0.046906380989761146
3306.0,0.0467908510223494
3305.0,0.046709489367145904
3304.0,0.04668058809064026
3303.0,0.04669401107538874
3302.0,0.04671123328429915
3301.0,0.04668239130216124
3300.0,0.04657813223168943
3299.0,0.046416692596306104
3298.0,0.04625747785323902
3297.0,0.04615243688142316
3296.0,0.04609593688564747
3295.0,0.04603100416849219
3294.0,0.04591259543460479
3293.0,0.045758461313583895
3292.0,0.04562853841424909
3291.0,0.04555908667206957
3290.0,0.04553313039673061
3289.0,0.04550968243366329
3288.0,0.045456456585134426
3287.0,0.04535223147158622
3286.0,0.045188262493167895
3285.0,0.044990445605372874
3284.0,0.0448251401012018
3283.0,0.04475044999975367
3282.0,0.04475542272944305
3281.0,0.04476555681388975
3280.0,0.04471098611590124
3279.0,0.04457920431398165
3278.0,0.04440992432396965
3277.0,0.04425947488939609
3276.0,0.04416719601731092
3275.0,0.044131000119423294
3274.0,0.04410479021533353
3273.0,0.04403561402129668
3272.0,0.04391365326835394
3271.0,0.043776163296283116
3270.0,0.043661065669057315
3269.0,0.04357184793295431
3268.0,0.04349098537424887
3267.0,0.04340640083298455
3266.0,0.04331066283191231
3265.0,0.04319277702054036
3264.0,0.043056137390419254
3263.0,0.042934157009983896
3262.0,0.04286074431633745
3261.0,0.04282378200743738
3260.0,0.042767784930127326
3259.0,0.042651432829022284
3258.0,0.04249059168013883
3257.0,0.04233673568238222
3256.0,0.04222276921374852
3255.0,0.04214050236306596
3254.0,0.042060289573413664
3253.0,0.04195840994284306
3252.0,0.04182913541174299
3251.0,0.04168519269450978
3250.0,0.0415531188222166
3249.0,0.04145835285337747
3248.0,0.04140268709030955
3247.0,0.04135498122168674
3246.0,0.04127177187224299
3245.0,0.04113448437458546
3244.0,0.040968403783300744
3243.0,0.040819592557860426
3242.0,0.04071061417117238
3241.0,0.040621248249854455
3240.0,0.040513101178090885
3239.0,0.04037186029380841
3238.0,0.040222774928919985
3237.0,0.04010136608562528
3236.0,0.040011869737207745
3235.0,0.03992461597990457
3234.0,0.03981421579167647
3233.0,0.03968740469227935
3232.0,0.03956531671702309
3231.0,0.03944820502404692
3230.0,0.039314215742971524
3229.0,0.03915276843965178
3228.0,0.038983529714397364
3227.0,0.03883581764927285
3226.0,0.03871911346758624
3225.0,0.03862065515248499
3224.0,0.03852457816592065
3223.0,0.03842282078576681
3222.0,0.038311053565527435
3221.0,0.03818505914012512
3220.0,0.038043492470678744
3219.0,0.037889773944592586
3218.0,0.037733075939188204
3217.0,0.03758992758148883
3216.0,0.03747858544130054
3215.0,0.03740524426724573
3214.0,0.0373546800218963
3213.0,0.03729873225418249
3212.0,0.03721507849895791
3211.0,0.03709604285485346
3210.0,0.03694855173829769
3209.0,0.03679649848112006
3208.0,0.036675505122154325
3207.0,0.03660598541699085
3206.0,0.03656369358424451
3205.0,0.03648773325217945
3204.0,0.03633127329751219
3203.0,0.036103027930167016
3202.0,0.03585160068410904
3201.0,0.035615663227716546
3200.0,0.035403144098118025
3199.0,0.03521530290357215
3198.0,0.03506764907945797
3197.0,0.03497132801437756
3196.0,0.034905640823683116
3195.0,0.03483032253529032
3194.0,0.034722139768714806
3193.0,0.034586134648274994
3192.0,0.034433878665877306
3191.0,0.034265459445875605
3190.0,0.03407886699730742
3189.0,0.03388636204844597
3188.0,0.033710202618908516
3187.0,0.03356096589940788
3186.0,0.033424962905757145
3185.0,0.03327432484326428
3184.0,0.0330919474178115
3183.0,0.0328930411461284
3182.0,0.03271974522495595
3181.0,0.03260277894474482
3180.0,0.03252301929491438
3179.0,0.03242072676948392
3178.0,0.032252867364627215
3177.0,0.03203686011181372
3176.0,0.03182760331706672
3175.0,0.03165817061305045
3174.0,0.03151536301210746
3173.0,0.03136618845362571
3172.0,0.031193418630527853
3171.0,0.03100572815606463
3170.0,0.03082475215289817
3169.0,0.030666363766535823
3168.0,0.03052886693347922
3167.0,0.03039621147272436
3166.0,0.03025509580864623
3165.0,0.030106011798303592
3164.0,0.029953630012601914
3163.0,0.02979383063259714
3162.0,0.029621145339109298
3161.0,0.029446650473385058
3160.0,0.02929526286786971
3159.0,0.029179673019448737
3158.0,0.029082285513647697
3157.0,0.028967999279457802
3156.0,0.02881367695101928
3155.0,0.028623354468339243
3154.0,0.028419066541140302
3153.0,0.028224669767355756
3152.0,0.028059116175242045
3151.0,0.027934488283185763
3150.0,0.027847404971129242
3149.0,0.027771150349343108
3148.0,0.027668579092772
3147.0,0.027522961393928888
3146.0,0.02735271320008993
3145.0,0.027189595122281442
3144.0,0.027047805340996475
3143.0,0.026922925964432975
3142.0,0.026810617413676983
3141.0,0.026707261566670363
3140.0,0.02659415576263464
3139.0,0.026443927541231337
3138.0,0.026255214162301206
3137.0,0.026064601253362324
3136.0,0.025905370117828036
3135.0,0.025765100190768456
3134.0,0.025604951854215584
3133.0,0.025416409388738147
3132.0,0.025235414540302654
3131.0,0.025096477794527186
3130.0,0.024995813235780817
3129.0,0.024908392615495597
3128.0,0.02482246112231874
3127.0,0.024742280482667984
3126.0,0.02466644096789444
3125.0,0.024579372414468337
3124.0,0.02446626639958708
3123.0,0.024329212781582753
3122.0,0.02418193357710835
3121.0,0.02403087749454611
3120.0,0.023869167742258505
3119.0,0.023690722907430316
3118.0,0.023507727185696253
3117.0,0.023350534020956208
3116.0,0.0232440749972947
3115.0,0.023181358651906844
3114.0,0.023122617739469352
3113.0,0.023025947663400846
3112.0,0.022884298495334975
3111.0,0.022733026275604997
3110.0,0.022615592672678778
3109.0,0.02253835999518797
3108.0,0.022465828068696108
3107.0,0.02236533160438354
3106.0,0.022244805335800845
3105.0,0.022133354507294714
3104.0,0.022037082635726315
3103.0,0.021933651246031687
3102.0,0.02180395303348212
3101.0,0.021652018893857733
3100.0,0.021496992863987163
3099.0,0.021362001067466944
3098.0,0.021270297598069105
3097.0,0.02122988115958349
3096.0,0.021211556239349116
3095.0,0.02116305265000397
3094.0,0.021064665446223905
3093.0,0.020957052629884714
3092.0,0.020892948772880955
3091.0,0.020870546595472227
3090.0,0.020835800219835932
3089.0,0.020746811940742675
3088.0,0.020615364674320024
3087.0,0.020481369814591893
3086.0,0.020364411913170878
3085.0,0.020256373482428355
3084.0,0.020150371753329826
3083.0,0.020056149205557046
3082.0,0.019985271238547944
3081.0,0.019930830085627738
3080.0,0.01986718426040912
3079.0,0.019768259443126043
3078.0,0.01962884812068156
3077.0,0.019473665021277
3076.0,0.019343567998505708
3075.0,0.019266613796664077
3074.0,0.01923703842825702
3073.0,0.019221246756336997
3072.0,0.019183824412260242
3071.0,0.019107118254457434
3070.0,0.018991889835872383
3069.0,0.018850825877937738
3068.0,0.01870791560436646
3067.0,0.018593704958360577
3066.0,0.018526130601113727
3065.0,0.018494431717462005
3064.0,0.01846813369600151
3063.0,0.018421630582109747
3062.0,0.018346914019099304
3061.0,0.01825020937771291
3060.0,0.018146735264915337
3059.0,0.018053793065817458
3058.0,0.01797560243901214
3057.0,0.017895040353326307
3056.0,0.01779148918461899
3055.0,0.017670296470832757
3054.0,0.017564500696018278
3053.0,0.017499995657646893
3052.0,0.01746499582796401
3051.0,0.017419266086458683
3050.0,0.017330286178303404
3049.0,0.017200220362785974
3048.0,0.01706226700636339
3047.0,0.016951396565683553
3046.0,0.01687872607584637
3045.0,0.0168317354110974
3044.0,0.016793953579268595
3043.0,0.016758148405486298
3042.0,0.01671811789648293
3041.0,0.016658829036839864
3040.0,0.016567551660811145
3039.0,0.016454862294918462
3038.0,0.016351738626223793
3037.0,0.01627729121165323
3036.0,0.016218163304169406
3035.0,0.0161463269907379
3034.0,0.016053735069752363
3033.0,0.015963643239442177
3032.0,0.01590926732213785
3031.0,0.015907659036740948
3030.0,0.015948118868664988
3029.0,0.015995527907928297
3028.0,0.01600559053923378
3027.0,0.015952416258088416
3026.0,0.01585436255926566
3025.0,0.01576293832176118
3024.0,0.015712346475471067
3023.0,0.01568699692267027
3022.0,0.01564689438310085
3021.0,0.015578250194097861
3020.0,0.015506353851306522
3019.0,0.015458027143914976
3018.0,0.015427812613293502
3017.0,0.015389006269313256
3016.0,0.015333144708532424
3015.0,0.015286030426647203
3014.0,0.015281575962198653
3013.0,0.015326025447056246
3012.0,0.015388925718707699
3011.0,0.015429542730560776
3010.0,0.015431250684043104
3009.0,0.01541249086264393
3008.0,0.015405677043640858
3007.0,0.015426585138854174
3006.0,0.015466781086863515
3005.0,0.015510802049324035
3004.0,0.015551312532732994
3003.0,0.015583685646920982
3002.0,0.01559811296640173
3001.0,0.015594048748474924
3000.0,0.01559901109577605
2999.0,0.01565167067743893
2998.0,0.015760130779827623
2997.0,0.015890264990942694
2996.0,0.016003332436827028
2995.0,0.016093803901863827
2994.0,0.016184350270552983
2993.0,0.01630213873870768
2992.0,0.01647090970205081
2991.0,0.016711402316121407
2990.0,0.01702748508791282
2989.0,0.017396212875057007
2988.0,0.01778982373862292
2987.0,0.01820506144315658
2986.0,0.018658388130037028
2985.0,0.019159528851713035
2984.0,0.019710711012268053
2983.0,0.02033034456916167
2982.0,0.02105608842064925
2981.0,0.02191829032227727
2980.0,0.022925654866911914
2979.0,0.024082091992148363
2978.0,0.025402837169413762
2977.0,0.02690810613256543
2976.0,0.028616784040659596
2975.0,0.030559346425043918
2974.0,0.03278753082050285
2973.0,0.03535555078063503
2972.0,0.038291151393171026
2971.0,0.04158764366139326
2970.0,0.0452226876158804
2969.0,0.04918693673091414
2968.0,0.05350175133661337
2967.0,0.05819912075952084
2966.0,0.06326388025980677
2965.0,0.0685833329344787
2964.0,0.07394150340299467
2963.0,0.07905144992508453
2962.0,0.08359874994754993
2961.0,0.08731207291353768
2960.0,0.09005486043587811
2959.0,0.09187767623034672
2958.0,0.09300806416520564
2957.0,0.09379086012138059
2956.0,0.0945916299134247
2955.0,0.09568228933710579
2954.0,0.09713462891344957
2953.0,0.09878001414470321
2952.0,0.10024052264540158
2951.0,0.10101149920496444
2950.0,0.10059762899733236
2949.0,0.09867404960812354
2948.0,0.09521397125545993
2947.0,0.09048294212232921
2946.0,0.08493048471434651
2945.0,0.07908836967808147
2944.0,0.07349374243603285
2943.0,0.06861042120001198
2942.0,0.0647507611377771
2941.0,0.06203961726345825
2940.0,0.06045156804438756
2939.0,0.05989266627210156
2938.0,0.06026523109368407
2937.0,0.06148213815243671
2936.0,0.06345828830780291
2935.0,0.06611211554106926
2934.0,0.06936769246328515
2933.0,0.07315540992255645
2932.0,0.07741129102280302
2931.0,0.08207230680740538
2930.0,0.08705493245521058
2929.0,0.09222949618097889
2928.0,0.09743350288771843
2927.0,0.10251884741152999
2926.0,0.10740196213457097
2925.0,0.1120997382368637
2924.0,0.11671199632629782
2923.0,0.12131843908102535
2922.0,0.12586730911132868
2921.0,0.13014030667178503
2920.0,0.13380506312126983
2919.0,0.1364727233499375
2918.0,0.13774357136782348
2917.0,0.1373188598831974
2916.0,0.13515590175448142
2915.0,0.13153173210161784
2914.0,0.12694011040231862
2913.0,0.12194524901285472
2912.0,0.11705100553906735
2911.0,0.11259622136654832
2910.0,0.10871019988146882
2909.0,0.10533252498209558
2908.0,0.10229611365504984
2907.0,0.09940856524426296
2906.0,0.09651309270299484
2905.0,0.09351895688750686
2904.0,0.09040210282898523
2903.0,0.08718761434570421
2902.0,0.08392530053632853
2901.0,0.08067928429110038
2900.0,0.0775163001919387
2899.0,0.07449430237274945
2898.0,0.07165212557035025
2897.0,0.06901543396991675
2896.0,0.06661338965023707
2895.0,0.0644810600952161
2894.0,0.06264473196979273
2893.0,0.061107236351354795
2892.0,0.05985259373375756
2891.0,0.05886263262569282
2890.0,0.05812552258837953
2889.0,0.05762464251567152
2888.0,0.05732786435371197
2887.0,0.05719649296573388
2886.0,0.05720171699112032
2885.0,0.05733148150719012
2884.0,0.05758695231555383
2883.0,0.057977553785443496
2882.0,0.05850709812670538
2881.0,0.05914115637114098
2880.0,0.05978133606420614
2879.0,0.06027937335784461
2878.0,0.06049866989611577
2877.0,0.06038326079317374
2876.0,0.05999431674863848
2875.0,0.05949634661557062
2874.0,0.059097822357644145
2873.0,0.05897860015332938
2872.0,0.05922336262697418
2871.0,0.05979686668203337
2870.0,0.06055817607248364
2869.0,0.061280558122643554
2868.0,0.061667350794848266
2867.0,0.061403481046906
2866.0,0.06026030730443109
2865.0,0.05819929240024686
2864.0,0.05539821011755852
2863.0,0.05219387363637317
2862.0,0.04898932366211104
2861.0,0.04617872092901403
2860.0,0.04406602185853251
2859.0,0.042798971054142196
2858.0,0.042372900745889695
2857.0,0.04269756402301352
2856.0,0.04365476279644244
2855.0,0.04511519319515417
2854.0,0.046919885286815496
2853.0,0.048852217731500516
2852.0,0.05063351157187525
2851.0,0.05196039876937725
2850.0,0.05261784823543743
2849.0,0.05261792212217455
2848.0,0.052239746346883185
2847.0,0.05191703970965557
2846.0,0.052037377912311576
2845.0,0.05281163663934887
2844.0,0.05425378064963313
2843.0,0.056221126086484066
2842.0,0.058453775193199095
2841.0,0.06061618315479835
2840.0,0.0623375772882426
2839.0,0.06324940552695103
2838.0,0.06303335243232361
2837.0,0.0614865375878748
2836.0,0.05860287751778156
2835.0,0.05461056722820447
2834.0,0.0499253480602436
2833.0,0.04505087092160743
2832.0,0.040430409905016076
2831.0,0.03634485245820341
2830.0,0.03289108575879424
2829.0,0.03003682935206147
2828.0,0.02770342732087183
2827.0,0.02581112456973628
2826.0,0.024286221502806234
2825.0,0.023052105406697467
2824.0,0.02202922657237062
2823.0,0.021153339364331045
2822.0,0.020390315235383764
2821.0,0.019722846212632452
2820.0,0.01912983323924509
2819.0,0.018584884749789126
2818.0,0.018077994594461817
2817.0,0.017623781531768863
2816.0,0.017236171865222628
2815.0,0.016899871204047526
2814.0,0.016579879023185674
2813.0,0.01625971048564198
2812.0,0.01595692554654795
2811.0,0.015696810976214576
2810.0,0.01547929304439297
2809.0,0.015276885719952098
2808.0,0.015059862778693055
2807.0,0.014814218664168027
2806.0,0.01453770559120552
2805.0,0.014233377392741425
2804.0,0.013912158793672049
2803.0,0.01359502973661261
2802.0,0.013305387210008525
2801.0,0.01305857098112582
2800.0,0.01285999148729059
2799.0,0.012706693072706155
2798.0,0.012585257750313373
2797.0,0.0124718019065832
2796.0,0.012343750001593426
2795.0,0.012194873345870744
2794.0,0.012034787307107362
2793.0,0.011875542322836195
2792.0,0.01172158987223593
2791.0,0.011570424343507935
2790.0,0.011415708850894568
2789.0,0.011249249680521342
2788.0,0.01106717458996771
2787.0,0.010876275503226509
2786.0,0.010689292511233513
2785.0,0.010513520090205036
2784.0,0.01034970111986262
2783.0,0.010200580107082337
2782.0,0.010072748119549158
2781.0,0.009968432843379227
2780.0,0.009882494751033609
2779.0,0.009808574459561322
2778.0,0.009741167635140827
2777.0,0.00967308550614003
2776.0,0.009601034125688879
2775.0,0.00953433295754293
2774.0,0.00948489652934459
2773.0,0.009444832750556817
2772.0,0.009388814770454185
2771.0,0.009306680171264714
2770.0,0.009220354994900922
2769.0,0.009158264041406542
2768.0,0.00912489932415986
2767.0,0.009106401672661052
2766.0,0.009093778561925421
2765.0,0.00908438602449663
2764.0,0.009067332163282508
2763.0,0.009026427851671955
2762.0,0.00896134691925878
2761.0,0.008894007893096972
2760.0,0.008849634277754889
2759.0,0.0088364781389273
2758.0,0.008841226387195967
2757.0,0.008837652374976869
2756.0,0.008804141597118268
2755.0,0.008740844718349735
2754.0,0.008669028526197328
2753.0,0.008610227725150686
2752.0,0.008570413136256883
2751.0,0.00854614741331079
2750.0,0.00853542224215234
2749.0,0.008534156315414543
2748.0,0.008531806110743168
2747.0,0.008524195515013511
2746.0,0.008523689832521202
2745.0,0.008541445101979853
2744.0,0.00856530449760721
2743.0,0.008572930555712108
2742.0,0.008565848260373357
2741.0,0.00857200234994987
2740.0,0.00861068129641978
2739.0,0.008670688161066737
2738.0,0.00872856204452603
2737.0,0.008775260901581868
2736.0,0.008814934550558486
2735.0,0.008848285687520836
2734.0,0.008871172709706663
2733.0,0.008887591621553375
2732.0,0.008914770985243422
2731.0,0.008970991027364346
2730.0,0.009058338722609608
2729.0,0.009159087466087101
2728.0,0.009252007088036356
2727.0,0.00933281536118124
2726.0,0.00941463278988672
2725.0,0.00950431022114398
2724.0,0.009582607346774413
2723.0,0.009615052166673512
2722.0,0.009581527055144413
2721.0,0.009489666783653228
2720.0,0.00936126277890554
2719.0,0.009215116032980197
2718.0,0.009063716165398942
2717.0,0.008917526086689954
2716.0,0.00878549722923694
2715.0,0.008671335927484133
2714.0,0.008572784751442927
2713.0,0.008483836282524316
2712.0,0.008397415873945992
2711.0,0.008308807824929277
2710.0,0.008218737290532515
2709.0,0.00813292054976952
2708.0,0.008058310854740847
2707.0,0.007998751287228864
2706.0,0.007952028436231507
2705.0,0.007910869666391679
2704.0,0.00786965135600183
2703.0,0.00782978522229959
2702.0,0.007794084131366993
2701.0,0.007756695647305524
2700.0,0.007706129922561405
2699.0,0.007640521390059361
2698.0,0.007572595308678114
2697.0,0.007516123732364138
2696.0,0.007475394461192476
2695.0,0.007451073798246326
2694.0,0.007446010570760173
2693.0,0.0074574653454392865
2692.0,0.007471727107890779
2691.0,0.0074764960048971235
2690.0,0.007473065706934911
2689.0,0.007468162084991797
2688.0,0.007459539236200019
2687.0,0.00743926751534453
2686.0,0.007408135715568436
2685.0,0.007376589005738482
2684.0,0.007352617581800312
2683.0,0.007336194607698425
2682.0,0.007324981723370838
2681.0,0.007318847814733761
2680.0,0.007318249745859744
2679.0,0.007321568799905037
2678.0,0.007322528107416725
2677.0,0.007310513647974609
2676.0,0.007280736579915346
2675.0,0.007246602177193891
2674.0,0.007232078352102919
2673.0,0.007245070504881226
2672.0,0.007267422000538823
2671.0,0.0072787984157660635
2670.0,0.007280202890671139
2669.0,0.007284754558306008
2668.0,0.007296805715386429
2667.0,0.007314928714718439
2666.0,0.007346009163107178
2665.0,0.00739632619318816
2664.0,0.007451146131067274
2663.0,0.007481105481367203
2662.0,0.007473488439201228
2661.0,0.00744563123101726
2660.0,0.007423830240657674
2659.0,0.00741791712159745
2658.0,0.007417057627264101
2657.0,0.007401715421589725
2656.0,0.007358322555403588
2655.0,0.007290193232652729
2654.0,0.007215672236584951
2653.0,0.007151020597994757
2652.0,0.007097775250977526
2651.0,0.007052422804679586
2650.0,0.007020255193953027
2649.0,0.007007005492941097
2648.0,0.007002705437787089
2647.0,0.006989117475222793
2646.0,0.006961022061593287
2645.0,0.006925250888474535
2644.0,0.006880407060957294
2643.0,0.006815852500872458
2642.0,0.006733430561204937
2641.0,0.006653104469463084
2640.0,0.006590957972731555
2639.0,0.006544661163583517
2638.0,0.006506971509552661
2637.0,0.006481074780591549
2636.0,0.0064740047169323045
2635.0,0.006483174575695991
2634.0,0.006495340156195115
2633.0,0.006494064026509929
2632.0,0.006467677640475411
2631.0,0.006418257013870525
2630.0,0.006363549248217151
2629.0,0.006322124698457734
2628.0,0.006297309363269738
2627.0,0.006284356690027664
2626.0,0.006286859134594014
2625.0,0.0063076789387395485
2624.0,0.006324837723359369
2623.0,0.00629944027208096
2622.0,0.00621871606330559
2621.0,0.006118088693285688
2620.0,0.00604923992056891
2619.0,0.006033943369772295
2618.0,0.006054801875239268
2617.0,0.006078468897058714
2616.0,0.006079391219326246
2615.0,0.0060501847070944335
2614.0,0.0060022637801371405
2613.0,0.005955909196654892
2612.0,0.005923787042851112
2611.0,0.005902919151004165
2610.0,0.005879903075842058
2609.0,0.005839767541166229
2608.0,0.005774482332999894
2607.0,0.005692371396361967
2606.0,0.00561851813566541
2605.0,0.005575467012631296
2604.0,0.005562354653451961
2603.0,0.005560937488969826
2602.0,0.0055586347353896405
2601.0,0.005554189578580683
2600.0,0.005543204699453469
2599.0,0.0055137168557617775
2598.0,0.005459627173946724
2597.0,0.0053884453252556076
2596.0,0.005315208257335408
2595.0,0.005258715353066794
2594.0,0.005240493643938633
2593.0,0.005268838026051661
2592.0,0.0053195481777871395
2591.0,0.005349467339441311
2590.0,0.005337533132932981
2589.0,0.005303754993147487
2588.0,0.005285482045093473
2587.0,0.005305688721861764
2586.0,0.005365784077587244
2585.0,0.005451652094856624
2584.0,0.005535799809535949
2583.0,0.0055861824776132045
2582.0,0.0055879485677376925
2581.0,0.005555534537030203
2580.0,0.005517710736519953
2579.0,0.005492478872996919
2578.0,0.005476589786875201
2577.0,0.005452025497569279
2576.0,0.005398361564684528
2575.0,0.005305094545857247
2574.0,0.005181106258680401
2573.0,0.005054648204439505
2572.0,0.004960073902507182
2571.0,0.004917789347456515
2570.0,0.004919753250917465
2569.0,0.00493272224452858
2568.0,0.0049245886372887085
2567.0,0.004894358932394169
2566.0,0.004869616583963288
2565.0,0.004869027037912564
2564.0,0.004876756024815728
2563.0,0.004863392182632161
2562.0,0.004825198830237866
2561.0,0.004790468968588287
2560.0,0.004788478911741175
2559.0,0.004819967735854642
2558.0,0.004855648626550364
2557.0,0.004858210498161355
2556.0,0.004811743161175599
2555.0,0.00473527940923302
2554.0,0.004661581140660592
2553.0,0.004601810017827091
2552.0,0.004543923428149191
2551.0,0.0044883342115536445
2550.0,0.0044627360863587874
2549.0,0.004484305340364126
2548.0,0.004523903428169481
2547.0,0.004530734915841597
2546.0,0.0044842710451663105
2545.0,0.004404845538441014
2544.0,0.004324687686705849
2543.0,0.0042697091993739835
2542.0,0.004259673989425302
2541.0,0.004297193336949012
2540.0,0.004353078755576687
2539.0,0.004383639177544576
2538.0,0.004367965120026749
2537.0,0.00431768417809522
2536.0,0.004254340603489606
2535.0,0.004193348874447823
2534.0,0.004147876780317934
2533.0,0.004128666475799761
2532.0,0.004134775531742554
2531.0,0.004156257289054382
2530.0,0.004187686136215033
2529.0,0.004229231840704433
2528.0,0.004276573776294995
2527.0,0.004322065547740195
2526.0,0.004365129307682066
2525.0,0.004409363753325896
2524.0,0.004448280060271967
2523.0,0.00446399147004036
2522.0,0.004443535093391459
2521.0,0.004393418341068365
2520.0,0.0043381405055362195
2519.0,0.004302588552724283
2518.0,0.004288280890690792
2517.0,0.004266970655942307
2516.0,0.004209574080948714
2515.0,0.004123315328267185
2514.0,0.004046833967280814
2513.0,0.004007808757873431
2512.0,0.004003532121284625
2511.0,0.004023584420621609
2510.0,0.004062272367186392
2509.0,0.004097729573450526
2508.0,0.004092457535493497
2507.0,0.00403987928856306
2506.0,0.003985177792363212
2505.0,0.0039721001403527955
2504.0,0.0039897142684947465
2503.0,0.0040005699491545785
2502.0,0.004000861637902653
2501.0,0.004016835088382251
2500.0,0.004054191294814352
2499.0,0.004087668901291814
2498.0,0.004096860828931504
2497.0,0.004081596309375202
2496.0,0.004045462698306088
2495.0,0.003993788571833544
2494.0,0.003945963452356291
2493.0,0.003920728319029749
2492.0,0.0039078248588833575
2491.0,0.0038796069101811586
2490.0,0.0038319512647846934
2489.0,0.003791191838618554
2488.0,0.003780709833628283
2487.0,0.0038013248674361377
2486.0,0.0038416202894638925
2485.0,0.0038850987063158687
2484.0,0.0039107412102393335
2483.0,0.0039107028029135606
2482.0,0.003904771997331061
2481.0,0.003912098665466692
2480.0,0.0039106990545718315
2479.0,0.0038554627551291775
2478.0,0.0037435757471304242
2477.0,0.003636378416253601
2476.0,0.0036021053810714777
2475.0,0.003649887972371863
2474.0,0.003726991343762664
2473.0,0.00376867303398437
2472.0,0.0037470224940125436
2471.0,0.003682630098327401
2470.0,0.00361541445767329
2469.0,0.0035648536712321946
2468.0,0.0035242702779150134
2467.0,0.0034922190456754196
2466.0,0.0034878841348291367
2465.0,0.0035227249524478546
2464.0,0.003577793818886018
2463.0,0.003628935985781353
2462.0,0.003675717983324749
2461.0,0.003723740792554042
2460.0,0.0037599219050376102
2459.0,0.0037745481134693216
2458.0,0.0037882996893589035
2457.0,0.003821122746734325
2456.0,0.0038481326441675663
2455.0,0.003827722144974728
2454.0,0.0037679552824731984
2453.0,0.0037233902317375866
2452.0,0.0037242333345699676
2451.0,0.0037478873317365784
2450.0,0.003765224957466254
2449.0,0.0037743728703797386
2448.0,0.0037776682854424246
2447.0,0.003763667790099225
2446.0,0.003731667041373764
2445.0,0.003705618591749036
2444.0,0.003703611586368588
2443.0,0.0037139285778237828
2442.0,0.003717881558495153
2441.0,0.0037195215023898597
2440.0,0.003737904041123604
2439.0,0.0037811482656981516
2438.0,0.003836629896964672
2437.0,0.003876507132045977
2436.0,0.0038716156828681354
2435.0,0.0038156935323085247
2434.0,0.0037386536043029243
2433.0,0.003680713290307904
2432.0,0.003651159611714261
2431.0,0.0036276094483755454
2430.0,0.003594412836320282
2429.0,0.003561907350648744
2428.0,0.0035469968758061786
2427.0,0.0035544814298205853
2426.0,0.0035793012654797736
2425.0,0.0036089735317520327
2424.0,0.0036246153159587473
2423.0,0.0036188460857254296
2422.0,0.003609332099695429
2421.0,0.003612396380185871
2420.0,0.0036088101800747915
2419.0,0.003565878097821648
2418.0,0.0034932244716247944
2417.0,0.003443778601508255
2416.0,0.0034518337832325535
2415.0,0.003498950692891461
2414.0,0.0035500822222922857
2413.0,0.003591274827774967
2412.0,0.003616192324261686
2411.0,0.003608013381145975
2410.0,0.003562848007114201
2409.0,0.0035115064007145676
2408.0,0.0034893039584411377
2407.0,0.00349404847614741
2406.0,0.003496868785661915
2405.0,0.003485134238359541
2404.0,0.0034709321003696305
2403.0,0.0034613147168057554
2402.0,0.0034434588887461873
2401.0,0.003405632953401702
2400.0,0.0033589074743207658
2399.0,0.003328705201186091
2398.0,0.0033304110029186386
2397.0,0.003360138475264746
2396.0,0.003406198063532773
2395.0,0.003459903587899715
2394.0,0.003510470975067781
2393.0,0.003539007710704687
2392.0,0.003534368835891294
2391.0,0.003516647475755654
2390.0,0.0035262251536517923
2389.0,0.003575497797817304
2388.0,0.003622772815965245
2387.0,0.003611440861107364
2386.0,0.003528770535048391
2385.0,0.003410427680946452
2384.0,0.0032920353982437527
2383.0,0.0031743089957147076
2382.0,0.0030373557318496463
2381.0,0.0028706454591929556
2380.0,0.002678901674476738
2379.0,0.002471809347947472
2378.0,0.00226415546834939
2377.0,0.0020813012065020137
2376.0,0.0019504363668631022
2375.0,0.0018862323318325838
2374.0,0.0018848089341744205
2373.0,0.0019258283074479127
2372.0,0.001982893859006016
2371.0,0.002045529297417251
2370.0,0.0021299382745263323
2369.0,0.0022385671568783856
2368.0,0.002316961421432977
2367.0,0.0023051112879450956
2366.0,0.0022394487406752366
2365.0,0.0022267422830865376
2364.0,0.002293137645345638
2363.0,0.0023559195482913253
2362.0,0.0023686046708398835
2361.0,0.0023663293557977232
2360.0,0.0023545982937908582
2359.0,0.0022528576914006278
2358.0,0.0020323996009817373
2357.0,0.0018511824440931436
2356.0,0.0018874807363702495
2355.0,0.00212973371979258
2354.0,0.0024048889366459695
2353.0,0.0025437256546691827
2352.0,0.0025235439870971025
2351.0,0.0024355913103804813
2350.0,0.0023968069158446874
2349.0,0.0024375252729195163
2348.0,0.0024936846651918716
2347.0,0.0025346217294041837
2346.0,0.0025800906509421055
2345.0,0.0026330571896189927
2344.0,0.0026320847962604007
2343.0,0.002595230342466959
2342.0,0.0026226505014151033
2341.0,0.0026954074448331455
2340.0,0.0027504324488673458
2339.0,0.002774382410121248
2338.0,0.0028057095013670247
2337.0,0.0028167189082867056
2336.0,0.002729307802326095
2335.0,0.002573943381409475
2334.0,0.0025017708435614125
2333.0,0.0026070224071864452
2332.0,0.002792353881133115
2331.0,0.0029126526672738112
2330.0,0.0029771027099748924
2329.0,0.0031273768863804593
2328.0,0.0034142545682337736
2327.0,0.0037889144385409483
2326.0,0.004121307648587112
2325.0,0.004306916370734201
2324.0,0.004252552672987174
2323.0,0.003970573954325332
2322.0,0.0036044522481665253
2321.0,0.0033200052015777857
2320.0,0.003205925281166999
2319.0,0.003236276656534205
2318.0,0.0033453813272197007
2317.0,0.0034461852719519835
2316.0,0.003462678602759191
2315.0,0.0033863540025264273
2314.0,0.003270163491400793
2313.0,0.0031715238527869204
2312.0,0.003082967266449268
2311.0,0.003008910327481824
2310.0,0.0029871779942939993
2309.0,0.00305116852769934
2308.0,0.00314024312903365
2307.0,0.003183491083739915
2306.0,0.0031727749406164217
2305.0,0.0031619820304235784
2304.0,0.003167659177834723
2303.0,0.0031798568100695358
2302.0,0.0032106798756208316
2301.0,0.0033015159221332275
2300.0,0.0034481955275151243
2299.0,0.0036011651818003095
2298.0,0.003717676603295978
2297.0,0.003798700288584104
2296.0,0.0038427755535104706
2295.0,0.003846406471450608
2294.0,0.003831604455457073
2293.0,0.0038618512945280247
2292.0,0.0039764174220985335
2291.0,0.0041548134780500495
2290.0,0.004337102854675396
2289.0,0.0044682406901505834
2288.0,0.004513997329341585
2287.0,0.004474608698480589
2286.0,0.004392853109734634
2285.0,0.0043247882518762226
2284.0,0.004287757337562785
2283.0,0.004255011333160729
2282.0,0.004205545087062498
2281.0,0.004152335685596253
2280.0,0.004118996510370524
2279.0,0.004109089331961607
2278.0,0.00410834161952455
2277.0,0.004094015277679725
2276.0,0.0040465405533775395
2275.0,0.003975309167357263
2274.0,0.0039269962787047774
2273.0,0.003936022718090486
2272.0,0.003968568390290996
2271.0,0.003955492531720126
2270.0,0.0038727069213084593
2269.0,0.003756353272623837
2268.0,0.003641439021078442
2267.0,0.0035338538300467427
2266.0,0.003444356785791681
2265.0,0.003402956258406287
2264.0,0.003426390618175384
2263.0,0.003505293466413043
2262.0,0.0036265723418983983
2261.0,0.0037736500060977177
2260.0,0.0039035993169918137
2259.0,0.0039641818972999026
2258.0,0.003937215606995609
2257.0,0.0038429860844477427
2256.0,0.0037146684573679026
2255.0,0.003599328433833623
2254.0,0.003561306110765872
2253.0,0.003627646681580556
2252.0,0.00373364721766496
2251.0,0.0037792146008630585
2250.0,0.003737176826363514
2249.0,0.0036654683853885694
2248.0,0.003614916859887368
2247.0,0.003582620237691425
2246.0,0.003553994657390397
2245.0,0.0035332857054607477
2244.0,0.003516390420976739
2243.0,0.003484638922481684
2242.0,0.003440548681048395
2241.0,0.0034117560810588876
2240.0,0.0034088036697937606
2239.0,0.003413827281121749
2238.0,0.003411086405589079
2237.0,0.0033908269401437844
2236.0,0.0033301068406431803
2235.0,0.003219818258709548
2234.0,0.0031098597848993373
2233.0,0.0030790382405619255
2232.0,0.003152427847349566
2231.0,0.0032913878863177256
2230.0,0.0034568966352409463
2229.0,0.0036247793821348536
2228.0,0.0037433424913546976
2227.0,0.0037426157757399184
2226.0,0.0036117318302157178
2225.0,0.0034276600563368205
2224.0,0.0032860646551900108
2223.0,0.0032239171704938323
2222.0,0.003222597768093099
2221.0,0.0032548236964395475
2220.0,0.0033218446009644718
2219.0,0.0034538457425496304
2218.0,0.003656448577366274
2217.0,0.0038451263738523162
2216.0,0.0038781315901181895
2215.0,0.003693887884053777
2214.0,0.0033880404577690164
2213.0,0.003124091344162284
2212.0,0.0030027398358306195
2211.0,0.0030383934662188763
2210.0,0.0031952396199625365
2209.0,0.0033711226231244082
2208.0,0.003412429755486639
2207.0,0.0032489715360925035
2206.0,0.0029820502861065052
2205.0,0.002774736802320745
2204.0,0.002681171925573093
2203.0,0.0026625602522025466
2202.0,0.002717848853509852
2201.0,0.0028771586594024275
2200.0,0.0030891168693717606
2199.0,0.003235586904364604
2198.0,0.0032676428798112576
2197.0,0.0032396497318334335
2196.0,0.0032145596480593563
2195.0,0.003212896221695605
2194.0,0.0032437380806297285
2193.0,0.0032987317222293367
2192.0,0.003321124218228642
2191.0,0.003269754317394229
2190.0,0.003206294228226236
2189.0,0.003235510223560648
2188.0,0.003364380644061781
2187.0,0.0035006887505246672
2186.0,0.0035733266474019063
2185.0,0.003563384414367243
2184.0,0.0034479048010437026
2183.0,0.0032250269495360997
2182.0,0.002992424775548425
2181.0,0.00288486477083785
2180.0,0.0029122599125527226
2179.0,0.0029625924745281277
2178.0,0.0029578698121937373
2177.0,0.002917213183715526
2176.0,0.002877440400269008
2175.0,0.002846043214402212
2174.0,0.0028412518757394726
2173.0,0.002891577199900663
2172.0,0.002990868042005517
2171.0,0.0031262379506206456
2170.0,0.0033274313196241605
2169.0,0.003606835808857467
2168.0,0.0038762004828987932
2167.0,0.004023350216568042
2166.0,0.004057455165886366
2165.0,0.004083091782829997
2164.0,0.004124654539778545
2163.0,0.004059678638984043
2162.0,0.0037241896880649745
2161.0,0.0030307837219567244
2160.0,0.0020418529365657623
2159.0,0.001002701073020997
2158.0,0.00022760641598203714
2157.0,-0.000148116125512325
2156.0,-0.00023851995925135806
2155.0,-0.00018144955329889523
2154.0,3.2850354166590436e-05
2153.0,0.0004311404118898171
2152.0,0.000884687230510215
2151.0,0.0011912538733037598
2150.0,0.001278120278221062
2149.0,0.0012288594844977977
2148.0,0.0011610794288536158
2147.0,0.0011454254579226898
2146.0,0.0012066911914133665
2145.0,0.0013192808941998738
2144.0,0.001433099989637228
2143.0,0.0015433348844179993
2142.0,0.0016767752887693833
2141.0,0.0017829067226285806
2140.0,0.0017490981337728517
2139.0,0.0015787088572613152
2138.0,0.0014364047373584326
2137.0,0.0014268044879195202
2136.0,0.0014370837903419785
2135.0,0.0013225503750018458
2134.0,0.0011479480366536519
2133.0,0.0010986533489958598
2132.0,0.0012295753058393596
2131.0,0.0014426305259507132
2130.0,0.0016509194613791838
2129.0,0.0018348247354494308
2128.0,0.0019714299935433967
2127.0,0.0020282665843604146
2126.0,0.0020251312835643603
2125.0,0.002020783505353632
2124.0,0.002039090102938175
2123.0,0.002074565735523819
2122.0,0.0021490328495940743
2121.0,0.0022857227700620146
2120.0,0.0024418078163215484
2119.0,0.0025496157011069935
2118.0,0.002613750305039905
2117.0,0.0026964951953840025
2116.0,0.002810612817179166
2115.0,0.0029004499309922874
2114.0,0.0029283257453324952
2113.0,0.0029152119211318323
2112.0,0.002891967696397049
2111.0,0.002870073751536557
2110.0,0.0028555897264992917
2109.0,0.002834602570566955
2108.0,0.0027592931284759277
2107.0,0.0026158865022012936
2106.0,0.002490936854739046
2105.0,0.002492941784447188
2104.0,0.0026139886682547938
2103.0,0.0027441267521321733
2102.0,0.0028126579382976445
2101.0,0.0028322811294238183
2100.0,0.002810084944991359
2099.0,0.002709751047528697
2098.0,0.002523761918912388
2097.0,0.0023158553307816854
2096.0,0.002162247651201862
2095.0,0.0020993671654178096
2094.0,0.002135680817626735
2093.0,0.0022551327371877054
2092.0,0.0024048879634584967
2091.0,0.0025252712971746264
2090.0,0.0025953696825102533
2089.0,0.0026248625419416764
2088.0,0.0026228429766188177
2087.0,0.002610931633408476
2086.0,0.0026271306918122113
2085.0,0.0026652146688250413
2084.0,0.0026536567028628963
2083.0,0.002558361200605075
2082.0,0.00245919631934972
2081.0,0.0024417726541408166
2080.0,0.0024594656431045758
2079.0,0.0024070666551098898
2078.0,0.0023033550147337776
2077.0,0.0022751469769851894
2076.0,0.0023679793189750184
2075.0,0.0024915399194132713
2074.0,0.0025606520227454254
2073.0,0.002575025657618504
2072.0,0.0025515300528807083
2071.0,0.0024849277340664917
2070.0,0.002397361545707784
2069.0,0.0023343190345512205
2068.0,0.002288287541522401
2067.0,0.0022114783261458952
2066.0,0.0021175139057731615
2065.0,0.0020826378069143097
2064.0,0.0021267446109695786
2063.0,0.0021859158687856854
2062.0,0.002220434545554573
2061.0,0.0022560957518532256
2060.0,0.0023213940883352515
2059.0,0.0024169592858319564
2058.0,0.0025283261011929577
2057.0,0.0026078794433751396
2056.0,0.0025945414213151274
2055.0,0.0025419463897681915
2054.0,0.002650989828264119
2053.0,0.0030289731888907736
2052.0,0.00346633590269196
2051.0,0.0036090420851293296
2050.0,0.0033401903174830327
2049.0,0.0028684722101759833
2048.0,0.002408755587990197
2047.0,0.0019791805879359517
2046.0,0.001609083999598908
2045.0,0.0014686546005578361
2044.0,0.0016469536600955384
2043.0,0.001995509171953152
2042.0,0.002316911587430738
2041.0,0.002548446720197702
2040.0,0.0026842650340058683
2039.0,0.0026744170127744396
2038.0,0.00250615361734357
2037.0,0.0022746876516440847
2036.0,0.0020744467307670157
2035.0,0.001900530523791544
2034.0,0.0017269226485900312
2033.0,0.0015796861262521798
2032.0,0.0014830731209065273
2031.0,0.0014452150709252595
2030.0,0.0015111241730149743
2029.0,0.0016860341703818468
2028.0,0.0018109437112923971
2027.0,0.0016880124106266115
2026.0,0.00134261241230698
2025.0,0.0010113086046186284
2024.0,0.0008586732870129801
2023.0,0.000853169871182484
2022.0,0.0009323066318726102
2021.0,0.001090709323922541
2020.0,0.0012929703816581262
2019.0,0.0014753764873217964
2018.0,0.0016435532784651388
2017.0,0.0018095728388476682
2016.0,0.001852381478221797
2015.0,0.0016497276216516702
2014.0,0.0013096007328249433
2013.0,0.0010944658023081327
2012.0,0.001127479938436314
2011.0,0.0012946403907515011
2010.0,0.0014363271479317435
2009.0,0.001473742397115954
2008.0,0.0013618668708221334
2007.0,0.0011135505541206598
2006.0,0.0008843024872302384
2005.0,0.000850994406135311
2004.0,0.0009921554711301767
2003.0,0.001130893296023732
2002.0,0.0011730783172136335
2001.0,0.0011646650816230823
2000.0,0.0011563039674079012
1999.0,0.0011673253643604902
1998.0,0.0012574541888533421
1997.0,0.0014745381910081835
1996.0,0.0017199718114976077
1995.0,0.0018250460214853602
1994.0,0.0017597555078969333
1993.0,0.0016584464923195914
1992.0,0.001624351495257208
1991.0,0.0016164857577337195
1990.0,0.0015849424921799736
1989.0,0.0015450424426871159
1988.0,0.0015049188931716639
1987.0,0.0014854407077007819
1986.0,0.0015934873772580685
1985.0,0.0019144429919683045
1984.0,0.0023403363127529105
1983.0,0.002661632736458387
1982.0,0.0028157774467320773
1981.0,0.002870424539880693
1980.0,0.0027686408748201054
1979.0,0.0023393886982337147
1978.0,0.0016381294398802142
1977.0,0.0010281806369146873
1976.0,0.000761604727016659
1975.0,0.0007405442208540502
1974.0,0.0007913931784687966
1973.0,0.0008833910880570871
1972.0,0.0009976006590188293
1971.0,0.0010411294878962616
1970.0,0.001001473390886906
1969.0,0.001001291492020252
1968.0,0.0010939987034807828
1967.0,0.0011419202207801418
1966.0,0.0010381943933080522
1965.0,0.0008838304945137821
1964.0,0.0007907149793821944
1963.0,0.0007111775146678293
1962.0,0.0005548639496358593
1961.0,0.0003432318215679395
1960.0,0.0001796423693648519
1959.0,0.00013421569226474187
1958.0,0.00021507170754217464
1957.0,0.00037950179769878644
1956.0,0.00053853648059186
1955.0,0.0006210630001595161
1954.0,0.000645051890478779
1953.0,0.0006654440972566273
1952.0,0.0006750044761997887
1951.0,0.0006382246642590238
1950.0,0.0005966650642079991
1949.0,0.0006203925138969686
1948.0,0.0006793240672896092
1947.0,0.0006806509521597858
1946.0,0.0006264637614865178
1945.0,0.0006174330097858216
1944.0,0.0006912770646685857
1943.0,0.000770331121121168
1942.0,0.0007966566325592875
1941.0,0.0008096781437839696
1940.0,0.0008362063246352036
1939.0,0.0008366360429486496
1938.0,0.0008008327547705165
1937.0,0.0007859008020461174
1936.0,0.0008235360534700627
1935.0,0.0008679113241270757
1934.0,0.0008690091605325055
1933.0,0.0008323902884208908
1932.0,0.0007847322256296838
1931.0,0.000745820670229729
1930.0,0.0007581390613822581
1929.0,0.0008494450014168409
1928.0,0.0009668490486481793
1927.0,0.0010233946783084903
1926.0,0.0010084377862435736
1925.0,0.0009973040334622456
1924.0,0.0010332229528674341
1923.0,0.0010853313324077653
1922.0,0.0011222088972348899
1921.0,0.0011667834540924815
1920.0,0.001220919266191316
1919.0,0.0012354955792102844
1918.0,0.001200218424275732
1917.0,0.0011716849359994141
1916.0,0.001173806057591707
1915.0,0.0011637326648036345
1914.0,0.0011027082790373759
1913.0,0.001014025180146766
1912.0,0.0009461484013609557
1911.0,0.0009219034275647711
1910.0,0.0009497247906773705
1909.0,0.0010231803766413302
1908.0,0.0011050104776324195
1907.0,0.001160092236166609
1906.0,0.001192799396778008
1905.0,0.0012312256578395635
1904.0,0.001265183917388352
1903.0,0.0012652659584334557
1902.0,0.001233970313862583
1901.0,0.0011890949151706323
1900.0,0.0011181582466585683
1899.0,0.0010036805282985003
1898.0,0.0008845033193583041
1897.0,0.0008472064094430917
1896.0,0.0009205895420686195
1895.0,0.0010302309027813792
1894.0,0.0010877204346101707
1893.0,0.0010843226956816394
1892.0,0.0010588111847173172
1891.0,0.00104099463493172
1890.0,0.0010520497901872167
1889.0,0.0010823239386655347
1888.0,0.0010890767518940744
1887.0,0.0010633091941008766
1886.0,0.001039104320738326
1885.0,0.0010483198742325785
1884.0,0.0010761111018786022
1883.0,0.0010785302962376172
1882.0,0.0010449478177683514
1881.0,0.0009987269063585031
1880.0,0.0009609982529716421
1879.0,0.000941378463545878
1878.0,0.0009446742115281743
1877.0,0.0009636751292250211
1876.0,0.0009662618305865578
1875.0,0.0009288173178721715
1874.0,0.0008799237446055052
1873.0,0.0008645525260894678
1872.0,0.0008776368249740472
1871.0,0.0008782691909718344
1870.0,0.0008679884109391365
1869.0,0.0008959545032876594
1868.0,0.0009344303223643149
1867.0,0.0009265025865057325
1866.0,0.0009157040616018584
1865.0,0.0009431062428907999
1864.0,0.0009820551477872815
1863.0,0.0009967338172833726
1862.0,0.0009954231320219889
1861.0,0.001001240448869328
1860.0,0.0009958747322302577
1859.0,0.0009477374279792312
1858.0,0.0008768591949095744
1857.0,0.000831871598943048
1856.0,0.0008212590978576911
1855.0,0.0008206219180438594
1854.0,0.0008278353347068754
1853.0,0.000849103309094483
1852.0,0.000858832726495702
1851.0,0.0008360543967800781
1850.0,0.0007974315172149054
1849.0,0.0007932871899510828
1848.0,0.0008389874635212078
1847.0,0.0008981306647643864
1846.0,0.0009357885127493858
1845.0,0.0009516396465467205
1844.0,0.0009315364942654187
1843.0,0.0008460078885825788
1842.0,0.0007652339020909871
1841.0,0.0007597907073370216
1840.0,0.0008050491583734211
1839.0,0.0008462546345213429
1838.0,0.0008610496181449931
1837.0,0.000862401848711376
1836.0,0.0008486790119450506
1835.0,0.0008127817714842001
1834.0,0.0007730848585924158
1833.0,0.0007500389933367563
1832.0,0.0007311599180815126
1831.0,0.0007048378635020696
1830.0,0.0007078161602388348
1829.0,0.0007600816206530924
1828.0,0.0008219889402156576
1827.0,0.0008633570905129603
1826.0,0.0008797639840681828
1825.0,0.0008932309438443239
1824.0,0.0008837736138471632
1823.0,0.0008196463560784318
1822.0,0.0007393296747653043
1821.0,0.0006966445360569672
1820.0,0.0006935126410501304
1819.0,0.0006851317884786841
1818.0,0.0006645722199163985
1817.0,0.0006810533665997098
1816.0,0.0007365799696201995
1815.0,0.0007789757129199855
1814.0,0.0007930648814223223
1813.0,0.0008241450520508568
1812.0,0.0009086799004427476
1811.0,0.0009998662519024267
1810.0,0.0010433459725938494
1809.0,0.001054843676045586
1808.0,0.0010615656770868735
1807.0,0.0010627163916908143
1806.0,0.0010636205217107583
1805.0,0.0010823366502499794
1804.0,0.0011162693604743886
1803.0,0.0011521192623574796
1802.0,0.0012077075769192473
1801.0,0.001306375291970821
1800.0,0.0014047120232486441
1799.0,0.0014240077311160298
1798.0,0.0013781144199129696
1797.0,0.0013372331425195133
1796.0,0.0013374383336442227
1795.0,0.0013615485541896865
1794.0,0.0013836698608148835
1793.0,0.001409723306717642
1792.0,0.0014308021764264912
1791.0,0.0013863543131172906
1790.0,0.0013130165321473398
1789.0,0.001281297607364343
1788.0,0.001281579073968153
1787.0,0.001277307725036288
1786.0,0.0012654056520013924
1785.0,0.0012639310722025805
1784.0,0.0012614415801014277
1783.0,0.0012370492578363296
1782.0,0.001198948550585932
1781.0,0.0011721917326917193
1780.0,0.0011688341966779804
1779.0,0.0011477654836389932
1778.0,0.0011011317709987596
1777.0,0.0010601254485030557
1776.0,0.001056327601179448
1775.0,0.0010852096255182823
1774.0,0.0010994370467427858
1773.0,0.001103345109285744
1772.0,0.001143024463090444
1771.0,0.0011748577380890695
1770.0,0.0011960988170882157
1769.0,0.001235472688081165
1768.0,0.0012622465038747048
1767.0,0.0012467728548245802
1766.0,0.0012158007049167699
1765.0,0.0012217324708767054
1764.0,0.0012736315620133047
1763.0,0.0013470499382789184
1762.0,0.0014212357378691177
1761.0,0.0014681037354483395
1760.0,0.0014894344320146844
1759.0,0.0014993173277084281
1758.0,0.0015179139660875677
1757.0,0.0015646799816984931
1756.0,0.0016251564727094345
1755.0,0.0016640513489573636
1754.0,0.0016854614899943342
1753.0,0.0017058363660661488
1752.0,0.0017397239135254986
1751.0,0.001769897528223218
1750.0,0.0017509597187549825
1749.0,0.001732077141972552
1748.0,0.0017783508069919175
1747.0,0.0018612610840845452
1746.0,0.0019340785709819125
1745.0,0.002016600385071018
1744.0,0.002144563469648297
1743.0,0.002280425012578814
1742.0,0.0023655159596767646
1741.0,0.002398938372795917
1740.0,0.0024071441968338218
1739.0,0.002397462634210896
1738.0,0.0024030695124384154
1737.0,0.002465451947584566
1736.0,0.0025319890367584124
1735.0,0.00255096697934755
1734.0,0.00257743479357039
1733.0,0.002569707344745484
1732.0,0.0025435099164140317
1731.0,0.002559822277528998
1730.0,0.002610834264685895
1729.0,0.0026934922341457007
1728.0,0.0027858002047664015
1727.0,0.0028529449311567485
1726.0,0.0028803889325910775
1725.0,0.002901880198327272
1724.0,0.0029545488560909295
1723.0,0.00300824853086996
1722.0,0.003047041380338641
1721.0,0.003097322994063941
1720.0,0.0031528759380995306
1719.0,0.00315680928639926
1718.0,0.0031544925516220563
1717.0,0.0032895191716934046
1716.0,0.0034978151825269775
1715.0,0.003646005473075642
1714.0,0.003722570398187466
1713.0,0.003778376152272751
1712.0,0.0038448761457356975
1711.0,0.0039198057859706524
1710.0,0.003997525752501832
1709.0,0.004076366641684384
1708.0,0.004151454061934567
1707.0,0.004214360796519663
1706.0,0.004296282697928677
1705.0,0.004444858175952149
1704.0,0.0046343279003801625
1703.0,0.004842388184492232
1702.0,0.005035530002284339
1701.0,0.005268866828023666
1700.0,0.005562547245177041
1699.0,0.005702526145663947
1698.0,0.0057754282489670475
1697.0,0.005991867540546999
1696.0,0.006328853475232314
1695.0,0.006527268177527653
1694.0,0.006588301460883522
1693.0,0.006687966072394823
1692.0,0.006829370246300825
1691.0,0.006975607857598848
1690.0,0.00714958179823939
1689.0,0.0073820667783901315
1688.0,0.007632230963013515
1687.0,0.007823473896556948
1686.0,0.007877240932070375
1685.0,0.007953150472582599
1684.0,0.008312268117849447
1683.0,0.008648476789284385
1682.0,0.008896646137578087
1681.0,0.00918772709195601
1680.0,0.00948785411481768
1679.0,0.009744939796021744
1678.0,0.009951219352364007
1677.0,0.010146425603821502
1676.0,0.010382091525659361
1675.0,0.010633316399303023
1674.0,0.010795113713864168
1673.0,0.010895987063323627
1672.0,0.011025752806437193
1671.0,0.011221616385575504
1670.0,0.011529880955888867
1669.0,0.011855708999713015
1668.0,0.012065981535941756
1667.0,0.01219576099694546
1666.0,0.012303976164148253
1665.0,0.012417666699351645
1664.0,0.012558712483104759
1663.0,0.01273665405593681
1662.0,0.012912975136427599
1661.0,0.013053330162150358
1660.0,0.013189770996254076
1659.0,0.013307776135615238
1658.0,0.01339493552197648
1657.0,0.013479647336072355
1656.0,0.013615509246607992
1655.0,0.013731283455010266
1654.0,0.013835143846736588
1653.0,0.013977454838918456
1652.0,0.013856805677612612
1651.0,0.013758416854827819
1650.0,0.013775238480648409
1649.0,0.013778124317995716
1648.0,0.013809529181928827
1647.0,0.013982536356895805
1646.0,0.014135931481475662
1645.0,0.01415637922807696
1644.0,0.01414774477362363
1643.0,0.014126502441070308
1642.0,0.014087678712633282
1641.0,0.01404197330309524
1640.0,0.014000432915585299
1639.0,0.013962158729466798
1638.0,0.01390928012472058
1637.0,0.013868571562264585
1636.0,0.013872210836956177
1635.0,0.013779280029756771
1634.0,0.013596156109726466
1633.0,0.013492540651137874
1632.0,0.013441727817654184
1631.0,0.013373971999857688
1630.0,0.013262460729476844
1629.0,0.013116708139019145
1628.0,0.012963782986718023
1627.0,0.01281814652339245
1626.0,0.012680719347051742
1625.0,0.01252907223847411
1624.0,0.01233939943941521
1623.0,0.01211261581335773
1622.0,0.011889341066868325
1621.0,0.011727664289966782
1620.0,0.011631147210259683
1619.0,0.011529122510841879
1618.0,0.011356638066472012
1617.0,0.011120865704493768
1616.0,0.010867997967884473
1615.0,0.010665681255806128
1614.0,0.010554661059894742
1613.0,0.010483743723669631
1612.0,0.010391241868280714
1611.0,0.010267835163264084
1610.0,0.010134716290101804
1609.0,0.010009914509892607
1608.0,0.009900928150860923
1607.0,0.00981406105509368
1606.0,0.009749023295483376
1605.0,0.009688187033311984
1604.0,0.009620583608097668
1603.0,0.009540222774117294
1602.0,0.009447790756540219
1601.0,0.009349931010642284
1600.0,0.009249733095590417
1599.0,0.009147616444449865
1598.0,0.009047853340341671
1597.0,0.008958862419551421
1596.0,0.008880948290882857
1595.0,0.008807209493894757
1594.0,0.00873757408944566
1593.0,0.008675980475982881
1592.0,0.008621889956096505
1591.0,0.008574901878035175
1590.0,0.008541472620717607
1589.0,0.008522811715282528
1588.0,0.008511113267537085
1587.0,0.008502031627494612
1586.0,0.008502297358284784
1585.0,0.008509566848816352
1584.0,0.008515733401776545
1583.0,0.008524359636587958
1582.0,0.008529997280169222
1581.0,0.008527295162282986
1580.0,0.008519495348812921
1579.0,0.008514801546565448
1578.0,0.008504629414385704
1577.0,0.008526806548368902
1576.0,0.008580328585789101
1575.0,0.008566835283739525
1574.0,0.008536998517052955
1573.0,0.008552538772897526
1572.0,0.0085672604361258
1571.0,0.008550054123269124
1570.0,0.008560389701428044
1569.0,0.008617653452067702
1568.0,0.008662479784707026
1567.0,0.008686402906640455
1566.0,0.008695072704835818
1565.0,0.008690540980764279
1564.0,0.008697122985414932
1563.0,0.008718778685431004
1562.0,0.008751969358069102
1561.0,0.008700356318343854
1560.0,0.008528333640426586
1559.0,0.008544649156562334
1558.0,0.008616301246796637
1557.0,0.008637975282598541
1556.0,0.008743963776244583
1555.0,0.00883052277294716
1554.0,0.008842872461226543
1553.0,0.008823393171302376
1552.0,0.008805952876621519
1551.0,0.008799990731669368
1550.0,0.008808385969328893
1549.0,0.008846902009485558
1548.0,0.008886653034029721
1547.0,0.008898177589288686
1546.0,0.008863109144405742
1545.0,0.00883885201340175
1544.0,0.0088694794132315
1543.0,0.008888527915853251
1542.0,0.008818747172952656
1541.0,0.008856684828755847
1540.0,0.009049030495486311
1539.0,0.00901301252901533
1538.0,0.008908978341605457
1537.0,0.00894498554703652
1536.0,0.009022152152762712
1535.0,0.009056775615357527
1534.0,0.009064201030146537
1533.0,0.009110578572555175
1532.0,0.009156533056592963
1531.0,0.009169303759134896
1530.0,0.00916541672675887
1529.0,0.00917617855414129
1528.0,0.009220894777971137
1527.0,0.009272866802082572
1526.0,0.009311837681256308
1525.0,0.009357396404919751
1524.0,0.009413556286102489
1523.0,0.00943150191807239
1522.0,0.009467487749437483
1521.0,0.009593076856824435
1520.0,0.009681621877002522
1519.0,0.009689025864546931
1518.0,0.009691990340773185
1517.0,0.009806329481866898
1516.0,0.010004445274305607
1515.0,0.010139350432831859
1514.0,0.01021594724917201
1513.0,0.010276906763610087
1512.0,0.010324991731786512
1511.0,0.010315409056621106
1510.0,0.010280017571146374
1509.0,0.010276240852979871
1508.0,0.010485009832585074
1507.0,0.0108989625922175
1506.0,0.011019963261145429
1505.0,0.011000871488719578
1504.0,0.011077071816065443
1503.0,0.01115107604424732
1502.0,0.011216168110724054
1501.0,0.011306737016077272
1500.0,0.011437381748154535
1499.0,0.01156477591464045
1498.0,0.011717411330782253
1497.0,0.012040355763854725
1496.0,0.012453233071101896
1495.0,0.012713044267863682
1494.0,0.012846128820256295
1493.0,0.012978681986558188
1492.0,0.013107821057098384
1491.0,0.013157375418951334
1490.0,0.013175168180378866
1489.0,0.0133185955884257
1488.0,0.013540352056559991
1487.0,0.013709142562045536
1486.0,0.013864221841393898
1485.0,0.014067500498216593
1484.0,0.014298614551485855
1483.0,0.014525416748231958
1482.0,0.01478882162270648
1481.0,0.015155275173447225
1480.0,0.015571529524787877
1479.0,0.01595900506064243
1478.0,0.01638978274271861
1477.0,0.01703359294004984
1476.0,0.017922188227516636
1475.0,0.018928610631203026
1474.0,0.020204604603898273
1473.0,0.0221911975793849
1472.0,0.024436331843954367
1471.0,0.026090028378203668
1470.0,0.027393744295056394
1469.0,0.02878264473453332
1468.0,0.030324700558388734
1467.0,0.03204419622512176
1466.0,0.034160682665049825
1465.0,0.03678162904849501
1464.0,0.03921174541510602
1463.0,0.04077402620674736
1462.0,0.04170475768753739
1461.0,0.04239432154052306
1460.0,0.04295971919836656
1459.0,0.04336525046490092
1458.0,0.04383681855852129
1457.0,0.04457882428518663
1456.0,0.04501835489787487
1455.0,0.045062211174554515
1454.0,0.045076216751606224
1453.0,0.04502425037957611
1452.0,0.044721395182537836
1451.0,0.044086314596690546
1450.0,0.04310894375555249
1449.0,0.041594394323414996
1448.0,0.03938301418397613
1447.0,0.03690728885940813
1446.0,0.034768324281251005
1445.0,0.03302863511368263
1444.0,0.03150246038459698
1443.0,0.030162785064541717
1442.0,0.02911257487754918
1441.0,0.02837960212625862
1440.0,0.027901562794361477
1439.0,0.027628701438758965
1438.0,0.027540261657147756
1437.0,0.027514127187868304
1436.0,0.02724926714668196
1435.0,0.02665485918963012
1434.0,0.025898170835428867
1433.0,0.025037755931401926
1432.0,0.024087929573644515
1431.0,0.023175583343372913
1430.0,0.02244333998210434
1429.0,0.021916729818541356
1428.0,0.021549720960455373
1427.0,0.021319954535760795
1426.0,0.02117521141963757
1425.0,0.021027715310854823
1424.0,0.020869690909616812
1423.0,0.020777458698558564
1422.0,0.02077089193562274
1421.0,0.020751778185857956
1420.0,0.020621919107513997
1419.0,0.020426552470246277
1418.0,0.020271398441622273
1417.0,0.0201482262533952
1416.0,0.020007950474998162
1415.0,0.01984542866991709
1414.0,0.019657570459596645
1413.0,0.019426360702714585
1412.0,0.019149635865968486
1411.0,0.018857089465446706
1410.0,0.01855721921678525
1409.0,0.018225448725916377
1408.0,0.017856613379965722
1407.0,0.017481381117446782
1406.0,0.017096978156719775
1405.0,0.01664817539259864
1404.0,0.016171643338031543
1403.0,0.015794212330059572
1402.0,0.015533094737059154
1401.0,0.015272076296711384
1400.0,0.014932402438470181
1399.0,0.01458494247754966
1398.0,0.014315768286956718
1397.0,0.0140691529027531
1396.0,0.013776581775700538
1395.0,0.013493985920787842
1394.0,0.013270459386939652
1393.0,0.013070843094359432
1392.0,0.012903033222787429
1391.0,0.012816547204715874
1390.0,0.012812333078709628
1389.0,0.012859769378788924
1388.0,0.013036490156603332
1387.0,0.013525688188318258
1386.0,0.014358698464753471
1385.0,0.015485531201553424
1384.0,0.017075350774796594
1383.0,0.019411780105020458
1382.0,0.02263910390589255
1381.0,0.02679627801363888
1380.0,0.0319657912373173
1379.0,0.037930054506647694
1378.0,0.04370938509000068
1377.0,0.047908152313831526
1376.0,0.04930326766827908
1375.0,0.046904757973640396
1374.0,0.04111287937831437
1373.0,0.03448869523549698
1372.0,0.029057238155666465
1371.0,0.024854525544573878
1370.0,0.02136918810266325
1369.0,0.018472099761732082
1368.0,0.016323746554804862
1367.0,0.014960523204308854
1366.0,0.014188532070185885
1365.0,0.01379139307906388
1364.0,0.013648752597139085
1363.0,0.013744102829309615
1362.0,0.014049114809356295
1361.0,0.014411240416909173
1360.0,0.01464074829687426
1359.0,0.014618933812109335
1358.0,0.014299508922109374
1357.0,0.013692036441699886
1356.0,0.012852884269120943
1355.0,0.011891327709528745
1354.0,0.010956313316050993
1353.0,0.010157488465188973
1352.0,0.00950042933709406
1351.0,0.00894100043500542
1350.0,0.008460645960035706
1349.0,0.008058403754469885
1348.0,0.007717485298852557
1347.0,0.007409783043036385
1346.0,0.0071275541056100965
1345.0,0.006877436267136895
1344.0,0.006659215286201508
1343.0,0.006463413294346009
1342.0,0.006280839329917087
1341.0,0.00610672577528994
1340.0,0.005949845565944191
1339.0,0.005833296261365393
1338.0,0.00576582846307918
1337.0,0.005725541427548976
1336.0,0.005688135380540383
1335.0,0.00565572867912912
1334.0,0.005646571629108898
1333.0,0.005665981901786146
1332.0,0.005699984921984992
1331.0,0.005731758767726986
1330.0,0.005746301354915316
1329.0,0.005724196874483561
1328.0,0.005651386537327486
1327.0,0.005536450181164589
1326.0,0.0054009668848244465
1325.0,0.0052548802352252
1324.0,0.005099174621005094
1323.0,0.004942811727876138
1322.0,0.004800726679086183
1321.0,0.004676866693662837
1320.0,0.004566363137681169
1319.0,0.004470182563283898
1318.0,0.004390330698546701
1317.0,0.0043162181462124
1316.0,0.004236147070965547
1315.0,0.004156351770387964
1314.0,0.0040937323951734
1313.0,0.004054935057366668
1312.0,0.004036347335966858
1311.0,0.004043744528393681
1310.0,0.00409592011363724
1309.0,0.004213401052207147
1308.0,0.004409560404514661
1307.0,0.004675372004270045
1306.0,0.004956395441527995
1305.0,0.0051598376833048454
1304.0,0.0052100120063996065
1303.0,0.005103900890352642
1302.0,0.004909435977998838
1301.0,0.004707977738457218
1300.0,0.004548480234348612
1299.0,0.004444758223504543
1298.0,0.0043868571486541125
1297.0,0.004346742298589503
1296.0,0.0042933271116800086
1295.0,0.004213703544279378
1294.0,0.004114027400762348
1293.0,0.004002929697982398
1292.0,0.003885303647849673
1291.0,0.0037690776604445645
1290.0,0.0036638774735255186
1289.0,0.003572637784838328
1288.0,0.0034939268657219313
1287.0,0.0034300021225990938
1286.0,0.0033829873929991042
1285.0,0.0033475040966099105
1284.0,0.0033163098546417323
1283.0,0.0032883975754861294
1282.0,0.0032648502615837995
1281.0,0.0032421330315771865
1280.0,0.003217829523981355
1279.0,0.003196875422538832
1278.0,0.003183230107403427
1277.0,0.0031722438784525433
1276.0,0.003159196391119775
1275.0,0.003148992850017693
1274.0,0.003148544895601322
1273.0,0.0031567186509299187
1272.0,0.003170596610631982
1271.0,0.0031958473399503647
1270.0,0.003240634469450719
1269.0,0.003303151099169961
1268.0,0.0033741033701509444
1267.0,0.003446954658493118
1266.0,0.003520649962041808
1265.0,0.00359824483453218
1264.0,0.003686535419225461
1263.0,0.0037921090616800258
1262.0,0.003915971137746183
1261.0,0.004058671785675146
1260.0,0.004231692064738907
1259.0,0.004449232921422271
1258.0,0.004698537135294421
1257.0,0.004927134326075689
1256.0,0.005067331976310716
1255.0,0.005077746057584515
1254.0,0.004969564688761618
1253.0,0.004796868947232011
1252.0,0.0046214808790052755
1251.0,0.004482242587290328
1250.0,0.004385407520881832
1249.0,0.004318648815360985
1248.0,0.0042736730067230375
1247.0,0.00425138379989428
1246.0,0.004249303115603537
1245.0,0.004257845728564778
1244.0,0.004271919534088503
1243.0,0.004294917525694893
1242.0,0.004327103052382136
1241.0,0.004361418173263881
1240.0,0.0043950492738928995
1239.0,0.004433664534196725
1238.0,0.004478569306613873
1237.0,0.004520066362559515
1236.0,0.004549720401917878
1235.0,0.0045697672498741515
1234.0,0.0045852259156610176
1233.0,0.0045972729238522875
1232.0,0.004610898202301339
1231.0,0.004637751733391088
1230.0,0.004681805140071153
1229.0,0.004731225806911467
1228.0,0.004773825616802344
1227.0,0.004813382068360036
1226.0,0.004862848403768199
1225.0,0.004928297501803172
1224.0,0.0050071585826428604
1223.0,0.0050943552418472645
1222.0,0.005180402894152272
1221.0,0.005249679454052334
1220.0,0.005291154132356918
1219.0,0.005309019162593255
1218.0,0.005315843691805251
1217.0,0.005317854217247234
1216.0,0.005313324684031102
1215.0,0.005301247109873961
1214.0,0.005283402123058835
1213.0,0.0052610799526098245
1212.0,0.005237381922929803
1211.0,0.0052202892252719586
1210.0,0.005216361475612299
1209.0,0.0052235651237573545
1208.0,0.005236172891348602
1207.0,0.005253461618228671
1206.0,0.005278495555329299
1205.0,0.005311963306669399
1204.0,0.005352531425762041
1203.0,0.00539930864168525
1202.0,0.005448816107913078
1201.0,0.005493790132116521
1200.0,0.0055298986978913785
1199.0,0.005559947209284615
1198.0,0.005587766031837209
1197.0,0.005613376779873475
1196.0,0.005638779115417238
1195.0,0.005672682431954866
1194.0,0.005722752921423095
1193.0,0.005787654300099657
1192.0,0.005862987288142071
1191.0,0.005949390200579567
1190.0,0.006047054945917311
1189.0,0.006147126594340911
1188.0,0.006238179307941769
1187.0,0.006320119740107127
1186.0,0.006404513012071121
1185.0,0.006501754363438604
1184.0,0.00661497637930733
1183.0,0.006745632943670598
1182.0,0.006896106052123664
1181.0,0.007065064964480908
1180.0,0.007247934483008457
1179.0,0.007446783938323896
1178.0,0.007676793429403231
1177.0,0.007960659154288141
1176.0,0.008320125564846056
1175.0,0.00877513141108048
1174.0,0.009345785103919858
1173.0,0.010046672646331831
1172.0,0.01087108583442848
1171.0,0.011774278802577944
1170.0,0.012669489242542405
1169.0,0.013441289811553209
1168.0,0.013972708675239524
1167.0,0.0141892829368118
1166.0,0.01410369138967207
1165.0,0.013809322031097516
1164.0,0.0134171966899246
1163.0,0.013006782296615851
1162.0,0.012627839369882678
1161.0,0.012313162514891597
1160.0,0.012073688365957166
1159.0,0.01189659015185213
1158.0,0.011763128126573302
1157.0,0.011666208318121908
1156.0,0.011605944148178334
1155.0,0.011575221390807786
1154.0,0.011556548559890013
1153.0,0.01152893533641806
1152.0,0.011473488750297363
1151.0,0.011378358228022155
1150.0,0.011245790044222659
1149.0,0.01109237534111544
1148.0,0.010939506433728468
1147.0,0.010804109055363095
1146.0,0.010692583194897898
1145.0,0.01059600946155205
1144.0,0.010494975358391993
1143.0,0.010379315914433293
1142.0,0.010264342044060546
1141.0,0.01017928430878428
1140.0,0.010137540792835322
1139.0,0.010124212153079511
1138.0,0.01011357574271651
1137.0,0.010093255161846521
1136.0,0.010069588363497969
1135.0,0.010055596478329622
1134.0,0.010057859729573349
1133.0,0.010072496168582395
1132.0,0.010091460284308074
1131.0,0.010112531712678514
1130.0,0.010141393026759059
1129.0,0.01018227956752531
1128.0,0.010230875197750958
1127.0,0.010281522676247726
1126.0,0.01033748475405552
1125.0,0.010406203442225197
1124.0,0.010486722193434737
1123.0,0.010570293427071428
1122.0,0.010652123167366936
1121.0,0.010733796866076756
1120.0,0.010815456518409403
1119.0,0.010896192482870656
1118.0,0.01098132110127668
1117.0,0.011077095670512856
1116.0,0.011177927128348166
1115.0,0.01127211193777354
1114.0,0.011362478585483733
1113.0,0.011467246634262102
1112.0,0.011595860269344144
1111.0,0.01173870629118488
1110.0,0.011887153982352426
1109.0,0.012049903573218411
1108.0,0.012239033768388329
1107.0,0.012450959162501829
1106.0,0.012671256507534062
1105.0,0.012886507167808935
1104.0,0.013080422039236185
1103.0,0.013229408058104668
1102.0,0.013317365097594274
1101.0,0.013351637691103795
1100.0,0.01335645154257642
1099.0,0.013355598483248028
1098.0,0.013361081052769262
1097.0,0.013367962097686991
1096.0,0.013360832142089801
1095.0,0.01333551608286826
1094.0,0.013312399777260835
1093.0,0.01331477127828775
1092.0,0.013338094421264796
1091.0,0.013357212724418414
1090.0,0.013360389687754756
1089.0,0.013357741048057065
1088.0,0.01335926522732337
1087.0,0.013367138560131678
1086.0,0.0133890758334867
1085.0,0.013434118116215466
1084.0,0.013490277316828527
1083.0,0.013527952135315678
1082.0,0.013531315718917143
1081.0,0.013507803973347068
1080.0,0.013466665702497264
1079.0,0.013413778677978341
1078.0,0.013368610888710317
1077.0,0.013355300942041324
1076.0,0.013368931758656142
1075.0,0.013376409201427398
1074.0,0.013359360297267739
1073.0,0.013332947456163466
1072.0,0.013314817039636384
1071.0,0.013301713116378466
1070.0,0.013287903685339303
1069.0,0.013282372362168851
1068.0,0.013294193039564636
1067.0,0.013319365333194926
1066.0,0.013351410404149323
1065.0,0.01338656268491279
1064.0,0.013412788935487766
1063.0,0.013416617591671634
1062.0,0.013408853540612328
1061.0,0.013419666323850082
1060.0,0.013457858260356927
1059.0,0.013497271217937434
1058.0,0.013514788084021408
1057.0,0.013519977629679332
1056.0,0.013535283318118579
1055.0,0.013569973892456889
1054.0,0.0136270830108189
1053.0,0.013713261466325455
1052.0,0.013824143717948031
1051.0,0.013939878903805748
1050.0,0.014054544785718971
1049.0,0.014186687733341877
1048.0,0.014340547713446707
1047.0,0.014484849013711328
1046.0,0.014589126416883293
1045.0,0.014653345845197764
1044.0,0.014686040172950166
1043.0,0.014681431869334967
1042.0,0.014637010886950751
1041.0,0.014571861262800637
1040.0,0.014508348770480555
1039.0,0.01445147533949286
1038.0,0.014400675551308823
1037.0,0.014364786372688489
1036.0,0.01435026569149565
1035.0,0.014348932653947922
1034.0,0.014350172584670154
1033.0,0.014351182445954267
1032.0,0.014343625459782107
1031.0,0.014307510264623964
1030.0,0.014235111379588817
1029.0,0.014147396441940248
1028.0,0.014071290266394466
1027.0,0.014011876956143046
1026.0,0.013958475451489802
1025.0,0.013905262685316184
1024.0,0.013853279353059075
1023.0,0.013803126001350335
1022.0,0.013757208947416819
1021.0,0.01371969418546121
1020.0,0.013685331540873927
1019.0,0.013638581679806212
1018.0,0.013572493163416317
1017.0,0.013497287643045752
1016.0,0.013421922107165508
1015.0,0.01334063485775391
1014.0,0.013247816265554605
1013.0,0.013153146943299634
1012.0,0.01307014301924415
1011.0,0.013000452326876698
1010.0,0.012940972847132831
1009.0,0.012897912059753134
1008.0,0.012883843032164659
1007.0,0.012908616199161182
1006.0,0.01298390684956852
1005.0,0.013132870179727106
1004.0,0.013388891371255075
1003.0,0.013788742867985065
1002.0,0.014364171348071806
1001.0,0.01511303025026977
1000.0,0.015946203945569087
999.0,0.016662562032687716
998.0,0.01701507114165495
997.0,0.01684194823636765
996.0,0.01615645593238885
995.0,0.015134950831458788
994.0,0.014023306302547646
993.0,0.013018683706194096
992.0,0.012203189128476875
991.0,0.011565406935821875
990.0,0.01106349920024708
989.0,0.010664420304951048
988.0,0.010345154455115305
987.0,0.010086220328046572
986.0,0.009877104831351444
985.0,0.00972182672559619
984.0,0.009632632152888183
983.0,0.009620702656805032
982.0,0.009696363765618048
981.0,0.009875675805549641
980.0,0.0101817300204947
979.0,0.010637019294931462
978.0,0.01125291604235635
977.0,0.012018793745607811
976.0,0.012883916656360572
975.0,0.013733089272716992
974.0,0.014380630059242266
973.0,0.014611177930671324
972.0,0.0142710146528044
971.0,0.013373270887399844
970.0,0.012126167780075022
969.0,0.010820852386053233
968.0,0.009670164057322152
967.0,0.008744735365730283
966.0,0.008021143110473514
965.0,0.007453082373729967
964.0,0.007002281481981076
963.0,0.006637757330491375
962.0,0.00633514553273992
961.0,0.00607936902090387
960.0,0.005859210205436002
959.0,0.005658732553093879
958.0,0.005459897904133877
957.0,0.005254907725609877
956.0,0.005052487750680051
955.0,0.004870582593919698
954.0,0.00472232249018178
953.0,0.0046060667767854994
952.0,0.004505270212956354
951.0,0.004397670130771952
950.0,0.004270150712828935
949.0,0.004130089284745939
948.0,0.004001202114790379
947.0,0.0039038183861072346
946.0,0.003837601836628072
945.0,0.003786214972226422
944.0,0.0037383018391204774
943.0,0.00369698437006543
942.0,0.0036654979591043066
941.0,0.003630361337218271
940.0,0.003567684173403675
939.0,0.003466497238832609
938.0,0.0033399638986743516
937.0,0.0032116510496211503
936.0,0.0030955013514494083
935.0,0.0029910111355587726
934.0,0.0028915087504222323
933.0,0.002791874657638844
932.0,0.002690441368794325
931.0,0.002588061235284012
930.0,0.002487045418924536
929.0,0.0023910857228476405
928.0,0.002306161096653282
927.0,0.0022390922234915255
926.0,0.0021918494117490212
925.0,0.002158143805079848
924.0,0.0021286413819983085
923.0,0.00209867084495894
922.0,0.002068113956485422
921.0,0.00203532988477796
920.0,0.0019961181713711966
919.0,0.0019496016572924258
918.0,0.001901202239837219
917.0,0.0018575531348084956
916.0,0.0018203476047321532
915.0,0.001786721969430043
914.0,0.0017544795350892019
913.0,0.0017261483685786748
912.0,0.001708241976139141
911.0,0.001705271894731613
910.0,0.0017130526268704163
909.0,0.0017207781201114651
908.0,0.0017239114896511597
907.0,0.0017341888345132304
906.0,0.0017733587542652952
905.0,0.0018581600201285839
904.0,0.001995156544996735
903.0,0.0021851643183999556
902.0,0.0024187235258835618
901.0,0.0026598212648214596
900.0,0.0028412602225047663
899.0,0.002891849303378541
898.0,0.0027802109398528934
897.0,0.0025331383203458166
896.0,0.0022136465148718566
895.0,0.0018882203753870404
894.0,0.0016064520352017664
893.0,0.0013911590594635603
892.0,0.0012389271775218504
891.0,0.001133779474426921
890.0,0.0010648182862243536
889.0,0.001033309170653588
888.0,0.001046492541564692
887.0,0.0011093056487506015
886.0,0.001222616518421869
885.0,0.0013847995994754492
884.0,0.001592429775577409
883.0,0.0018440711673796458
882.0,0.002148738887477679
881.0,0.002524653704540818
880.0,0.002976481673591047
879.0,0.003471140084938715
878.0,0.00394715431535719
877.0,0.0043531695396400415
876.0,0.004668603464964035
875.0,0.00488589037187024
874.0,0.004982274725112803
873.0,0.004910683332767696
872.0,0.004621614803468446
871.0,0.004112741020626268
870.0,0.00346518726675573
869.0,0.0028126370442566693
868.0,0.0022633191455561294
867.0,0.0018529767202318422
866.0,0.0015615548423380584
865.0,0.0013570593068650653
864.0,0.0012178415272887464
863.0,0.001126936888309173
862.0,0.0010668683791936334
861.0,0.0010263290625675443
860.0,0.0010014796221469394
859.0,0.0009867615898072075
858.0,0.0009738695052401956
857.0,0.0009616113538081349
856.0,0.0009542333089612234
855.0,0.0009453360352280876
854.0,0.0009178013476287272
853.0,0.0008699293697324723
852.0,0.000830171631771395
851.0,0.0008331354178493944
850.0,0.0008872411170366794
849.0,0.0009770025889385223
848.0,0.0010939193503250767
847.0,0.001261760614761796
846.0,0.0015456743122272618
845.0,0.00203916475231569
844.0,0.002799363817658867
843.0,0.0037359614135998483
842.0,0.004561864026880431
841.0,0.0049235695449287315
840.0,0.0046464194263318975
839.0,0.003869626873566104
838.0,0.002934465740472351
837.0,0.002137991398234399
836.0,0.0015884268462432634
835.0,0.0012445867937259276
834.0,0.0010254816896503993
833.0,0.000873892535597361
832.0,0.0007596168787659102
831.0,0.0006660427869039972
830.0,0.000585628338434353
829.0,0.0005176219725019724
828.0,0.0004616575560942703
827.0,0.0004129476650454253
826.0,0.0003663744013633549
825.0,0.00032645737333008434
824.0,0.00030961434411706096
823.0,0.0003293895855327276
822.0,0.00037934383112050996
821.0,0.0004385255297838491
820.0,0.0004931491667019786
819.0,0.000545157009369756
818.0,0.0006027841580936531
817.0,0.0006751827490319422
816.0,0.0007790064800848717
815.0,0.0009371353631555061
814.0,0.0011585944128175082
813.0,0.0014227101025624418
812.0,0.0016912959919920725
811.0,0.0019338153060952986
810.0,0.002132511998595602
809.0,0.0022651626083013444
808.0,0.0022986807277360754
807.0,0.0022145316065546334
806.0,0.002036979275419704
805.0,0.0018229872813993932
804.0,0.0016246032658713272
803.0,0.0014669955963888225
802.0,0.0013534438552134358
801.0,0.0012766058994841591
800.0,0.0012234510596312621
799.0,0.0011784426671418297
798.0,0.0011292374973530042
797.0,0.0010715164261254472
796.0,0.0010095089557961602
795.0,0.00095216394961712
794.0,0.0009062060175916015
793.0,0.0008713313135894594
792.0,0.0008441935979072463
791.0,0.0008260196197629362
790.0,0.0008194564391011405
789.0,0.0008167189576616992
788.0,0.0008006259468762
787.0,0.0007646729850622515
786.0,0.0007258482615805813
785.0,0.0007082474102821906
784.0,0.0007170835453615375
783.0,0.0007367190417390066
782.0,0.0007513622698364988
781.0,0.0007583039619656479
780.0,0.0007610120131435402
779.0,0.0007597681622258986
778.0,0.0007542882369737797
777.0,0.0007495206081146039
776.0,0.0007535485308319337
775.0,0.0007717038714476453
774.0,0.0008039153035556603
773.0,0.0008458592043939749
772.0,0.0008919514095357788
771.0,0.0009385662358384599
770.0,0.000984584139861652
769.0,0.001028304050750526
768.0,0.0010668067367023606
767.0,0.0011008699349568107
766.0,0.0011363603894474824
765.0,0.001175741904019931
764.0,0.0012121722161592356
763.0,0.001239381523763159
762.0,0.00126475632220595
761.0,0.0013034740319432907
760.0,0.0013586018167950579
759.0,0.0014129785051708692
758.0,0.0014423825254994155
757.0,0.001434587121165374
756.0,0.0013986017264310258
755.0,0.0013614874841394228
754.0,0.0013520893702434582
753.0,0.0013784076298803787
752.0,0.001421368190150072
751.0,0.0014541066781667642
750.0,0.0014635613541853082
749.0,0.0014526349726522204
748.0,0.0014324876894218942
747.0,0.0014209422080469995
746.0,0.0014356977891754868
745.0,0.0014724479579157016
744.0,0.0014988694037141141
743.0,0.0014896527442796077
742.0,0.0014619547405262789
741.0,0.0014569471312338989
740.0,0.0014909817226968335
739.0,0.0015462362544860844
738.0,0.0016053049232154018
737.0,0.0016695343974011262
736.0,0.0017437304909904937
735.0,0.0018310762425762985
734.0,0.0019487016541828907
733.0,0.0021184247121302045
732.0,0.0023247358722030646
731.0,0.002502751526608976
730.0,0.00258977364274853
729.0,0.0025810554525263017
728.0,0.002522940676689749
727.0,0.002466699799021555
726.0,0.0024451305085496575
725.0,0.00247590213756773
724.0,0.0025630802665244107
723.0,0.0026982574881675523
722.0,0.002869521589784896
721.0,0.003059381087030865
720.0,0.0032257737543801897
719.0,0.00331014688916007
718.0,0.0032894719027321117
717.0,0.0032054900755077963
716.0,0.0031315338490821264
715.0,0.0031137914537893614
714.0,0.003132111926540915
713.0,0.003113977038417372
712.0,0.0029998632219389205
711.0,0.0028049327684473626
710.0,0.002613069895829918
709.0,0.002501646784958452
708.0,0.002480155232455896
707.0,0.002511516011015378
706.0,0.00257913002589898
705.0,0.002706681510795096
704.0,0.0029098552512890133
703.0,0.0031593309635025556
702.0,0.003405873044549314
701.0,0.003616890627966834
700.0,0.0037736971933166226
699.0,0.0038534969479995605
698.0,0.0038332131425605504
697.0,0.0037018904249046837
696.0,0.0034614796229741444
695.0,0.0031363806962245774
694.0,0.002787329013917988
693.0,0.0024849559133034316
692.0,0.002254789986483447
691.0,0.0020670249241785104
690.0,0.001891765005387798
689.0,0.001742837946699308
688.0,0.0016469097256774957
687.0,0.0015937098768392926
686.0,0.0015508425122191527
685.0,0.0015080183632392597
684.0,0.0014752053829190995
683.0,0.0014535649426012758
682.0,0.0014328411972829597
681.0,0.0014076203955958842
680.0,0.0013821864362498163
679.0,0.0013682351722641498
678.0,0.001381782133512385
677.0,0.0014282330461078928
676.0,0.0014824118278041858
675.0,0.0015038107307302293
674.0,0.0014817030782035574
673.0,0.0014375954547843003
672.0,0.0013816146881785087
671.0,0.001302951298759427
670.0,0.0011990191682885749
669.0,0.0011063322374688656
668.0,0.0010962351888428017
667.0,0.0012236932168182661
666.0,0.0013748510031736747
665.0,0.0014210920845710608
664.0,0.0013972631550223085
663.0,0.0013424021819196403
662.0,0.001258284762174336
661.0,0.0011776888105634337
660.0,0.0011489250689586984
659.0,0.0011808947747239968
658.0,0.001233092837409775
657.0,0.0012618224462444556
656.0,0.0012429616205739333
655.0,0.0011679282349071982
654.0,0.001059374849597101
653.0,0.0009712596576143678
652.0,0.0009405496598960915
651.0,0.0009508738221691709
650.0,0.0009593509369573931
649.0,0.000947969381382939
648.0,0.0009295156676973563
647.0,0.0009164591154038719
646.0,0.0009112361001509233
645.0,0.0009131607120719636
644.0,0.0009114032634463098
643.0,0.0008846494923480941
642.0,0.0008271482358771266
641.0,0.0007645748682612048
640.0,0.0007280435752498437
639.0,0.0007195370346693049
638.0,0.0007134328619603086
637.0,0.0006863321234107465
636.0,0.0006339555280676073
635.0,0.0005679217349570092
634.0,0.0005040934781065862
633.0,0.00044566414376345787
632.0,0.0003848967579306098
631.0,0.0003352643219419107
630.0,0.0003446729544089311
629.0,0.0004448367544824111
628.0,0.0005937126099613815
627.0,0.0006993303877149745
626.0,0.0007109760311189532
625.0,0.0006603142071405152
624.0,0.0005980763338478134
623.0,0.0005357727621480273
622.0,0.00047099144931576215
621.0,0.00041600919219038184
620.0,0.00037202795283329884
619.0,0.00032155427616826007
618.0,0.0002782295459135796
617.0,0.00029830734038432775
616.0,0.0003954643368222332
615.0,0.0004929914772104377
614.0,0.0005150040458905773
613.0,0.000470265946005282
612.0,0.0004068141827806935
611.0,0.00034398157693181844
610.0,0.0002902536354147268
609.0,0.0002845707194492411
608.0,0.0003597331672123595
607.0,0.0004758403322972105
606.0,0.0005460120953477126
605.0,0.0005306045987730056
604.0,0.0004612181542565808
603.0,0.0003899015820820438
602.0,0.00035870668700591773
601.0,0.000389696339441338
600.0,0.0004575814257887917
