cm-1,A
4000.0,0.0031882222765483997
3999.0,0.0031975714987540933
3998.0,0.003203922131915264
3997.0,0.0032056109400097742
3996.0,0.003204401426189281
3995.0,0.0032045388436118503
3994.0,0.00320997042680422
3993.0,0.0032212723202627363
3992.0,0.0032343670124565533
3991.0,0.0032433242821676665
3990.0,0.0032449451229632368
3989.0,0.003241214884872488
3988.0,0.003236810649259951
3987.0,0.003234508514175783
3986.0,0.0032335786547026592
3985.0,0.0032317612139454287
3984.0,0.0032286424543257995
3983.0,0.0032266487575249277
3982.0,0.003228904528149927
3981.0,0.003236327822119735
3980.0,0.0032465443340071254
3979.0,0.0032561192010578475
3978.0,0.003263108360945872
3977.0,0.0032675506706767877
3976.0,0.003270412182270581
3975.0,0.0032720660574195332
3974.0,0.0032719872342066806
3973.0,0.003269098141696787
3972.0,0.003262177923626642
3971.0,0.003251137864539435
3970.0,0.0032386736145474607
3969.0,0.0032301846294595137
3968.0,0.0032301048753878205
3967.0,0.0032379978021846037
3966.0,0.003248694651072053
3965.0,0.00325663533218519
3964.0,0.0032607633205177537
3963.0,0.0032647365979875213
3962.0,0.0032726505466764847
3961.0,0.0032841619531430192
3960.0,0.0032936406166274848
3959.0,0.0032954030248999724
3958.0,0.0032886279032957435
3957.0,0.0032779488253146865
3956.0,0.0032694635656409154
3955.0,0.0032655523063529514
3954.0,0.003264819090948139
3953.0,0.0032649307173384995
3952.0,0.0032647544444212575
3951.0,0.003264813695769417
3950.0,0.0032662002249014025
3949.0,0.0032695589705329106
3948.0,0.0032743074542262735
3947.0,0.0032789888065034942
3946.0,0.0032823901168162004
3945.0,0.003283316982945845
3944.0,0.0032814045248666917
3943.0,0.0032788681557318865
3942.0,0.0032791954585453826
3941.0,0.003283904828255515
3940.0,0.003290339068585271
3939.0,0.0032941244075722015
3938.0,0.003293281791619756
3937.0,0.00328938108194225
3936.0,0.0032859027655641315
3935.0,0.003285585589314739
3934.0,0.003290178571995514
3933.0,0.0033000785609608426
3932.0,0.0033128189052309435
3931.0,0.0033230184225018214
3930.0,0.003325761174042198
3929.0,0.003321159390509534
3928.0,0.0033132801284920564
3927.0,0.003305797325727669
3926.0,0.003299769904630343
3925.0,0.0032958743680918294
3924.0,0.0032963737692158534
3923.0,0.003301903636974136
3922.0,0.0033091014729692836
3921.0,0.0033135247778937893
3920.0,0.0033146040057028623
3919.0,0.0033155465965196747
3918.0,0.0033174568110278125
3917.0,0.003318009497936308
3916.0,0.003316222575738899
3915.0,0.0033148064119108553
3914.0,0.0033156516377187417
3913.0,0.003317047379212643
3912.0,0.0033163533108354105
3911.0,0.0033143907531544593
3910.0,0.0033145792748593642
3909.0,0.003318980860387787
3908.0,0.0033266154015192586
3907.0,0.0033345996490176198
3906.0,0.003340504937203851
3905.0,0.003344099226847575
3904.0,0.0033481962286406484
3903.0,0.003356584153846023
3902.0,0.0033692555951429694
3901.0,0.003380558860955188
3900.0,0.0033840886401189513
3899.0,0.0033792928090884723
3898.0,0.0033712190227026635
3897.0,0.0033645297566921115
3896.0,0.003359351222059251
3895.0,0.0033546348953686148
3894.0,0.003350296257712924
3893.0,0.003346175581095211
3892.0,0.00334093953390863
3891.0,0.0033351071576691654
3890.0,0.0033330751605059354
3889.0,0.0033383088212223565
3888.0,0.003346606663565183
3887.0,0.003347191687099793
3886.0,0.0033370880793974376
3885.0,0.003328802672388877
3884.0,0.0033335371248258625
3883.0,0.00334725185097287
3882.0,0.0033556545810235214
3881.0,0.0033504188942964693
3880.0,0.003339545933024805
3879.0,0.003336915934515204
3878.0,0.00334767967266723
3877.0,0.0033657962856603312
3876.0,0.0033785450615785887
3875.0,0.0033764760016877227
3874.0,0.0033640471449947777
3873.0,0.0033551599537517086
3872.0,0.003355815957042007
3871.0,0.003357518038685961
3870.0,0.003352681531036846
3869.0,0.0033486915713252857
3868.0,0.003355205449733634
3867.0,0.003368152896506181
3866.0,0.003373385966487374
3865.0,0.003365999721347216
3864.0,0.0033563268017207572
3863.0,0.003354190647140781
3862.0,0.003356734511061372
3861.0,0.0033578286557220107
3860.0,0.003356083698749305
3859.0,0.003352466501574212
3858.0,0.00334849247655905
3857.0,0.003348116048626738
3856.0,0.0033554633859305197
3855.0,0.003365491541759487
3854.0,0.003366544849125402
3853.0,0.00336314788597072
3852.0,0.003367057464489692
3851.0,0.0033774204559959024
3850.0,0.0033859995504674553
3849.0,0.003387205636641538
3848.0,0.0033823987517775465
3847.0,0.0033758976482283027
3846.0,0.003369622437574318
3845.0,0.003363966557649688
3844.0,0.0033585904893387785
3843.0,0.00335409128069242
3842.0,0.0033534091042428174
3841.0,0.0033597448728803665
3840.0,0.0033720565722818504
3839.0,0.003385072182170417
3838.0,0.003394483282568946
3837.0,0.003400241038190366
3836.0,0.0034046871105608825
3835.0,0.0034094686392431217
3834.0,0.0034142904012801085
3833.0,0.003417111667031467
3832.0,0.0034157408760703747
3831.0,0.0034109734284623874
3830.0,0.0034070067141481804
3829.0,0.0034081083269468914
3828.0,0.0034130960304585775
3827.0,0.0034160713547063274
3826.0,0.0034146108722209996
3825.0,0.003414443305595592
3824.0,0.0034220797240958186
3823.0,0.0034343074063190784
3822.0,0.003440260929699613
3821.0,0.0034394319770132287
3820.0,0.0034432017304670904
3819.0,0.0034576742701246986
3818.0,0.003475660175760462
3817.0,0.003480336881171447
3816.0,0.003465205475951646
3815.0,0.0034474411046429227
3814.0,0.003444124667190865
3813.0,0.0034520235675195767
3812.0,0.003458278063253991
3811.0,0.0034591003282421484
3810.0,0.003462284142523874
3809.0,0.0034732082050325606
3808.0,0.0034841971358288764
3807.0,0.0034856575524948134
3806.0,0.003482575488019229
3805.0,0.0034880050350073397
3804.0,0.003504311257208405
3803.0,0.0035188382709596053
3802.0,0.0035186034516666497
3801.0,0.0035102004253652315
3800.0,0.0035100002409164137
3799.0,0.0035202462044181338
3798.0,0.0035310412576246616
3797.0,0.0035336642234078857
3796.0,0.0035299542339710527
3795.0,0.0035274629431231727
3794.0,0.003529120172221954
3793.0,0.003532198800240684
3792.0,0.003534024501116487
3791.0,0.0035356498670366023
3790.0,0.0035397873616192423
3789.0,0.0035477302665954764
3788.0,0.0035592752249096965
3787.0,0.003573334501659961
3786.0,0.0035870038049808884
3785.0,0.0035967350189583785
3784.0,0.0036023400738644734
3783.0,0.0036084620106163175
3782.0,0.003618734531431256
3781.0,0.0036300642596229548
3780.0,0.003635509502054158
3779.0,0.003633978771942838
3778.0,0.0036323833262298516
3777.0,0.003636338706116399
3776.0,0.0036429114468341023
3775.0,0.0036459824670440483
3774.0,0.0036460368991257253
3773.0,0.003650182245482951
3772.0,0.003661937196922497
3771.0,0.003676446612219335
3770.0,0.0036880218881443546
3769.0,0.003697273811126487
3768.0,0.003707290052303699
3767.0,0.003717777189122558
3766.0,0.00372670316900106
3765.0,0.0037354080502867582
3764.0,0.0037487271209180563
3763.0,0.0037697089379283132
3762.0,0.003794354150544835
3761.0,0.003815231844590256
3760.0,0.003829627074724953
3759.0,0.0038406798779618556
3758.0,0.0038502638457688695
3757.0,0.003856651805302095
3756.0,0.0038598854756982876
3755.0,0.0038625334694873045
3754.0,0.00386627025246425
3753.0,0.0038703680564928537
3752.0,0.003875316095746445
3751.0,0.003884000467081355
3750.0,0.0038972237510271762
3749.0,0.003913970218630123
3748.0,0.00393626543358441
3747.0,0.0039647578707804575
3746.0,0.003988453105163732
3745.0,0.00399001063137267
3744.0,0.003974859329279455
3743.0,0.003968777533425052
3742.0,0.003979519109634404
3741.0,0.0039953136142965185
3740.0,0.004006675524341664
3739.0,0.0040168346793649275
3738.0,0.004032428181404807
3737.0,0.004049841036017456
3736.0,0.004061336403451123
3735.0,0.004068633340909481
3734.0,0.004079131488007258
3733.0,0.004092648210781768
3732.0,0.004103306825540573
3731.0,0.004111467499724254
3730.0,0.00412490729332152
3729.0,0.004148089300272749
3728.0,0.004175129744725205
3727.0,0.00419596449616192
3726.0,0.004209219605586287
3725.0,0.004222565465599561
3724.0,0.0042406765461175736
3723.0,0.004262054773614254
3722.0,0.0042851663628049735
3721.0,0.004311562492938478
3720.0,0.0043421899786711925
3719.0,0.004374687822390246
3718.0,0.004405661135098205
3717.0,0.00443475991582369
3716.0,0.004465001203681045
3715.0,0.004498680473118888
3714.0,0.004534361373189846
3713.0,0.0045691062529055766
3712.0,0.004602256922657891
3711.0,0.0046358335155137955
3710.0,0.004670474003033293
3709.0,0.004704034776846986
3708.0,0.0047342446966261295
3707.0,0.004762870722107355
3706.0,0.004797710977381937
3705.0,0.004846961342460602
3704.0,0.004911502451710855
3703.0,0.004983424806500914
3702.0,0.005052709734313854
3701.0,0.005114371521190108
3700.0,0.005169160060783678
3699.0,0.0052200772520616875
3698.0,0.005269306520724588
3697.0,0.005318988199325694
3696.0,0.005373091590594633
3695.0,0.005434900013422342
3694.0,0.005502922492538646
3693.0,0.005572378111374111
3692.0,0.005640653144532109
3691.0,0.005711948437688079
3690.0,0.0057937879487782624
3689.0,0.0058852236771641375
3688.0,0.005974551966002243
3687.0,0.006054005897637708
3686.0,0.006127819847347475
3685.0,0.006202659899780704
3684.0,0.006282062951213793
3683.0,0.006368914341210794
3682.0,0.006466415524812608
3681.0,0.006571852723327033
3680.0,0.006676804088125668
3679.0,0.006779579753386689
3678.0,0.0068931573530278435
3677.0,0.007032960424133247
3676.0,0.00719484716439326
3675.0,0.0073509674517131095
3674.0,0.007481735813375955
3673.0,0.007597988299438092
3672.0,0.007719628988421703
3671.0,0.00785674711493561
3670.0,0.008009666775998127
3669.0,0.008169146953097877
3668.0,0.008323406648784296
3667.0,0.00847183016671586
3666.0,0.008623198690511168
3665.0,0.008786176001083414
3664.0,0.008962935083267877
3663.0,0.009149531046234949
3662.0,0.009340052462462185
3661.0,0.009529090907257634
3660.0,0.009714842344396003
3659.0,0.009901972053664086
3658.0,0.010101765619557605
3657.0,0.010321252897505125
3656.0,0.010551936558730598
3655.0,0.01077751351290187
3654.0,0.01099308116265058
3653.0,0.011207204389264513
3652.0,0.011431210549771744
3651.0,0.011676898229895824
3650.0,0.011955363309738115
3649.0,0.012258654524771243
3648.0,0.012553793421725022
3647.0,0.012814332703910365
3646.0,0.013043457594526141
3645.0,0.01326229981847099
3644.0,0.013489080825649676
3643.0,0.013731241764773087
3642.0,0.013988603703108827
3641.0,0.014258017406565189
3640.0,0.01453376365270766
3639.0,0.0148081762113716
3638.0,0.015077638554512239
3637.0,0.015346908598497529
3636.0,0.01562417516435093
3635.0,0.015909421725984935
3634.0,0.016191320678501892
3633.0,0.016459749572322692
3632.0,0.016721857069313197
3631.0,0.017007210292511864
3630.0,0.017348206766012217
3629.0,0.017735667922062725
3628.0,0.01810581182076791
3627.0,0.0184163117096157
3626.0,0.0186839007251604
3625.0,0.01893802754606519
3624.0,0.019192578380877314
3623.0,0.01945411892684714
3622.0,0.019736951579883217
3621.0,0.020058012296018186
3620.0,0.020414522380781723
3619.0,0.02077191407053262
3618.0,0.021093154181666605
3617.0,0.021376028842444345
3616.0,0.021646751480209815
3615.0,0.021931764934946772
3614.0,0.0222378689680311
3613.0,0.02254857452854295
3612.0,0.0228418361589811
3611.0,0.023118111911584305
3610.0,0.02340382220992535
3609.0,0.02372106169956472
3608.0,0.02405812152968836
3607.0,0.024381221840144705
3606.0,0.024674032507256312
3605.0,0.024947448569278798
3604.0,0.025219779061366798
3603.0,0.025502257205595992
3602.0,0.025798514680638315
3601.0,0.026104433454669253
3600.0,0.026409643624872536
3599.0,0.026706580205739145
3598.0,0.027000200729509535
3597.0,0.027303282886603896
3596.0,0.02762125111936951
3595.0,0.027945189303021988
3594.0,0.028259116239248865
3593.0,0.02855106490011023
3592.0,0.02881905417073057
3591.0,0.029076424940814763
3590.0,0.029350794712126753
3589.0,0.0296682922080974
3588.0,0.030024809687930185
3587.0,0.03038017083734907
3586.0,0.030700271898393895
3585.0,0.030988154001212458
3584.0,0.0312661243530935
3583.0,0.03155011237989772
3582.0,0.0318444141120462
3581.0,0.032145255481842
3580.0,0.032446899784429724
3579.0,0.03274815383896475
3578.0,0.033053057649875116
3577.0,0.033363398649675705
3576.0,0.03367397820910247
3575.0,0.03397975189386104
3574.0,0.034282165383819084
3573.0,0.034582702127080776
3572.0,0.034875168370053215
3571.0,0.035155004519342295
3570.0,0.0354335436106573
3569.0,0.03573599821626207
3568.0,0.03607955660024759
3567.0,0.036451273856722075
3566.0,0.036816888252966355
3565.0,0.03715371262000463
3564.0,0.03746314895750033
3563.0,0.03776054816743828
3562.0,0.03806226170564591
3561.0,0.0383753102253068
3560.0,0.038693670247392856
3559.0,0.03900811268109765
3558.0,0.039317534884569995
3557.0,0.03962694213473563
3556.0,0.03994005316762889
3555.0,0.04025987472149741
3554.0,0.040589921245757804
3553.0,0.0409264292141898
3552.0,0.04125359931429042
3551.0,0.041558284709423694
3550.0,0.041846700960807996
3549.0,0.042138840344993635
3548.0,0.04245038876566018
3547.0,0.042784012490903266
3546.0,0.04313259424779735
3545.0,0.04348331446422236
3544.0,0.04382215241242352
3543.0,0.044142606768735354
3542.0,0.04444997282368334
3541.0,0.044753848246476734
3540.0,0.045059596631741604
3539.0,0.045369818685763494
3538.0,0.04568867171660093
3537.0,0.04601663163750892
3536.0,0.046344670881107115
3535.0,0.046662476541547565
3534.0,0.04697052862408124
3533.0,0.047276751864609265
3532.0,0.04758557306404744
3531.0,0.04789743374858501
3530.0,0.04821542167584563
3529.0,0.04854270674593536
3528.0,0.04887478264408869
3527.0,0.04920388916708995
3526.0,0.0495302425782428
3525.0,0.049860346280034704
3524.0,0.050194948239553845
3523.0,0.050527142686323884
3522.0,0.05085290433133784
3521.0,0.051175810728198975
3520.0,0.051500709668922715
3519.0,0.05182857146332821
3518.0,0.05215780623674182
3517.0,0.052486044990425286
3516.0,0.05281092201949601
3515.0,0.05313289544425847
3514.0,0.053456263022059386
3513.0,0.053785028996516895
3512.0,0.05412011918322513
3511.0,0.054462486990605206
3510.0,0.05481244456361542
3509.0,0.05516226796277621
3508.0,0.05549803189052064
3507.0,0.055816791014110766
3506.0,0.0561357106878385
3505.0,0.05647662051136316
3504.0,0.05684335871017873
3503.0,0.05721924728281664
3502.0,0.05758485668749635
3501.0,0.05793275347286517
3500.0,0.05826746682576475
3499.0,0.05860036612495398
3498.0,0.05894340732189434
3497.0,0.059299568086338045
3496.0,0.05966054817696658
3495.0,0.060017986160506985
3494.0,0.060372806592883785
3493.0,0.06072921293227028
3492.0,0.06108653544242362
3491.0,0.06144407141129564
3490.0,0.061807592393710226
3489.0,0.06218106540318889
3488.0,0.06255625897973
3487.0,0.06292015485153822
3486.0,0.06327036397891254
3485.0,0.06361581394369442
3484.0,0.0639664198804931
3483.0,0.06432901682432375
3482.0,0.06470724248472579
3481.0,0.06509588860016612
3480.0,0.06547927778855211
3479.0,0.06584517207939804
3478.0,0.06619826715236914
3477.0,0.0665533910720036
3476.0,0.06691870837938962
3475.0,0.06729186333610937
3474.0,0.06766824978433848
3473.0,0.06804470620934532
3472.0,0.06841759870231578
3471.0,0.06878516041027884
3470.0,0.06915104567733907
3469.0,0.06951964681959867
3468.0,0.06988989325087247
3467.0,0.07025908221027297
3466.0,0.07062951648081349
3465.0,0.0710049495938603
3464.0,0.07138373560898033
3463.0,0.07176141822833551
3462.0,0.07213684119560752
3461.0,0.07251079027641119
3460.0,0.07288258675637663
3459.0,0.07325312505409783
3458.0,0.07362623356554251
3457.0,0.07400167735466724
3456.0,0.07437325977528879
3455.0,0.07473972928587543
3454.0,0.07511044566152848
3453.0,0.07549257995353824
3452.0,0.07587933711250125
3451.0,0.07626010768381225
3450.0,0.07663689337593117
3449.0,0.07702059448525456
3448.0,0.07741426685539686
3447.0,0.07780966677028812
3446.0,0.07819943694531992
3445.0,0.0785848915884908
3444.0,0.07897168332284486
3443.0,0.07936343673741894
3442.0,0.0797577817332811
3441.0,0.08014471376679369
3440.0,0.08051365760041657
3439.0,0.08086640463553522
3438.0,0.08121812971149102
3437.0,0.08158211926048262
3436.0,0.08195938603456235
3435.0,0.08234604540826494
3434.0,0.08274102473575241
3433.0,0.08313934973239982
3432.0,0.08352756636399927
3431.0,0.08389661643412899
3430.0,0.08425388418095028
3429.0,0.08461346251897889
3428.0,0.08497911339406566
3427.0,0.0853445347080713
3426.0,0.08570442689555544
3425.0,0.0860565545995422
3424.0,0.08639895374190006
3423.0,0.08673477926245392
3422.0,0.08707531201890795
3421.0,0.08742835890484242
3420.0,0.08778620735166366
3419.0,0.08813301703718002
3418.0,0.08846062120980819
3417.0,0.08877090179521144
3416.0,0.08906879053325437
3415.0,0.08936125022875398
3414.0,0.08965831214785092
3413.0,0.08996571109507473
3412.0,0.09027808984396785
3411.0,0.09058547636138015
3410.0,0.09088423845569352
3409.0,0.09117775437896654
3408.0,0.09147064315063408
3407.0,0.09176686889384388
3406.0,0.09206826279819218
3405.0,0.09236945116254033
3404.0,0.09265918874113421
3403.0,0.09293230727868039
3402.0,0.09319597390064466
3401.0,0.09345972682271528
3400.0,0.0937253033146693
3399.0,0.09399086794363283
3398.0,0.09425716658036587
3397.0,0.09452281638024726
3396.0,0.09478088383986846
3395.0,0.09502770217659999
3394.0,0.09526913902923011
3393.0,0.0955109887820272
3392.0,0.09574896372336777
3391.0,0.09597563245699735
3390.0,0.09619146171055207
3389.0,0.09640158044636687
3388.0,0.09660718367482087
3387.0,0.09680715086109935
3386.0,0.09700317065845558
3385.0,0.09719599889343103
3384.0,0.09738093510113095
3383.0,0.0975538770861715
3382.0,0.09771756642914067
3381.0,0.09787602093139054
3380.0,0.09802795853131974
3379.0,0.09817158066644191
3378.0,0.09831032042734171
3377.0,0.09844692142952396
3376.0,0.09857683973133054
3375.0,0.09869479055735124
3374.0,0.09880339634397896
3373.0,0.09890844231157929
3372.0,0.09900976130619045
3371.0,0.09910328501720694
3370.0,0.09918832854063049
3369.0,0.09926657971369389
3368.0,0.09933714185118069
3367.0,0.09939878451243675
3366.0,0.09945442042529191
3365.0,0.09950823579327672
3364.0,0.09956129307615537
3363.0,0.0996134132383221
3362.0,0.09966463062861114
3361.0,0.09971089219942168
3360.0,0.09974414961139896
3359.0,0.0997622739370673
3358.0,0.09977402628415205
3357.0,0.09978877059914774
3356.0,0.0998059865687986
3355.0,0.09981995707146003
3354.0,0.09982878009281285
3353.0,0.09983218857690629
3352.0,0.09982563799278606
3351.0,0.09980425333602604
3350.0,0.09977033082836449
3349.0,0.09973087499191342
3348.0,0.09968964191061402
3347.0,0.09964620854615483
3346.0,0.09960003457403353
3345.0,0.09955028054305506
3344.0,0.09949381269534302
3343.0,0.09942792149295424
3342.0,0.09935361082957285
3341.0,0.09927375470053487
3340.0,0.09919045320722257
3339.0,0.09910585559543174
3338.0,0.09902159191030523
3337.0,0.09893486957950014
3336.0,0.09883927006626546
3335.0,0.09873203644164907
3334.0,0.09861640886553176
3333.0,0.09849494627440139
3332.0,0.09836636790054416
3331.0,0.09823158130027014
3330.0,0.09809615464189476
3329.0,0.09796236496392306
3328.0,0.09782417301457604
3327.0,0.09767509463758456
3326.0,0.09751735165046588
3325.0,0.09735862948794716
3324.0,0.09720290180787815
3323.0,0.0970485221901427
3322.0,0.09689260691606419
3321.0,0.09673371400662749
3320.0,0.09657238736134391
3319.0,0.096411354908116
3318.0,0.09625257344005213
3317.0,0.09609298046282516
3316.0,0.09592717281275642
3315.0,0.09575539518292063
3314.0,0.09558396647893017
3313.0,0.0954160728692578
3312.0,0.09524720321861005
3311.0,0.09507208133789113
3310.0,0.0948912379824091
3309.0,0.09470818727395565
3308.0,0.09452509011736875
3307.0,0.09434382225264182
3306.0,0.0941661241387995
3305.0,0.09398954569684378
3304.0,0.09380835838477836
3303.0,0.09362211572913257
3302.0,0.0934385831674774
3301.0,0.09326421858141407
3300.0,0.09309585235750362
3299.0,0.09292541252039789
3298.0,0.09274890361282523
3297.0,0.0925671100263201
3296.0,0.0923814026377175
3295.0,0.09219343578036716
3294.0,0.09200690406160034
3293.0,0.0918259174690257
3292.0,0.09165229071776163
3291.0,0.0914853971276938
3290.0,0.09132229206303945
3289.0,0.09115730618830936
3288.0,0.09098535379539029
3287.0,0.09080777872864088
3286.0,0.0906320771822976
3285.0,0.09046405451356117
3284.0,0.09030249857905262
3283.0,0.09014210788279994
3282.0,0.08997855433331337
3281.0,0.0898102184739868
3280.0,0.08963885573700313
3279.0,0.08946977764470597
3278.0,0.08930794681633357
3277.0,0.08915294361319824
3276.0,0.08900085287645394
3275.0,0.08885065080812725
3274.0,0.08870403928254056
3273.0,0.0885592133109613
3272.0,0.0884109838801355
3271.0,0.08825856599102257
3270.0,0.08810774151233233
3269.0,0.08796346152303068
3268.0,0.0878253022889541
3267.0,0.08769187642211089
3266.0,0.08756408013331404
3265.0,0.08744095493720311
3264.0,0.08731705588594732
3263.0,0.0871878693441132
3262.0,0.08705524881528406
3261.0,0.08692484933166564
3260.0,0.08680034379743906
3259.0,0.08668176126767416
3258.0,0.08656701776425849
3257.0,0.08645355744973768
3256.0,0.08634045640291464
3255.0,0.08622925524452711
3254.0,0.08612046036478267
3253.0,0.08601013623901278
3252.0,0.08589370738530984
3251.0,0.08577237022115021
3250.0,0.0856512464846005
3249.0,0.08553155242143431
3248.0,0.08540938463094949
3247.0,0.08528201010547574
3246.0,0.08514956300805912
3245.0,0.08500967235121497
3244.0,0.08485650561909318
3243.0,0.08468746585947606
3242.0,0.08450596441257734
3241.0,0.08431553478759773
3240.0,0.08411574329340064
3239.0,0.08390587195289749
3238.0,0.08368828645576704
3237.0,0.08346593418540184
3236.0,0.08324031547066096
3235.0,0.08301374372660521
3234.0,0.08278949299878435
3233.0,0.08256731724797299
3232.0,0.08234222905182104
3231.0,0.08210983118590738
3230.0,0.08186984301809375
3229.0,0.0816229791986734
3228.0,0.08136835629380203
3227.0,0.08110653485483493
3226.0,0.08084196862886563
3225.0,0.08057966135072471
3224.0,0.08032102740515057
3223.0,0.08006413032745005
3222.0,0.07980550400637494
3221.0,0.07954066106109271
3220.0,0.0792658888706371
3219.0,0.07898190599866702
3218.0,0.07869425770395122
3217.0,0.07840874331809414
3216.0,0.07812738998537447
3215.0,0.07784856356295322
3214.0,0.07756870532565563
3213.0,0.07728393829800434
3212.0,0.07699273130646585
3211.0,0.0766978206881116
3210.0,0.07640366493092535
3209.0,0.0761117953983997
3208.0,0.0758202952500701
3207.0,0.07552693310510261
3206.0,0.07522994852980414
3205.0,0.07492658231707973
3204.0,0.0746149050695825
3203.0,0.07429772981851047
3202.0,0.07398127423915242
3201.0,0.07366905161954872
3200.0,0.07335975782304835
3199.0,0.0730511823226967
3198.0,0.07274257207845602
3197.0,0.07243238868935525
3196.0,0.07211766296928451
3195.0,0.07179760498542714
3194.0,0.07147512544882428
3193.0,0.07115284430769742
3192.0,0.07082946575729879
3191.0,0.07050172977433203
3190.0,0.07016874967688123
3189.0,0.06983313339439919
3188.0,0.06949833387940801
3187.0,0.06916535003600278
3186.0,0.0688316056559797
3185.0,0.06849356456895787
3184.0,0.06815132083472401
3183.0,0.06780942266020616
3182.0,0.06747143001197685
3181.0,0.06713509748494896
3180.0,0.0667955316582709
3179.0,0.06645194599072513
3178.0,0.06610810262586576
3177.0,0.06576660607398789
3176.0,0.0654262765426025
3175.0,0.06508556051340748
3174.0,0.06474521420752344
3173.0,0.06440637572984377
3172.0,0.06406834598295735
3171.0,0.06372942077167965
3170.0,0.06338825028836766
3169.0,0.06304400025356295
3168.0,0.06269723192946183
3167.0,0.06235122148837696
3166.0,0.06201047235716842
3165.0,0.06167695396790088
3164.0,0.06134848275026841
3163.0,0.06102051637715473
3162.0,0.06068869327814788
3161.0,0.060350926588868634
3160.0,0.06000952960463433
3159.0,0.059670943320830463
3158.0,0.05934061843949542
3157.0,0.05901751460655153
3156.0,0.05869524222196544
3155.0,0.058368478534396785
3154.0,0.058036644812288936
3153.0,0.057702483141659947
3152.0,0.057370044912174775
3151.0,0.057043815501001634
3150.0,0.05672640833802299
3149.0,0.05641573451489894
3148.0,0.056106365221934615
3147.0,0.055794513454854755
3146.0,0.05548020334205882
3145.0,0.05516493278909826
3144.0,0.054849786850261394
3143.0,0.054536097262184634
3142.0,0.05422543377080975
3141.0,0.053918048854803786
3140.0,0.053612947186724054
3139.0,0.0533098853065366
3138.0,0.053009548911594276
3137.0,0.05271171717426522
3136.0,0.05241573481544368
3135.0,0.052123010703024567
3134.0,0.051836184958615784
3133.0,0.05155474051419901
3132.0,0.05127382017454613
3131.0,0.05098906522336832
3130.0,0.050700934233826114
3129.0,0.050412846959190065
3128.0,0.050126702327496477
3127.0,0.049841518689056036
3126.0,0.04955500975104819
3125.0,0.04926526347914804
3124.0,0.048972033619517824
3123.0,0.04867761839702333
3122.0,0.04838585316491646
3121.0,0.04809958111099589
3120.0,0.0478196269770825
3119.0,0.04754583457521448
3118.0,0.04727754837570046
3117.0,0.04701316192551839
3116.0,0.04675109108782841
3115.0,0.04649192838120537
3114.0,0.046238367729450384
3113.0,0.04599248384482384
3112.0,0.04575424636157651
3111.0,0.04552217974342717
3110.0,0.04529335663163108
3109.0,0.04506314865161605
3108.0,0.04482795496074545
3107.0,0.04458907937385405
3106.0,0.04435113872918433
3105.0,0.044115461321264836
3104.0,0.04387752448712462
3103.0,0.0436317239121452
3102.0,0.043376134977328513
3101.0,0.043111873143008815
3100.0,0.04284108166861257
3099.0,0.04256780564626708
3098.0,0.042297662471367195
3097.0,0.04203359993765688
3096.0,0.04177394735410764
3095.0,0.041516943857905976
3094.0,0.041265464969614946
3093.0,0.041024185168671595
3092.0,0.04079368138072902
3091.0,0.040570786521690855
3090.0,0.04035347386822101
3089.0,0.04014205958222728
3088.0,0.03993597772826462
3087.0,0.039732749361864834
3086.0,0.0395308972622663
3085.0,0.03933090796500232
3084.0,0.03913241311684454
3083.0,0.038932512976510014
3082.0,0.03872788819631561
3081.0,0.038517412215262864
3080.0,0.03830203360953419
3079.0,0.038083401710035186
3078.0,0.03786310532041978
3077.0,0.03764220922847599
3076.0,0.0374211762324695
3075.0,0.03720100558905751
3074.0,0.03698422946870379
3073.0,0.036773386416825364
3072.0,0.03656833575661716
3071.0,0.0363658364740283
3070.0,0.036161796977674986
3069.0,0.03595334217010961
3068.0,0.035739327836981534
3067.0,0.035520504659245285
3066.0,0.03529926604673062
3065.0,0.03507814269165734
3064.0,0.03485844950292102
3063.0,0.0346411455609105
3062.0,0.03442829899223686
3061.0,0.03422228411482505
3060.0,0.03402368338010519
3059.0,0.033831061871188076
3058.0,0.03364262798180116
3057.0,0.03345661311734286
3056.0,0.0332701323486454
3055.0,0.033079133474445806
3054.0,0.03287985780087784
3053.0,0.03266951443555256
3052.0,0.03244598896970272
3051.0,0.03220863687612982
3050.0,0.03195959793342198
3049.0,0.03170318924640071
3048.0,0.031443579296294606
3047.0,0.03118383899400251
3046.0,0.03092699085141952
3045.0,0.03067661405347366
3044.0,0.030435864239374152
3043.0,0.030206526650999037
3042.0,0.029988989105513043
3041.0,0.029782082528503732
3040.0,0.029583018810955857
3039.0,0.02938871619031386
3038.0,0.029197434774489703
3037.0,0.029008671114874464
3036.0,0.028822240669273108
3035.0,0.028638763365310082
3034.0,0.02846033264836201
3033.0,0.028288351007010985
3032.0,0.028120588396450194
3031.0,0.027952307716647
3030.0,0.027781218793759575
3029.0,0.027609837430517967
3028.0,0.027442501471788533
3027.0,0.027281704883786867
3026.0,0.02712738542126624
3025.0,0.02697805945397797
3024.0,0.02683166699217379
3023.0,0.026686608060490627
3022.0,0.026543049761134644
3021.0,0.02640267983545686
3020.0,0.026266818179873412
3019.0,0.026135325871762042
3018.0,0.026007021123936113
3017.0,0.025880309973678538
3016.0,0.025753998056038955
3015.0,0.025628773581737416
3014.0,0.025507487598667028
3013.0,0.02539225323923725
3012.0,0.025281801760703788
3011.0,0.025173672911742925
3010.0,0.025068171718503764
3009.0,0.024967433822609273
3008.0,0.024870454443504973
3007.0,0.02477242793177048
3006.0,0.024669918025126785
3005.0,0.02456415529982217
3004.0,0.024457902264466848
3003.0,0.024351832321424235
3002.0,0.024246026975861115
3001.0,0.024142751403171875
3000.0,0.024044675029051166
2999.0,0.02395131971297243
2998.0,0.02385982745160032
2997.0,0.023769342126063707
2996.0,0.023682555724808558
2995.0,0.02360244201979399
2994.0,0.023528771946246124
2993.0,0.02345835742190987
2992.0,0.023388478973940564
2991.0,0.023319797561417947
2990.0,0.02325627025202894
2989.0,0.02320175893392732
2988.0,0.023156379541256027
2987.0,0.023116322568282617
2986.0,0.023077334407612293
2985.0,0.023038138908220318
2984.0,0.023000361835520167
2983.0,0.022966186848815805
2982.0,0.022936502382270102
2981.0,0.022911112942369354
2980.0,0.022890409286491078
2979.0,0.02287664666841612
2978.0,0.022872920687971345
2977.0,0.022880326083650534
2976.0,0.022896778439751
2975.0,0.0229192367422361
2974.0,0.02294623573662578
2973.0,0.02297689171166443
2972.0,0.023008529060593558
2971.0,0.023037578215929166
2970.0,0.023062930020407508
2969.0,0.023086304721711828
2968.0,0.023108715092025257
2967.0,0.02312840816943434
2966.0,0.02314314911147253
2965.0,0.023152448561005737
2964.0,0.023155793625157812
2963.0,0.02314955846667175
2962.0,0.023127226315874785
2961.0,0.023083346315112305
2960.0,0.023017055143303013
2959.0,0.022932137944406683
2958.0,0.02283347913072853
2957.0,0.022722613224800604
2956.0,0.02259645603808126
2955.0,0.02245080304196354
2954.0,0.022285249491748208
2953.0,0.022103711197977136
2952.0,0.021910516591094484
2951.0,0.021707219880279557
2950.0,0.021493506804960913
2949.0,0.021269863659006575
2948.0,0.021038879525928145
2947.0,0.020804810513255594
2946.0,0.020572167351069908
2945.0,0.020343783011158294
2944.0,0.020120117565719745
2943.0,0.01990126609287586
2942.0,0.01968942851834828
2941.0,0.01948775671604963
2940.0,0.01929666687748481
2939.0,0.01911323610326263
2938.0,0.018934936399887768
2937.0,0.01876231453673984
2936.0,0.018597548023709522
2935.0,0.018441880915509752
2934.0,0.01829526481960482
2933.0,0.018156781364240954
2932.0,0.018024150836460844
2931.0,0.017893975586312293
2930.0,0.017763862223687102
2929.0,0.017634131258830572
2928.0,0.017507163554429425
2927.0,0.01738530092264441
2926.0,0.017268811948576924
2925.0,0.01715519621682265
2924.0,0.017041140557289607
2923.0,0.01692642451808981
2922.0,0.016814623384277638
2921.0,0.016708453141032757
2920.0,0.01660579946887252
2919.0,0.016502686890489542
2918.0,0.016399195164877818
2917.0,0.016299380405639916
2916.0,0.016206089776936043
2915.0,0.01611834145805416
2914.0,0.016033646554738164
2913.0,0.01595053126690473
2912.0,0.0158692436187137
2911.0,0.01579225266438693
2910.0,0.01572310645074446
2909.0,0.01566188979884476
2908.0,0.015602680174132876
2907.0,0.015538607365616353
2906.0,0.015469576664846562
2905.0,0.015401433871520692
2904.0,0.015337197270192594
2903.0,0.015273126047058168
2902.0,0.015204533835820839
2901.0,0.015132176736247113
2900.0,0.015060574098441297
2899.0,0.014992882866683169
2898.0,0.014929905047121255
2897.0,0.014872132097309435
2896.0,0.014819891711337456
2895.0,0.014771822315033073
2894.0,0.0147250972416696
2893.0,0.014677158421151446
2892.0,0.014626281248129747
2891.0,0.014571200200957243
2890.0,0.014511024654879516
2889.0,0.014445318734704785
2888.0,0.014374071499569388
2887.0,0.014298140046447746
2886.0,0.014219465811364773
2885.0,0.014139339316022702
2884.0,0.014056622530929524
2883.0,0.013969340534811834
2882.0,0.013878578048057342
2881.0,0.013788975385660483
2880.0,0.013704153504999062
2879.0,0.013623229504688708
2878.0,0.013542552118450825
2877.0,0.013459983183446706
2876.0,0.013376326477564883
2875.0,0.013293276917137678
2874.0,0.013211128774074345
2873.0,0.013128371899856453
2872.0,0.013043532282239777
2871.0,0.012957465734066963
2870.0,0.012873398705359052
2869.0,0.01279386260071866
2868.0,0.012717818621022827
2867.0,0.012641855272789939
2866.0,0.012563558500604158
2865.0,0.012482723007537668
2864.0,0.012400109710302235
2863.0,0.012317156732386886
2862.0,0.012236854700191722
2861.0,0.012162676830823166
2860.0,0.012095710011165259
2859.0,0.012033728349578849
2858.0,0.011972977867115785
2857.0,0.011909928707903278
2856.0,0.01184247784041741
2855.0,0.011771424418708357
2854.0,0.011700215124375917
2853.0,0.011630863913953538
2852.0,0.011560694158599357
2851.0,0.011485147325994108
2850.0,0.011403099099550448
2849.0,0.011317175603211688
2848.0,0.011229223551420881
2847.0,0.011138753467894773
2846.0,0.011046036542467217
2845.0,0.010953693706978384
2844.0,0.010864367005139444
2843.0,0.010778778501724606
2842.0,0.010696382198894286
2841.0,0.010616172045113883
2840.0,0.010536567421022896
2839.0,0.010456508691193559
2838.0,0.01037741549165675
2837.0,0.01030264783775061
2836.0,0.010234517538588646
2835.0,0.010172417077830452
2834.0,0.010113639905591418
2833.0,0.010054862791236591
2832.0,0.00999352784636541
2831.0,0.009929767343633057
2830.0,0.00986689553448309
2829.0,0.009808569169588551
2828.0,0.00975535436387522
2827.0,0.009705225735951855
2826.0,0.009656566028794613
2825.0,0.009608652386599918
2824.0,0.009560266834208735
2823.0,0.009510312229234652
2822.0,0.00945962849541279
2821.0,0.009409957534797885
2820.0,0.009361213120456145
2819.0,0.009311997348016887
2818.0,0.009262617882608239
2817.0,0.009215209492462708
2816.0,0.009170761485271515
2815.0,0.009128169242144572
2814.0,0.009086327053655897
2813.0,0.00904516325998918
2812.0,0.00900457930490938
2811.0,0.008964498631603972
2810.0,0.008925959765971119
2809.0,0.008889742367474076
2808.0,0.00885369347856718
2807.0,0.00881396758028361
2806.0,0.008769602467181298
2805.0,0.008723861897723055
2804.0,0.00868024704696576
2803.0,0.008638646458999059
2802.0,0.00859635173765893
2801.0,0.008551760478076717
2800.0,0.008506196389636006
2799.0,0.008462785495683373
2798.0,0.008423785580765421
2797.0,0.008388409611800495
2796.0,0.008353673845608024
2795.0,0.008317635860087842
2794.0,0.008280510281616577
2793.0,0.008242227626509129
2792.0,0.008201185373669687
2791.0,0.008157187008224624
2790.0,0.008113489768510621
2789.0,0.008073293649508645
2788.0,0.008035913769136739
2787.0,0.007999044124772594
2786.0,0.007963118723202415
2785.0,0.007930254331396784
2784.0,0.007899849460539808
2783.0,0.007868536448638882
2782.0,0.007834054345764781
2781.0,0.007796634028516476
2780.0,0.0077575891914570105
2779.0,0.007719429716153078
2778.0,0.007686208013436014
2777.0,0.007659690234578933
2776.0,0.007635478592414062
2775.0,0.007606657946223932
2774.0,0.007571512376425074
2773.0,0.0075347560413706605
2772.0,0.0075013774107822
2771.0,0.007472551211167104
2770.0,0.007447166092479043
2769.0,0.0074235561242913875
2768.0,0.00739919030523069
2767.0,0.007372035503399866
2766.0,0.007343282742592076
2765.0,0.007316135533024815
2764.0,0.007291350643853551
2763.0,0.007266631025096133
2762.0,0.007240580665324042
2761.0,0.007214261511980121
2760.0,0.007188602593695146
2759.0,0.007163090370644587
2758.0,0.0071372727513748895
2757.0,0.007110822783367835
2756.0,0.0070820982218149624
2755.0,0.007049923390197901
2754.0,0.007017136671452274
2753.0,0.006988931528878296
2752.0,0.006966803602347464
2751.0,0.006946862562204559
2750.0,0.006924823280481343
2749.0,0.006899968722989017
2748.0,0.006873552739472655
2747.0,0.006846335159050263
2746.0,0.00681872190675753
2745.0,0.006790931016322094
2744.0,0.0067621148989083
2743.0,0.006731421777897354
2742.0,0.00670034637551279
2741.0,0.0066716380577394475
2740.0,0.006645627917246484
2739.0,0.006620195454248386
2738.0,0.0065946153037875314
2737.0,0.006570595384318762
2736.0,0.0065488306548439155
2735.0,0.006527347193643811
2734.0,0.006504384876653525
2733.0,0.00648047044036214
2732.0,0.006456658242372738
2731.0,0.006432789768725949
2730.0,0.006408263202392944
2729.0,0.006382840945007237
2728.0,0.006356328972573186
2727.0,0.0063292693839501046
2726.0,0.006303960234564151
2725.0,0.00628264094327646
2724.0,0.00626454168288909
2723.0,0.006246617146434661
2722.0,0.006226948611829887
2721.0,0.006205288620144409
2720.0,0.006181083402424611
2719.0,0.006154169860606664
2718.0,0.0061272308950162694
2717.0,0.006104299474644429
2716.0,0.006086286404054747
2715.0,0.0060703791637028125
2714.0,0.006053801122358526
2713.0,0.006035466986514699
2712.0,0.00601438353112368
2711.0,0.005990167309876702
2710.0,0.00596571220497015
2709.0,0.005945654895003091
2708.0,0.005930689306197363
2707.0,0.00591600779714345
2706.0,0.005896634701184353
2705.0,0.005872383935403489
2704.0,0.005846884441515673
2703.0,0.005823957686407636
2702.0,0.005805593853747711
2701.0,0.0057911455270212514
2700.0,0.005777632399576446
2699.0,0.0057624154184744225
2698.0,0.005745928227987284
2697.0,0.005730409875958855
2696.0,0.005716502194505512
2695.0,0.005703128403790386
2694.0,0.005689957549272139
2693.0,0.005677197620282607
2692.0,0.005663497582706948
2691.0,0.005647157397296148
2690.0,0.005629423071213887
2689.0,0.005613690741741025
2688.0,0.005601188107394307
2687.0,0.005589991314714926
2686.0,0.005578100601431158
2685.0,0.005564663889492304
2684.0,0.005548469945121725
2683.0,0.005528537797951884
2682.0,0.005506621391142878
2681.0,0.005486285170971144
2680.0,0.005469095437065805
2679.0,0.005454180042786035
2678.0,0.005441140093270304
2677.0,0.005430229299320573
2676.0,0.005419812573263841
2675.0,0.005407123188188185
2674.0,0.005392064045388804
2673.0,0.005377271244710915
2672.0,0.0053640683888621955
2671.0,0.00535122685390279
2670.0,0.005337935439959477
2669.0,0.005325161092698543
2668.0,0.005314093171886539
2667.0,0.005306312171002671
2666.0,0.005305243886248494
2665.0,0.005313599701470358
2664.0,0.0053288494880949005
2663.0,0.005344620568785823
2662.0,0.005357040123864025
2661.0,0.005366799739239258
2660.0,0.0053751585854548665
2659.0,0.0053821371115284865
2658.0,0.00538927199716646
2657.0,0.005399446864857226
2656.0,0.005411932639972049
2655.0,0.005421221314425893
2654.0,0.005423212736013331
2653.0,0.005420282800093067
2652.0,0.005418454226493165
2651.0,0.005421575175722796
2650.0,0.005429278636795662
2649.0,0.005438079391798822
2648.0,0.005443537484866488
2647.0,0.005443735690361742
2646.0,0.005441572901315254
2645.0,0.005441531645321914
2644.0,0.005443898403560715
2643.0,0.005445003632806813
2642.0,0.005443331861362466
2641.0,0.005441916226123127
2640.0,0.005444011943696281
2639.0,0.005449665006324935
2638.0,0.005457390659656492
2637.0,0.005465932729866077
2636.0,0.005473418511436039
2635.0,0.005478130528345085
2634.0,0.005481119145392309
2633.0,0.005484974230962241
2632.0,0.005489477414084148
2631.0,0.005491835832243276
2630.0,0.005491739946866358
2629.0,0.005492149443655333
2628.0,0.005493831813103883
2627.0,0.005493209683666919
2626.0,0.005487360459021163
2625.0,0.005477924063518359
2624.0,0.0054684399816234755
2623.0,0.0054606985534584596
2622.0,0.0054550500189791
2621.0,0.005451317832481198
2620.0,0.005448251111093889
2619.0,0.005444739126486451
2618.0,0.0054420250391457705
2617.0,0.005441767372697939
2616.0,0.005441824906509839
2615.0,0.005437709444067828
2614.0,0.005428751458091716
2613.0,0.005419160544460837
2612.0,0.00541250081321659
2611.0,0.005408829677016167
2610.0,0.005407523975801978
2609.0,0.005408415305065577
2608.0,0.005409317183266851
2607.0,0.0054067460194199635
2606.0,0.005400307658093375
2605.0,0.00539297142785372
2604.0,0.005386565729924284
2603.0,0.005380782415169314
2602.0,0.005376520523518223
2601.0,0.005375295478032975
2600.0,0.005374737831631118
2599.0,0.005369753639888821
2598.0,0.005359336309437995
2597.0,0.0053479736844928
2596.0,0.005339557577756138
2595.0,0.005334150260047758
2594.0,0.005331197556205301
2593.0,0.005330809687287674
2592.0,0.005331154410607979
2591.0,0.005329961451518563
2590.0,0.005329638846474016
2589.0,0.005335464268472878
2588.0,0.005347081329197009
2587.0,0.005356906813572023
2586.0,0.0053588601823598685
2585.0,0.005354248473456255
2584.0,0.005347757022983213
2583.0,0.005342526438756984
2582.0,0.005340569655573177
2581.0,0.0053428881818975245
2580.0,0.005346954808569777
2579.0,0.005348116739678311
2578.0,0.005345307139844759
2577.0,0.005341939887377527
2576.0,0.005340261256356694
2575.0,0.005338668503338044
2574.0,0.005335246610148141
2573.0,0.005329886721530075
2572.0,0.005322609620769089
2571.0,0.005314144126779293
2570.0,0.0053080519499590665
2569.0,0.0053073130556993
2568.0,0.005308600882448918
2567.0,0.005305095998757528
2566.0,0.005295649517333243
2565.0,0.005286285937769284
2564.0,0.005282320898473417
2563.0,0.005283987273867936
2562.0,0.0052894798128306185
2561.0,0.005296394168736853
2560.0,0.005300167525108887
2559.0,0.005297362082051578
2558.0,0.005291153240980722
2557.0,0.005287818437535216
2556.0,0.005287471646269732
2555.0,0.005284395099692464
2554.0,0.005276997763353309
2553.0,0.005270614233628783
2552.0,0.00526926460991993
2551.0,0.005271235690181157
2550.0,0.005273901234140765
2549.0,0.005276387726032795
2548.0,0.005276372171480789
2547.0,0.005270999031724212
2546.0,0.005262635453076495
2545.0,0.005257365288948228
2544.0,0.005256320814517627
2543.0,0.005254888929060066
2542.0,0.0052516400044245945
2541.0,0.00525077312270722
2540.0,0.0052536692086158415
2539.0,0.0052556410196298005
2538.0,0.005254068388916491
2537.0,0.005252709606265622
2536.0,0.0052546149091772
2535.0,0.005257180660557639
2534.0,0.005258012900238379
2533.0,0.005259913931603295
2532.0,0.005265788310546742
2531.0,0.005273229202989763
2530.0,0.005277927131269763
2529.0,0.005278655873242149
2528.0,0.005276204824249371
2527.0,0.005271364994664558
2526.0,0.0052665869602820875
2525.0,0.005265812960908266
2524.0,0.005269951008328834
2523.0,0.005275425268492354
2522.0,0.005278697861960756
2521.0,0.005279224917676632
2520.0,0.0052775240527243115
2519.0,0.005274147541729905
2518.0,0.0052710252620161175
2517.0,0.005269813149899607
2516.0,0.005268526914321714
2515.0,0.005263721346729484
2514.0,0.005255678149486504
2513.0,0.005247105567370559
2512.0,0.005237783076714522
2511.0,0.005225922658618254
2510.0,0.0052139106194916875
2509.0,0.005206398498962785
2508.0,0.0052028141488146655
2507.0,0.005198148908947813
2506.0,0.005191336177235276
2505.0,0.005186296459166489
2504.0,0.005184311560872449
2503.0,0.005182116253279016
2502.0,0.005178111900908106
2501.0,0.005173561161935316
2500.0,0.005166972724241353
2499.0,0.005154753808795286
2498.0,0.005139040257416083
2497.0,0.005127837587384098
2496.0,0.0051250676128994106
2495.0,0.005126296650812286
2494.0,0.005125712947740198
2493.0,0.005121160593755839
2492.0,0.005111297889698943
2491.0,0.005095066705171959
2490.0,0.00507620003513259
2489.0,0.005061580841411541
2488.0,0.005052651277445868
2487.0,0.0050443496392423
2486.0,0.005034189150453289
2485.0,0.005025846064787059
2484.0,0.0050219032790997315
2483.0,0.0050198033027142805
2482.0,0.005017277265273087
2481.0,0.0050152216847396
2480.0,0.005012799497076018
2479.0,0.0050063609069381084
2478.0,0.004996141286275662
2477.0,0.004987667976233811
2476.0,0.004983277351874221
2475.0,0.004978297009497692
2474.0,0.004969102529528011
2473.0,0.004959109729136514
2472.0,0.004952876038315451
2471.0,0.004949421219737284
2470.0,0.004945447893801815
2469.0,0.004940964301386134
2468.0,0.004938039675052192
2467.0,0.004937371967671716
2466.0,0.004938861533743365
2465.0,0.004942459742647
2464.0,0.004946655325499884
2463.0,0.004949656145240619
2462.0,0.0049534523675852805
2461.0,0.004962751757641926
2460.0,0.004978505555741808
2459.0,0.004996431553598436
2458.0,0.005012846621874022
2457.0,0.005027404360694721
2456.0,0.005039021260746584
2455.0,0.005044244206840569
2454.0,0.005042011525205884
2453.0,0.005036314790719255
2452.0,0.005032339368953805
2451.0,0.005032868358925586
2450.0,0.005038635417406229
2449.0,0.005047948185511563
2448.0,0.005055490172116563
2447.0,0.005056171445960677
2446.0,0.005051298497701915
2445.0,0.00504728475469182
2444.0,0.005048162866636268
2443.0,0.0050531039539843635
2442.0,0.00506018198153413
2441.0,0.005067260568525455
2440.0,0.005069882782989476
2439.0,0.005064588757448405
2438.0,0.005054989307682467
2437.0,0.0050491318514288485
2436.0,0.0050502707510884795
2435.0,0.005055097139807921
2434.0,0.005060562035513949
2433.0,0.005066439054365814
2432.0,0.005071323789334906
2431.0,0.005072862816331233
2430.0,0.005072995779175883
2429.0,0.005076950243182033
2428.0,0.005085851723155717
2427.0,0.005095601572760978
2426.0,0.005103495776025327
2425.0,0.0051104448597115455
2424.0,0.005116624830156392
2423.0,0.005121149560352585
2422.0,0.005126463868203706
2421.0,0.0051365593798596695
2420.0,0.005149898634300029
2419.0,0.005160311882832533
2418.0,0.005165747135784716
2417.0,0.005169989026335763
2416.0,0.005174958088279995
2415.0,0.005177806457710254
2414.0,0.005177339228906895
2413.0,0.005177462713949544
2412.0,0.0051820010335978635
2411.0,0.00519042780902912
2410.0,0.005199820966736917
2409.0,0.005206830348874646
2408.0,0.005207668180930879
2407.0,0.005201265728637204
2406.0,0.005192669484147904
2405.0,0.005188362982479842
2404.0,0.00518868014490659
2403.0,0.005189911186157612
2402.0,0.005192335817387414
2401.0,0.005199574373773073
2400.0,0.005210783187412585
2399.0,0.00522072703808309
2398.0,0.005227789407701193
2397.0,0.005234833294097488
2396.0,0.005241651538510689
2395.0,0.005244114064997636
2394.0,0.005242123446015265
2393.0,0.005240954798597802
2392.0,0.005242795069647009
2391.0,0.005243611143285209
2390.0,0.005240334629446
2389.0,0.005234926941150888
2388.0,0.0052290131910117865
2387.0,0.00522038584659941
2386.0,0.005207480780004339
2385.0,0.00519198571118571
2384.0,0.005174371407247906
2383.0,0.0051516196473213515
2382.0,0.005122025147676358
2381.0,0.005088356583286094
2380.0,0.005054205001317816
2379.0,0.005021126169411836
2378.0,0.004991570435106395
2377.0,0.004969766783842712
2376.0,0.004956821078807442
2375.0,0.004950079574420889
2374.0,0.0049491488227723516
2373.0,0.004956033094522686
2372.0,0.004966350139263488
2371.0,0.004968667644233003
2370.0,0.004957488717182463
2369.0,0.004938818649001137
2368.0,0.004919301319191375
2367.0,0.004900501352372153
2366.0,0.004888089519196705
2365.0,0.0048934485800593615
2364.0,0.004917261080321735
2363.0,0.004946966675704921
2362.0,0.004977066970664652
2361.0,0.005011161693885157
2360.0,0.005042536718351551
2359.0,0.005051545643695947
2358.0,0.00503089608206452
2357.0,0.004998571466255821
2356.0,0.004972115507759192
2355.0,0.004952117216755403
2354.0,0.004935929975902446
2353.0,0.004929747754529371
2352.0,0.004937913486883054
2351.0,0.004950261950357533
2350.0,0.004954474229361172
2349.0,0.004945883100592539
2348.0,0.004928585179773787
2347.0,0.004916639140545204
2346.0,0.004925980221980507
2345.0,0.004962212023497173
2344.0,0.0050093408079470965
2343.0,0.005046742295731079
2342.0,0.005069553580680072
2341.0,0.005085227499247621
2340.0,0.005100361349283956
2339.0,0.005113336085083024
2338.0,0.005123735654135265
2337.0,0.005134508643807213
2336.0,0.005145518467776343
2335.0,0.005150501572671158
2334.0,0.005146078373656938
2333.0,0.005135468284571063
2332.0,0.005125455646027186
2331.0,0.005120086799421821
2330.0,0.005128643089735508
2329.0,0.005166601411808279
2328.0,0.005247820982802207
2327.0,0.005375650499857303
2326.0,0.005531469766948354
2325.0,0.005676110372533016
2324.0,0.005761403049796961
2323.0,0.005766185443225992
2322.0,0.005717138724404057
2321.0,0.00566250278797501
2320.0,0.005627607705187529
2319.0,0.0056044971958229715
2318.0,0.005581225544442887
2317.0,0.00555686381297251
2316.0,0.00553517728676045
2315.0,0.005516748007536821
2314.0,0.0055048325291065835
2313.0,0.00550429791281139
2312.0,0.005513700682811149
2311.0,0.0055259338557177825
2310.0,0.005539117843428882
2309.0,0.005557905224194647
2308.0,0.005582624953754024
2307.0,0.00560766330682944
2306.0,0.005630452473622291
2305.0,0.005654445635740128
2304.0,0.005680519336133064
2303.0,0.005704366098415743
2302.0,0.0057235971630731405
2301.0,0.005740388079570309
2300.0,0.005756389165825629
2299.0,0.0057723748051902
2298.0,0.005793160825459154
2297.0,0.005824761242613124
2296.0,0.005865798299760121
2295.0,0.005910031451627483
2294.0,0.005956329995009643
2293.0,0.006008060296613935
2292.0,0.006061971226178128
2291.0,0.006109721535097039
2290.0,0.006150907151060321
2289.0,0.006194696376344685
2288.0,0.006244399556302173
2287.0,0.006290214985052667
2286.0,0.006320444404582848
2285.0,0.006331389506483091
2284.0,0.006324154405234148
2283.0,0.0063018275517857155
2282.0,0.006273443530619072
2281.0,0.006250348777824222
2280.0,0.006233794926489937
2279.0,0.006215137983510968
2278.0,0.00619138843850703
2277.0,0.006170113445115649
2276.0,0.006155803417882762
2275.0,0.0061429264000325
2274.0,0.006127326451024757
2273.0,0.006113306901966455
2272.0,0.006104650960441552
2271.0,0.006098922101503526
2270.0,0.006094397652514146
2269.0,0.0060915383366158754
2268.0,0.0060849240229743215
2267.0,0.006066505231167332
2266.0,0.006040220986664787
2265.0,0.006020200067585412
2264.0,0.006010893995544251
2263.0,0.006004047660639668
2262.0,0.005998925384547789
2261.0,0.006008715094548252
2260.0,0.006038663618806619
2259.0,0.006072471678583012
2258.0,0.006089254358367653
2257.0,0.006082186801112226
2256.0,0.0060552161752502765
2255.0,0.006015285032290388
2254.0,0.0059760126232191076
2253.0,0.0059548670990119115
2252.0,0.005956090844874931
2251.0,0.005965917417671797
2250.0,0.005971488831115271
2249.0,0.005973894235073333
2248.0,0.00597782416166828
2247.0,0.00598105535180931
2246.0,0.005980901569958227
2245.0,0.005979754893135458
2244.0,0.005977563711268303
2243.0,0.0059701905788052114
2242.0,0.005960578770689433
2241.0,0.005959232114267155
2240.0,0.005967654360748259
2239.0,0.005973677363895711
2238.0,0.005969017270547774
2237.0,0.005959891512288506
2236.0,0.005954929180446641
2235.0,0.005954525025232275
2234.0,0.005956809403015139
2233.0,0.005961452075510594
2232.0,0.005963036226197119
2231.0,0.005953788174639008
2230.0,0.005937573471254445
2229.0,0.005927929658651355
2228.0,0.005928636307126617
2227.0,0.00592985520126919
2226.0,0.005926235360759375
2225.0,0.005922932782718227
2224.0,0.005920415826931007
2223.0,0.005910727186000837
2222.0,0.005893666296602995
2221.0,0.005880048306704739
2220.0,0.0058735359124269665
2219.0,0.005865923212381327
2218.0,0.005855164467100979
2217.0,0.005850265361831922
2216.0,0.005853210676384764
2215.0,0.005854255264343051
2214.0,0.005850914957027768
2213.0,0.005852971048675178
2212.0,0.0058619531715575005
2211.0,0.0058644969965498586
2210.0,0.005853820251314238
2209.0,0.005840590217262292
2208.0,0.005834701359824433
2207.0,0.005832216388147947
2206.0,0.00582722840296085
2205.0,0.005820838844066002
2204.0,0.00581292236958194
2203.0,0.005800767294652588
2202.0,0.005790138288674739
2201.0,0.005791076995326041
2200.0,0.005799742530079874
2199.0,0.00580263078277058
2198.0,0.005800359078012241
2197.0,0.005806606566105452
2196.0,0.005820979350873399
2195.0,0.005826019058617591
2194.0,0.005816584897026676
2193.0,0.005809561267864317
2192.0,0.005817334507830644
2191.0,0.005832624683444435
2190.0,0.005846578321635954
2189.0,0.005861041627469986
2188.0,0.005875858190913232
2187.0,0.005883539897664651
2186.0,0.005881532368432322
2185.0,0.005870055877677282
2184.0,0.005836346108777275
2183.0,0.0057673630310011974
2182.0,0.00568452757502788
2181.0,0.0056373779231755124
2180.0,0.005649651526536147
2179.0,0.005693214801581168
2178.0,0.0057220410827618735
2177.0,0.005711498082813153
2176.0,0.005665043822521904
2175.0,0.005608450933748593
2174.0,0.005581702512881112
2173.0,0.005612292420261983
2172.0,0.005689740393395265
2171.0,0.005783880284447347
2170.0,0.005882325086379748
2169.0,0.005985946888381193
2168.0,0.006076894965531595
2167.0,0.006125820276572124
2166.0,0.006137566445780584
2165.0,0.006159486900613719
2164.0,0.00622788695389751
2163.0,0.006320825895189949
2162.0,0.006360322339769872
2161.0,0.006244664109383397
2160.0,0.005909658544807014
2159.0,0.005416393051599008
2158.0,0.004959482171390617
2157.0,0.004711553987441993
2156.0,0.0046735071124735785
2155.0,0.004730166233163888
2154.0,0.004801764752067157
2153.0,0.0048805003789810265
2152.0,0.004964700068741784
2151.0,0.005030714321356049
2150.0,0.005068694736175522
2149.0,0.005093105503535274
2148.0,0.005107133981526932
2147.0,0.005096324430571036
2146.0,0.005064336045237381
2145.0,0.005038274020431601
2144.0,0.0050304727271436745
2143.0,0.005027573383574025
2142.0,0.005021951901228559
2141.0,0.005021687497353295
2140.0,0.005026233871098204
2139.0,0.005022153376615192
2138.0,0.005004163324045576
2137.0,0.004972583400635084
2136.0,0.004913781453079063
2135.0,0.004818244526001863
2134.0,0.004717538500747305
2133.0,0.004665696191954074
2132.0,0.004679037385880711
2131.0,0.004726121932491999
2130.0,0.004777164327047763
2129.0,0.004828929474640962
2128.0,0.004880737826015658
2127.0,0.0049209806144481505
2126.0,0.00494778383558056
2125.0,0.004976809231026939
2124.0,0.005016527610096323
2123.0,0.00505606268084046
2122.0,0.0050853752501596565
2121.0,0.005108066705333737
2120.0,0.00512806166566464
2119.0,0.0051444465377758685
2118.0,0.005166153420729931
2117.0,0.00521012071326476
2116.0,0.005274983168257946
2115.0,0.005334979314217103
2114.0,0.005368648018868007
2113.0,0.005377187652781326
2112.0,0.005369395746972678
2111.0,0.005348340533123622
2110.0,0.00532161920982241
2109.0,0.0053044795847725324
2108.0,0.005301207567601675
2107.0,0.00530008145379527
2106.0,0.005295129168620875
2105.0,0.005295365068396244
2104.0,0.005304461153034923
2103.0,0.005310807112934781
2102.0,0.005307493648450252
2101.0,0.005303797413220297
2100.0,0.005305914759888758
2099.0,0.005302297279455476
2098.0,0.005278329379842236
2097.0,0.005232905522808496
2096.0,0.005174522951183607
2095.0,0.005115352604094093
2094.0,0.005073485904806326
2093.0,0.005063236870140127
2092.0,0.005078007161786403
2091.0,0.005097562244580238
2090.0,0.005113368592747328
2089.0,0.005130747590727666
2088.0,0.00514813507508182
2087.0,0.005156689931106639
2086.0,0.005161655624221221
2085.0,0.005180110013597938
2084.0,0.005212105893876749
2083.0,0.005236629501082864
2082.0,0.00524210653190251
2081.0,0.005238660992043912
2080.0,0.005234125946109688
2079.0,0.005221578273071201
2078.0,0.0051994077332082065
2077.0,0.005180189563896509
2076.0,0.005169385296708175
2075.0,0.005155912213441215
2074.0,0.00513316291444574
2073.0,0.00510864034641878
2072.0,0.005086331638838772
2071.0,0.005062346461571785
2070.0,0.0050432200157348
2069.0,0.0050436540252887605
2068.0,0.005059186814921435
2067.0,0.005066826811821384
2066.0,0.00505820809946306
2065.0,0.005045842712125714
2064.0,0.0050322714622201125
2063.0,0.005003872929368419
2062.0,0.004962715318797433
2061.0,0.004932883936712668
2060.0,0.004926832370639344
2059.0,0.00493346760661496
2058.0,0.004943673191162199
2057.0,0.004956299093396866
2056.0,0.00495887667076861
2055.0,0.004943699796278259
2054.0,0.004947493839858765
2053.0,0.0050238245678004
2052.0,0.0051591568767260084
2051.0,0.005262138786585638
2050.0,0.005259233017369544
2049.0,0.005171304944209087
2048.0,0.005071853422113916
2047.0,0.005001081549663138
2046.0,0.004957978345551847
2045.0,0.004939421487123347
2044.0,0.004939911963934769
2043.0,0.004941045364785277
2042.0,0.00493663768005059
2041.0,0.00494415224584888
2040.0,0.004967380844994965
2039.0,0.004979479846461176
2038.0,0.004965190263571647
2037.0,0.00494230891488391
2036.0,0.0049200603692588695
2035.0,0.004876929536975109
2034.0,0.004805885998175779
2033.0,0.004739227830074875
2032.0,0.004697971166440483
2031.0,0.0046617014707191875
2030.0,0.004617612904704455
2029.0,0.004590518368364614
2028.0,0.004594689972924758
2027.0,0.004602261687174832
2026.0,0.0045907038836573745
2025.0,0.004578070809173727
2024.0,0.004582656286920749
2023.0,0.004591143465145998
2022.0,0.004591279042522599
2021.0,0.004594226535833832
2020.0,0.004601652828376468
2019.0,0.004592732400734449
2018.0,0.0045665959129027245
2017.0,0.004555290546956738
2016.0,0.004570875578196394
2015.0,0.004585030179712784
2014.0,0.004582928330464635
2013.0,0.004589066876843266
2012.0,0.004618200545877135
2011.0,0.004644500154959565
2010.0,0.004640652278259889
2009.0,0.0046067492980306855
2008.0,0.00454466922716891
2007.0,0.004450589592042297
2006.0,0.004352810666775433
2005.0,0.004306212686358335
2004.0,0.004324113416965492
2003.0,0.0043637863557240385
2002.0,0.004393357430838916
2001.0,0.00442696427321514
2000.0,0.004478903566954781
1999.0,0.004529603520102618
1998.0,0.004561910169597203
1997.0,0.0045889117384970216
1996.0,0.004622836985941142
1995.0,0.004652911520697605
1994.0,0.004673759770514356
1993.0,0.004700773600851573
1992.0,0.004736606401230746
1991.0,0.004757885193123987
1990.0,0.004757060572450011
1989.0,0.004758972700357751
1988.0,0.004778051866515723
1987.0,0.004798855193186132
1986.0,0.004815362754863188
1985.0,0.004850546968690812
1984.0,0.004917998257202879
1983.0,0.00500268495979672
1982.0,0.005092599664156857
1981.0,0.005183535743071529
1980.0,0.005234487277332379
1979.0,0.005173262351926365
1978.0,0.004988570205604348
1977.0,0.004771302941881748
1976.0,0.004615366130196513
1975.0,0.004528346313278232
1974.0,0.004481722752980569
1973.0,0.004474796937020386
1972.0,0.004502896623722531
1971.0,0.004527312155800462
1970.0,0.0045235492071133
1969.0,0.004516021575357075
1968.0,0.00452986915610634
1967.0,0.0045482128385396095
1966.0,0.004550586091918219
1965.0,0.004551001105605333
1964.0,0.004562607500705378
1963.0,0.004564836927122195
1962.0,0.004535621004560047
1961.0,0.004485298048857491
1960.0,0.004436153317753563
1959.0,0.004398864304531996
1958.0,0.004386856463409751
1957.0,0.004415625485965899
1956.0,0.004469848321317715
1955.0,0.0045070039181823425
1954.0,0.004510310483230622
1953.0,0.004504472688418068
1952.0,0.004507485296752564
1951.0,0.004505187222175596
1950.0,0.0044871030683542755
1949.0,0.00447044894049106
1948.0,0.004467458056430783
1947.0,0.004461995247453226
1946.0,0.004440274656942548
1945.0,0.004413457901337031
1944.0,0.004390516612623977
1943.0,0.004358175886529968
1942.0,0.004308870446547434
1941.0,0.004258437147114391
1940.0,0.004216201346102535
1939.0,0.004171188530372573
1938.0,0.0041206649250646555
1937.0,0.004080293454158244
1936.0,0.004054569090942475
1935.0,0.00402546753905622
1934.0,0.003984320229776274
1933.0,0.003944350164119837
1932.0,0.003910380413026015
1931.0,0.003868595014470972
1930.0,0.003816962435966074
1929.0,0.003778450004948287
1928.0,0.003764214125026727
1927.0,0.003754764031448505
1926.0,0.0037334424573819114
1925.0,0.0037093294618065
1924.0,0.003696263425375861
1923.0,0.003689524552149101
1922.0,0.0036814876237155182
1921.0,0.00367785394264844
1920.0,0.003680811103242884
1919.0,0.0036775014189985604
1918.0,0.0036594131090089722
1917.0,0.0036356654983010868
1916.0,0.0036125457588736475
1915.0,0.003582816639906614
1914.0,0.0035480025251694624
1913.0,0.00352333918765362
1912.0,0.0035130198755644036
1911.0,0.0035030181664601834
1910.0,0.0034867082884833876
1909.0,0.003476267414423224
1908.0,0.0034741264338322884
1907.0,0.0034637400449609667
1906.0,0.0034397787436349224
1905.0,0.003418107162738498
1904.0,0.003408521242986743
1903.0,0.0033984345446147917
1902.0,0.0033773483072939915
1901.0,0.0033556496099467494
1900.0,0.003342551715137748
1899.0,0.003330570148908858
1898.0,0.0033155089734169577
1897.0,0.003307099917617343
1896.0,0.0033090827794394306
1895.0,0.003307250769593774
1894.0,0.0032927605099977646
1893.0,0.0032770695357818313
1892.0,0.003270546102362026
1891.0,0.003267511166779619
1890.0,0.0032620364974777667
1889.0,0.003258194909880869
1888.0,0.0032538231170450294
1887.0,0.0032379766381383773
1886.0,0.003213999143153692
1885.0,0.003200353973896219
1884.0,0.003201852743942113
1883.0,0.003201796575718857
1882.0,0.0031908722052476665
1881.0,0.0031820269965753705
1880.0,0.003184227776477491
1879.0,0.0031870783641964454
1878.0,0.003184043088573636
1877.0,0.0031840660991391857
1876.0,0.0031910037868112975
1875.0,0.0031951295416061468
1874.0,0.0031937806240946837
1873.0,0.00319913051831827
1872.0,0.0032164370638279945
1871.0,0.003234576900514183
1870.0,0.0032468088354552344
1869.0,0.003261432327291882
1868.0,0.003276035361684923
1867.0,0.003269073475660449
1866.0,0.003236445725360255
1865.0,0.0032024511960479307
1864.0,0.00318506457625907
1863.0,0.003177738274172009
1862.0,0.0031714707973834926
1861.0,0.0031722364026528695
1860.0,0.003182948561510332
1859.0,0.0031909139455462044
1858.0,0.003189146108625214
1857.0,0.003189708877420515
1856.0,0.0032011430674156443
1855.0,0.003213598041894057
1854.0,0.003217133252969032
1853.0,0.0032182073802663326
1852.0,0.0032225734979128124
1851.0,0.0032223236403759615
1850.0,0.003218528730453929
1849.0,0.003227972716000614
1848.0,0.00325593175065232
1847.0,0.0032852862226004018
1846.0,0.003306302368490294
1845.0,0.0033340811455780744
1844.0,0.0033739837835083703
1843.0,0.0033981041768059825
1842.0,0.0033876842421181937
1841.0,0.003362089747951316
1840.0,0.0033461880871284012
1839.0,0.0033432990473341146
1838.0,0.0033458424733460394
1837.0,0.003354743182919961
1836.0,0.0033744177140499374
1835.0,0.003397587384102036
1834.0,0.0034157229635573467
1833.0,0.003435152516802098
1832.0,0.0034656548953675586
1831.0,0.0035034933547888445
1830.0,0.003537549484449297
1829.0,0.0035603950701712937
1828.0,0.0035683623851069358
1827.0,0.0035617489623815174
1826.0,0.003551752517303219
1825.0,0.0035520985962958036
1824.0,0.0035572094996440757
1823.0,0.003547823351642841
1822.0,0.003521541965083335
1821.0,0.0034947178980926368
1820.0,0.003471807743207582
1819.0,0.003438838375149961
1818.0,0.003393341398375585
1817.0,0.003358642059384316
1816.0,0.0033548518768095905
1815.0,0.0033714759558967342
1814.0,0.0033900108775664754
1813.0,0.0034102255507379065
1812.0,0.003436777441740178
1811.0,0.003460765174126829
1810.0,0.003469188563508232
1809.0,0.00346638557783084
1808.0,0.0034659818905973493
1807.0,0.003469652630942593
1806.0,0.0034733374096606743
1805.0,0.0034816349343218325
1804.0,0.0035023992020812387
1803.0,0.0035314072759006663
1802.0,0.003559630214995088
1801.0,0.0035870088075827186
1800.0,0.0036125432468751663
1799.0,0.003627100989817807
1798.0,0.0036271955231815325
1797.0,0.003626020330255969
1796.0,0.0036367183596505885
1795.0,0.0036557228757262
1794.0,0.0036753320862573623
1793.0,0.003698493630889181
1792.0,0.0037242022931967362
1791.0,0.0037341639838186875
1790.0,0.0037171228854303625
1789.0,0.0036900355333653522
1788.0,0.003675795114913058
1787.0,0.0036787037935594
1786.0,0.0036904256663622594
1785.0,0.0037078566874181517
1784.0,0.003732829988070222
1783.0,0.0037557023918089174
1782.0,0.0037679733763891186
1781.0,0.003779636997653482
1780.0,0.0037995621004175946
1779.0,0.003820002311337478
1778.0,0.0038307578995785026
1777.0,0.0038416121495985257
1776.0,0.003867332328864218
1775.0,0.003906364396969763
1774.0,0.003955222696870653
1773.0,0.004026263935001603
1772.0,0.004118909247528535
1771.0,0.004193185284086201
1770.0,0.004219034759392608
1769.0,0.004220648597917927
1768.0,0.0042454774685780315
1767.0,0.004303904786145268
1766.0,0.004366425280555172
1765.0,0.0044183013348370855
1764.0,0.004481112255742852
1763.0,0.004578586381541613
1762.0,0.004701753408547718
1761.0,0.004821373707481561
1760.0,0.004929370407969893
1759.0,0.005043704705400512
1758.0,0.005184229795075601
1757.0,0.005365703263677147
1756.0,0.005580475024465455
1755.0,0.005799514711422421
1754.0,0.0060145712239686785
1753.0,0.006269148651205873
1752.0,0.006635676129111262
1751.0,0.007140982385408225
1750.0,0.00773145005667962
1749.0,0.008361655830228566
1748.0,0.009054091657022076
1747.0,0.009835746314437156
1746.0,0.010718347466110376
1745.0,0.011737291462689073
1744.0,0.012927688129617223
1743.0,0.014263836107913883
1742.0,0.015707836461818534
1741.0,0.017324399187796317
1740.0,0.019193333965742968
1739.0,0.02114877159845107
1738.0,0.02287445321441186
1737.0,0.02434356851779344
1736.0,0.025888889337171213
1735.0,0.027980069831868997
1734.0,0.030584456741194033
1733.0,0.03296804624217773
1732.0,0.034816746717918866
1731.0,0.03648105472466134
1730.0,0.038235852071940635
1729.0,0.04007825501136159
1728.0,0.041886810976302584
1727.0,0.04362105455124058
1726.0,0.045325140920779015
1725.0,0.04704033194326348
1724.0,0.04877177439119871
1723.0,0.05046636479750518
1722.0,0.05201078613449126
1721.0,0.05334293064785782
1720.0,0.054564772712408165
1719.0,0.0558966057026748
1718.0,0.0573745392767068
1717.0,0.058654383133296635
1716.0,0.05949099800326343
1715.0,0.06000530921578773
1714.0,0.060264309319462896
1713.0,0.06017253574987343
1712.0,0.05970637718668905
1711.0,0.058933069937201696
1710.0,0.05787140864780005
1709.0,0.05649530709476461
1708.0,0.0548135381371234
1707.0,0.0528209863203295
1706.0,0.050515610202835834
1705.0,0.04816634072804355
1704.0,0.04619896010213995
1703.0,0.04464740173572673
1702.0,0.0431041290866052
1701.0,0.0410696836228455
1700.0,0.03880862568509893
1699.0,0.037142924343826475
1698.0,0.03608208802094628
1697.0,0.0351039131654723
1696.0,0.033989472698698495
1695.0,0.0329479834038594
1694.0,0.03222080023667294
1693.0,0.03173907816767618
1692.0,0.03135206528590702
1691.0,0.030985814523350183
1690.0,0.030650885719276717
1689.0,0.030402996342128848
1688.0,0.030254004483165668
1687.0,0.030162031608295684
1686.0,0.030094257374666852
1685.0,0.030052787800978305
1684.0,0.030042429627221933
1683.0,0.030029670154735035
1682.0,0.029992676671469008
1681.0,0.029961746441794352
1680.0,0.02995959138287531
1679.0,0.029971895859106135
1678.0,0.029984817154823498
1677.0,0.030012902100630127
1676.0,0.030070728389795097
1675.0,0.030134763933243283
1674.0,0.030182371511785613
1673.0,0.030229231065826846
1672.0,0.03029291249293184
1671.0,0.030371162326475264
1670.0,0.030458902607787615
1669.0,0.030558419313768875
1668.0,0.03064976884680353
1667.0,0.030704656703473693
1666.0,0.03073678731179111
1665.0,0.030788908264732517
1664.0,0.030885057132454583
1663.0,0.030999071142581158
1662.0,0.03109039926198271
1661.0,0.031162280176684286
1660.0,0.031233740952416496
1659.0,0.03130442597830322
1658.0,0.03137437109128892
1657.0,0.031447296249325206
1656.0,0.031525719894754646
1655.0,0.03161928048963639
1654.0,0.03178774241628503
1653.0,0.03204364149537689
1652.0,0.03223652426830985
1651.0,0.03228940494848371
1650.0,0.032279871296245745
1649.0,0.0322912246071869
1648.0,0.03237763560819802
1647.0,0.032513091068330474
1646.0,0.03261069954013073
1645.0,0.032641603578434195
1644.0,0.0326391541816419
1643.0,0.03262183744364365
1642.0,0.03259511413135353
1641.0,0.03257216912784984
1640.0,0.03254753743677828
1639.0,0.032490822665997766
1638.0,0.032374009920965334
1637.0,0.03218315516268323
1636.0,0.03189592605997129
1635.0,0.031508264297702315
1634.0,0.03107140702243133
1633.0,0.03063284962754511
1632.0,0.03020348977094299
1631.0,0.029775876515440204
1630.0,0.029341733980810355
1629.0,0.028901281722333107
1628.0,0.028462766375924084
1627.0,0.028034442224089712
1626.0,0.027617059243706155
1625.0,0.02720023620981433
1624.0,0.026763786869070553
1623.0,0.026306711918163174
1622.0,0.02586783348818152
1621.0,0.02548471779052245
1620.0,0.02515421586810726
1619.0,0.024854310624946155
1618.0,0.02456902530031502
1617.0,0.02428904498319977
1616.0,0.024000189382141955
1615.0,0.02367978771062314
1614.0,0.023312009645503673
1613.0,0.02289555197464581
1612.0,0.022438860884030767
1611.0,0.02195235449442579
1610.0,0.021446229421974154
1609.0,0.020930121715461242
1608.0,0.020414243045978966
1607.0,0.019910935337342853
1606.0,0.01942894991695187
1605.0,0.018967512639402048
1604.0,0.018519064209676257
1603.0,0.018083404481204497
1602.0,0.01766662622626355
1601.0,0.017268415650643593
1600.0,0.016885187047559373
1599.0,0.016520850537199594
1598.0,0.016182041391043542
1597.0,0.01586575279549168
1596.0,0.015564916526211735
1595.0,0.015282005685793763
1594.0,0.015023814276801314
1593.0,0.01478801754692968
1592.0,0.014568112783242559
1591.0,0.014366872020634601
1590.0,0.01419245737917851
1589.0,0.014047450824487055
1588.0,0.013934283250950391
1587.0,0.01386974213789078
1586.0,0.01387874534576036
1585.0,0.013979008021966284
1584.0,0.01417527319200701
1583.0,0.014459025804209963
1582.0,0.014801476945516232
1581.0,0.015143066987351027
1580.0,0.015414331266825353
1579.0,0.015562955572647877
1578.0,0.01555512171511932
1577.0,0.015357715083733622
1576.0,0.014987362170568348
1575.0,0.014557896406104283
1574.0,0.014166434881688825
1573.0,0.013819045877914188
1572.0,0.013495835802752426
1571.0,0.013189928060688453
1570.0,0.01290286905216615
1569.0,0.012643203304884955
1568.0,0.012417123085025532
1567.0,0.012224529375534294
1566.0,0.012061475402686489
1565.0,0.011919538212825152
1564.0,0.011793169642543743
1563.0,0.01168442038864812
1562.0,0.011600737264860128
1561.0,0.011555383401825258
1560.0,0.01154740525871312
1559.0,0.01154873219770483
1558.0,0.011513601159216185
1557.0,0.011409799775188013
1556.0,0.011269464240485604
1555.0,0.011141984004055975
1554.0,0.011048462464872694
1553.0,0.01097631458896561
1552.0,0.010901783581381327
1551.0,0.010828265334932563
1550.0,0.010768774798297853
1549.0,0.010716813305827766
1548.0,0.010659451594655787
1547.0,0.010602350054841714
1546.0,0.010563140407620885
1545.0,0.010544551400387993
1544.0,0.010530480971570897
1543.0,0.010512070890826137
1542.0,0.01049590186506829
1541.0,0.010478541363337233
1540.0,0.010443360322696757
1539.0,0.010383216273818708
1538.0,0.010307886025491726
1537.0,0.010228390796674825
1536.0,0.010157515173277691
1535.0,0.010118379997883798
1534.0,0.010126679343090956
1533.0,0.010150136911441298
1532.0,0.010137215566514955
1531.0,0.010091005140446849
1530.0,0.010047338575940945
1529.0,0.010020903329965096
1528.0,0.010003880470385654
1527.0,0.009988847542257671
1526.0,0.009974906868026209
1525.0,0.00995287833715846
1524.0,0.00991150210358065
1523.0,0.009862579788007564
1522.0,0.009834943083208599
1521.0,0.009827744677209063
1520.0,0.009806570655015879
1519.0,0.009763357321217952
1518.0,0.009724397459536772
1517.0,0.009705400559960591
1516.0,0.009695132281499805
1515.0,0.009684608620101684
1514.0,0.009696995528933598
1513.0,0.009766833919059225
1512.0,0.009917005997929126
1511.0,0.01014653328613957
1510.0,0.010458393729269256
1509.0,0.010899658291377208
1508.0,0.011596337201981236
1507.0,0.012571936157114737
1506.0,0.013401716013833775
1505.0,0.013672482932440382
1504.0,0.013465022412592956
1503.0,0.012986658688589689
1502.0,0.012371726111167016
1501.0,0.01172378527963601
1500.0,0.011118376629118479
1499.0,0.01060056346571529
1498.0,0.010187566781719642
1497.0,0.009887922325676063
1496.0,0.009686019141604173
1495.0,0.009546785454431663
1494.0,0.009452892144921128
1493.0,0.009409241610687047
1492.0,0.009416012664735799
1491.0,0.009462631744517848
1490.0,0.009535561641119293
1489.0,0.009612051031699875
1488.0,0.009661383620456683
1487.0,0.009679601858314279
1486.0,0.009693128435472093
1485.0,0.009726433125276525
1484.0,0.009781789595533913
1483.0,0.009856511557544542
1482.0,0.009963073519645671
1481.0,0.010101921336076002
1480.0,0.01024590408984496
1479.0,0.010377572982352002
1478.0,0.01051796123956096
1477.0,0.010687405932081527
1476.0,0.010865013755725
1475.0,0.011020377764407155
1474.0,0.011171557959758145
1473.0,0.011357117841679218
1472.0,0.011549349236926607
1471.0,0.011694019384778398
1470.0,0.011806404563634548
1469.0,0.011935997890066607
1468.0,0.012107561520389604
1467.0,0.012334349898601448
1466.0,0.012644624417884508
1465.0,0.013048951288427323
1464.0,0.013478695662028074
1463.0,0.01385785294857184
1462.0,0.014197914232914336
1461.0,0.014542787238104558
1460.0,0.014909381629005774
1459.0,0.015310351659373646
1458.0,0.01580274625210578
1457.0,0.01636839670409371
1456.0,0.016809200871366566
1455.0,0.017023109758395053
1454.0,0.01711080210657945
1453.0,0.017162591919379352
1452.0,0.017190449051699665
1451.0,0.017185225740069095
1450.0,0.017162986037796063
1449.0,0.01714294218221554
1448.0,0.017117490550625128
1447.0,0.01707716606462346
1446.0,0.01703394415034852
1445.0,0.01699898067433566
1444.0,0.01696018347506955
1443.0,0.016909007333951148
1442.0,0.01685278621703903
1441.0,0.01679027538298904
1440.0,0.016700246688066585
1439.0,0.01656528565596945
1438.0,0.01637918990077153
1437.0,0.016125716146643494
1436.0,0.01580070697943746
1435.0,0.015440376268663413
1434.0,0.015078216247020486
1433.0,0.014715365122897221
1432.0,0.014347121691148358
1431.0,0.01398456023711606
1430.0,0.013649281121903351
1429.0,0.013355364375181797
1428.0,0.013110520371618816
1427.0,0.012918051417588974
1426.0,0.012776020937960967
1425.0,0.012685355302246185
1424.0,0.012646615491132692
1423.0,0.012652467535794859
1422.0,0.012701871887496455
1421.0,0.012831815316829365
1420.0,0.013120563343350395
1419.0,0.013616579314681819
1418.0,0.014274999053848561
1417.0,0.015056694602881879
1416.0,0.01601886350527581
1415.0,0.01724500603489273
1414.0,0.01877053299923833
1413.0,0.020550776076973698
1412.0,0.02241919879928054
1411.0,0.024089079714240787
1410.0,0.02528056854868493
1409.0,0.025841989312222365
1408.0,0.02573304420323155
1407.0,0.024996623638941222
1406.0,0.023784551844892577
1405.0,0.022338052421775084
1404.0,0.02090549633744641
1403.0,0.019653888194428495
1402.0,0.018615837065806086
1401.0,0.017719997051699965
1400.0,0.01688352200075574
1399.0,0.01610184774530315
1398.0,0.01542773407323052
1397.0,0.014860316377965435
1396.0,0.014336499305803108
1395.0,0.013818957118070293
1394.0,0.013332774237121939
1393.0,0.01290685502364021
1392.0,0.012531918668034958
1391.0,0.012192524826400658
1390.0,0.011887375066789404
1389.0,0.011616533177773988
1388.0,0.011377809486955864
1387.0,0.011179124908069998
1386.0,0.011031826228832427
1385.0,0.010934863052276936
1384.0,0.01088465577207844
1383.0,0.010888187210936724
1382.0,0.010951803470522473
1381.0,0.011069334166007326
1380.0,0.011231563835772196
1379.0,0.011433615801567609
1378.0,0.011667299269508382
1377.0,0.011920381132703422
1376.0,0.0121879080192065
1375.0,0.012466914220063421
1374.0,0.01273252913864633
1373.0,0.012937509311768344
1372.0,0.013046598034560868
1371.0,0.013048866858386552
1370.0,0.012933882621012763
1369.0,0.012681129287565929
1368.0,0.012281394192136088
1367.0,0.011760764911761095
1366.0,0.01116406745638527
1365.0,0.010521787434938383
1364.0,0.009852791644670834
1363.0,0.009198826775434914
1362.0,0.008626700105981605
1361.0,0.008175816835997536
1360.0,0.007835691281935576
1359.0,0.007581019938407343
1358.0,0.0073957522156644796
1357.0,0.007268383664003028
1356.0,0.0071880030508169115
1355.0,0.0071486189229307395
1354.0,0.007148552432882611
1353.0,0.007184584047292813
1352.0,0.0072548065054191535
1351.0,0.007364068411526682
1350.0,0.00751895210357845
1349.0,0.007719325048619904
1348.0,0.007958204185063876
1347.0,0.008230804883003923
1346.0,0.008534771638878336
1345.0,0.008860557862272697
1344.0,0.009186615601898524
1343.0,0.009486125018675858
1342.0,0.009732511686961614
1341.0,0.00989484093000074
1340.0,0.009935789928524195
1339.0,0.009827990326961744
1338.0,0.009574338019737259
1337.0,0.009206042330302791
1336.0,0.008768983139441201
1335.0,0.008315214945283804
1334.0,0.007892320864164441
1333.0,0.007532267651123439
1332.0,0.0072520821775118975
1331.0,0.007060375094582889
1330.0,0.006956160042624202
1329.0,0.006927304275540988
1328.0,0.006958987284098548
1327.0,0.007042117387326678
1326.0,0.007170867344684332
1325.0,0.007336908518396575
1324.0,0.007529715677075364
1323.0,0.0077408199496983975
1322.0,0.007965068244255004
1321.0,0.00819950407330339
1320.0,0.008442318955614047
1319.0,0.008691732176945955
1318.0,0.008945177391481936
1317.0,0.009201065206022034
1316.0,0.009462315093964222
1315.0,0.009737070181020532
1314.0,0.010034542936659056
1313.0,0.01035871304822572
1312.0,0.010706294062599217
1311.0,0.011072009346217592
1310.0,0.011454294609151108
1309.0,0.01185239709747833
1308.0,0.012259166194340955
1307.0,0.012662969279345529
1306.0,0.013060288664443236
1305.0,0.013463512979638687
1304.0,0.013895663378830251
1303.0,0.014383499601847594
1302.0,0.014954062766560628
1301.0,0.0156267808363211
1300.0,0.01640129549129539
1299.0,0.01725766337101102
1298.0,0.018172287225048024
1297.0,0.01912720371594504
1296.0,0.020102193442650865
1295.0,0.021071965544170092
1294.0,0.022020429451214667
1293.0,0.022945100573710398
1292.0,0.023840209282794084
1291.0,0.024690731809062203
1290.0,0.025490116750432775
1289.0,0.02624582150326278
1288.0,0.026958230637381963
1287.0,0.027612726355409845
1286.0,0.02820101139774967
1285.0,0.028730054717923073
1284.0,0.029202693993414512
1283.0,0.029611244658539128
1282.0,0.029957188004252573
1281.0,0.03025561420350522
1280.0,0.03051492604060467
1279.0,0.0307358118801285
1278.0,0.03093662936146136
1277.0,0.03115715098275834
1276.0,0.03143247494657168
1275.0,0.03178479535419289
1274.0,0.03224238323265838
1273.0,0.0328390433982985
1272.0,0.03358508241977897
1271.0,0.03445974783449803
1270.0,0.035439355106565415
1269.0,0.03650903037650477
1268.0,0.037639266835020224
1267.0,0.03878196491729477
1266.0,0.03990435191574689
1265.0,0.04099825679971899
1264.0,0.04204390774062433
1263.0,0.04299876142442561
1262.0,0.043835210503109116
1261.0,0.04455299847200852
1260.0,0.045144204559738846
1259.0,0.04558994843467911
1258.0,0.04590598134260627
1257.0,0.04614915844971035
1256.0,0.04636804854173046
1255.0,0.04658585675709526
1254.0,0.04683386041021493
1253.0,0.04715487164396728
1252.0,0.04756267623161907
1251.0,0.048037968586048224
1250.0,0.04857351256058012
1249.0,0.049183333310604316
1248.0,0.04986006690042367
1247.0,0.050567865745722994
1246.0,0.051288485445670114
1245.0,0.05202971488303058
1244.0,0.052776649012610456
1243.0,0.05348171157504247
1242.0,0.05411494984761801
1241.0,0.05467389465096029
1240.0,0.05513109851080911
1239.0,0.05542438324506385
1238.0,0.05551244271570396
1237.0,0.05538852136937756
1236.0,0.05503138155246248
1235.0,0.054402986264256784
1234.0,0.05350708846373977
1233.0,0.052395342822899066
1232.0,0.05111016731849344
1231.0,0.04967470014303375
1230.0,0.048136101753596096
1229.0,0.046560805441503456
1228.0,0.04498322027953251
1227.0,0.04340365925264558
1226.0,0.041833602610259035
1225.0,0.040301510167355385
1224.0,0.03881821972611922
1223.0,0.0373760389620564
1222.0,0.03598087811474819
1221.0,0.0346530436783862
1220.0,0.03339909755738198
1219.0,0.03221117315435291
1218.0,0.031090586373355766
1217.0,0.0300468332732352
1216.0,0.029076703722644814
1215.0,0.028166771889311076
1214.0,0.027313237619713313
1213.0,0.026520078958632544
1212.0,0.025781882957367296
1211.0,0.025086898905449892
1210.0,0.024433385054526875
1209.0,0.023826074267936696
1208.0,0.023260118260769104
1207.0,0.02272384408176325
1206.0,0.022213723028998603
1205.0,0.021732524759614322
1204.0,0.02127630784531301
1203.0,0.020836363444227353
1202.0,0.020410392125690992
1201.0,0.019999663635959612
1200.0,0.019598941916039895
1199.0,0.019200671597164952
1198.0,0.018805819305645184
1197.0,0.018420586805370006
1196.0,0.018046550539125187
1195.0,0.017683545446886252
1194.0,0.017337440581797536
1193.0,0.017015401087316844
1192.0,0.01671758918944313
1191.0,0.01644230155131732
1190.0,0.016195344854678963
1189.0,0.01598635865299179
1188.0,0.015820019681120505
1187.0,0.015698570072824145
1186.0,0.01562891713542228
1185.0,0.015618915262228878
1184.0,0.015668784667596945
1183.0,0.01577289346219132
1182.0,0.015927568337734486
1181.0,0.0161299272490879
1180.0,0.016369542917988665
1179.0,0.01662802805812478
1178.0,0.016886425498678484
1177.0,0.017125809823732775
1176.0,0.01732139753303551
1175.0,0.017445281143376894
1174.0,0.017476610349431633
1173.0,0.01740241336745231
1172.0,0.017212315037180185
1171.0,0.016905854326865373
1170.0,0.016505460438105704
1169.0,0.016051558922144295
1168.0,0.015585162654583849
1167.0,0.015140586377177648
1166.0,0.014746241970583187
1165.0,0.014418204823268825
1164.0,0.014154435955083186
1163.0,0.013943423873630355
1162.0,0.013778270523101297
1161.0,0.013659026006849904
1160.0,0.013586539034417342
1159.0,0.013561845851474446
1158.0,0.013589722257421857
1157.0,0.01367649925405404
1156.0,0.01382491954057741
1155.0,0.014035445832530195
1154.0,0.014310597936612334
1153.0,0.014652639692645904
1152.0,0.015058039924604073
1151.0,0.015520108572744305
1150.0,0.016037017620056004
1149.0,0.016611033548863664
1148.0,0.017239579770797733
1147.0,0.017914063664348907
1146.0,0.018627729273397318
1145.0,0.019375426746032435
1144.0,0.020144156965264566
1143.0,0.020914637048770366
1142.0,0.02167517868031865
1141.0,0.022422106383480783
1140.0,0.023144411591325843
1139.0,0.0238240742214726
1138.0,0.024455555797302308
1137.0,0.025047886361002972
1136.0,0.025604470059813755
1135.0,0.026121000949827538
1134.0,0.026607332791642055
1133.0,0.027089765264702942
1132.0,0.027587364365199415
1131.0,0.028107776244869008
1130.0,0.028669706182743754
1129.0,0.029304533686926697
1128.0,0.030027656759036216
1127.0,0.030829421525839368
1126.0,0.031699053301954695
1125.0,0.032631650447720734
1124.0,0.033603440591037405
1123.0,0.034567407006375374
1122.0,0.03548368789555394
1121.0,0.036327209463720464
1120.0,0.03705956811901756
1119.0,0.03762975785071887
1118.0,0.03801334848046035
1117.0,0.0382164382707983
1116.0,0.03823816684736701
1115.0,0.03807542946916576
1114.0,0.0377744257810766
1113.0,0.03743570047356676
1112.0,0.03716127466540568
1111.0,0.03703090612840172
1110.0,0.03711997100917181
1109.0,0.037487016728068354
1108.0,0.03813061918312685
1107.0,0.03899403553940735
1106.0,0.04002322678121144
1105.0,0.041190330413213926
1104.0,0.042458511208140204
1103.0,0.043772080135740306
1102.0,0.045098100478873
1101.0,0.04643246047284592
1100.0,0.047747377461608
1099.0,0.048982112014832234
1098.0,0.05010426560915579
1097.0,0.05112539677127305
1096.0,0.052038732495820174
1095.0,0.052803144829205825
1094.0,0.0534066878338945
1093.0,0.05387986303359995
1092.0,0.054228488923089214
1091.0,0.05442083018876197
1090.0,0.05445539069946395
1089.0,0.054372143623739516
1088.0,0.05418428851313552
1087.0,0.05386879293512943
1086.0,0.05343294569500353
1085.0,0.052915875712682345
1084.0,0.05231411759208617
1083.0,0.05157748208210309
1082.0,0.05068662499707344
1081.0,0.04966709426691967
1080.0,0.04852647471573559
1079.0,0.047250191707931335
1078.0,0.04586281828704465
1077.0,0.04442725258785708
1076.0,0.04298095574570409
1075.0,0.041529452706777936
1074.0,0.040097091308026384
1073.0,0.03872723812745222
1072.0,0.03743470302222614
1071.0,0.03620706650754432
1070.0,0.03504944423822399
1069.0,0.03398418823371813
1068.0,0.03301087488689916
1067.0,0.03210724490128648
1066.0,0.03126674575933973
1065.0,0.030500061883052938
1064.0,0.02980377254495225
1063.0,0.02916144023655612
1062.0,0.028574209177994095
1061.0,0.02806069887516345
1060.0,0.027627975450596358
1059.0,0.02726989287322256
1058.0,0.02699148179498056
1057.0,0.02680736554170035
1056.0,0.02671668048741581
1055.0,0.026704971962786518
1054.0,0.026771129270997014
1053.0,0.026927248297442842
1052.0,0.0271685118383882
1051.0,0.027469064816784704
1050.0,0.02781231167812432
1049.0,0.02819396635824753
1048.0,0.02858996557392287
1047.0,0.028957663725262116
1046.0,0.02927337398294598
1045.0,0.029535431029189957
1044.0,0.029731048713090798
1043.0,0.029834703514204378
1042.0,0.029841152592557957
1041.0,0.029769179433591433
1040.0,0.029630269528691217
1039.0,0.029422814775727675
1038.0,0.029157988250630484
1037.0,0.028861618488056698
1036.0,0.028548398004404972
1035.0,0.028220029432051333
1034.0,0.027887723408966697
1033.0,0.027569677693601732
1032.0,0.02726585723608256
1031.0,0.02696039304631087
1030.0,0.02664947968755
1029.0,0.0263461019362823
1028.0,0.02606389359979565
1027.0,0.02582616336915044
1026.0,0.025694694088102366
1025.0,0.025770059445019887
1024.0,0.0261626112843297
1023.0,0.026972621654841905
1022.0,0.02827694549431896
1021.0,0.030088032989421518
1020.0,0.03229419577298859
1019.0,0.03463806737589215
1018.0,0.036760658495900676
1017.0,0.03827065475272384
1016.0,0.03882374598846033
1015.0,0.038255487645869043
1014.0,0.03670593779382861
1013.0,0.03456943523323982
1012.0,0.03228265647526184
1011.0,0.030151453063372996
1010.0,0.028312484645107217
1009.0,0.026774637762853937
1008.0,0.02548152346843539
1007.0,0.02437327281847141
1006.0,0.02342058182254646
1005.0,0.022611521021225316
1004.0,0.021921877385564555
1003.0,0.02131541234905872
1002.0,0.02076687331090608
1001.0,0.02026699144762354
1000.0,0.019807382944611873
999.0,0.019377247252774357
998.0,0.01897429866411441
997.0,0.01860348570191962
996.0,0.018263422030918165
995.0,0.017945726155508133
994.0,0.01764722140354761
993.0,0.017370856992906056
992.0,0.01711490212051947
991.0,0.016873005632104667
990.0,0.016645021513478072
989.0,0.016436718128710687
988.0,0.016248795960328646
987.0,0.01607626609379468
986.0,0.01591783071074645
985.0,0.015775606045098832
984.0,0.015646250699447323
983.0,0.015522493017374617
982.0,0.015403137288384026
981.0,0.015292060746802113
980.0,0.01518801940569724
979.0,0.01508519982086744
978.0,0.014982913149996321
977.0,0.014884389504563274
976.0,0.014786581520395393
975.0,0.014681354068104793
974.0,0.014566015855838069
973.0,0.014442284983926353
972.0,0.014305466920950308
971.0,0.014145639032223468
970.0,0.013960183823471448
969.0,0.013755441592175784
968.0,0.01353578626069811
967.0,0.013300659005545723
966.0,0.013052578043867377
965.0,0.012798703486235442
964.0,0.012543712933475136
963.0,0.012288922631651305
962.0,0.01203807228695418
961.0,0.01179643173136469
960.0,0.011564813494150124
959.0,0.011341309928457253
958.0,0.01112774468166737
957.0,0.010927778805711188
956.0,0.010740209597183449
955.0,0.01056086200346805
954.0,0.01038967968338492
953.0,0.010229369173735743
952.0,0.010078530397298276
951.0,0.00993294607631261
950.0,0.009792453025969095
949.0,0.009659903226980628
948.0,0.009534446352288953
947.0,0.009412341628064569
946.0,0.009293476029313723
945.0,0.00918091966020325
944.0,0.009074996394938604
943.0,0.008973719839387098
942.0,0.008878021187022751
941.0,0.008790576149515426
940.0,0.00871033371605418
939.0,0.008634018805877617
938.0,0.008562135384247079
937.0,0.00849738565315257
936.0,0.008437461328480134
935.0,0.00837502549558865
934.0,0.008304631902614537
933.0,0.008224800140936982
932.0,0.008134590927860869
931.0,0.008034242244148145
930.0,0.007928587523834841
929.0,0.007823836744898548
928.0,0.007721051784829409
927.0,0.0076177676605258485
926.0,0.007515088736448563
925.0,0.007417622101601963
924.0,0.007327101462928339
923.0,0.007241884156338715
922.0,0.007162597846835249
921.0,0.007092849651646993
920.0,0.007034287488350279
919.0,0.0069861452262086655
918.0,0.006950086884015529
917.0,0.006930772814282237
916.0,0.006931076683751494
915.0,0.006951107496101063
914.0,0.006992715851955704
913.0,0.007061009444583129
912.0,0.007160471631751189
911.0,0.007292852858437364
910.0,0.0074589399180857545
909.0,0.00765815016683623
908.0,0.007885526737517178
907.0,0.008133227822898713
906.0,0.008395808114367648
905.0,0.00866946142014393
904.0,0.008945243004512791
903.0,0.009208767708245602
902.0,0.009448558072397823
901.0,0.009659431685331375
900.0,0.009836733904269458
899.0,0.009974580842397301
898.0,0.010072203047900033
897.0,0.010135322510770758
896.0,0.010169677631548885
895.0,0.010179971459639493
894.0,0.010175789523668669
893.0,0.010170528281085847
892.0,0.01017295454818036
891.0,0.010186595746310333
890.0,0.010217948832814898
889.0,0.010278275509161702
888.0,0.010376812246695885
887.0,0.010519231148670725
886.0,0.010713274846468963
885.0,0.010968866924833138
884.0,0.011292600518717347
883.0,0.011690302460542989
882.0,0.01217532832407139
881.0,0.01276284096551505
880.0,0.013450067179685596
879.0,0.014209441676163795
878.0,0.015004475091675896
877.0,0.015801518001461356
876.0,0.01655991830014223
875.0,0.01722317881434423
874.0,0.01772760723285049
873.0,0.018009806725001055
872.0,0.018010970444550304
871.0,0.017704934070169338
870.0,0.017133192270903604
869.0,0.01639189314081844
868.0,0.01557927191735536
867.0,0.014767499524996088
866.0,0.014009903967860345
865.0,0.013344092553120811
864.0,0.01278366736223863
863.0,0.012323623017135403
862.0,0.011957807118024844
861.0,0.011682196011364762
860.0,0.011484122885023602
859.0,0.011343120639360937
858.0,0.011245445300793324
857.0,0.011186937440016746
856.0,0.011159550515154864
855.0,0.01114613299394161
854.0,0.011131949132104517
853.0,0.011111922977617168
852.0,0.011084706177197298
851.0,0.011050131159908234
850.0,0.011014461084357705
849.0,0.010987324578203367
848.0,0.010971003064295205
847.0,0.010961855878376482
846.0,0.01096178901083654
845.0,0.010976199746310273
844.0,0.011000089936230764
843.0,0.011019502851403958
842.0,0.011028954486059554
841.0,0.011034486315462628
840.0,0.011036730017360125
839.0,0.011024720282967908
838.0,0.010990801275420053
837.0,0.010939188354840482
836.0,0.010875329006254167
835.0,0.010798763014378366
834.0,0.0107112527766399
833.0,0.01062084225606768
832.0,0.010533041013282406
831.0,0.010447623415376632
830.0,0.010367302427387329
829.0,0.01029895557265157
828.0,0.010242898301465953
827.0,0.01019276592012068
826.0,0.010149852141246685
825.0,0.010123718895646897
824.0,0.0101143199118877
823.0,0.010109733528632009
822.0,0.010105669320034455
821.0,0.010109700958370497
820.0,0.010124138383025047
819.0,0.01014234192398179
818.0,0.010163144954482728
817.0,0.010193138908748893
816.0,0.010232763127927858
815.0,0.010273891859777073
814.0,0.010313737621254909
813.0,0.010357819223228027
812.0,0.010405969779803896
811.0,0.010448745529486731
810.0,0.010481495871456716
809.0,0.010509085428069383
808.0,0.010533088274665911
807.0,0.010547621114374617
806.0,0.010551592781021933
805.0,0.01055101308750567
804.0,0.010544498408149607
803.0,0.010520537590242834
802.0,0.0104765814943991
801.0,0.010432920962564339
800.0,0.010426955831921585
799.0,0.010503934381175917
798.0,0.010707265744701353
797.0,0.011052726132182705
796.0,0.011498629816403282
795.0,0.011951169824455283
794.0,0.012311068858268256
793.0,0.012515691484960595
792.0,0.012544758753520423
791.0,0.012412553737706875
790.0,0.01216418647851308
789.0,0.011857318668392049
788.0,0.011532366843136875
787.0,0.011206745244399189
786.0,0.010895060062310537
785.0,0.010616314318831078
784.0,0.010378479870674927
783.0,0.010173651322383896
782.0,0.009994397189034932
781.0,0.009841148024729598
780.0,0.00970970395002757
779.0,0.009587213029728578
778.0,0.009467134210400706
777.0,0.009355109901711667
776.0,0.009254519358254922
775.0,0.009158856495026822
774.0,0.00906333857804881
773.0,0.00897117956217753
772.0,0.008882911142239283
771.0,0.008791878345414093
770.0,0.008695707539093933
769.0,0.008600580178649935
768.0,0.00850946527974326
767.0,0.008417766839493666
766.0,0.008324390669395979
765.0,0.008234640348731387
764.0,0.00814853728145888
763.0,0.008059356276006962
762.0,0.007967595330701929
761.0,0.00788307477243876
760.0,0.007808626165153328
759.0,0.0077347329567896885
758.0,0.00765495819810744
757.0,0.007573778411313908
756.0,0.007494716344700312
755.0,0.007414137250782313
754.0,0.007331850375943109
753.0,0.007254875710774289
752.0,0.007186148952975691
751.0,0.007122885823576151
750.0,0.007070384344766048
749.0,0.007044003614750336
748.0,0.007053924829194385
747.0,0.007102833704007739
746.0,0.007203940992034719
745.0,0.007387224431446982
744.0,0.0076836894483941365
743.0,0.008119581419856116
742.0,0.00873084151465416
741.0,0.009561802868683363
740.0,0.010633811200384136
739.0,0.011925344820216201
738.0,0.013390636225521751
737.0,0.014982567730975511
736.0,0.01665116466092934
735.0,0.01834712761753886
734.0,0.020050358693789273
733.0,0.021781239804458733
732.0,0.023572187742053975
731.0,0.02544918910956001
730.0,0.027448140717414055
729.0,0.029611272677014883
728.0,0.03193806669496277
727.0,0.03435227618331265
726.0,0.036713854375514
725.0,0.03882046388214932
724.0,0.04039949549318026
723.0,0.04117671282767158
722.0,0.04101008740682969
721.0,0.03995937644943766
720.0,0.03824659765865164
719.0,0.03617181910070047
718.0,0.0340252518056842
717.0,0.0320160914444398
716.0,0.03025226225374958
715.0,0.02876975548308465
714.0,0.0275677804297323
713.0,0.026616614399069843
712.0,0.02585483896763873
711.0,0.025212132883220634
710.0,0.02464608739092497
709.0,0.024144748640318507
708.0,0.023695535124162188
707.0,0.023274858566326412
706.0,0.022870804820069826
705.0,0.022489091575815457
704.0,0.022126638659486424
703.0,0.021760819579085273
702.0,0.02137291053426304
701.0,0.020961641773798563
700.0,0.02052845641227208
699.0,0.02007379849511391
698.0,0.019616211734839035
697.0,0.019190884451163192
696.0,0.01881795588949537
695.0,0.018490472441152025
694.0,0.01819904790450878
693.0,0.01794610140729125
692.0,0.017727685144875494
691.0,0.017525734159086183
690.0,0.017332547140474754
689.0,0.0171628301791051
688.0,0.017027923815084237
687.0,0.016918934199874013
686.0,0.01682904025097475
685.0,0.016766954444387343
684.0,0.01673437151474695
683.0,0.01671547624462212
682.0,0.016697981974774435
681.0,0.01667959667968575
680.0,0.016646682973384588
679.0,0.0165732179981277
678.0,0.016452161391509457
677.0,0.016304915493317702
676.0,0.016151147144452177
675.0,0.01599272713903181
674.0,0.015833085059491235
673.0,0.01568555851529829
672.0,0.015551343755821841
671.0,0.015415370484797759
670.0,0.01527234844000925
669.0,0.015152957347518151
668.0,0.015095012470870698
667.0,0.0150538208540053
666.0,0.014970171697802473
665.0,0.014860599881594355
664.0,0.01474805255310652
663.0,0.014630261480646011
662.0,0.014508591126244724
661.0,0.014403951839695821
660.0,0.014327621402865413
659.0,0.014263096416267572
658.0,0.01419489761958008
657.0,0.01412926076608257
656.0,0.014068117016109959
655.0,0.013992551678637222
654.0,0.013893283220710512
653.0,0.013788734431481743
652.0,0.013691718224941373
651.0,0.013588393309670672
650.0,0.013469779545173668
649.0,0.01335383434674663
648.0,0.013254296383171656
647.0,0.013157607840626136
646.0,0.013050562058032792
645.0,0.012940893868223908
644.0,0.012832939074218602
643.0,0.012713294631316159
642.0,0.012577569126174842
641.0,0.01244221530647669
640.0,0.0123139227436447
639.0,0.012179951952709107
638.0,0.012046394504922349
637.0,0.011954239526766743
636.0,0.011940101405371058
635.0,0.012006953624139827
634.0,0.012134880965169518
633.0,0.012281903541818243
632.0,0.012362162593915035
631.0,0.012277767185856499
630.0,0.012018663671320706
629.0,0.011683622158747162
628.0,0.011368557704424888
627.0,0.011090083998819104
626.0,0.010827613395412047
625.0,0.010578710166487204
624.0,0.010345560959526198
623.0,0.010117217913054713
622.0,0.009898675835067722
621.0,0.00971547467136515
620.0,0.009566137364943397
619.0,0.009414499693839468
618.0,0.009249335394746
617.0,0.009104684427511299
616.0,0.008998734405437615
615.0,0.008910750774221675
614.0,0.008838607135211795
613.0,0.008816235873720647
612.0,0.00885120421034409
611.0,0.00889674437717914
610.0,0.008912800935276681
609.0,0.008913235717501397
608.0,0.008923569334673628
607.0,0.008944169749756096
606.0,0.008978139150691108
605.0,0.009038637794443156
604.0,0.00910353494305963
603.0,0.009118665261727544
602.0,0.009072715551418913
601.0,0.009011593468074924
600.0,0.008956807012038343
599.0,0.008875061809383623
598.0,0.008750547717238478
597.0,0.008621003795567982
596.0,0.008509944459720562
595.0,0.008385163392573204
594.0,0.008216719782692915
593.0,0.008023081102917794
592.0,0.007828118719771397
591.0,0.007625862367335853
590.0,0.007413855093665125
589.0,0.007210226624362178
588.0,0.007015992361577747
587.0,0.0068077102656688045
586.0,0.00658215918524146
585.0,0.006363055812082973
584.0,0.00615241087809101
583.0,0.005925298953248944
582.0,0.00568241446607482
581.0,0.0054560056163281325
580.0,0.005254167376461581
579.0,0.00505396046289343
578.0,0.004853958119573051
577.0,0.004680718982543073
576.0,0.004539317442261192
575.0,0.004407102144748024
574.0,0.004282033160832593
573.0,0.004189007443982101
572.0,0.004129345382149199
571.0,0.004071541353665555
570.0,0.0039996218411760005
569.0,0.0039326664287903865
568.0,0.003884834659346574
567.0,0.003847733384183715
566.0,0.003823420235821875
565.0,0.003830892372422382
564.0,0.003864801431651686
563.0,0.0038854018541389784
562.0,0.0038660084326568034
561.0,0.0038198814763972556
560.0,0.003760632335486241
559.0,0.0036829983429167643
558.0,0.003597314685087021
557.0,0.0035356718778126704
556.0,0.0035068073480722557
555.0,0.0034836828269315667
554.0,0.003446541549900456
553.0,0.0033987005063831326
552.0,0.003330822612350152
551.0,0.003222307983227443
550.0,0.003090737862664089
