cm-1,A
4000.0,-0.0016316658130727246
3999.0,-0.0015678088575365725
3998.0,-0.0015129023236092947
3997.0,-0.0015227890468430022
3996.0,-0.0016024626091222856
3995.0,-0.0016962956779110914
3994.0,-0.001736383616069532
3993.0,-0.0017054130941406512
3992.0,-0.0016415624645476643
3991.0,-0.0015852601206183341
3990.0,-0.001541324394925186
3989.0,-0.001494297564404314
3988.0,-0.0014469969225335737
3987.0,-0.0014228488639322617
3986.0,-0.0014338325900977134
3985.0,-0.0014666669702089502
3984.0,-0.0015009120210273009
3983.0,-0.0015267055672169981
3982.0,-0.001543354133461754
3981.0,-0.0015510473786140857
3980.0,-0.0015534958485365125
3979.0,-0.001561280275458532
3978.0,-0.001580236163693725
3977.0,-0.0015959746109621396
3976.0,-0.0015813297760508642
3975.0,-0.0015311807468479557
3974.0,-0.001475196185996499
3973.0,-0.001449226175262828
3972.0,-0.0014573543722552445
3971.0,-0.001466317075823899
3970.0,-0.0014431036456348982
3969.0,-0.0013891739441241203
3968.0,-0.0013452116952224183
3967.0,-0.0013494959260308274
3966.0,-0.0013946740076422322
3965.0,-0.0014377425585486796
3964.0,-0.0014443667067254337
3963.0,-0.001424188656455647
3962.0,-0.0014101881068410175
3961.0,-0.0014107660206588342
3960.0,-0.0014110242422971343
3959.0,-0.0014050692013322587
3958.0,-0.0014118436640164025
3957.0,-0.0014438403886074226
3956.0,-0.0014827008531551821
3955.0,-0.0014938268049319884
3954.0,-0.0014583234533783285
3953.0,-0.0013945164205026598
3952.0,-0.0013415351937451905
3951.0,-0.0013297003032300382
3950.0,-0.001359794136824527
3949.0,-0.0014071357079928706
3948.0,-0.0014418646896544021
3947.0,-0.001439841791754725
3946.0,-0.0013992655223871145
3945.0,-0.001366781670277874
3944.0,-0.0013976689460002615
3943.0,-0.001476001111827065
3942.0,-0.0015288683285280729
3941.0,-0.0015208717031625566
3940.0,-0.0014984089845784753
3939.0,-0.0015181145354811658
3938.0,-0.0015672665444499464
3937.0,-0.0015674183664064548
3936.0,-0.0014662415849153745
3935.0,-0.0013062594508948346
3934.0,-0.0011719153402569508
3933.0,-0.001101519417349353
3932.0,-0.001074633637009254
3931.0,-0.0010801792126129538
3930.0,-0.0011286472546840254
3929.0,-0.001196882354941225
3928.0,-0.0012412070380630508
3927.0,-0.0012610181118171888
3926.0,-0.001309237596981966
3925.0,-0.001388682235164862
3924.0,-0.0014194231257290903
3923.0,-0.0013599206635148296
3922.0,-0.0012646045148298458
3921.0,-0.0012109016938213516
3920.0,-0.0012052221167548872
3919.0,-0.0011957357792665504
3918.0,-0.00117010399373073
3917.0,-0.0011480714680898447
3916.0,-0.0011261545326120472
3915.0,-0.0010913646497640152
3914.0,-0.0010763976347951234
3913.0,-0.001129998152207312
3912.0,-0.0012544671570571043
3911.0,-0.0013895708331773662
3910.0,-0.0014907382990154887
3909.0,-0.00153713129611596
3908.0,-0.0015166085022808562
3907.0,-0.0014335056137766838
3906.0,-0.001333747596053853
3905.0,-0.0012608952628365146
3904.0,-0.0011755334374223513
3903.0,-0.0010179870187856798
3902.0,-0.000825707339744424
3901.0,-0.0007272001821660907
3900.0,-0.0008057033790354329
3899.0,-0.0010074084987065828
3898.0,-0.0012250075720657975
3897.0,-0.0014053257785333856
3896.0,-0.0015394652559597448
3895.0,-0.0015854506056892784
3894.0,-0.0014941554970776159
3893.0,-0.0012962919466449458
3892.0,-0.0011262476784298842
3891.0,-0.0010677838876438053
3890.0,-0.0010498017127758097
3889.0,-0.0009286936877542666
3888.0,-0.0007657414397553759
3887.0,-0.0008228223829137589
3886.0,-0.0011127870693756411
3885.0,-0.0012958423531748242
3884.0,-0.0011859090629907213
3883.0,-0.0009460623113575238
3882.0,-0.0008788889997605208
3881.0,-0.0010820331217804495
3880.0,-0.0013186166354086004
3879.0,-0.001369137793994638
3878.0,-0.0012532220491277295
3877.0,-0.0011323737172929762
3876.0,-0.0012079538686988515
3875.0,-0.0014801736509905475
3874.0,-0.0016314011066718762
3873.0,-0.0014022025389072025
3872.0,-0.0009836129996085258
3871.0,-0.0008410704428095239
3870.0,-0.0010841776481910685
3869.0,-0.0013020451444951068
3868.0,-0.001198727260212564
3867.0,-0.0009497648700953481
3866.0,-0.0009353846055770017
3865.0,-0.0011980731604214257
3864.0,-0.0013915978421527888
3863.0,-0.0013457853193828547
3862.0,-0.0012499128200105512
3861.0,-0.001248556670915943
3860.0,-0.0013218081770778212
3859.0,-0.0013815003535991653
3858.0,-0.0013556358958287168
3857.0,-0.001203746770575878
3856.0,-0.0010204106425171036
3855.0,-0.001090533759157566
3854.0,-0.0013676436880022316
3853.0,-0.0013870714083340917
3852.0,-0.0011848612150457223
3851.0,-0.001048341801035567
3850.0,-0.0010648979193250752
3849.0,-0.0012131043077612672
3848.0,-0.0013894819327933531
3847.0,-0.001506689531898504
3846.0,-0.0015777809654088785
3845.0,-0.0016285917328174102
3844.0,-0.0016469384559684394
3843.0,-0.0015983199330723778
3842.0,-0.0014667655763913893
3841.0,-0.0012856661306905161
3840.0,-0.0011311304201406603
3839.0,-0.001019188521526959
3838.0,-0.0009341136357452136
3837.0,-0.0008933318541689899
3836.0,-0.000901701839921097
3835.0,-0.0009119772409077856
3834.0,-0.0009128375557666638
3833.0,-0.0009639047529988339
3832.0,-0.0010943072260204971
3831.0,-0.0012373109751562666
3830.0,-0.001311663484379973
3829.0,-0.001314072988320273
3828.0,-0.0013466921037279327
3827.0,-0.0014874075381657854
3826.0,-0.001639139674008549
3825.0,-0.0016068300239843014
3824.0,-0.0013635558318007036
3823.0,-0.001169307998443834
3822.0,-0.0012644347333702773
3821.0,-0.001431708747976015
3820.0,-0.0013730859049525645
3819.0,-0.0010956961001055733
3818.0,-0.0008237073560692005
3817.0,-0.0008468776904264021
3816.0,-0.0010865096524725732
3815.0,-0.0011852172630049613
3814.0,-0.001088789149155645
3813.0,-0.0010408022834536906
3812.0,-0.0011830922423277145
3811.0,-0.00138767695111947
3810.0,-0.0014344881786070923
3809.0,-0.001356200668199877
3808.0,-0.0014115982986240695
3807.0,-0.0016323996687495567
3806.0,-0.0017399873504104692
3805.0,-0.00154617242648668
3804.0,-0.0012131217282550964
3803.0,-0.001129965370421161
3802.0,-0.0013663145419960132
3801.0,-0.0014839727902633364
3800.0,-0.001259931075896148
3799.0,-0.00090828913559977
3798.0,-0.0007009661876043343
3797.0,-0.0007447184820244826
3796.0,-0.0008968661995384072
3795.0,-0.0009840076669291
3794.0,-0.001001334269028182
3793.0,-0.001030655956970848
3792.0,-0.0010851054344954954
3791.0,-0.0011138072506042995
3790.0,-0.0011142017587483554
3789.0,-0.0011495314083872585
3788.0,-0.0012467844952646404
3787.0,-0.0013505299562086156
3786.0,-0.0013882651155090377
3785.0,-0.0013371954892452142
3784.0,-0.0012167875501072145
3783.0,-0.0010664365679468265
3782.0,-0.0009555591323928155
3781.0,-0.000969886743174369
3780.0,-0.0011062255678712385
3779.0,-0.0012263391654259458
3778.0,-0.001236026058898667
3777.0,-0.0011842077400814456
3776.0,-0.0011862145874850768
3775.0,-0.0012840996138794789
3774.0,-0.0013798756250100333
3773.0,-0.0013672454497991617
3772.0,-0.0013006937889124912
3771.0,-0.0012994044579591275
3770.0,-0.0013219274627845213
3769.0,-0.0012314686966043093
3768.0,-0.0010380296795550782
3767.0,-0.0009093734679450333
3766.0,-0.0009771986476444072
3765.0,-0.0011639717566503138
3764.0,-0.0012706286304662168
3763.0,-0.0012199179454913615
3762.0,-0.0011409092694556707
3761.0,-0.0011608387241672684
3760.0,-0.0012015728167709839
3759.0,-0.0011522374879931925
3758.0,-0.0011082586005948297
3757.0,-0.0011700223479350783
3756.0,-0.001238010447464525
3755.0,-0.0011988229942001111
3754.0,-0.0011139479963337277
3753.0,-0.0011061708388836666
3752.0,-0.0011156484802173731
3751.0,-0.0010385970109345508
3750.0,-0.0010398000648878525
3749.0,-0.001215147227690136
3748.0,-0.0012964679163492104
3747.0,-0.0011124210435036453
3746.0,-0.0010163648017680502
3745.0,-0.0013345158226708358
3744.0,-0.0016638037541492063
3743.0,-0.00160706872993249
3742.0,-0.0013521505225900447
3741.0,-0.0012099309023036707
3740.0,-0.0012497184411944739
3739.0,-0.0012606685551660244
3738.0,-0.001098685037770401
3737.0,-0.0008863892061955269
3736.0,-0.0007164336163335574
3735.0,-0.0005331604735624013
3734.0,-0.0003894835569539666
3733.0,-0.0004765552926109147
3732.0,-0.0008194539275364141
3731.0,-0.001185501838125075
3730.0,-0.0013340884012509396
3729.0,-0.0012636687947318336
3728.0,-0.0011706286442510444
3727.0,-0.0011677924720596303
3726.0,-0.0011462899454961761
3725.0,-0.001016303421645072
3724.0,-0.0008579731031406114
3723.0,-0.0007641608824696331
3722.0,-0.0007218975570132368
3721.0,-0.0006900250930481201
3720.0,-0.0006815115351881751
3719.0,-0.0007149395806476846
3718.0,-0.0007795250632021524
3717.0,-0.000818129070219592
3716.0,-0.0007927976864477179
3715.0,-0.0007766872497726576
3714.0,-0.0008929267298530082
3713.0,-0.0011156371005662398
3712.0,-0.0011937028020824099
3711.0,-0.001003798980379473
3710.0,-0.0007766480439144541
3709.0,-0.0007156654452616549
3708.0,-0.0007994779107245605
3707.0,-0.0009113276044183236
3706.0,-0.0009511394864251278
3705.0,-0.0008942668640208921
3704.0,-0.0008011579798998021
3703.0,-0.0007508406216558629
3702.0,-0.000751598198715262
3701.0,-0.0007613930519371052
3700.0,-0.0007561926173834166
3699.0,-0.0007538717975377382
3698.0,-0.0008053511760777413
3697.0,-0.0009068323833798241
3696.0,-0.0009479730627994219
3695.0,-0.0008603245342402399
3694.0,-0.0007269747103174993
3693.0,-0.000644934580340009
3692.0,-0.0005849627066956944
3691.0,-0.00045419738974098226
3690.0,-0.00029279136839632965
3689.0,-0.0002516024359058141
3688.0,-0.00034775557355162324
3687.0,-0.00041215596162568315
3686.0,-0.0003456576737540043
3685.0,-0.00025214203879943384
3684.0,-0.0002495726668547058
3683.0,-0.0002943765446866463
3682.0,-0.0002818236591455685
3681.0,-0.00022689159581129581
3680.0,-0.00017248000271702368
3679.0,-5.062491333178128e-05
3678.0,0.0001676325458960003
3677.0,0.0002444062737440595
3676.0,7.579926279626574e-05
3675.0,-2.1929084105871965e-05
3674.0,0.00013791548521851073
3673.0,0.0004692157559088089
3672.0,0.0006941372190610918
3671.0,0.0005680557348623776
3670.0,0.0003581503022542275
3669.0,0.00043739119829192094
3668.0,0.0006815849165610812
3667.0,0.0008509536483757561
3666.0,0.0008849807528680627
3665.0,0.0008380548664773677
3664.0,0.0007897759464421728
3663.0,0.0007664516405630015
3662.0,0.0007490080234298811
3661.0,0.0007496717894692789
3660.0,0.0008455774451029806
3659.0,0.001069465095972413
3658.0,0.001320217910726438
3657.0,0.0014373566263411876
3656.0,0.0014137046990962592
3655.0,0.0013867482332637479
3654.0,0.0014591835243692127
3653.0,0.0015638238734408758
3652.0,0.0015004457436448675
3651.0,0.0012786001194985195
3650.0,0.0013180253856856423
3649.0,0.0018240007755287316
3648.0,0.002353429928600426
3647.0,0.0025579532419981723
3646.0,0.002531268078512285
3645.0,0.0024432790982977376
3644.0,0.002348438724145575
3643.0,0.002255730781726946
3642.0,0.0022169948599068743
3641.0,0.002282535247549902
3640.0,0.002406433597403235
3639.0,0.0024898322586601003
3638.0,0.002524521662496299
3637.0,0.0025843996759389023
3636.0,0.0026870961756073524
3635.0,0.0027522773626845326
3634.0,0.002764412193651201
3633.0,0.0028414728969102746
3632.0,0.0030588039182299328
3631.0,0.0032647681141260614
3630.0,0.003261371718196699
3629.0,0.0032620295555809394
3628.0,0.003498639868507624
3627.0,0.0037673433487693487
3626.0,0.003890971814285769
3625.0,0.0038690113743891433
3624.0,0.0038041952759181614
3623.0,0.0038453353461815635
3622.0,0.0040175597495041735
3621.0,0.004190283311811658
3620.0,0.004264155280870314
3619.0,0.004298707148443757
3618.0,0.004378757242660524
3617.0,0.004529766003686688
3616.0,0.004736126292191651
3615.0,0.004938765679424911
3614.0,0.005105700492299552
3613.0,0.005274948881825641
3612.0,0.005471247630803576
3611.0,0.00564451567647482
3610.0,0.00572612348442137
3609.0,0.005733604575482036
3608.0,0.005772517986834431
3607.0,0.005872986439005011
3606.0,0.005949347717738417
3605.0,0.005949668127702812
3604.0,0.005914648783354687
3603.0,0.00591707931837104
3602.0,0.0059912184211023435
3601.0,0.006117109292650553
3600.0,0.006283916835051762
3599.0,0.006495224189523819
3598.0,0.006735453613712271
3597.0,0.0069600301451618295
3596.0,0.007120408048107428
3595.0,0.007182795166959008
3594.0,0.007162287252193507
3593.0,0.00712446703268702
3592.0,0.00715308307752013
3591.0,0.007288693511424426
3590.0,0.0074723849622665255
3589.0,0.007605080383042502
3588.0,0.007687316305575072
3587.0,0.007780821284977228
3586.0,0.00786630236454234
3585.0,0.007907207327839227
3584.0,0.007926039598038313
3583.0,0.007965891797603897
3582.0,0.008050496213818174
3581.0,0.008161140268390482
3580.0,0.008265259826238217
3579.0,0.008360584544866035
3578.0,0.008473404994071038
3577.0,0.008616808319087213
3576.0,0.008773941906855588
3575.0,0.00892115659781466
3574.0,0.009040909418712972
3573.0,0.009115742762730718
3572.0,0.009134844620961096
3571.0,0.009122663679326787
3570.0,0.00911776681405117
3569.0,0.009145377786839937
3568.0,0.00926393173186384
3567.0,0.00953169055733315
3566.0,0.009867902785164227
3565.0,0.01012571756204786
3564.0,0.010253048999831227
3563.0,0.010272934062089057
3562.0,0.010229420130469923
3561.0,0.01017544590269948
3560.0,0.010154816751607206
3559.0,0.010193869918519506
3558.0,0.010301833873441133
3557.0,0.010463121793393844
3556.0,0.010636873774648007
3555.0,0.010788107929934782
3554.0,0.010919876338615913
3553.0,0.011069671496160245
3552.0,0.011252415257652505
3551.0,0.011425616004069328
3550.0,0.011530493957716357
3549.0,0.011541473157754212
3548.0,0.011489464331323784
3547.0,0.011461401925596654
3546.0,0.011539498679624692
3545.0,0.011717093313713761
3544.0,0.011906956349305303
3543.0,0.012039124660636486
3542.0,0.012117511678206998
3541.0,0.012199991943465681
3540.0,0.01233906979462995
3539.0,0.012532220441099485
3538.0,0.01272722858602755
3537.0,0.01287106907142235
3536.0,0.012949768632573341
3535.0,0.01297659269433185
3534.0,0.012971431108944623
3533.0,0.012963231072135071
3532.0,0.013000876948508062
3531.0,0.013127791682315275
3530.0,0.013334005376494984
3529.0,0.013551973568904922
3528.0,0.013720708537542172
3527.0,0.013839418875147051
3526.0,0.013935738288139547
3525.0,0.014013544704466467
3524.0,0.014064425686942687
3523.0,0.014111683148670581
3522.0,0.014201933348657075
3521.0,0.014346808742173086
3520.0,0.014496867267097868
3519.0,0.014586029447134472
3518.0,0.014599334540024725
3517.0,0.014586966186994541
3516.0,0.01461303052333016
3515.0,0.014702812067862468
3514.0,0.014844404961151119
3513.0,0.015010353192619987
3512.0,0.015166392006391936
3511.0,0.015283153108887032
3510.0,0.015360189145717757
3509.0,0.015433217413927686
3508.0,0.015544258144057788
3507.0,0.015702240378008547
3506.0,0.015880000181725726
3505.0,0.01605253786596952
3504.0,0.016229128642445845
3503.0,0.01642113513724414
3502.0,0.01658658598635864
3501.0,0.016658882471768017
3500.0,0.01662982052237502
3499.0,0.01657181866297969
3498.0,0.016576381790424116
3497.0,0.016672981957457277
3496.0,0.016809368517115352
3495.0,0.016910008632557812
3494.0,0.016947819544822332
3493.0,0.01695987028595653
3492.0,0.01700606443338263
3491.0,0.017124635522203523
3490.0,0.017312625313778404
3489.0,0.017524502769697196
3488.0,0.017698104556212905
3487.0,0.017803672591604706
3486.0,0.017868714096856454
3485.0,0.017946446419988448
3484.0,0.018059372636379578
3483.0,0.018178812145626284
3482.0,0.018263723813569926
3481.0,0.018310591038207993
3480.0,0.018356256034297358
3479.0,0.01843464139578127
3478.0,0.018539755994548917
3477.0,0.01863689559235132
3476.0,0.018705717072553883
3475.0,0.01876152565601228
3474.0,0.01882455809458559
3473.0,0.018878936369968853
3472.0,0.018885933824437783
3471.0,0.01884631298697383
3470.0,0.018830612635183683
3469.0,0.018920626941488095
3468.0,0.019121474627517662
3467.0,0.019359006383475846
3466.0,0.01956346713407316
3465.0,0.019722167348280188
3464.0,0.01984504815485024
3463.0,0.01992011540157781
3462.0,0.01993642250222399
3461.0,0.019930375528642384
3460.0,0.019964806082878404
3459.0,0.02005715496467788
3458.0,0.020160377326553
3457.0,0.020223932751766174
3456.0,0.02025372174852044
3455.0,0.02030002178290101
3454.0,0.02039961022800083
3453.0,0.020542402720243585
3452.0,0.020693925798350554
3451.0,0.020830684119258574
3450.0,0.020944200924868143
3449.0,0.021027340929784234
3448.0,0.0210776110642517
3447.0,0.02111166248145461
3446.0,0.021158422229596366
3445.0,0.021234473008916614
3444.0,0.02132670899775982
3443.0,0.02140021440769545
3442.0,0.021429123652501398
3441.0,0.021424097127255855
3440.0,0.021428181133551855
3439.0,0.021479686033483162
3438.0,0.02157556676028141
3437.0,0.021670580793008296
3436.0,0.021717204505711688
3435.0,0.021707772170352434
3434.0,0.02167628749102164
3433.0,0.021664148674246243
3432.0,0.021692335621881723
3431.0,0.02175556978793706
3430.0,0.021831585264239423
3429.0,0.02190287912057146
3428.0,0.02197589564185255
3427.0,0.02207304781800515
3426.0,0.022198840515228035
3425.0,0.022321832063069643
3424.0,0.022398943470582147
3423.0,0.02241703471449788
3422.0,0.022406340832912503
3421.0,0.022412856314000782
3420.0,0.02246056308486317
3419.0,0.02253741436585832
3418.0,0.02260869372810678
3417.0,0.022640417963535487
3416.0,0.022619365021726914
3415.0,0.022562168487490007
3414.0,0.022510180257517318
3413.0,0.02251109868952213
3412.0,0.022592011969617846
3411.0,0.022737121885541178
3410.0,0.022888997271660615
3409.0,0.022983168542473516
3408.0,0.022991766856201787
3407.0,0.02293671849152595
3406.0,0.022867887317782384
3405.0,0.022834496574843304
3404.0,0.022865283374901815
3403.0,0.022953542731653807
3402.0,0.023057819265562274
3401.0,0.023130144972984264
3400.0,0.023151463970754915
3399.0,0.02313813220082834
3398.0,0.023120346298270613
3397.0,0.023122447535522138
3396.0,0.02315476140377534
3395.0,0.02320602297844943
3394.0,0.02324154285866709
3393.0,0.02322810885651526
3392.0,0.023174018451551995
3391.0,0.02313320245416182
3390.0,0.023155081312685625
3389.0,0.023234612612536586
3388.0,0.023316563384188627
3387.0,0.023343271736312964
3386.0,0.023300401523379675
3385.0,0.023226922098364463
3384.0,0.02318273879999191
3383.0,0.02319443245071216
3382.0,0.023228052326914782
3381.0,0.023225022220718795
3380.0,0.023169542280027298
3379.0,0.02310765541961265
3378.0,0.023087546229969606
3377.0,0.023096755258777944
3376.0,0.023083004316358322
3375.0,0.0230296126830542
3374.0,0.022979822671325825
3373.0,0.022977523271082892
3372.0,0.023006104440256053
3371.0,0.023007419857292828
3370.0,0.02295444052113557
3369.0,0.022885689923813433
3368.0,0.02286284638104543
3367.0,0.022905712047966736
3366.0,0.022973228439725126
3365.0,0.023000206083265202
3364.0,0.022949897513588682
3363.0,0.022838960936184843
3362.0,0.022721126050962475
3361.0,0.022646521262075073
3360.0,0.02262902911035354
3359.0,0.02264461931381689
3358.0,0.022654558413149034
3357.0,0.022629911863129504
3356.0,0.022566153019481627
3355.0,0.022489355836647577
3354.0,0.02244651071201052
3353.0,0.02247097253579639
3352.0,0.022542611844998766
3351.0,0.02259000692647354
3350.0,0.022550315651183997
3349.0,0.02242850636366327
3348.0,0.022284416146432447
3347.0,0.022163530387314084
3346.0,0.022060287828744342
3345.0,0.021952349723971084
3344.0,0.021846120109098286
3343.0,0.021768653455074373
3342.0,0.021728399364398313
3341.0,0.02170597046883568
3340.0,0.021679321539383907
3339.0,0.02164011456762539
3338.0,0.021586904079508733
3337.0,0.021523415601371745
3336.0,0.021469675410121472
3335.0,0.02145600079460818
3334.0,0.02149137812777089
3333.0,0.0215425113026403
3332.0,0.02155147176391591
3331.0,0.0214770300701779
3330.0,0.021328045069614755
3329.0,0.021165093500157776
3328.0,0.021058984076372807
3327.0,0.02102747748081421
3326.0,0.0210136027840308
3325.0,0.020945314118970153
3324.0,0.020815886991430065
3323.0,0.0206836000858563
3322.0,0.020595639062484777
3321.0,0.02054456020261502
3320.0,0.020507051838009882
3319.0,0.02048931172246456
3318.0,0.020508061922801978
3317.0,0.020549923572862137
3316.0,0.02058025458128936
3315.0,0.020580075820016346
3314.0,0.020546598968654208
3313.0,0.020467609526041996
3312.0,0.020329277929536642
3311.0,0.020153377519644324
3310.0,0.019998283393460697
3309.0,0.01990948671687625
3308.0,0.019883390375220925
3307.0,0.019886161072474248
3306.0,0.019891123738623482
3305.0,0.019888841957099713
3304.0,0.019877326582777955
3303.0,0.01985556591864441
3302.0,0.019818848797033318
3301.0,0.01975484410657781
3300.0,0.019654887066678405
3299.0,0.01953442164309358
3298.0,0.0194303588736538
3297.0,0.01936885940942335
3296.0,0.01934302661620018
3295.0,0.019328514952197322
3294.0,0.019311762452689136
3293.0,0.019293811359481335
3292.0,0.01927462785018327
3291.0,0.019246220765474633
3290.0,0.01919801837853755
3289.0,0.019120232888922038
3288.0,0.019007186741942687
3287.0,0.01886955675063209
3286.0,0.018742462402627755
3285.0,0.018668456694330718
3284.0,0.018663069009862036
3283.0,0.01869841996753023
3282.0,0.018724476669641676
3281.0,0.018704245691148945
3280.0,0.01862824100339336
3279.0,0.018507497957566385
3278.0,0.01836673432872659
3277.0,0.018242124419404857
3276.0,0.018167750334159852
3275.0,0.018147993873136228
3274.0,0.01814476868178868
3273.0,0.018105676050663932
3272.0,0.018013546253748954
3271.0,0.017905520499066623
3270.0,0.017837635161743408
3269.0,0.017829664936308703
3268.0,0.017846651072248823
3267.0,0.017834930081111793
3266.0,0.017775680033163863
3265.0,0.017701730751693606
3264.0,0.01765807393953424
3263.0,0.017646532019556276
3262.0,0.017617113893144794
3261.0,0.017518376687907698
3260.0,0.01735195471987349
3259.0,0.017172918788533824
3258.0,0.017037190771003338
3257.0,0.016954171844556366
3256.0,0.016894246410758696
3255.0,0.016835640508866198
3254.0,0.016791166509331046
3253.0,0.016782306737719622
3252.0,0.01679538901221423
3251.0,0.01678104018917642
3250.0,0.016705570166443723
3249.0,0.01659255563182499
3248.0,0.0165002797981981
3247.0,0.016460731684067906
3246.0,0.016453242302697867
3245.0,0.01643607615691428
3244.0,0.016385286531254647
3243.0,0.016299451227187577
3242.0,0.016189791805504457
3241.0,0.016078889638554153
3240.0,0.015989393538583238
3239.0,0.01591606133876176
3238.0,0.01582319241399411
3237.0,0.01568945001317456
3236.0,0.01554364313511996
3235.0,0.015433734620250713
3234.0,0.015371494609134843
3233.0,0.0153357230044773
3232.0,0.015319915532435648
3231.0,0.01533582578761434
3230.0,0.015363302536328116
3229.0,0.015336236298172344
3228.0,0.015206051866894395
3227.0,0.015001803850041639
3226.0,0.014804251487656503
3225.0,0.014670320561207213
3224.0,0.014599444271453602
3223.0,0.014562730500411531
3222.0,0.01454269103700509
3221.0,0.014539506529318935
3220.0,0.014547457570270511
3219.0,0.014536400373259328
3218.0,0.014468585803498543
3217.0,0.014339773976776812
3216.0,0.014193464979979342
3215.0,0.014079543183290272
3214.0,0.014001266952836145
3213.0,0.013921672800209683
3212.0,0.01382149813631768
3211.0,0.013722466858208462
3210.0,0.013646783304491705
3209.0,0.013583710910554134
3208.0,0.013513069996007073
3207.0,0.01343683702081976
3206.0,0.013363812888716273
3205.0,0.013282366803050416
3204.0,0.013175987981794673
3203.0,0.013055491003726234
3202.0,0.012949960535545967
3201.0,0.012870369650111126
3200.0,0.012804428088061159
3199.0,0.012744669147496683
3198.0,0.012698902175097853
3197.0,0.012669196603520968
3196.0,0.012637951488378114
3195.0,0.012580159224309412
3194.0,0.012480421564603036
3193.0,0.012341409667285811
3192.0,0.012187823773920425
3191.0,0.012056745054467237
3190.0,0.01196815299983104
3189.0,0.011903839112559676
3188.0,0.011825821416318095
3187.0,0.011716977772727849
3186.0,0.011598557800583525
3185.0,0.01150966114751107
3184.0,0.011471996944479921
3183.0,0.011467221441379906
3182.0,0.011442656252392474
3181.0,0.011351482727625928
3180.0,0.011201097214655101
3179.0,0.011052566264684757
3178.0,0.010957992229325354
3177.0,0.010908284407371415
3176.0,0.010857949137385768
3175.0,0.010785131871801832
3174.0,0.010703089167903239
3173.0,0.010625787101635184
3172.0,0.010551080601449896
3171.0,0.010474242513611138
3170.0,0.010392958612737696
3169.0,0.010297670202183744
3168.0,0.010179305285939522
3167.0,0.010049324092629491
3166.0,0.009931442337290156
3165.0,0.009831491655613239
3164.0,0.00973564199499966
3163.0,0.00963876261695806
3162.0,0.009550598606845167
3161.0,0.009470054113993208
3160.0,0.009379592301403228
3159.0,0.009276780520205311
3158.0,0.009190786240016954
3157.0,0.00915034102430073
3156.0,0.009144049269716164
3155.0,0.009125445762416706
3154.0,0.009056080656504002
3153.0,0.008941811748434978
3152.0,0.008831134408770015
3151.0,0.008773496329940844
3150.0,0.008769777300747534
3149.0,0.008768299241104845
3148.0,0.008718176846870315
3147.0,0.008617548900134761
3146.0,0.008498843677369148
3145.0,0.00838454601172903
3144.0,0.008283400229626854
3143.0,0.008214976868203406
3142.0,0.008196559989854007
3141.0,0.008202521248994135
3140.0,0.008171175225882423
3139.0,0.008066960960274256
3138.0,0.007916243864395066
3137.0,0.0077711962108222895
3136.0,0.007661612312842729
3135.0,0.007592891445720626
3134.0,0.007562297492232455
3133.0,0.007556058824832908
3132.0,0.007548521828245879
3131.0,0.007523038852892579
3130.0,0.007481833717865993
3129.0,0.007425091026896731
3128.0,0.007340425812012542
3127.0,0.007228727306478689
3126.0,0.0071182649405824635
3125.0,0.007032057841141477
3124.0,0.0069578918805991395
3123.0,0.006869758884013889
3122.0,0.006767842081296403
3121.0,0.006679685893550214
3120.0,0.006628850177419092
3119.0,0.00661831932396094
3118.0,0.006636773543135932
3117.0,0.006664749375864069
3116.0,0.006680929107932656
3115.0,0.006676125873833004
3114.0,0.006657356265770419
3113.0,0.006629887973860222
3112.0,0.006584809333675455
3111.0,0.006514791331688422
3110.0,0.006430935885496549
3109.0,0.006353551638500926
3108.0,0.00629656063024257
3107.0,0.006269089633584331
3106.0,0.006276672181028066
3105.0,0.006304838120147017
3104.0,0.006314849671724302
3103.0,0.006274126250614873
3102.0,0.006184900984864357
3101.0,0.006074525847827759
3100.0,0.005966847536905295
3099.0,0.005877163790960488
3098.0,0.005826147465100912
3097.0,0.005831866600036351
3096.0,0.005882071156123356
3095.0,0.005929560149994208
3094.0,0.0059264447014789525
3093.0,0.005861850149750147
3092.0,0.005765632982151221
3091.0,0.005681369344308377
3090.0,0.005635633402816615
3089.0,0.0056267405754989236
3088.0,0.0056362283668147176
3087.0,0.0056464110510980004
3086.0,0.00564628584868412
3085.0,0.005628215229350823
3084.0,0.005589500000933397
3083.0,0.00553609039460777
3082.0,0.005478629037298248
3081.0,0.0054270459001785004
3080.0,0.005392923730934371
3079.0,0.005387919965384162
3078.0,0.005406036721859667
3077.0,0.005415869689196054
3076.0,0.005388542929102064
3075.0,0.005332739782880116
3074.0,0.005284606240681902
3073.0,0.005261737493070525
3072.0,0.005248449802593578
3071.0,0.0052258459947459495
3070.0,0.005194238317986341
3069.0,0.00516003984116556
3068.0,0.005122756852061276
3067.0,0.0050890480261534705
3066.0,0.005078876676394389
3065.0,0.005102667543136307
3064.0,0.005145244598789214
3063.0,0.0051846723725890095
3062.0,0.005212451029144678
3061.0,0.005222426504108796
3060.0,0.005197300874238054
3059.0,0.005123363319839455
3058.0,0.005011686616388062
3057.0,0.004890487066004927
3056.0,0.004783971729563232
3055.0,0.004707955165763217
3054.0,0.004671781474084122
3053.0,0.00466686768524051
3052.0,0.004662579727144486
3051.0,0.004635190833680832
3050.0,0.00459829150295808
3049.0,0.004589553438511798
3048.0,0.00462483533030705
3047.0,0.004679437574825559
3046.0,0.004716967453595395
3045.0,0.004721631403830054
3044.0,0.0047010262007770864
3043.0,0.004668581724109666
3042.0,0.0046320912777333845
3041.0,0.0045969551203527345
3040.0,0.004573514503337535
3039.0,0.004576929438586506
3038.0,0.004613061309674214
3037.0,0.004664555460889326
3036.0,0.004699517792921619
3035.0,0.004697860649738126
3034.0,0.004666781244860233
3033.0,0.0046280571170596195
3032.0,0.004596653288516731
3031.0,0.0045748758119803015
3030.0,0.004556831998175717
3029.0,0.004533412214059694
3028.0,0.004501483605813969
3027.0,0.004473772213363298
3026.0,0.004471962504952097
3025.0,0.0045011347061618785
3024.0,0.004539436169118603
3023.0,0.004561250560617647
3022.0,0.004561045908764594
3021.0,0.0045484707906210415
3020.0,0.004531477229399316
3019.0,0.004515528621748718
3018.0,0.004508833569853646
3017.0,0.004513290266380563
3016.0,0.004515117045627144
3015.0,0.004499247263657793
3014.0,0.004471635740836485
3013.0,0.004456312349204663
3012.0,0.004468421516923987
3011.0,0.004498138198750792
3010.0,0.004523218903576917
3009.0,0.00453060150443306
3008.0,0.004525703831772662
3007.0,0.004524266265008409
3006.0,0.004537743877256099
3005.0,0.004566343891358297
3004.0,0.004605358218826918
3003.0,0.004652866532355045
3002.0,0.004702824637450431
3001.0,0.004735489712923837
3000.0,0.004731134361181888
2999.0,0.004698646227785035
2998.0,0.004678868331692506
2997.0,0.004711515001017239
2996.0,0.004803266118795439
2995.0,0.004931818273901557
2994.0,0.005068788428926607
2993.0,0.005191862742172636
2992.0,0.005290257888579327
2991.0,0.005372908076957197
2990.0,0.005467016245850721
2989.0,0.005594910318465576
2988.0,0.005751610391124853
2987.0,0.005912779191827352
2986.0,0.006060824445033183
2985.0,0.006197991821182197
2984.0,0.00634024151943468
2983.0,0.006509743937613297
2982.0,0.006729278067994879
2981.0,0.007008179305630022
2980.0,0.007330932501783311
2979.0,0.007668046458691562
2978.0,0.008005779892662705
2977.0,0.00836397875783888
2976.0,0.008781974875743115
2975.0,0.009285872569988357
2974.0,0.009865197074684274
2973.0,0.010481338967401251
2972.0,0.011101130458015418
2971.0,0.011725292261025616
2970.0,0.012383665455899128
2969.0,0.01310610250302688
2968.0,0.01390033923630967
2967.0,0.014748743720599386
2966.0,0.015616378834684603
2965.0,0.016464162140106743
2964.0,0.017270134881350988
2963.0,0.018042286589978772
2962.0,0.018801673479986465
2961.0,0.01955155200391809
2960.0,0.020270653097878007
2959.0,0.020936949997649317
2958.0,0.021542896930478894
2957.0,0.022083171970454146
2956.0,0.022543644504562928
2955.0,0.022918060879634064
2954.0,0.023232634392679044
2953.0,0.023541353972411177
2952.0,0.02389516029223159
2951.0,0.024321596716572077
2950.0,0.02483854873431599
2949.0,0.025486633570894174
2948.0,0.026343850096268728
2947.0,0.02749995085882074
2946.0,0.02901117972924019
2945.0,0.030884411982150424
2944.0,0.03310665844550473
2943.0,0.035676760220818074
2942.0,0.03860064015767646
2941.0,0.041870544750743886
2940.0,0.04547214017037555
2939.0,0.049408292338764204
2938.0,0.05369549991164877
2937.0,0.058339390030097305
2936.0,0.0633415120987951
2935.0,0.0687297823798361
2934.0,0.07455605119459825
2933.0,0.08085913560088663
2932.0,0.08765039116240478
2931.0,0.09495000787543084
2930.0,0.10282163790736122
2929.0,0.11136411779817819
2928.0,0.12067665461821923
2927.0,0.13083333977115888
2926.0,0.14188350024545104
2925.0,0.1538800553254641
2924.0,0.16689795050050932
2923.0,0.1809867563195288
2922.0,0.19608825091293833
2921.0,0.21197960014638795
2920.0,0.22823292269433212
2919.0,0.24408248274636404
2918.0,0.2582193475894691
2917.0,0.2688739128938807
2916.0,0.27434085026723465
2915.0,0.27365161057998033
2914.0,0.2669581677570612
2913.0,0.25547006180803467
2912.0,0.24099044765237723
2911.0,0.2252804908967795
2910.0,0.20967291982074632
2909.0,0.1949797302292775
2908.0,0.18160750588667696
2907.0,0.16968803985330044
2906.0,0.159192541035859
2905.0,0.15003109636606177
2904.0,0.14207886941204972
2903.0,0.13517747545917472
2902.0,0.1291214754670568
2901.0,0.12369066172654325
2900.0,0.11870867509103833
2899.0,0.11405515856119519
2898.0,0.10965604050654142
2897.0,0.1054634962171514
2896.0,0.10142926797138781
2895.0,0.097490665311701
2894.0,0.09359185728091815
2893.0,0.08971939097288034
2892.0,0.08589258811991948
2891.0,0.0821123961890067
2890.0,0.07834139761064782
2889.0,0.07456135168991995
2888.0,0.07083110039607916
2887.0,0.0672585524495022
2886.0,0.06391809932561354
2885.0,0.060804563940818505
2884.0,0.05787062064072336
2883.0,0.055086907761348176
2882.0,0.05246648091750954
2881.0,0.050045418031917456
2880.0,0.047852482030272564
2879.0,0.04589817343886305
2878.0,0.04417857724140778
2877.0,0.042691613681383564
2876.0,0.04145085299990789
2875.0,0.04048298832098885
2874.0,0.03979845592923549
2873.0,0.039360414550936
2872.0,0.03909279846031644
2871.0,0.03893206387772561
2870.0,0.038880976534564876
2869.0,0.03901484189221978
2868.0,0.0394488733154187
2867.0,0.04029536237248024
2866.0,0.041646446725999715
2865.0,0.04357807157674588
2864.0,0.04616442070271933
2863.0,0.049493576972689454
2862.0,0.05367255078971514
2861.0,0.058832601517206595
2860.0,0.06513344814015366
2859.0,0.07276946463517463
2858.0,0.08196882265756499
2857.0,0.09299232372002407
2856.0,0.10613987339902757
2855.0,0.12171227143398755
2854.0,0.13987820239125284
2853.0,0.16044827189015848
2852.0,0.1825194224696799
2851.0,0.20403717283958445
2850.0,0.22157226550113013
2849.0,0.2310116719542531
2848.0,0.22948167523505683
2847.0,0.2171464644744996
2846.0,0.1970465521304893
2845.0,0.1732602679057965
2844.0,0.14919399340824294
2843.0,0.12691193480234048
2842.0,0.10734550708149203
2841.0,0.09074928543616904
2840.0,0.07702075414994429
2839.0,0.0658791968086458
2838.0,0.056938002753854904
2837.0,0.049772951192612706
2836.0,0.04399092204960928
2835.0,0.039272031743938764
2834.0,0.035381990014481564
2833.0,0.03215586286231058
2832.0,0.02946256461683483
2831.0,0.02718714543450135
2830.0,0.025233754031680933
2829.0,0.023531091934102643
2828.0,0.02203793569947806
2827.0,0.020732454561352632
2826.0,0.019598112282769534
2825.0,0.018608557038025452
2824.0,0.017728761464677795
2823.0,0.016930345824807343
2822.0,0.01620087667577359
2821.0,0.015533525977419076
2820.0,0.0149142378022581
2819.0,0.014327540766622184
2818.0,0.013770740131230724
2817.0,0.013253953600417109
2816.0,0.01278472180629031
2815.0,0.01235719124780593
2814.0,0.011956410903093889
2813.0,0.011570339566353387
2812.0,0.011199133842673509
2811.0,0.010856889518014732
2810.0,0.010560263584551904
2809.0,0.0103083072687252
2808.0,0.010075933104883113
2807.0,0.009831506934103324
2806.0,0.009560271167469624
2805.0,0.00927110225139133
2804.0,0.008985567889370931
2803.0,0.008724531974561342
2802.0,0.008497894840526482
2801.0,0.008297765988043288
2800.0,0.00810531092925314
2799.0,0.007910977103226531
2798.0,0.007724830394897089
2797.0,0.007561802242442279
2796.0,0.007419480551087425
2795.0,0.007277015382626522
2794.0,0.007114487169803772
2793.0,0.006928082487206217
2792.0,0.006730387483311374
2791.0,0.006542489239810622
2790.0,0.0063804691222795916
2789.0,0.006240991293150284
2788.0,0.006102533148794057
2787.0,0.005947544545324628
2786.0,0.005781117760161522
2785.0,0.005622170840303694
2784.0,0.005479073343212031
2783.0,0.005342426051259893
2782.0,0.005201951978774571
2781.0,0.005061411518411606
2780.0,0.0049338962830662424
2779.0,0.004827102348929661
2778.0,0.004735742515903926
2777.0,0.004645774355228742
2776.0,0.004545629258853862
2775.0,0.004436813105216314
2774.0,0.004333521197083483
2773.0,0.004250650990284181
2772.0,0.004192651927162948
2771.0,0.004152099198941774
2770.0,0.004115422034745671
2769.0,0.004071361845771201
2768.0,0.004018799261610262
2767.0,0.003967657168511511
2766.0,0.003928241038432388
2765.0,0.0038990179080095498
2764.0,0.003869709518432976
2763.0,0.0038344559165683374
2762.0,0.003793523813892195
2761.0,0.003742288226748515
2760.0,0.003671499334911961
2759.0,0.003584084812284582
2758.0,0.0035007902449165863
2757.0,0.003441664376774088
2756.0,0.0034085344233126397
2755.0,0.0033906595084417807
2754.0,0.0033799580202296215
2753.0,0.003372846362483733
2752.0,0.0033638144948760764
2751.0,0.0033461069160201284
2750.0,0.003316685030407149
2749.0,0.0032778573853741327
2748.0,0.0032388700818561907
2747.0,0.003215805851663835
2746.0,0.0032195419769591766
2745.0,0.003241795599135541
2744.0,0.0032641224934104557
2743.0,0.003283174600891804
2742.0,0.003312683929497047
2741.0,0.0033544975915105694
2740.0,0.003384165951088345
2739.0,0.003378101287072048
2738.0,0.0033405956632097523
2737.0,0.00329084413614707
2736.0,0.0032380185567237926
2735.0,0.003185584796755601
2734.0,0.0031483603547827078
2733.0,0.003141256073493179
2732.0,0.003152799471109545
2731.0,0.00315112698292678
2730.0,0.0031197157968464438
2729.0,0.0030725332111754436
2728.0,0.0030318572446500157
2727.0,0.003004866415730745
2726.0,0.0029841663432786636
2725.0,0.002959600414768207
2724.0,0.002924244255040102
2723.0,0.00287722635336963
2722.0,0.0028258968249408154
2721.0,0.0027818961118672037
2720.0,0.0027532940824778083
2719.0,0.002741499193110643
2718.0,0.0027415130450964475
2717.0,0.00274111742306257
2716.0,0.002726157791481399
2715.0,0.00269434548352499
2714.0,0.002659528132143488
2713.0,0.002634644119652906
2712.0,0.0026152319194625243
2711.0,0.002587988684554343
2710.0,0.0025520031858387244
2709.0,0.002521143435724145
2708.0,0.0025065461150917236
2707.0,0.0025048825088207754
2706.0,0.002503427876148226
2705.0,0.002491630917512083
2704.0,0.0024696279155008776
2703.0,0.0024501201974117905
2702.0,0.00244757824828486
2701.0,0.0024599865939872114
2700.0,0.0024666432086243527
2699.0,0.0024500994929627534
2698.0,0.002414723587132216
2697.0,0.0023775448191807706
2696.0,0.0023495337704896174
2695.0,0.0023345265293179774
2694.0,0.002337003307351249
2693.0,0.0023571507994236606
2692.0,0.002383278516692442
2691.0,0.0024026650378773814
2690.0,0.0024164239653815915
2689.0,0.0024320849471365286
2688.0,0.0024465445658603084
2687.0,0.002451528191620544
2686.0,0.0024542846677619856
2685.0,0.0024749200336583012
2684.0,0.002518891203335616
2683.0,0.0025655042431572874
2682.0,0.002591281847620621
2681.0,0.0025962391265670084
2680.0,0.002600498767157444
2679.0,0.002620009442574335
2678.0,0.002650866639036942
2677.0,0.0026767013372363583
2676.0,0.002688791265914358
2675.0,0.0026969066843483243
2674.0,0.002716713337966787
2673.0,0.0027467687330608994
2672.0,0.0027664313685314777
2671.0,0.002760918551191399
2670.0,0.0027396483443020577
2669.0,0.00272310909033051
2668.0,0.002720496221961186
2667.0,0.0027308312306794985
2666.0,0.002756797738455531
2665.0,0.0028009127002799525
2664.0,0.0028512734913817856
2663.0,0.00288609192807019
2662.0,0.0028948637186796532
2661.0,0.002884770711787685
2660.0,0.0028664917821844614
2659.0,0.002845775010985296
2658.0,0.002829479192634262
2657.0,0.0028272989100142014
2656.0,0.0028410026039062735
2655.0,0.002859819538985782
2654.0,0.002869990720915059
2653.0,0.0028646413625543934
2652.0,0.002845079151397346
2651.0,0.0028196698358117153
2650.0,0.0028010851478988325
2649.0,0.002795817332892167
2648.0,0.002796211308957802
2647.0,0.0027908457679313215
2646.0,0.002780786107719289
2645.0,0.0027745754939937375
2644.0,0.002767033366844527
2643.0,0.0027372627093901285
2642.0,0.002674217605793323
2641.0,0.0025947832500591295
2640.0,0.002530200565276528
2639.0,0.00249842060697445
2638.0,0.0024929192297306313
2637.0,0.0024930419571788445
2636.0,0.0024820796557523516
2635.0,0.0024601815509829434
2634.0,0.002440693394417253
2633.0,0.0024308116410209422
2632.0,0.002417955116542345
2631.0,0.002381503192694061
2630.0,0.0023165760331654256
2629.0,0.0022397183792207914
2628.0,0.0021722291751749196
2627.0,0.0021245708620186046
2626.0,0.002093499014611708
2625.0,0.002064301022804811
2624.0,0.002018283746777606
2623.0,0.0019492157097249618
2622.0,0.0018732306064542024
2621.0,0.0018133806036977397
2620.0,0.001773791653409924
2619.0,0.001738399874349165
2618.0,0.0016936751632660534
2617.0,0.0016415097012668352
2616.0,0.0015899559810652205
2615.0,0.0015436687124410669
2614.0,0.0015054172305907216
2613.0,0.0014747109236310113
2612.0,0.0014420535951322018
2611.0,0.0013964857432326484
2610.0,0.001344198030731375
2609.0,0.0013087989220312648
2608.0,0.001305012484546768
2607.0,0.0013192488953276537
2606.0,0.0013231091179807888
2605.0,0.0013015856651101415
2604.0,0.0012629530222457478
2603.0,0.001224205773831743
2602.0,0.0011929805538458238
2601.0,0.001163674814249949
2600.0,0.0011290614507140305
2599.0,0.0010943237771747205
2598.0,0.0010775070060738356
2597.0,0.0010930758545438031
2596.0,0.0011334049559940298
2595.0,0.0011669983189691194
2594.0,0.0011569303166002176
2593.0,0.0010879929171929087
2592.0,0.00098339984276604
2591.0,0.000889316180692208
2590.0,0.0008326209579573329
2589.0,0.0007966948737249239
2588.0,0.0007505684515207679
2587.0,0.0006968484365983451
2586.0,0.0006674475263055129
2585.0,0.0006708475881198126
2584.0,0.0006726111886749639
2583.0,0.0006426094378091654
2582.0,0.0005961037961589003
2581.0,0.0005652674404625386
2580.0,0.0005504141639262728
2579.0,0.000527665160047106
2578.0,0.0004907295572441024
2577.0,0.00045532887917389695
2576.0,0.0004280611705606372
2575.0,0.00040011590267555045
2574.0,0.0003719923831403873
2573.0,0.00035824280370879043
2572.0,0.000361844359448235
2571.0,0.00036356226282502704
2570.0,0.00034324470524314864
2569.0,0.00029982707138378713
2568.0,0.0002508325772019777
2567.0,0.00022379216913315854
2566.0,0.0002412746987358978
2565.0,0.0002949677867506203
2564.0,0.00033755050175903216
2563.0,0.00032301146036856814
2562.0,0.0002590066397700423
2561.0,0.00019918711083684662
2560.0,0.000178261963960753
2559.0,0.00017531944220663238
2558.0,0.00015170035877304963
2557.0,0.00010775772473919606
2556.0,8.494746977796819e-05
2555.0,0.00011524548914190389
2554.0,0.00018004188380019647
2553.0,0.0002227113828307841
2552.0,0.0002003868768426615
2551.0,0.0001231012849887503
2550.0,4.132919052116655e-05
2549.0,-4.191937367647384e-06
2548.0,-1.426864757289283e-05
2547.0,-1.3423386442974067e-05
2546.0,-1.4827390159489757e-05
2545.0,-1.3907442600173106e-05
2544.0,-6.883457039261317e-06
2543.0,-1.6374869539991215e-07
2542.0,-2.1523241344292062e-06
2541.0,-1.529023596547204e-05
2540.0,-3.603099892981023e-05
2539.0,-5.671945744740661e-05
2538.0,-6.907459964909055e-05
2537.0,-6.979818170737851e-05
2536.0,-6.094012760460109e-05
2535.0,-4.564747938728687e-05
2534.0,-3.046826833482118e-05
2533.0,-2.8781520260948927e-05
2532.0,-4.821202809369773e-05
2531.0,-7.542990278972542e-05
2530.0,-9.101065126946748e-05
2529.0,-0.0001006416862194858
2528.0,-0.00012922059893444082
2527.0,-0.00017848661147753668
2526.0,-0.0002167193030707897
2525.0,-0.0002214176456712985
2524.0,-0.00020491761629957007
2523.0,-0.0001829195990932883
2522.0,-0.0001485392246818622
2521.0,-0.00010207870735132228
2520.0,-7.791400612808361e-05
2519.0,-0.00010603108482631543
2518.0,-0.00016366168284971672
2517.0,-0.0001994086240317734
2516.0,-0.00019468644838342475
2515.0,-0.00017040074466728088
2514.0,-0.00014469177792299071
2513.0,-0.00011897374775422147
2512.0,-0.00010038478527603668
2511.0,-0.0001046782860382056
2510.0,-0.00013486660446125897
2509.0,-0.00018018260542693802
2508.0,-0.00023202709088760185
2507.0,-0.0002774278146644056
2506.0,-0.0002876695664166292
2505.0,-0.0002485507185748845
2504.0,-0.00019904311230657746
2503.0,-0.00020193474107903169
2502.0,-0.0002680566919078482
2501.0,-0.0003394064290766151
2500.0,-0.00035713200669157397
2499.0,-0.00032148397343146755
2498.0,-0.00027501933365855846
2497.0,-0.0002505035784501557
2496.0,-0.0002476403500784858
2495.0,-0.0002437153452264823
2494.0,-0.00021745762163754445
2493.0,-0.0001751035980030735
2492.0,-0.00015496626002842783
2491.0,-0.00018961319757029654
2490.0,-0.0002636701344109976
2489.0,-0.0003297028789235695
2488.0,-0.0003660465691810586
2487.0,-0.0003918273874749131
2486.0,-0.0004185965416685946
2485.0,-0.0004192436683699863
2484.0,-0.00036670047789748403
2483.0,-0.00028345143623094784
2482.0,-0.0002269616662861572
2481.0,-0.00023057305149454715
2480.0,-0.00027378252943053736
2479.0,-0.0003084672341828208
2478.0,-0.00030486906157855333
2477.0,-0.00027513146065754707
2476.0,-0.0002594437776859733
2475.0,-0.0002865417173110285
2474.0,-0.0003436823279444923
2473.0,-0.00038853526535868475
2472.0,-0.00039158914795388576
2471.0,-0.000360472213383218
2470.0,-0.00032261950334349645
2469.0,-0.0002967651365602925
2468.0,-0.0002885299949899642
2467.0,-0.0003024313324361445
2466.0,-0.00034105541623705805
2465.0,-0.00038909277828606706
2464.0,-0.00041037303229255693
2463.0,-0.000374913799304895
2462.0,-0.00029317169328814017
2461.0,-0.00021598963869378106
2460.0,-0.00019017600876594765
2459.0,-0.00021396120487842863
2458.0,-0.00024383326734321066
2457.0,-0.00024393799961280925
2456.0,-0.0002189463395386051
2455.0,-0.0001983800823818141
2454.0,-0.00020217150002787331
2453.0,-0.0002266680328767688
2452.0,-0.00025196050495768896
2451.0,-0.00025616234064060637
2450.0,-0.00023411593055443214
2449.0,-0.00020978772087298513
2448.0,-0.00021868554707296406
2447.0,-0.00026954600887149464
2446.0,-0.00033370357171792883
2445.0,-0.0003779933796063456
2444.0,-0.0003947876418625005
2443.0,-0.00039372690861684415
2442.0,-0.0003830531301715716
2441.0,-0.00037278797508721927
2440.0,-0.0003788289215731888
2439.0,-0.00040496890286748587
2438.0,-0.0004318179219288869
2437.0,-0.0004394401224339114
2436.0,-0.00043057779873880087
2435.0,-0.0004176590155927945
2434.0,-0.00040097892044176086
2433.0,-0.00037708612578716617
2432.0,-0.0003547384730439682
2431.0,-0.0003420206580741414
2430.0,-0.00032979029821420534
2429.0,-0.0003103619090642412
2428.0,-0.0003023886696578129
2427.0,-0.00033158680761811044
2426.0,-0.0003907411861381953
2425.0,-0.0004417688253823937
2424.0,-0.00045701075973954893
2423.0,-0.00044049519934112423
2422.0,-0.0004112441073130151
2421.0,-0.00038501778528901164
2420.0,-0.00037125032174183836
2419.0,-0.00036973724883177515
2418.0,-0.00036875237208008183
2417.0,-0.00035879941854012896
2416.0,-0.00034665230423518124
2415.0,-0.0003447983858463688
2414.0,-0.0003518810275898374
2413.0,-0.00035635515089928795
2412.0,-0.0003539700520580822
2411.0,-0.00034872005376471963
2410.0,-0.00034440286217874094
2409.0,-0.0003506011569977275
2408.0,-0.00038733660672946393
2407.0,-0.0004625531768936721
2406.0,-0.0005490397644191485
2405.0,-0.0006030763378661529
2404.0,-0.0006050098212847974
2403.0,-0.0005684092824047946
2402.0,-0.0005172296763438729
2401.0,-0.00047206460695452355
2400.0,-0.00045130676632171296
2399.0,-0.0004611511312969735
2398.0,-0.0004831099925832976
2397.0,-0.0004909510712813709
2396.0,-0.00048101934531649926
2395.0,-0.00046753687301244186
2394.0,-0.00044969119214947884
2393.0,-0.00040808674020736187
2392.0,-0.0003404601928278255
2391.0,-0.0002797678214141178
2390.0,-0.0002630380936971377
2389.0,-0.0002923918884073337
2388.0,-0.0003376176730864859
2387.0,-0.00037016390197703143
2386.0,-0.00038488256894863703
2385.0,-0.00039301360332077203
2384.0,-0.000403634935040055
2383.0,-0.00041476283623589146
2382.0,-0.0004213846912772694
2381.0,-0.00042841854242784826
2380.0,-0.00044619285463820324
2379.0,-0.0004677969828376348
2378.0,-0.0004642888692162441
2377.0,-0.00042114330423996614
2376.0,-0.0003728917607265641
2375.0,-0.00037486791928365015
2374.0,-0.0004337675871226727
2373.0,-0.0004902754153609961
2372.0,-0.0004857872333154969
2371.0,-0.00043138846846475787
2370.0,-0.00040073538194007163
2369.0,-0.0004659138333835303
2368.0,-0.000627360611938205
2367.0,-0.0007771195842114664
2366.0,-0.0007539146572074404
2365.0,-0.000496053375106173
2364.0,-0.00013505477466927606
2363.0,0.0001301425561980792
2362.0,0.00023004267248287827
2361.0,0.00021642931784223536
2360.0,0.0001223533345919936
2359.0,-3.5143271695816384e-05
2358.0,-0.00017234621083481082
2357.0,-0.00020427373760965238
2356.0,-0.00016793768256859564
2355.0,-0.0001472636619947254
2354.0,-0.00013165819340901774
2353.0,-8.012867566370758e-05
2352.0,-4.1605581000857755e-05
2351.0,-0.00010683830968461828
2350.0,-0.0002974684921315029
2349.0,-0.0005671722017727104
2348.0,-0.000828574627779104
2347.0,-0.0009406223954599008
2346.0,-0.0007798267017730896
2345.0,-0.0003787166455695967
2344.0,6.140934362499807e-05
2343.0,0.0003675546290684927
2342.0,0.0005144115381923223
2341.0,0.0005429021987060275
2340.0,0.0005138287190498348
2339.0,0.000514054545510513
2338.0,0.000607283752795415
2337.0,0.0007488311657687935
2336.0,0.0008211025203472882
2335.0,0.0007818047793118788
2334.0,0.0007206022111889956
2333.0,0.0007417442070600052
2332.0,0.0008558945250596577
2331.0,0.001015372740996993
2330.0,0.0012126535507518126
2329.0,0.001468641755365838
2328.0,0.0017542431327754872
2327.0,0.002010829892197762
2326.0,0.0022038952862263126
2325.0,0.00232313353884811
2324.0,0.0023425879993246856
2323.0,0.0022377642010088464
2322.0,0.0020465462871043258
2321.0,0.0018579211133494975
2320.0,0.0017398060289906736
2319.0,0.0016953339005190448
2318.0,0.00168676082403348
2317.0,0.0016590913019677875
2316.0,0.001559525594530456
2315.0,0.0013755682969709654
2314.0,0.0011628442449231155
2313.0,0.001007474973665106
2312.0,0.0009495167173874481
2311.0,0.0009600566436690819
2310.0,0.0009879148944353805
2309.0,0.0010066984891617206
2308.0,0.0010111795259540957
2307.0,0.001000968781570118
2306.0,0.0009752323329919222
2305.0,0.000934164716183825
2304.0,0.0008807252544053453
2303.0,0.0008252099198587114
2302.0,0.0007838580021160486
2301.0,0.0007658699356674541
2300.0,0.0007678880156696988
2299.0,0.0007856631695232093
2298.0,0.000817645993294972
2297.0,0.0008521597985071039
2296.0,0.0008698228830335401
2295.0,0.000876886477371151
2294.0,0.0009105258422309587
2293.0,0.0009909654713724867
2292.0,0.001081058135298841
2291.0,0.001126302408655592
2290.0,0.0011220494484998995
2289.0,0.0011128140609791056
2288.0,0.0011273827063121719
2287.0,0.0011458877859145313
2286.0,0.0011342678628941238
2285.0,0.001081390863113649
2284.0,0.000995456878212154
2283.0,0.0008890106512477272
2282.0,0.0007835408341025316
2281.0,0.0007102842685136946
2280.0,0.0006894946550152126
2279.0,0.0007089836878219511
2278.0,0.0007257866049611469
2277.0,0.0006879907237193687
2276.0,0.0005686168846480757
2275.0,0.0003985130573786452
2274.0,0.0002550700687846502
2273.0,0.000195995731039225
2272.0,0.00020276758616665712
2271.0,0.00021335064857988745
2270.0,0.00020247066339052042
2269.0,0.00020008961918847418
2268.0,0.00023008166954519195
2267.0,0.00026767736844828145
2266.0,0.0002736784004425886
2265.0,0.00024824431250210194
2264.0,0.0002294745900905646
2263.0,0.0002526032512492664
2262.0,0.0003257242552748568
2261.0,0.00043661149257885666
2260.0,0.0005590507431045566
2259.0,0.0006462351629417274
2258.0,0.0006345096363420675
2257.0,0.0004884628741065346
2256.0,0.0002585593288024213
2255.0,7.024731704720482e-05
2254.0,1.8364897356105807e-05
2253.0,7.715507888427631e-05
2252.0,0.0001372184691411793
2251.0,0.00013087692521907807
2250.0,8.200127722632344e-05
2249.0,3.8696019367400814e-05
2248.0,8.574015710084644e-06
2247.0,-1.6734287701056276e-05
2246.0,-1.886577892324603e-05
2245.0,2.5627229276239667e-05
2244.0,0.00010469373974646335
2243.0,0.0001811440371930446
2242.0,0.00022250174460868168
2241.0,0.0002004098222154918
2240.0,9.712852558232843e-05
2239.0,-5.353747706319567e-05
2238.0,-0.00015498849127906889
2237.0,-0.00011867854439472281
2236.0,5.297280256513591e-05
2235.0,0.0002709316013829846
2234.0,0.00043079893876861713
2233.0,0.00047439748478641424
2232.0,0.00041813469150778996
2231.0,0.00034163025140844164
2230.0,0.0003179973199018188
2229.0,0.0003408458892592549
2228.0,0.00033959804872290287
2227.0,0.000271264053735246
2226.0,0.00015489265710177946
2225.0,1.933188201215657e-05
2224.0,-0.0001207425764325576
2223.0,-0.0002256152093429761
2222.0,-0.00024046762227805684
2221.0,-0.0001778259641056704
2220.0,-0.00011803087720120065
2219.0,-9.600698506369377e-05
2218.0,-6.671588354328816e-05
2217.0,-2.109876831761587e-05
2216.0,-3.24595419666398e-05
2215.0,-0.00012192367716266472
2214.0,-0.00018183471564296383
2213.0,-0.00013157290468654182
2212.0,-6.552693067781145e-05
2211.0,-0.00012126619073838386
2210.0,-0.0002639182337418433
2209.0,-0.0003358900121046746
2208.0,-0.0002875955995853183
2207.0,-0.00022559756408904852
2206.0,-0.0002312920529169531
2205.0,-0.00025932695963077956
2204.0,-0.00023289671732133012
2203.0,-0.00014205951292926378
2202.0,-2.7522972535282797e-05
2201.0,5.66492038446445e-05
2200.0,5.4292155673529854e-05
2199.0,-4.92542304009842e-05
2198.0,-0.00018106216029477573
2197.0,-0.0002392031194074532
2196.0,-0.0002118588301015678
2195.0,-0.0001806077376778681
2194.0,-0.00020305926103441528
2193.0,-0.00024460818037107886
2192.0,-0.0002238184110164423
2191.0,-8.524831309329217e-05
2190.0,0.00016210438216285872
2189.0,0.0004328772614732668
2188.0,0.0006118130158626575
2187.0,0.0006539717519695601
2186.0,0.0006037450093444508
2185.0,0.00047496546768957895
2184.0,0.00018574241852171313
2183.0,-0.00029802366250069955
2182.0,-0.0007984962666115271
2181.0,-0.0010280632745110743
2180.0,-0.000878882588955967
2179.0,-0.0005119221674558546
2178.0,-0.0001805949238831619
2177.0,-3.3670798076682276e-05
2176.0,-4.770784818200546e-05
2175.0,-8.374283079232437e-05
2174.0,-1.4692964637466943e-05
2173.0,0.00015163257430957344
2172.0,0.0002883189444540424
2171.0,0.00031911225882173366
2170.0,0.0003177470492741652
2169.0,0.00039108271689425875
2168.0,0.0005218097662890417
2167.0,0.0006142022334221844
2166.0,0.0006570465082711363
2165.0,0.000742784627789056
2164.0,0.0009307440305663237
2163.0,0.0011551256636173153
2162.0,0.0012290591133503998
2161.0,0.0008979781726593358
2160.0,2.850987102745117e-05
2159.0,-0.0011221435266395182
2158.0,-0.001999917935655669
2157.0,-0.0022629100483233045
2156.0,-0.002066917146181128
2155.0,-0.0017782966905034614
2154.0,-0.0015882821359375881
2153.0,-0.0014913935235685435
2152.0,-0.0014570232728327772
2151.0,-0.0014761970654809985
2150.0,-0.0014849351831000112
2149.0,-0.0014040502952813393
2148.0,-0.0012593959949036653
2147.0,-0.0011568940492819862
2146.0,-0.0011449870640893025
2145.0,-0.0011850478235024664
2144.0,-0.0012390900401811362
2143.0,-0.001292875411726695
2142.0,-0.001302772149795085
2141.0,-0.0012113462113492739
2140.0,-0.0010355925963936796
2139.0,-0.0008771221197623901
2138.0,-0.0008407275396266563
2137.0,-0.0009745892823643596
2136.0,-0.0012549312564635305
2135.0,-0.0015763706864780076
2134.0,-0.0017849624264502683
2133.0,-0.0017909981739847446
2132.0,-0.0016453097908740585
2131.0,-0.0014653957671135938
2130.0,-0.0013100828903042194
2129.0,-0.0011768010091012752
2128.0,-0.0010793521108643648
2127.0,-0.0010568845920351858
2126.0,-0.0011068661540735824
2125.0,-0.0011679891335476117
2124.0,-0.0011847624779110534
2123.0,-0.0011475947196082617
2122.0,-0.0010600334294259722
2121.0,-0.0009106731975878827
2120.0,-0.0007013332627744595
2119.0,-0.00047126693809860197
2118.0,-0.0002728937381183947
2117.0,-0.00013478824618497586
2116.0,-5.970017611221623e-05
2115.0,-4.5321848518821987e-05
2114.0,-8.795591312444285e-05
2113.0,-0.00016387706594775587
2112.0,-0.00022324493113755307
2111.0,-0.00022570592164343394
2110.0,-0.00018527231780514851
2109.0,-0.00016135827795321232
2108.0,-0.00018534057474928157
2107.0,-0.00021716656388005883
2106.0,-0.00020544464463926725
2105.0,-0.00016907457039481543
2104.0,-0.00016617437168102978
2103.0,-0.00019687939633935392
2102.0,-0.00020592283172125292
2101.0,-0.00018984098711659193
2100.0,-0.00022083134315585838
2099.0,-0.00033294449441548246
2098.0,-0.0004564613571073521
2097.0,-0.0005172228280546092
2096.0,-0.0005404191658726937
2095.0,-0.0005914993088817172
2094.0,-0.0006618277344074296
2093.0,-0.0006851747203866689
2092.0,-0.0006395678785792112
2091.0,-0.0005713840049964903
2090.0,-0.0005343509575373273
2089.0,-0.0005417902803201112
2088.0,-0.0005620689660317497
2087.0,-0.0005345124171993252
2086.0,-0.00041645236269084273
2085.0,-0.0002471957021478616
2084.0,-0.00013306007414476095
2083.0,-0.00013693515341318502
2082.0,-0.0002121280872599498
2081.0,-0.00027309973543690447
2080.0,-0.00028512619808916727
2079.0,-0.0002552860799558365
2078.0,-0.0001883822960370558
2077.0,-0.00011000578240750047
2076.0,-8.611753173842662e-05
2075.0,-0.00014995302641996195
2074.0,-0.00024164195892914032
2073.0,-0.00027806575145804377
2072.0,-0.0002566855235776053
2071.0,-0.00023908473261693376
2070.0,-0.0002565151682599687
2069.0,-0.0002893135865128662
2068.0,-0.00031027220524330667
2067.0,-0.0002994567391876693
2066.0,-0.00024521336684693763
2065.0,-0.0001763567668524188
2064.0,-0.00015760923398562012
2063.0,-0.0002036076813539127
2062.0,-0.00024174983172242426
2061.0,-0.00020266869671084354
2060.0,-9.9926329643355e-05
2059.0,7.965221497455545e-06
2058.0,7.384934298775258e-05
2057.0,4.915828218983361e-05
2056.0,-8.894881371972519e-05
2055.0,-0.00023223429598997426
2054.0,-0.00017156689242325287
2053.0,0.0001595877327110374
2052.0,0.0005439499286518167
2051.0,0.0006823047110863663
2050.0,0.00048784746060293873
2049.0,0.00011275425209032768
2048.0,-0.0002830656018924249
2047.0,-0.0006500856815300376
2046.0,-0.0009400228769582535
2045.0,-0.0010739250734072736
2044.0,-0.0010529300023257174
2043.0,-0.00096304359119386
2042.0,-0.0008518384407078763
2041.0,-0.000708043987736138
2040.0,-0.0005395030925135691
2039.0,-0.0003645201527641069
2038.0,-0.0001691844572461989
2037.0,1.2991407134578666e-05
2036.0,4.19653120455272e-05
2035.0,-0.0001614047215504083
2034.0,-0.00044133342539223454
2033.0,-0.0005558803900361097
2032.0,-0.000484871925498259
2031.0,-0.0004334341610197761
2030.0,-0.0005580064184913203
2029.0,-0.0008330180900641235
2028.0,-0.0011343052109162185
2027.0,-0.0013235765079067487
2026.0,-0.0012911536381380187
2025.0,-0.0010568745219774634
2024.0,-0.0008039351190113613
2023.0,-0.0006830067107595737
2022.0,-0.0006505292521011245
2021.0,-0.0006069826773683838
2020.0,-0.0005861328969094814
2019.0,-0.000658871810885777
2018.0,-0.0007380192338209082
2017.0,-0.0006722651376378656
2016.0,-0.0005048131789218244
2015.0,-0.0004299996758077462
2014.0,-0.0005247333588999328
2013.0,-0.0006967182345955952
2012.0,-0.0008478067422592743
2011.0,-0.000948912218698779
2010.0,-0.000977511042992013
2009.0,-0.0009210426958845454
2008.0,-0.0008367781040074238
2007.0,-0.0007866730624376376
2006.0,-0.0007516346463086066
2005.0,-0.0007142909563474886
2004.0,-0.0007415454968300272
2003.0,-0.0008677625377592842
2002.0,-0.0009793988992945059
2001.0,-0.0009448699999154476
2000.0,-0.0007961626222046658
1999.0,-0.000658104515355271
1998.0,-0.0005626892014356364
1997.0,-0.0004739834931718934
1996.0,-0.00043539757674379765
1995.0,-0.0005260550199393793
1994.0,-0.0006938873426006761
1993.0,-0.0007750833850228749
1992.0,-0.0007067853243633011
1991.0,-0.000597422343383841
1990.0,-0.0005405756604478517
1989.0,-0.0005127533239615619
1988.0,-0.00047364150163883823
1987.0,-0.00042631865598258674
1986.0,-0.00036153332965909634
1985.0,-0.0002450031375846512
1984.0,-7.319540860892547e-05
1983.0,0.00012887227854246062
1982.0,0.0003358203073499822
1981.0,0.00044973343413624823
1980.0,0.00026417036699380664
1979.0,-0.0003358111074396636
1978.0,-0.0011292106573627214
1977.0,-0.0016939430727466367
1976.0,-0.0018382689916539947
1975.0,-0.0017028196960040876
1974.0,-0.001474710785966193
1973.0,-0.0012499177613452769
1972.0,-0.0011279927509657618
1971.0,-0.0011998583882654006
1970.0,-0.0014064307967541756
1969.0,-0.001560021941966998
1968.0,-0.0015551912753223652
1967.0,-0.0014591555105590236
1966.0,-0.0013661035652022036
1965.0,-0.0012914570404700195
1964.0,-0.0012425395681659314
1963.0,-0.001262340775199022
1962.0,-0.0013666196991658445
1961.0,-0.0015219254417433942
1960.0,-0.0017005593102009265
1959.0,-0.0018751851785926315
1958.0,-0.0019567783379772843
1957.0,-0.0018438151237916193
1956.0,-0.001559081765790184
1955.0,-0.0012599547607733497
1954.0,-0.001097689682364947
1953.0,-0.0011061444883566445
1952.0,-0.0012203493440378615
1951.0,-0.001342875430561382
1950.0,-0.00139518255963631
1949.0,-0.0013731592310646677
1948.0,-0.0013521267376037662
1947.0,-0.0013917300592101362
1946.0,-0.0014530160336666705
1945.0,-0.0014528811773513312
1944.0,-0.0013755394037945202
1943.0,-0.0012796274221327894
1942.0,-0.0012226515894867866
1941.0,-0.0012296888068999046
1940.0,-0.0013032745598270078
1939.0,-0.001406537856469585
1938.0,-0.0014568313741801953
1937.0,-0.001398066756081982
1936.0,-0.0012806392150587213
1935.0,-0.0012059521880074058
1934.0,-0.0012043649000239615
1933.0,-0.001220332936740435
1932.0,-0.0012062035514903524
1931.0,-0.0011646766981160326
1930.0,-0.0011103517184822243
1929.0,-0.00105977625263029
1928.0,-0.00103783440173684
1927.0,-0.0010594562615362652
1926.0,-0.0011037860486244715
1925.0,-0.001146759750064208
1924.0,-0.0011944255417652618
1923.0,-0.00124082402011552
1922.0,-0.0012431848054559476
1921.0,-0.0011888354523270166
1920.0,-0.00113201042437729
1919.0,-0.0011265070189700878
1918.0,-0.0011459909611323058
1917.0,-0.0011299283457511023
1916.0,-0.0010830214601930065
1915.0,-0.0010428146907627439
1914.0,-0.0010125764646636722
1913.0,-0.000979445626550952
1912.0,-0.0009573553497212681
1911.0,-0.0009572943574339228
1910.0,-0.0009461621913161766
1909.0,-0.0009033887965941607
1908.0,-0.0008803337954662549
1907.0,-0.000936810814603257
1906.0,-0.0010405840765182906
1905.0,-0.0011089104996833499
1904.0,-0.0011217399977685898
1903.0,-0.0011196409424992764
1902.0,-0.0011200625790158789
1901.0,-0.0011042102243569898
1900.0,-0.0010695768678725792
1899.0,-0.0010413458801700182
1898.0,-0.0010272494791241243
1897.0,-0.0010146690042123787
1896.0,-0.0010086415528843737
1895.0,-0.001023036998280238
1894.0,-0.0010479332495934531
1893.0,-0.0010696207146413794
1892.0,-0.0011006997406819066
1891.0,-0.0011476392976781837
1890.0,-0.0011663353921393738
1889.0,-0.0011183196954640366
1888.0,-0.001057007705358028
1887.0,-0.0010561272121297814
1886.0,-0.0011044421620198706
1885.0,-0.001133312693784348
1884.0,-0.001113729313796575
1883.0,-0.0010794531110808227
1882.0,-0.0010659243474809609
1881.0,-0.001077658508296249
1880.0,-0.0011076089292239887
1879.0,-0.0011481480861144807
1878.0,-0.0011774734681175077
1877.0,-0.0011688588018052195
1876.0,-0.0011259212649566458
1875.0,-0.001074500850992685
1874.0,-0.0010275107240882086
1873.0,-0.0009935254964961195
1872.0,-0.0009956801992725653
1871.0,-0.0010445701772692092
1870.0,-0.0010971688209730846
1869.0,-0.001086507215297047
1868.0,-0.0010252305207066707
1867.0,-0.0009838732170924112
1866.0,-0.0009689497141789543
1865.0,-0.0009478531059997403
1864.0,-0.0009277212845128248
1863.0,-0.0009407668235428338
1862.0,-0.0009876811527625739
1861.0,-0.0010414175625360694
1860.0,-0.0010933692908074533
1859.0,-0.001149228716242145
1858.0,-0.0011877149776993838
1857.0,-0.0011791598567483092
1856.0,-0.0011381157862172793
1855.0,-0.0011100610760194658
1854.0,-0.0011060693925455869
1853.0,-0.0011039496074274325
1852.0,-0.0010873076338909259
1851.0,-0.0010649099276291844
1850.0,-0.0010499485467589497
1849.0,-0.0010431562425745303
1848.0,-0.001048558984138454
1847.0,-0.001073585080064937
1846.0,-0.0011107372590218006
1845.0,-0.0011326247246743776
1844.0,-0.001117919635985035
1843.0,-0.0010834960173526887
1842.0,-0.0010478250634366369
1841.0,-0.001012477514077728
1840.0,-0.0009819585296257237
1839.0,-0.0009611825632827889
1838.0,-0.0009382737245105212
1837.0,-0.0009105185934469659
1836.0,-0.0009044272583358623
1835.0,-0.0009347700902916118
1834.0,-0.000976264758112896
1833.0,-0.00100080473279759
1832.0,-0.0010092029408406097
1831.0,-0.0010135496262053559
1830.0,-0.0009866228446671487
1829.0,-0.000902167853560026
1828.0,-0.000808620387708777
1827.0,-0.0007622118106919583
1826.0,-0.000764588172683552
1825.0,-0.0007731887881201382
1824.0,-0.0007674455912593339
1823.0,-0.0007683301958797584
1822.0,-0.0007796326479813093
1821.0,-0.0007884001780845561
1820.0,-0.0008059582805323018
1819.0,-0.0008602743763231681
1818.0,-0.0009337271535162735
1817.0,-0.0009679998110619449
1816.0,-0.0009451202812216457
1815.0,-0.0008999461122510364
1814.0,-0.0008639597203241049
1813.0,-0.0008379860743655155
1812.0,-0.0008251130786792844
1811.0,-0.0008383047553956057
1810.0,-0.0008560451167525196
1809.0,-0.0008417166007440278
1808.0,-0.0008029540534030173
1807.0,-0.000772704094246899
1806.0,-0.000752131701086725
1805.0,-0.000715708868369079
1804.0,-0.0006651624292246991
1803.0,-0.000627050514959541
1802.0,-0.0006133632183505921
1801.0,-0.0006012393783997196
1800.0,-0.0005808311446850011
1799.0,-0.0005715922840966835
1798.0,-0.0005734547469139858
1797.0,-0.0005704230794181034
1796.0,-0.0005667193420159371
1795.0,-0.0005771102458922558
1794.0,-0.000598814825378974
1793.0,-0.0005994306482559204
1792.0,-0.0005642470409526137
1791.0,-0.0005333627600825199
1790.0,-0.0005298100917981713
1789.0,-0.0005337068492462745
1788.0,-0.0005356801456216384
1787.0,-0.0005424774246895155
1786.0,-0.0005509696247395596
1785.0,-0.0005503792976738539
1784.0,-0.0005481465770588638
1783.0,-0.000545682517405808
1782.0,-0.0005338121647015066
1781.0,-0.0005043375421421064
1780.0,-0.00047789611527975233
1779.0,-0.0004911576469162413
1778.0,-0.0005334142778289511
1777.0,-0.0005631041524092431
1776.0,-0.0005575474995980465
1775.0,-0.0005315028931054747
1774.0,-0.0005089560897593454
1773.0,-0.0004693455459181331
1772.0,-0.00037510196926829006
1771.0,-0.0002761925247306775
1770.0,-0.00022666696384519413
1769.0,-0.00021336168057315926
1768.0,-0.0002229014851666427
1767.0,-0.00024977809305648177
1766.0,-0.00027789663629796627
1765.0,-0.0002836059997781324
1764.0,-0.0002706639193777486
1763.0,-0.0002642209494100544
1762.0,-0.0002679877012106871
1761.0,-0.0002491545951497421
1760.0,-0.00019900523096974218
1759.0,-0.00013866540721431246
1758.0,-8.512878201522348e-05
1757.0,-3.7796578653775384e-05
1756.0,1.3925246954069742e-05
1755.0,6.10444053609758e-05
1754.0,0.00010477493068040142
1753.0,0.00016399189651709976
1752.0,0.0002573824254151699
1751.0,0.00037025067441855
1750.0,0.00045967853196432484
1749.0,0.000512254896170918
1748.0,0.0005496775649762517
1747.0,0.0005872712327903169
1746.0,0.0006221231622246101
1745.0,0.0006611862180205376
1744.0,0.0007048842301154677
1743.0,0.0007339154295721551
1742.0,0.0007419195239414954
1741.0,0.000752624033332728
1740.0,0.0007754884988133083
1739.0,0.0007914543333853098
1738.0,0.0007906314394263208
1737.0,0.0007936007158576863
1736.0,0.0007953310547844606
1735.0,0.0007665763383028377
1734.0,0.0007555792123731201
1733.0,0.0008053713161378317
1732.0,0.0008702788543528206
1731.0,0.0009192499459358761
1730.0,0.0009476225108421719
1729.0,0.0009649047963635406
1728.0,0.0009808919093273099
1727.0,0.0009946217894265426
1726.0,0.001003861043951336
1725.0,0.0010264837641564247
1724.0,0.0010680460849522158
1723.0,0.0011047999517450917
1722.0,0.0011294490711306745
1721.0,0.0011646476935344317
1720.0,0.0012221174418287919
1719.0,0.0012729746880132142
1718.0,0.0013171782501358847
1717.0,0.0014035146935230487
1716.0,0.0014955824164098516
1715.0,0.0015397016902548065
1714.0,0.001559489098584551
1713.0,0.0015939976805378541
1712.0,0.0016448932412823618
1711.0,0.0016961206161009903
1710.0,0.0017446170268765261
1709.0,0.0017975086971934052
1708.0,0.0018589891714234055
1707.0,0.0019228666101631054
1706.0,0.0020013903753951312
1705.0,0.002110792160343076
1704.0,0.0022087868397307094
1703.0,0.0022597705890350372
1702.0,0.00227377953017656
1701.0,0.0023338658556179247
1700.0,0.0025292135823207443
1699.0,0.00273952312761341
1698.0,0.002900016197438732
1697.0,0.003070005184273316
1696.0,0.0032590335695477732
1695.0,0.0034206181563853086
1694.0,0.003540931702537155
1693.0,0.0036750664074207554
1692.0,0.0038376496568980857
1691.0,0.004000259302833406
1690.0,0.004152569703262113
1689.0,0.004303479468609246
1688.0,0.004455159966188755
1687.0,0.004590132436012128
1686.0,0.00469777984595578
1685.0,0.004835664442067933
1684.0,0.005086766531291807
1683.0,0.005333601806086314
1682.0,0.005493232219240304
1681.0,0.00562789948827028
1680.0,0.0057551127589267215
1679.0,0.0058574918569130885
1678.0,0.005933523599248796
1677.0,0.006010474082487402
1676.0,0.006124862589121259
1675.0,0.006289021913508365
1674.0,0.006445982501483616
1673.0,0.006563067161825855
1672.0,0.006655093079189715
1671.0,0.006739574903906925
1670.0,0.006857298398294874
1669.0,0.007024410865250538
1668.0,0.007182131468816796
1667.0,0.007282803927603719
1666.0,0.007335655092287247
1665.0,0.0073764557702124655
1664.0,0.00742888865074957
1663.0,0.007506259790019374
1662.0,0.00759903566536594
1661.0,0.007679258761935117
1660.0,0.007744581644457873
1659.0,0.007798451916554953
1658.0,0.007845169835859195
1657.0,0.007895630791573384
1656.0,0.007963585112188564
1655.0,0.008009739423075242
1654.0,0.007997057499899035
1653.0,0.008034894257794302
1652.0,0.008075484558477232
1651.0,0.008061881147832729
1650.0,0.008056469562834224
1649.0,0.008064173117599164
1648.0,0.008046182816895864
1647.0,0.007994182939868841
1646.0,0.007943462183410608
1645.0,0.00791169339200713
1644.0,0.007892808974155667
1643.0,0.007870682106413321
1642.0,0.007835318017725383
1641.0,0.0077910366652944665
1640.0,0.007749325322970846
1639.0,0.007704264407994174
1638.0,0.007639298163614406
1637.0,0.007535091934900127
1636.0,0.007410589102431236
1635.0,0.007305220340338028
1634.0,0.0072219815377435465
1633.0,0.00716136411291921
1632.0,0.0071003979710388895
1631.0,0.007015627847761717
1630.0,0.006909674868118297
1629.0,0.00679568866749845
1628.0,0.00667543827001957
1627.0,0.00655052853602244
1626.0,0.006431454454309347
1625.0,0.0063247503908416755
1624.0,0.00621783109005805
1623.0,0.006101536028099579
1622.0,0.005985382133717311
1621.0,0.005879996552838822
1620.0,0.005785341664516556
1619.0,0.0056765291589835586
1618.0,0.005526783943406383
1617.0,0.005357394086773397
1616.0,0.005227882756813402
1615.0,0.00514627736551157
1614.0,0.005081753260896323
1613.0,0.005004457635981604
1612.0,0.004897030665780744
1611.0,0.004778693501740377
1610.0,0.004683777599445948
1609.0,0.004618553077880295
1608.0,0.004559123341161519
1607.0,0.004491193072626391
1606.0,0.004415792540719666
1605.0,0.004335194630228838
1604.0,0.004253542326694646
1603.0,0.004176836083795647
1602.0,0.004112842159453537
1601.0,0.004058743106414557
1600.0,0.003998616639067154
1599.0,0.003922925981545269
1598.0,0.0038410143008295906
1597.0,0.0037700992970666454
1596.0,0.003712226541075095
1595.0,0.003656632392488047
1594.0,0.003597491520855184
1593.0,0.0035366829977100033
1592.0,0.0034771544879236846
1591.0,0.003424493291172453
1590.0,0.0033850649749026596
1589.0,0.003353798248648684
1588.0,0.0033172698208852793
1587.0,0.00327271035480255
1586.0,0.0032347443284887634
1585.0,0.003206340062148094
1584.0,0.0031799049533246327
1583.0,0.003151995065744851
1582.0,0.003123722494825406
1581.0,0.003095415884185949
1580.0,0.003067513626811913
1579.0,0.0030398834368472686
1578.0,0.0030048661398911092
1577.0,0.002964426407509783
1576.0,0.0029363486265187545
1575.0,0.0029208713612404137
1574.0,0.002913326141609513
1573.0,0.0029257672958595063
1572.0,0.002952093895145536
1571.0,0.002973634859453898
1570.0,0.002987880661586396
1569.0,0.0029877402000829034
1568.0,0.0029663370049831045
1567.0,0.0029355110738468583
1566.0,0.0029136283102026055
1565.0,0.0029041115147087427
1564.0,0.0029108020677023434
1563.0,0.002917361355886697
1562.0,0.0029203023868301136
1561.0,0.0028974596278427966
1560.0,0.0028556781674334113
1559.0,0.002870533139590162
1558.0,0.0029490034413198153
1557.0,0.0029875922880712082
1556.0,0.003021920398581108
1555.0,0.0030541969370538264
1554.0,0.0030700433708646417
1553.0,0.0030943387544004946
1552.0,0.0031329520443136435
1551.0,0.003158726973047858
1550.0,0.003152711036471095
1549.0,0.0031299118903029355
1548.0,0.0031077087599491295
1547.0,0.0030975884466777045
1546.0,0.0031027616129941033
1545.0,0.0031183757310567963
1544.0,0.003120345511857115
1543.0,0.0030798671776041007
1542.0,0.0030192220901220116
1541.0,0.002999295985349107
1540.0,0.0030096641282346638
1539.0,0.002974887993928986
1538.0,0.0029128748461710405
1537.0,0.0028898454322244657
1536.0,0.002892050765866224
1535.0,0.0028753098521653794
1534.0,0.002830550974151945
1533.0,0.002799187568627076
1532.0,0.0027786776774378907
1531.0,0.002740405191466038
1530.0,0.002703447063413587
1529.0,0.002693147954736689
1528.0,0.0026925322499728064
1527.0,0.0026600003177612973
1526.0,0.0025999328624191666
1525.0,0.002561673682955218
1524.0,0.002558727510471196
1523.0,0.0025514497148808038
1522.0,0.0025350971200060676
1521.0,0.002553027479051168
1520.0,0.0025722822332113447
1519.0,0.0025507192111273126
1518.0,0.002515412262451654
1517.0,0.0025045764380720037
1516.0,0.002503557040045295
1515.0,0.002465374712795315
1514.0,0.0024033078603610605
1513.0,0.0023621686957694035
1512.0,0.002343987896094333
1511.0,0.0023224034248395375
1510.0,0.002309160580089162
1509.0,0.0023357239467388345
1508.0,0.0023754697542121587
1507.0,0.0023360557114233916
1506.0,0.002240505902613695
1505.0,0.0021886030841573798
1504.0,0.002194176923481962
1503.0,0.0022001062303634742
1502.0,0.002189021961268015
1501.0,0.0021845598445992672
1500.0,0.00219097900095902
1499.0,0.0021779324764713403
1498.0,0.00215950779165458
1497.0,0.0022209376044116033
1496.0,0.0023390476201047084
1495.0,0.0023997538403837115
1494.0,0.002424669548182947
1493.0,0.002507122459727976
1492.0,0.002641974672135663
1491.0,0.002751415967439716
1490.0,0.0028386918567830204
1489.0,0.002977944992876012
1488.0,0.003115205873892908
1487.0,0.003172415373475658
1486.0,0.0032254942203640167
1485.0,0.0033614042751602576
1484.0,0.003562688893513623
1483.0,0.0037888429160178047
1482.0,0.004096975751723471
1481.0,0.004576950086242218
1480.0,0.005210055710629071
1479.0,0.006032791420506976
1478.0,0.007430194760557209
1477.0,0.010017830737116283
1476.0,0.014138937993283678
1475.0,0.019668800050541953
1474.0,0.026391431690865285
1473.0,0.03323213619610545
1472.0,0.037602222816846706
1471.0,0.038631387318613236
1470.0,0.038195239155650734
1469.0,0.03769586125054722
1468.0,0.03733618759864185
1467.0,0.036992591549063474
1466.0,0.03658507096877065
1465.0,0.035924883094259
1464.0,0.03464199135746205
1463.0,0.03264808672494984
1462.0,0.03020296959253852
1461.0,0.027586740693486968
1460.0,0.025037412368793907
1459.0,0.022770508793261087
1458.0,0.020855563536619742
1457.0,0.01921066981892894
1456.0,0.017836428231345704
1455.0,0.01673372519411082
1454.0,0.01572240092232101
1453.0,0.014635156004833567
1452.0,0.013516084794640813
1451.0,0.012549162243314328
1450.0,0.011808898160374198
1449.0,0.011208967982936332
1448.0,0.010687468605403498
1447.0,0.010279511143711933
1446.0,0.009976916366391508
1445.0,0.009710302027561015
1444.0,0.009453881868852557
1443.0,0.009217267354035054
1442.0,0.008990046179654957
1441.0,0.008748834928242012
1440.0,0.008508416987753816
1439.0,0.008288686336393838
1438.0,0.008052516957537354
1437.0,0.007735155926139875
1436.0,0.0073752414478744244
1435.0,0.007069591071622378
1434.0,0.006808762297080804
1433.0,0.00652072296757801
1432.0,0.006181436289085027
1431.0,0.005819074842441015
1430.0,0.005452252033939361
1429.0,0.005089141290125589
1428.0,0.00477096836550331
1427.0,0.004538363545976809
1426.0,0.004357530107126384
1425.0,0.0041584779493646015
1424.0,0.0039443527345753085
1423.0,0.0037710123791501633
1422.0,0.0036438514863350487
1421.0,0.0035197293096199617
1420.0,0.003391843784916761
1419.0,0.0032954786625207866
1418.0,0.003219739495444883
1417.0,0.0031219289320316024
1416.0,0.0030193275566984933
1415.0,0.002947893428926823
1414.0,0.002900549042191252
1413.0,0.002847725926594896
1412.0,0.002780302926860468
1411.0,0.002706226831733772
1410.0,0.00262182078911512
1409.0,0.0025298744564320724
1408.0,0.0024535815892261816
1407.0,0.002409379668924616
1406.0,0.0023695399541947245
1405.0,0.0022961425909470952
1404.0,0.00221081106566669
1403.0,0.0021530927426308914
1402.0,0.0021121104354865083
1401.0,0.00205337369929769
1400.0,0.001980974298239768
1399.0,0.0019340861173985794
1398.0,0.0019175745625170946
1397.0,0.0018992954807487772
1396.0,0.0018716303843502634
1395.0,0.0018501130424150754
1394.0,0.0018227791477146435
1393.0,0.0017764539018475071
1392.0,0.00174099966236592
1391.0,0.0017446310644384892
1390.0,0.0017749354687159637
1389.0,0.0018056059847402096
1388.0,0.001840635117379496
1387.0,0.001906718968593765
1386.0,0.002002579228354965
1385.0,0.002118661303973749
1384.0,0.0022878422766410226
1383.0,0.0025517363633761744
1382.0,0.002908779119338894
1381.0,0.0033167122897835525
1380.0,0.003722492437294664
1379.0,0.0040611913925199
1378.0,0.004256807730527664
1377.0,0.004276833544153431
1376.0,0.004161098117364296
1375.0,0.003986038557900438
1374.0,0.00382036044864354
1373.0,0.0037083750930858193
1372.0,0.0036672988698034648
1371.0,0.003685971738678958
1370.0,0.003718555523887011
1369.0,0.003709677009100752
1368.0,0.0036455537881854615
1367.0,0.00355319056293595
1366.0,0.0034536914359973806
1365.0,0.0033442600740228
1364.0,0.003217575920541868
1363.0,0.003076674223163574
1362.0,0.0029279810031155474
1361.0,0.0027781773934332952
1360.0,0.0026466980857213704
1359.0,0.002555801546188798
1358.0,0.0025067447319064486
1357.0,0.002484612586306295
1356.0,0.0024794857104974864
1355.0,0.00248762431344965
1354.0,0.002496623112895999
1353.0,0.0024927724058535477
1352.0,0.002473207437940015
1351.0,0.0024421455507965747
1350.0,0.002394260459020159
1349.0,0.0023221186455022478
1348.0,0.0022385112447297984
1347.0,0.00216435060441939
1346.0,0.002102490761561838
1345.0,0.002042406378561088
1344.0,0.0019845618009565764
1343.0,0.0019388862124411687
1342.0,0.0019045000607663806
1341.0,0.0018693090369700889
1340.0,0.0018280902462882087
1339.0,0.0017784118106860189
1338.0,0.0017031816677136082
1337.0,0.0015918719128122346
1336.0,0.0014659627170239891
1335.0,0.0013576968453673753
1334.0,0.0012773211299961533
1333.0,0.0012163460609921862
1332.0,0.0011726687294733359
1331.0,0.0011530992346219975
1330.0,0.001153336004359162
1329.0,0.001158080808467861
1328.0,0.0011598788933543172
1327.0,0.001161746658199029
1326.0,0.0011632333672249905
1325.0,0.001163803041478226
1324.0,0.0011762230917747472
1323.0,0.0012127018409535872
1322.0,0.001263367929545272
1321.0,0.0013077756260538587
1320.0,0.0013426052438696877
1319.0,0.001378428391857178
1318.0,0.0014153820329365265
1317.0,0.0014454772332757665
1316.0,0.0014735146476588705
1315.0,0.0015110922309202138
1314.0,0.001554801554942275
1313.0,0.0015910831248114746
1312.0,0.0016171856397794284
1311.0,0.0016387301609084469
1310.0,0.001652544670956651
1309.0,0.0016535969384990747
1308.0,0.0016512903048605618
1307.0,0.0016593806407482039
1306.0,0.0016722416179043905
1305.0,0.001672839031099463
1304.0,0.0016613416407683344
1303.0,0.0016530552965431516
1302.0,0.001652602464838132
1301.0,0.001650340228177393
1300.0,0.0016418746069289947
1299.0,0.0016300668076974882
1298.0,0.0016102779169209639
1297.0,0.0015735615051608934
1296.0,0.0015244569942194051
1295.0,0.0014778272977453173
1294.0,0.0014386718578241232
1293.0,0.0014023325894114364
1292.0,0.0013707849170481803
1291.0,0.001349852789214145
1290.0,0.0013331434575753719
1289.0,0.00130806180114907
1288.0,0.0012768266793018648
1287.0,0.0012528814094736078
1286.0,0.0012373259694314813
1285.0,0.0012185244824907283
1284.0,0.001194501435638545
1283.0,0.0011765157901456966
1282.0,0.0011704874495745855
1281.0,0.0011703456274673677
1280.0,0.001170935538331641
1279.0,0.0011730439530494297
1278.0,0.0011758861083695374
1277.0,0.0011783860008110266
1276.0,0.0011861037836186084
1275.0,0.0012040361346856345
1274.0,0.0012255312741296324
1273.0,0.001241977639235609
1272.0,0.0012588973313620811
1271.0,0.0012874483208552574
1270.0,0.0013253445562223815
1269.0,0.0013636359210982335
1268.0,0.0014066817572400275
1267.0,0.0014644059767166644
1266.0,0.001528721517877898
1265.0,0.0015784460937657233
1264.0,0.001605539817219507
1263.0,0.0016177991678730432
1262.0,0.0016183997973889573
1261.0,0.0016018012659062735
1260.0,0.001570286925368175
1259.0,0.0015352978304094987
1258.0,0.00149994193781418
1257.0,0.0014574622137170203
1256.0,0.0014079283860611814
1255.0,0.0013605525344277392
1254.0,0.0013185935647726547
1253.0,0.0012764093102454344
1252.0,0.0012326009301499982
1251.0,0.0011927687067541937
1250.0,0.0011594595074458092
1249.0,0.0011325746805057975
1248.0,0.001117897325562018
1247.0,0.0011201383526608967
1246.0,0.0011291463530590292
1245.0,0.0011285495099435513
1244.0,0.0011165210393957814
1243.0,0.0011040317363245353
1242.0,0.0010958501527143236
1241.0,0.0010882797873469421
1240.0,0.001082068703828436
1239.0,0.0010814819256181078
1238.0,0.0010830165597315805
1237.0,0.0010801753518363622
1236.0,0.0010766118392822252
1235.0,0.001079860129837371
1234.0,0.001086205245378077
1233.0,0.0010875482832218746
1232.0,0.0010886569936965577
1231.0,0.0011003833474762022
1230.0,0.0011203149447372588
1229.0,0.0011382182079365403
1228.0,0.0011554952353068177
1227.0,0.0011795239664235194
1226.0,0.0012029269800587685
1225.0,0.0012101959939604138
1224.0,0.001204132652906812
1223.0,0.0012045147391280594
1222.0,0.0012190350851354259
1221.0,0.0012346664396269144
1220.0,0.0012397654708080474
1219.0,0.0012368131208738125
1218.0,0.0012312986507241244
1217.0,0.0012256279657960351
1216.0,0.0012264076787035123
1215.0,0.0012403817527698148
1214.0,0.001259510455019124
1213.0,0.0012658167268195363
1212.0,0.0012542002025123233
1211.0,0.0012365550941927025
1210.0,0.001222369625447783
1209.0,0.0012101816480385701
1208.0,0.0011990310673536102
1207.0,0.0011924769936833297
1206.0,0.0011891211894195335
1205.0,0.0011832057120908877
1204.0,0.0011758456105162556
1203.0,0.0011724225347040226
1202.0,0.0011700814119670654
1201.0,0.0011626771331722848
1200.0,0.001156194476508876
1199.0,0.0011617706194796754
1198.0,0.0011740335976815766
1197.0,0.0011758816989526537
1196.0,0.0011663550388837157
1195.0,0.0011640710418053968
1194.0,0.0011771882701687485
1193.0,0.0011877444977223088
1192.0,0.0011753317761886697
1191.0,0.0011436517461468716
1190.0,0.0011148279668436161
1189.0,0.0011061364786060053
1188.0,0.0011192284886807902
1187.0,0.0011448294674191286
1186.0,0.0011728529936524366
1185.0,0.0012018754742834084
1184.0,0.0012377022379391695
1183.0,0.0012782577402249626
1182.0,0.0013070836568170674
1181.0,0.001312793415626099
1180.0,0.0013089185879175099
1179.0,0.0013198457430170056
1178.0,0.0013500137226089715
1177.0,0.0013825816349990246
1176.0,0.0014057456832490926
1175.0,0.0014237232681829238
1174.0,0.0014429454030534866
1173.0,0.001463737416705655
1172.0,0.0014869992948652105
1171.0,0.0015137091873696443
1170.0,0.0015355359677928747
1169.0,0.0015404796829432774
1168.0,0.0015307865462152953
1167.0,0.0015227074846239736
1166.0,0.0015260899518919104
1165.0,0.0015364812549057442
1164.0,0.001549309363439123
1163.0,0.0015671062206270205
1162.0,0.0015885158258373043
1161.0,0.0016044526548689812
1160.0,0.0016121119827750595
1159.0,0.0016218130392495105
1158.0,0.0016426108419243446
1157.0,0.0016693595012548714
1156.0,0.0016899621418623592
1155.0,0.0016989339399306712
1154.0,0.0016993661680409222
1153.0,0.0016967325631678373
1152.0,0.001694396955477957
1151.0,0.0016915322323548289
1150.0,0.001683677837515182
1149.0,0.0016687469434899125
1148.0,0.0016523357600302718
1147.0,0.001643035495986673
1146.0,0.0016427680721284813
1145.0,0.0016449796969338045
1144.0,0.0016413048894759657
1143.0,0.0016281026410029523
1142.0,0.001610010675980724
1141.0,0.0015987518114815007
1140.0,0.0016024026903096534
1139.0,0.0016132831150345202
1138.0,0.0016146516844653897
1137.0,0.00160325887466426
1136.0,0.0015947312986350918
1135.0,0.0016011614358826974
1134.0,0.0016159570736170338
1133.0,0.0016291475572102667
1132.0,0.001643471670744529
1131.0,0.0016631511604335162
1130.0,0.0016806681411236143
1129.0,0.0016898586838831452
1128.0,0.001700206561772299
1127.0,0.0017211473150032163
1126.0,0.0017424290986673687
1125.0,0.001748927374622726
1124.0,0.0017464887525226848
1123.0,0.0017530748779501651
1122.0,0.0017707525900133797
1121.0,0.0017870111785642673
1120.0,0.0017983879858383747
1119.0,0.0018106427282600585
1118.0,0.0018187842444575076
1117.0,0.0018098116170348318
1116.0,0.0017864949595170774
1115.0,0.0017693935640603594
1114.0,0.001772774441972505
1113.0,0.0017941464290070278
1112.0,0.0018273501027559957
1111.0,0.0018678505496987907
1110.0,0.001904190277243558
1109.0,0.0019248181123289864
1108.0,0.0019373315658703753
1107.0,0.001962791264976946
1106.0,0.002005641748629582
1105.0,0.0020444049798827874
1104.0,0.0020577786143054074
1103.0,0.0020473756712997837
1102.0,0.002029865779646728
1101.0,0.0020188023061514697
1100.0,0.002016794951221113
1099.0,0.002016525933759096
1098.0,0.002007383370464315
1097.0,0.001988661471591987
1096.0,0.0019771815807767814
1095.0,0.0019907459974989536
1094.0,0.0020231252010365066
1093.0,0.002046459485852633
1092.0,0.002041179965796755
1091.0,0.002015437121320092
1090.0,0.001994498010133656
1089.0,0.001997511302644415
1088.0,0.0020231892106999574
1087.0,0.002050903479921401
1086.0,0.0020580832986120054
1085.0,0.0020426012436257704
1084.0,0.0020220249721354163
1083.0,0.0020051188597450375
1082.0,0.001976657046141035
1081.0,0.001923395009768969
1080.0,0.0018620725652749833
1079.0,0.0018210171186808207
1078.0,0.0018007406836381438
1077.0,0.0017750704287131346
1076.0,0.001728315247077037
1075.0,0.0016692912538715052
1074.0,0.0016110678443740627
1073.0,0.0015606855308271514
1072.0,0.001529944716967939
1071.0,0.0015295946130993113
1070.0,0.0015441421674720077
1069.0,0.0015374614566203045
1068.0,0.0014969130793741825
1067.0,0.00145258131502231
1066.0,0.001437934451186432
1065.0,0.0014465260066247928
1064.0,0.0014438952425769426
1063.0,0.0014105846503132376
1062.0,0.0013574879684309414
1061.0,0.001306195142328397
1060.0,0.0012699601373986182
1059.0,0.0012517555827181491
1058.0,0.001245911511899153
1057.0,0.0012379032046231399
1056.0,0.0012116894849790293
1055.0,0.0011638825433073338
1054.0,0.0011094831361065918
1053.0,0.001070005315807713
1052.0,0.001054120016336182
1051.0,0.0010512990582539072
1050.0,0.0010474332439109526
1049.0,0.0010430648774950174
1048.0,0.0010470407372128714
1047.0,0.0010552222274045047
1046.0,0.001050847555704019
1045.0,0.0010292953042126797
1044.0,0.0010086554974191924
1043.0,0.0010069248445256761
1042.0,0.0010164789926748593
1041.0,0.001012038573277336
1040.0,0.0009804803535469865
1039.0,0.0009318388307766688
1038.0,0.0008823959004127116
1037.0,0.00083778722715281
1036.0,0.0007946943071588655
1035.0,0.0007506717385862543
1034.0,0.0007079382942815843
1033.0,0.0006704566184910048
1032.0,0.0006383384369924123
1031.0,0.0006042217457877842
1030.0,0.0005594594604177005
1029.0,0.0005076334545352102
1028.0,0.00046575199275324976
1027.0,0.0004451214351610987
1026.0,0.0004358361252330238
1025.0,0.0004181635485330914
1024.0,0.0003845934730563492
1023.0,0.0003417554061402178
1022.0,0.0002953288574089018
1021.0,0.0002444789551782787
1020.0,0.00019018399700078924
1019.0,0.00013814861767679713
1018.0,9.087446226502087e-05
1017.0,4.414908407804948e-05
1016.0,-6.200409069898223e-06
1015.0,-5.85874374254931e-05
1014.0,-0.00010634696947815249
1013.0,-0.0001404548257543754
1012.0,-0.00015553186934656044
1011.0,-0.00015978634553412505
1010.0,-0.0001747095825243754
1009.0,-0.00021572161448152674
1008.0,-0.00027520831282919385
1007.0,-0.0003324845552500422
1006.0,-0.0003782057127756436
1005.0,-0.0004205486908578967
1004.0,-0.00046927739422546275
1003.0,-0.0005243513932493317
1002.0,-0.0005808350247673505
1001.0,-0.0006348905061653995
1000.0,-0.0006821852472110868
999.0,-0.0007181856593448839
998.0,-0.0007432836515577478
997.0,-0.0007628309863966388
996.0,-0.0007810987212138031
995.0,-0.0007989580220024326
994.0,-0.0008161250331010098
993.0,-0.0008314423701395561
992.0,-0.0008439400749101185
991.0,-0.0008590194630652935
990.0,-0.0008889361940444375
989.0,-0.0009388025493680388
988.0,-0.0009954348526195573
987.0,-0.001039169510652204
986.0,-0.0010649622021617596
985.0,-0.0010834731301491334
984.0,-0.0011041366371482729
983.0,-0.0011273290598103865
982.0,-0.0011512447790227752
981.0,-0.0011752326209192275
980.0,-0.0011958547241864284
979.0,-0.001209942716931433
978.0,-0.00122333830875207
977.0,-0.001247082698664412
976.0,-0.0012820848985846418
975.0,-0.0013151926044209696
974.0,-0.0013331565642069531
973.0,-0.0013351528224795576
972.0,-0.0013312452632717221
971.0,-0.0013346147948598494
970.0,-0.0013542393400186375
969.0,-0.00138740649652078
968.0,-0.0014192469860121746
967.0,-0.0014363048689742131
966.0,-0.0014407095807314222
965.0,-0.0014450544974159638
964.0,-0.0014547017647900933
963.0,-0.0014627020558582319
962.0,-0.0014609584650637688
961.0,-0.0014487507618496202
960.0,-0.0014323087141254387
959.0,-0.0014247568997613098
958.0,-0.0014433927332562274
957.0,-0.0014945081034242243
956.0,-0.0015596254097673653
955.0,-0.0016072987108717179
954.0,-0.001622441095021313
953.0,-0.001617173286988754
952.0,-0.0016115985130953745
951.0,-0.001613060006880186
950.0,-0.0016163732755543115
949.0,-0.0016145755090067422
948.0,-0.0016046463222028637
947.0,-0.0015898218832505117
946.0,-0.001580733496374229
945.0,-0.0015883881357341935
944.0,-0.0016117134664067456
943.0,-0.001635517624520598
942.0,-0.0016436074370755052
941.0,-0.0016322068777894806
940.0,-0.0016106584102616762
939.0,-0.0015929790400622656
938.0,-0.0015887367899344298
937.0,-0.0015970734973347125
936.0,-0.0016077109144366098
935.0,-0.0016097932270271132
934.0,-0.0016000880380869342
933.0,-0.0015823342391886987
932.0,-0.0015623426559732648
931.0,-0.001546685113232701
930.0,-0.0015413346872765726
929.0,-0.0015458669380930146
928.0,-0.0015517629536040377
927.0,-0.0015514032267470506
926.0,-0.0015463904862250818
925.0,-0.0015430430913485503
924.0,-0.0015436346737357906
923.0,-0.0015473010020048078
922.0,-0.001555371919276325
921.0,-0.0015691713345945563
920.0,-0.0015848853654295472
919.0,-0.0015958021086911042
918.0,-0.0015972904946745803
917.0,-0.001586346888774682
916.0,-0.0015617087188960835
915.0,-0.0015299484766263536
914.0,-0.0015056523549255105
913.0,-0.0014979963438227582
912.0,-0.0015011173948434224
911.0,-0.0015037603948802967
910.0,-0.0015032040200928633
909.0,-0.0015030257127681768
908.0,-0.0015033390169630094
907.0,-0.0015021844538365171
906.0,-0.0015014322958795713
905.0,-0.0015020391075299218
904.0,-0.0014975887559974263
903.0,-0.0014810674575887065
902.0,-0.001455024186472727
901.0,-0.0014284789054301236
900.0,-0.0014081242849694198
899.0,-0.001397968651574398
898.0,-0.0014001906204135573
897.0,-0.0014086464279339855
896.0,-0.0014086491365188072
895.0,-0.001391796748558067
894.0,-0.0013647124154202994
893.0,-0.0013361602770851676
892.0,-0.0013055100183631454
891.0,-0.0012736803091892212
890.0,-0.0012532253003278131
889.0,-0.001252175851490506
888.0,-0.0012562031853881475
887.0,-0.0012439176124429746
886.0,-0.0012159759906005367
885.0,-0.0011933770201312949
884.0,-0.0011898734363104133
883.0,-0.001201249135836276
882.0,-0.001218939651765073
881.0,-0.0012373677451629449
880.0,-0.0012475533200346934
879.0,-0.0012402678731317715
878.0,-0.0012197727953543024
877.0,-0.0012019994392877082
876.0,-0.0011967391499306925
875.0,-0.001202159697657329
874.0,-0.0012156769252751106
873.0,-0.0012378267404646965
872.0,-0.0012655928862004414
871.0,-0.0012924172446338545
870.0,-0.0013141155758098141
869.0,-0.0013271797296451537
868.0,-0.0013263853885835033
867.0,-0.0013139879361410579
866.0,-0.0013048246696357457
865.0,-0.0013096576656519811
864.0,-0.0013185871855808367
863.0,-0.0013144280566754615
862.0,-0.00129860734841818
861.0,-0.0012894754798791026
860.0,-0.0012973604563759613
859.0,-0.0013155227990337666
858.0,-0.001333418817218635
857.0,-0.0013441990703893826
856.0,-0.0013406899501701057
855.0,-0.0013206148847963095
854.0,-0.0012980935954978188
853.0,-0.0012949157347071317
852.0,-0.0013164827885014134
851.0,-0.001347268973136576
850.0,-0.0013712490274816582
849.0,-0.001385766074974086
848.0,-0.0013947425049610765
847.0,-0.0014009243450093124
846.0,-0.001406105843209723
845.0,-0.0014068185492972889
844.0,-0.0013899516226267136
843.0,-0.0013468832395489355
842.0,-0.0012934164174125537
841.0,-0.0012602982797436761
840.0,-0.0012603757430613375
839.0,-0.0012784349566476987
838.0,-0.001295879078688964
837.0,-0.0013104240378773186
836.0,-0.0013253421115096082
835.0,-0.0013338398471531418
834.0,-0.0013253827694156848
833.0,-0.001300509924847931
832.0,-0.0012723640802737935
831.0,-0.001258359476768815
830.0,-0.0012706780477347388
829.0,-0.0013036941468776986
828.0,-0.001327927855321171
827.0,-0.0013114725574138383
826.0,-0.0012558000631321588
825.0,-0.0011948805247796335
824.0,-0.0011501823954575335
823.0,-0.001106818382736536
822.0,-0.001045879287789083
821.0,-0.0009764784033069922
820.0,-0.0009189203766795627
819.0,-0.0008754540461022118
818.0,-0.0008346688803691467
817.0,-0.0007948939593122577
816.0,-0.0007684907677663697
815.0,-0.000763955919461325
814.0,-0.0007735995823674536
813.0,-0.0007820473228602907
812.0,-0.0007822333150372448
811.0,-0.0007785734737391203
810.0,-0.0007750108351009064
809.0,-0.0007644809270296368
808.0,-0.0007360211346451768
807.0,-0.0006936449122156314
806.0,-0.0006602014792133392
805.0,-0.0006545000649249384
804.0,-0.0006686598783237387
803.0,-0.000677052379882262
802.0,-0.0006657566662134811
801.0,-0.0006437117531000154
800.0,-0.0006258238635056257
799.0,-0.0006175162135156438
798.0,-0.0006192566154468648
797.0,-0.0006342619548089555
796.0,-0.0006629793080976908
795.0,-0.0006962794579018512
794.0,-0.0007216329623350257
793.0,-0.0007317633437019817
792.0,-0.0007227167439580063
791.0,-0.0006918078560908623
790.0,-0.0006470406220991237
789.0,-0.0006119933902045595
788.0,-0.0006081203768020706
787.0,-0.000631089541050121
786.0,-0.0006533993330015697
785.0,-0.0006529536429312217
784.0,-0.0006310691719866902
783.0,-0.000600416418478399
782.0,-0.0005666750179267399
781.0,-0.0005300510387893365
780.0,-0.000497629074438892
779.0,-0.000482002461549497
778.0,-0.00048643978243349643
777.0,-0.000499512835190211
776.0,-0.0005063632913378212
775.0,-0.0004994111265471364
774.0,-0.00047883947007922555
773.0,-0.0004508876294844295
772.0,-0.000427030402584511
771.0,-0.0004163557372239375
770.0,-0.00041426338610176666
769.0,-0.00040551392644309295
768.0,-0.0003829840002374319
767.0,-0.00035650863781740063
766.0,-0.00033937361299974083
765.0,-0.0003355239330493408
764.0,-0.00034627862285034876
763.0,-0.0003776835211525345
762.0,-0.00042739744968079904
761.0,-0.00047023622232113087
760.0,-0.0004722876875540962
759.0,-0.0004221070931591103
758.0,-0.0003415259929162237
757.0,-0.0002667921688884259
756.0,-0.00022475011182453326
755.0,-0.00022088915746700574
754.0,-0.00023628262209892618
753.0,-0.00023700027586121518
752.0,-0.0002003922536546552
751.0,-0.0001363470059195385
750.0,-7.608469621753211e-05
749.0,-3.969799718747235e-05
748.0,-2.097605481900071e-05
747.0,-1.1157131952653151e-06
746.0,3.328749655052889e-05
745.0,8.504865655385718e-05
744.0,0.0001485823432945347
743.0,0.00021531806030975886
742.0,0.0002825480689267884
741.0,0.0003561789849672115
740.0,0.0004413308805867608
739.0,0.0005374295289617996
738.0,0.0006506077769135553
737.0,0.0008052670745900947
736.0,0.001042797197737446
735.0,0.0014273713066608584
734.0,0.002054083571419698
733.0,0.003000738141806767
732.0,0.00420912307609069
731.0,0.005418026179717117
730.0,0.006293696751636255
729.0,0.006691089636887372
728.0,0.006771297434391154
727.0,0.006847796530187121
726.0,0.007160612595329989
725.0,0.007807521961950191
724.0,0.008820180207439382
723.0,0.010234112290610983
722.0,0.01206911024730447
721.0,0.014239201372554963
720.0,0.016467230250045598
719.0,0.018318389312266252
718.0,0.019351615707663052
717.0,0.019228737246050186
716.0,0.017794682433635186
715.0,0.015247186839300562
714.0,0.012182369241289095
713.0,0.009292407601138683
712.0,0.006995759217465952
711.0,0.0053482314844212914
710.0,0.0041972672518761755
709.0,0.0033705291320816275
708.0,0.002758969023779036
707.0,0.002293129022840505
706.0,0.0019105572336734229
705.0,0.001571745208569229
704.0,0.0012803545823677452
703.0,0.0010565605036178764
702.0,0.0008960452723827204
701.0,0.0007718092833242807
700.0,0.0006630518808926848
699.0,0.0005608058737499467
698.0,0.00045638679495658713
697.0,0.0003468121705905115
696.0,0.00024415157825295134
695.0,0.00015792282358836115
694.0,7.441715178648032e-05
693.0,-2.420021573447482e-05
692.0,-0.000125882366158259
691.0,-0.0001983710155041233
690.0,-0.00023348356815693777
689.0,-0.0002619544446508708
688.0,-0.00031939805470100006
687.0,-0.00041293128219100847
686.0,-0.0005235924836031391
685.0,-0.0006209712744836109
684.0,-0.000674650989079123
683.0,-0.0006740682460740863
682.0,-0.0006416365300929532
681.0,-0.000612829418334241
680.0,-0.0006029073417689436
679.0,-0.000605683158979348
678.0,-0.0006147991127606845
677.0,-0.0006306947611903844
676.0,-0.0006418144930838664
675.0,-0.0006278875654102331
674.0,-0.000603799574389113
673.0,-0.0006089757051578968
672.0,-0.0006428538107847281
671.0,-0.0006519251649922501
670.0,-0.0006135524236505008
669.0,-0.000532478640397219
668.0,-0.0004457200099935877
667.0,-0.0004888601277394248
666.0,-0.000670122008816566
665.0,-0.000835357030274605
664.0,-0.0009078569754274015
663.0,-0.0009081315749908695
662.0,-0.0008870046105680165
661.0,-0.0008655060211589533
660.0,-0.0008431012643738281
659.0,-0.0008293802743015314
658.0,-0.0008485973658219131
657.0,-0.0009132606119982307
656.0,-0.0010058556205901808
655.0,-0.0010892183855945366
654.0,-0.0011394131290631132
653.0,-0.0011532862519556654
652.0,-0.0011371254376266564
651.0,-0.0011103460696375517
650.0,-0.0011086866343643035
649.0,-0.0011503327567666819
648.0,-0.0012047350000163257
647.0,-0.001224561996798366
646.0,-0.0012070605052338533
645.0,-0.0011926721904311835
644.0,-0.0012029466723354658
643.0,-0.001211478174326439
642.0,-0.0011842779624982244
641.0,-0.00112858266691952
640.0,-0.0010890533072206686
639.0,-0.001107127897750847
638.0,-0.001189320681143499
637.0,-0.0013073102973260274
636.0,-0.0014196086927921008
635.0,-0.0014916523585736903
634.0,-0.0015085842351228772
633.0,-0.001477804330530544
632.0,-0.0014223247959448395
631.0,-0.0013745049198653856
630.0,-0.0013567554083443742
629.0,-0.0013551797378795047
628.0,-0.0013328805242495195
627.0,-0.0012828692036392286
626.0,-0.001249283483938512
625.0,-0.0012724421699208122
624.0,-0.0013308171298559582
623.0,-0.0013723974603953451
622.0,-0.0013927033057684265
621.0,-0.0014402330466780104
620.0,-0.0015417693407507793
619.0,-0.0016568448683892088
618.0,-0.0017186916344241448
617.0,-0.0017054808365477118
616.0,-0.0016548547163787817
615.0,-0.0016155858444022921
614.0,-0.0016018074307968342
613.0,-0.00159199474228009
612.0,-0.001563176545021844
611.0,-0.001526520001543105
610.0,-0.0015197479172502507
609.0,-0.0015538420393818248
608.0,-0.0015857981014698787
607.0,-0.0015654616760830643
606.0,-0.001502080641975126
605.0,-0.0014559298451042911
604.0,-0.0014657938965898145
603.0,-0.00151625992932994
602.0,-0.0015712875811188295
601.0,-0.001612576263859424
600.0,-0.0016431626583055638
