cm-1,A
4000.0,0.00028092389459274947
3999.0,0.0002870147327746363
3998.0,0.0002818532624491533
3997.0,0.00027637875981643164
3996.0,0.00028001624982293817
3995.0,0.0002913763627102772
3994.0,0.0002981805347657448
3993.0,0.00028976858045954196
3992.0,0.0002693580459073092
3991.0,0.0002526591147263415
3990.0,0.0002546811360885837
3989.0,0.00027626469590896297
3988.0,0.00030482922508508236
3987.0,0.00032594801586632394
3986.0,0.00033418683725805633
3985.0,0.0003344875954641266
3984.0,0.0003344850750187762
3983.0,0.00033792462801054474
3982.0,0.0003431840632797187
3981.0,0.00034703887432132636
3980.0,0.0003483362207451135
3979.0,0.0003472718463493275
3978.0,0.0003435104779158831
3977.0,0.0003364892645447615
3976.0,0.00032813082981671793
3975.0,0.00032362543932336617
3974.0,0.0003275137915702039
3973.0,0.0003382544604447237
3972.0,0.0003477022126292645
3971.0,0.0003464708395118513
3970.0,0.00033092121433036023
3969.0,0.00030645024926976775
3968.0,0.00028400525858248826
3967.0,0.00027316692728103606
3966.0,0.00027608322056271685
3965.0,0.0002869346671828121
3964.0,0.00029711264005464745
3963.0,0.00030125584725758777
3962.0,0.00029952892770053653
3961.0,0.00029452654718798815
3960.0,0.0002878284492378286
3959.0,0.00028019423403854234
3958.0,0.0002738736369249374
3957.0,0.0002728068290011944
3956.0,0.00027991199258767865
3955.0,0.0002939467980245797
3954.0,0.00030948565751638956
3953.0,0.00032056976275262835
3952.0,0.00032485395911301286
3951.0,0.00032521422892520615
3950.0,0.00032632030197020655
3949.0,0.00033031120162926717
3948.0,0.0003366101308709817
3947.0,0.00034477934958074274
3946.0,0.0003554716968488829
3945.0,0.0003673447827519813
3944.0,0.0003758591597473502
3943.0,0.00037690360698549474
3942.0,0.0003701830395128375
3941.0,0.0003579155753599742
3940.0,0.00034231326037737544
3939.0,0.000326556077742607
3938.0,0.00031767289811476096
3937.0,0.0003232018462708519
3936.0,0.0003429665288927984
3935.0,0.0003660494053433236
3934.0,0.000376622656917447
3933.0,0.00036581742327417444
3932.0,0.0003385343200412205
3931.0,0.0003105534131436902
3930.0,0.0002988281289301453
3929.0,0.00030950386766031874
3928.0,0.000333903129821843
3927.0,0.00035471075455998746
3926.0,0.00035974526352837774
3925.0,0.00035336185034160194
3924.0,0.00035093631947923196
3923.0,0.00036277327009502896
3922.0,0.00038553692240248747
3921.0,0.0004072184624869407
3920.0,0.0004173682101307813
3919.0,0.0004120527950834064
3918.0,0.0003941495724399071
3917.0,0.00037115570633745393
3916.0,0.00035098886554485074
3915.0,0.00033849678517950093
3914.0,0.000334380762197008
3913.0,0.000335683831912069
3912.0,0.0003389593133502502
3911.0,0.0003437593188844854
3910.0,0.00035443159179533224
3909.0,0.0003762928263604876
3908.0,0.0004077424056811823
3907.0,0.0004371885171321459
3906.0,0.00044991669341997164
3905.0,0.0004413646632749113
3904.0,0.0004223111324836041
3903.0,0.00040719148840753794
3902.0,0.0003997434666932519
3901.0,0.0003944251564073113
3900.0,0.0003867526734252696
3899.0,0.00037819859509331084
3898.0,0.00037373393282475386
3897.0,0.00037716973253351297
3896.0,0.00038819853452734776
3895.0,0.0003999629257276019
3894.0,0.0004005306779955526
3893.0,0.0003808825680762832
3892.0,0.0003468160017601566
3891.0,0.0003176574382913763
3890.0,0.0003082756680246801
3889.0,0.00031689284273035467
3888.0,0.00032985343933924404
3887.0,0.0003375347159338538
3886.0,0.00034452401614430906
3885.0,0.0003580711791854749
3884.0,0.00037575509039891564
3883.0,0.0003908022658181418
3882.0,0.0004017375210223505
3881.0,0.0004129059858109025
3880.0,0.00042464048406015974
3879.0,0.0004299848790613015
3878.0,0.00042481631664081064
3877.0,0.0004118924418415514
3876.0,0.00039829444914522285
3875.0,0.0003928039733409258
3874.0,0.00039723504905383035
3873.0,0.0004020633594750977
3872.0,0.00039537430396704764
3871.0,0.00037714337603997783
3870.0,0.0003630603861885312
3869.0,0.000365293463984213
3868.0,0.0003793235614181342
3867.0,0.00039292363103265413
3866.0,0.0003983073025433046
3865.0,0.0003966378996616235
3864.0,0.00039250266510767497
3863.0,0.0003877870585758486
3862.0,0.00038390367403347557
3861.0,0.00038176047454549706
3860.0,0.00037984913618041794
3859.0,0.00037674663920809624
3858.0,0.0003748147344641331
3857.0,0.0003759885083912906
3856.0,0.0003704289502092046
3855.0,0.00034863641977838977
3854.0,0.0003295679090511674
3853.0,0.0003345369617738599
3852.0,0.0003545105147995448
3851.0,0.00037239231606506153
3850.0,0.0003816961013574843
3849.0,0.0003834844596155727
3848.0,0.0003826117840025597
3847.0,0.00038442906178144366
3846.0,0.0003912265310729135
3845.0,0.0003998754090943077
3844.0,0.00040466887249751094
3843.0,0.00040383639524074825
3842.0,0.00040289942635971155
3841.0,0.00040759856648599533
3840.0,0.0004159101925050124
3839.0,0.000420034009858366
3838.0,0.0004163631419205691
3837.0,0.0004099638495976291
3836.0,0.00040618714119460887
3835.0,0.0004043657951063545
3834.0,0.0004029028430233571
3833.0,0.0004050986167266152
3832.0,0.00041719985504772505
3831.0,0.0004400798808635017
3830.0,0.0004653697467496826
3829.0,0.00048136064026183835
3828.0,0.0004819903791143654
3827.0,0.00047270717356089076
3826.0,0.0004666590906573249
3825.0,0.00047082970805085306
3824.0,0.00047708182631920725
3823.0,0.00047151395074980854
3822.0,0.00045578369137216733
3821.0,0.000444559056744579
3820.0,0.0004419119670251531
3819.0,0.000441175766819193
3818.0,0.00043587663379800277
3817.0,0.00042695443882721616
3816.0,0.0004233088690694465
3815.0,0.0004289674881645258
3814.0,0.0004392364658573319
3813.0,0.00045038240946814053
3812.0,0.0004635453846892713
3811.0,0.0004804461515821244
3810.0,0.00049895304819361
3809.0,0.000514553372664998
3808.0,0.0005279653328678217
3807.0,0.0005442738623549395
3806.0,0.000562471254833174
3805.0,0.0005751387811769351
3804.0,0.0005744292407566833
3803.0,0.0005577993897561252
3802.0,0.0005367299708760071
3801.0,0.000527629692242034
3800.0,0.000534141513680883
3799.0,0.0005481992342727909
3798.0,0.0005594369799833039
3797.0,0.0005616527977287604
3796.0,0.0005555291671568082
3795.0,0.0005474038927027875
3794.0,0.000543981981242435
3793.0,0.0005470925938943684
3792.0,0.0005532760091058987
3791.0,0.0005572655069795709
3790.0,0.0005561294376453546
3789.0,0.0005509236557622494
3788.0,0.0005451349471189632
3787.0,0.0005430087915851043
3786.0,0.0005491088035198198
3785.0,0.0005661084837009064
3784.0,0.000591539415502851
3783.0,0.000616779432192672
3782.0,0.0006316559640761401
3781.0,0.0006316321335993463
3780.0,0.0006238575990043316
3779.0,0.0006224850178980329
3778.0,0.0006350460402041262
3777.0,0.0006555621900182684
3776.0,0.0006716092836740032
3775.0,0.000676493465356054
3774.0,0.0006738630772884995
3773.0,0.0006720757307168183
3772.0,0.0006777167699222206
3771.0,0.0006943942013632795
3770.0,0.0007210323186009542
3769.0,0.0007489119952960667
3768.0,0.0007680322921590792
3767.0,0.0007752534780528064
3766.0,0.0007761058899719574
3765.0,0.0007791075100135667
3764.0,0.0007872722451772286
3763.0,0.0007961165776304655
3762.0,0.00079887946503898
3761.0,0.0007932271162701686
3760.0,0.0007837422602795058
3759.0,0.0007770343649836681
3758.0,0.0007782668393822395
3757.0,0.0007906739903496784
3756.0,0.0008138251345631745
3755.0,0.000841989522823606
3754.0,0.000865348727632395
3753.0,0.0008756394699438645
3752.0,0.0008734489282854162
3751.0,0.0008696019424705423
3750.0,0.0008777947295965233
3749.0,0.0009028525812584886
3748.0,0.0009374329938653192
3747.0,0.000965038021189488
3746.0,0.0009690111911910652
3745.0,0.0009594083309310574
3744.0,0.0009607473658830908
3743.0,0.0009731369794222363
3742.0,0.0009856169594579943
3741.0,0.000997708244730336
3740.0,0.0010142348881750256
3739.0,0.0010340487114296063
3738.0,0.0010477040410183619
3737.0,0.0010521253206513858
3736.0,0.0010591556804112822
3735.0,0.0010776861910768909
3734.0,0.0010982031512706664
3733.0,0.0011051029603189953
3732.0,0.0010953919000378765
3731.0,0.0010809882231259309
3730.0,0.0010763752597612885
3729.0,0.001084740391926128
3728.0,0.0010960739868886762
3727.0,0.0010982818036408702
3726.0,0.0010899481178929568
3725.0,0.0010813890050639153
3724.0,0.0010839303433103132
3723.0,0.0011006213674100548
3722.0,0.001127916427704172
3721.0,0.0011622288322211127
3720.0,0.0012016164813243185
3719.0,0.0012426702198364806
3718.0,0.0012795434957566753
3717.0,0.0013075510602188936
3716.0,0.0013262529311268854
3715.0,0.0013388785445830709
3714.0,0.0013515274252043573
3713.0,0.0013705788991102438
3712.0,0.001395624817831873
3711.0,0.0014175985963551076
3710.0,0.0014328277938588574
3709.0,0.0014486042373201527
3708.0,0.0014714731877116655
3707.0,0.0015022037213601525
3706.0,0.0015395782305974133
3705.0,0.0015825671108140543
3704.0,0.001628931132558277
3703.0,0.0016745954956575108
3702.0,0.0017158444027237528
3701.0,0.0017517375743762323
3700.0,0.0017845799425704328
3699.0,0.0018178204284496704
3698.0,0.0018544409803383977
3697.0,0.0018979960685492421
3696.0,0.0019514607825598866
3695.0,0.002014188492705251
3694.0,0.002081293250540894
3693.0,0.002144905785673244
3692.0,0.002197402117056484
3691.0,0.002237349798223026
3690.0,0.002274597827568336
3689.0,0.002321784055886286
3688.0,0.0023780675399939157
3687.0,0.0024314914591108774
3686.0,0.00247726017520836
3685.0,0.0025227624341372743
3684.0,0.0025789030805173016
3683.0,0.0026514275074608885
3682.0,0.0027375620246643077
3681.0,0.002830592517232621
3680.0,0.002924167673961491
3679.0,0.003013841103838476
3678.0,0.0030975037919076815
3677.0,0.0031829352120391224
3676.0,0.003285954759906323
3675.0,0.003399447956437171
3674.0,0.0035012440792562575
3673.0,0.0035920994409891285
3672.0,0.0036871168559198405
3671.0,0.0037982499708073864
3670.0,0.003922551088445096
3669.0,0.0040397199931863645
3668.0,0.004140574789332844
3667.0,0.004236136312658213
3666.0,0.004337114748148032
3665.0,0.004444373754787194
3664.0,0.00455730061547956
3663.0,0.004682619090881641
3662.0,0.0048294396901854275
3661.0,0.004994943143198538
3660.0,0.005162288873707938
3659.0,0.005316997205002431
3658.0,0.005464595967442064
3657.0,0.005626156394637095
3656.0,0.005807538274051068
3655.0,0.005987015405530923
3654.0,0.006143741581206916
3653.0,0.006277928080934482
3652.0,0.0064080691852728515
3651.0,0.006569197435384545
3650.0,0.006788298674646842
3649.0,0.0070418930458709
3648.0,0.007273056817359253
3647.0,0.007452351914219805
3646.0,0.0075934376166042665
3645.0,0.007725635132320528
3644.0,0.007870893547775785
3643.0,0.00803686427363327
3642.0,0.008219707282677907
3641.0,0.008411536580661825
3640.0,0.008606782576742177
3639.0,0.008803565438415342
3638.0,0.009000707670040685
3637.0,0.009197840651643429
3636.0,0.00939832346486673
3635.0,0.00960655003396226
3634.0,0.009819463733974965
3633.0,0.010026232320582515
3632.0,0.010224562918255055
3631.0,0.010437009733066405
3630.0,0.010706271852303707
3629.0,0.011029027099345093
3628.0,0.011319356564924764
3627.0,0.011524572083892775
3626.0,0.011682940865785703
3625.0,0.011847413411312784
3624.0,0.012037277929282223
3623.0,0.012243199093577389
3622.0,0.01245552970760169
3621.0,0.012681387557187958
3620.0,0.012931934466134144
3619.0,0.013193545040678642
3618.0,0.013433499147164902
3617.0,0.013639343412526992
3616.0,0.013828249255295277
3615.0,0.01402715617379911
3614.0,0.014252025386849958
3613.0,0.014494916904621215
3612.0,0.014732711606260033
3611.0,0.014953711624989024
3610.0,0.015169716760696207
3609.0,0.015398359005770364
3608.0,0.01563776574033049
3607.0,0.015867647408538854
3606.0,0.016075188730323896
3605.0,0.016265949733874026
3604.0,0.016453719387434635
3603.0,0.01665222842038281
3602.0,0.016870534611508087
3601.0,0.017106118970544905
3600.0,0.017343969006645976
3599.0,0.017571098435449232
3598.0,0.017790326073692093
3597.0,0.018015984418167864
3596.0,0.018257579723168386
3595.0,0.018509513186606753
3594.0,0.018754163098447043
3593.0,0.01897477940735142
3592.0,0.019169264159756488
3591.0,0.019354697296467924
3590.0,0.01956019837151866
3589.0,0.019810386979808945
3588.0,0.02009829650025662
3587.0,0.020380626340941677
3586.0,0.020621944987391436
3585.0,0.020823880001905454
3584.0,0.02100520179838396
3583.0,0.021181983651610538
3582.0,0.021366493082048413
3581.0,0.02156652019759146
3580.0,0.021783012844998933
3579.0,0.022013679877446943
3578.0,0.022257697238884728
3577.0,0.022511895951560324
3576.0,0.022766653562999374
3575.0,0.02301206424079514
3574.0,0.023245766149042942
3573.0,0.023469191076561605
3572.0,0.0236812965586464
3571.0,0.023884677694818574
3570.0,0.024094755942841797
3569.0,0.024335931522563362
3568.0,0.024618466416081092
3567.0,0.024916899161602536
3566.0,0.02519223437253413
3565.0,0.025432946140690103
3564.0,0.02565382472384863
3563.0,0.02587226338931135
3562.0,0.026097579989487637
3561.0,0.026330115738345962
3560.0,0.026563986297156356
3559.0,0.026794461911220497
3558.0,0.027022624700067808
3557.0,0.027250015629432463
3556.0,0.027474898323474623
3555.0,0.02769935381649585
3554.0,0.027934325899394496
3553.0,0.028187846664707084
3552.0,0.02844982101159595
3551.0,0.028700895548999485
3550.0,0.02893490429586612
3549.0,0.029163198786902697
3548.0,0.02940134216583926
3547.0,0.0296573283675125
3546.0,0.029927730678977763
3545.0,0.030198866540055908
3544.0,0.03045531853740342
3543.0,0.03069301447548994
3542.0,0.030921847834864312
3541.0,0.031152588306178914
3540.0,0.03138590748319957
3539.0,0.031618890038023824
3538.0,0.031856420206297045
3537.0,0.0321054572857133
3536.0,0.03235895576745623
3535.0,0.03259904692989144
3534.0,0.03281865828343848
3533.0,0.03303007789356679
3532.0,0.03325176144056344
3531.0,0.033493743125902545
3530.0,0.03375535333576408
3529.0,0.034028430941019455
3528.0,0.03430053913626066
3527.0,0.034563266699121756
3526.0,0.03482038096897837
3525.0,0.03508248454853804
3524.0,0.03535111667032286
3523.0,0.03561307860660516
3522.0,0.03585418189718558
3521.0,0.036074381827283
3520.0,0.03628774670216535
3519.0,0.03651177164060445
3518.0,0.036756249711206314
3517.0,0.037017963317808794
3516.0,0.03728482650800133
3515.0,0.037546939649936266
3514.0,0.03780315850476606
3513.0,0.03805680835206657
3512.0,0.038309429980895586
3511.0,0.038561349744858704
3510.0,0.038813530198547296
3509.0,0.03906479541160607
3508.0,0.039311229564362414
3507.0,0.03955262927930551
3506.0,0.03979587060145297
3505.0,0.04004790111158668
3504.0,0.0403077322738384
3503.0,0.04056853073413392
3502.0,0.04082496448541207
3501.0,0.04107514013355511
3500.0,0.04131953183713229
3499.0,0.041563476218561234
3498.0,0.04181632506709342
3497.0,0.04208160493704933
3496.0,0.04235172279158781
3495.0,0.042617703294660234
3494.0,0.042879031496831116
3493.0,0.04313792419134893
3492.0,0.04339024338804636
3491.0,0.043630811233086715
3490.0,0.043864202632372694
3489.0,0.04410167528990623
3488.0,0.04434881010864462
3487.0,0.04460208157402468
3486.0,0.04485543193943354
3485.0,0.0451046218220032
3484.0,0.04534877951329869
3483.0,0.04559390130338056
3482.0,0.045849404058779686
3481.0,0.04611403107232792
3480.0,0.046371017868548296
3479.0,0.04660588385162881
3478.0,0.04682425184316395
3477.0,0.047044163385415214
3476.0,0.04727506650785756
3475.0,0.04751258305656158
3474.0,0.047750610171289454
3473.0,0.04798841733385179
3472.0,0.04822617474068313
3471.0,0.048462548198339506
3470.0,0.04869856922516932
3469.0,0.048937664534752914
3468.0,0.0491808800561707
3467.0,0.04942660785614893
3466.0,0.0496744315687024
3465.0,0.049924412945947606
3464.0,0.050173235523570246
3463.0,0.05041505062896378
3462.0,0.050645093628333956
3461.0,0.05086072200387348
3460.0,0.05106309883652566
3459.0,0.05126150309088094
3458.0,0.051469928164663614
3457.0,0.05169285508684659
3456.0,0.051919173365236194
3455.0,0.05213653231628579
3454.0,0.05234640068580307
3453.0,0.052557308628858324
3452.0,0.052768077981227596
3451.0,0.05296906870512898
3450.0,0.053160261724142406
3449.0,0.05335773954112916
3448.0,0.05357708423753824
3447.0,0.05381356696233071
3446.0,0.05404362351295407
3445.0,0.054246697761283554
3444.0,0.05442325135707384
3443.0,0.05459312407128409
3442.0,0.05477796480082571
3441.0,0.054983190211044315
3440.0,0.05519745235345787
3439.0,0.05540839805184078
3438.0,0.055613104912229684
3437.0,0.05581318825096989
3436.0,0.05600766283190766
3435.0,0.05619450181006558
3434.0,0.05637436901783709
3433.0,0.05654935571968694
3432.0,0.056721562883756106
3431.0,0.056894768010327994
3430.0,0.05707264971385194
3429.0,0.0572530536913785
3428.0,0.05742924120487411
3427.0,0.057598670497151845
3426.0,0.057764475066986294
3425.0,0.057927347697914196
3424.0,0.05808458582642751
3423.0,0.05824005723636568
3422.0,0.05840516357570362
3421.0,0.05858283574842299
3420.0,0.05875864295066776
3419.0,0.05891614985828506
3418.0,0.059054720054358315
3417.0,0.05918570572591204
3416.0,0.059317974808979476
3415.0,0.05945384455126273
3414.0,0.059592932540935575
3413.0,0.05973217915167442
3412.0,0.059866419110872426
3411.0,0.0599958139602597
3410.0,0.06012853737931554
3409.0,0.06026939290090174
3408.0,0.06041018863269567
3407.0,0.060539189490095464
3406.0,0.0606567557437201
3405.0,0.06077370062015937
3404.0,0.06089579172549349
3403.0,0.06101662616172961
3402.0,0.06112637389504643
3401.0,0.061223766645212584
3400.0,0.061318933529479126
3399.0,0.06142475573571071
3398.0,0.06154258336450446
3397.0,0.061656121794496165
3396.0,0.06174512033900393
3395.0,0.06180793196050147
3394.0,0.0618651626054287
3393.0,0.061938010442147445
3392.0,0.062028213015898885
3391.0,0.062121954567476136
3390.0,0.0622058638801774
3389.0,0.06227448813585277
3388.0,0.062330512762919864
3387.0,0.062384682840138456
3386.0,0.06244925133968808
3385.0,0.06252407518608155
3384.0,0.06259376313443252
3383.0,0.06264493336975725
3382.0,0.06268127269615384
3381.0,0.0627162895133244
3380.0,0.06275748701325662
3379.0,0.06280421492159624
3378.0,0.06285552859576059
3377.0,0.0629107816737307
3376.0,0.06296428889990019
3375.0,0.06300749614417891
3374.0,0.06303692869864405
3373.0,0.06305572123771641
3372.0,0.06306885078756713
3371.0,0.06308088903164573
3370.0,0.06309625428905166
3369.0,0.0631171629039288
3368.0,0.06314182906034072
3367.0,0.06316660092390604
3366.0,0.06318773891906049
3365.0,0.06320032856608272
3364.0,0.06320042122211825
3363.0,0.06319081169973832
3362.0,0.06317979073121564
3361.0,0.06317102312912314
3360.0,0.0631594927257502
3359.0,0.06314089382859407
3358.0,0.06311961094376234
3357.0,0.06310270504469136
3356.0,0.06309093379628146
3355.0,0.06308088924490443
3354.0,0.06307136020252326
3353.0,0.06306176307433527
3352.0,0.06304763424691544
3351.0,0.06302328040983239
3350.0,0.06298725318094375
3349.0,0.06294151601119223
3348.0,0.06288775747869897
3347.0,0.06282828823047752
3346.0,0.06276781526580809
3345.0,0.06271011976938158
3344.0,0.06265464530580168
3343.0,0.06259909055453682
3342.0,0.06254298219457506
3341.0,0.062486518121381715
3340.0,0.06242898675402743
3339.0,0.06237090980792639
3338.0,0.062314882718159145
3337.0,0.06226160585022454
3336.0,0.06220728616322032
3335.0,0.062146559237790125
3334.0,0.06207553593214387
3333.0,0.06199212692666841
3332.0,0.061898407913653045
3331.0,0.06180349551815214
3330.0,0.061718046337337976
3329.0,0.061643767278410255
3328.0,0.06157345863159596
3327.0,0.06150273869286211
3326.0,0.0614349284217864
3325.0,0.06137143242924237
3324.0,0.06130529877936476
3323.0,0.061230417697850155
3322.0,0.06115132884897831
3321.0,0.06107715246541476
3320.0,0.06100938974788515
3319.0,0.060941441120133825
3318.0,0.06086710725359797
3317.0,0.06078464685811749
3316.0,0.060695744548475795
3315.0,0.06060566065687579
3314.0,0.060521603778282966
3313.0,0.06044568754512768
3312.0,0.060371301221531164
3311.0,0.06029106078761249
3310.0,0.06020675941848297
3309.0,0.060126856300022985
3308.0,0.06005517571471812
3307.0,0.05998647531869121
3306.0,0.059912894686517684
3305.0,0.059831043701170164
3304.0,0.0597427966742404
3303.0,0.059652591397136974
3302.0,0.05956502146684797
3301.0,0.05948335416861555
3300.0,0.0594088929787568
3299.0,0.059340668683079655
3298.0,0.05927477763833344
3297.0,0.05920525231839255
3296.0,0.05912836919586221
3295.0,0.059046236752048065
3294.0,0.058963851904628745
3293.0,0.05888271005435059
3292.0,0.058799750002933006
3291.0,0.058712122131617105
3290.0,0.05861973263073267
3289.0,0.058523305709792764
3288.0,0.058423733861549636
3287.0,0.05832363952975612
3286.0,0.05822566163307566
3285.0,0.05812834612278351
3284.0,0.05802737813465632
3283.0,0.05792205769782596
3282.0,0.05781747345463735
3281.0,0.0577193796468581
3280.0,0.05762965218717268
3279.0,0.057546475796934206
3278.0,0.057464784008078765
3277.0,0.057376137796041365
3276.0,0.05727315282656836
3275.0,0.0571563174464356
3274.0,0.05703312831552063
3273.0,0.05690871676461713
3272.0,0.05678022442665747
3271.0,0.05664199912055665
3270.0,0.056494195675614936
3269.0,0.05634524800590204
3268.0,0.05620672804259365
3267.0,0.05608414050862365
3266.0,0.05597016411786636
3265.0,0.055848767532799284
3264.0,0.05570965432150965
3263.0,0.05555749239090291
3262.0,0.05540393502474869
3261.0,0.05525359588185047
3260.0,0.05510296502703941
3259.0,0.0549499828833948
3258.0,0.05479688343464301
3257.0,0.054644050016648564
3256.0,0.05448862651699516
3255.0,0.05433048670125506
3254.0,0.05417342602812411
3253.0,0.0540194401364829
3252.0,0.05386793822479647
3251.0,0.05372140890286513
3250.0,0.05358471559440997
3249.0,0.05345594068178968
3248.0,0.05332344305206837
3247.0,0.053175518673423024
3246.0,0.05301018036582724
3245.0,0.052834496997342904
3244.0,0.052658193178843696
3243.0,0.05248863123436594
3242.0,0.052327460964442
3241.0,0.05217034389836377
3240.0,0.05201279046528886
3239.0,0.0518558178709838
3238.0,0.05170198734149207
3237.0,0.051548140535039116
3236.0,0.05138930817980119
3235.0,0.05122897636468717
3234.0,0.05107620986937827
3233.0,0.05093072820230448
3232.0,0.05078023728726149
3231.0,0.050616890092694114
3230.0,0.050447853628898164
3229.0,0.05028313851436049
3228.0,0.05011999973881668
3227.0,0.049947978998817706
3226.0,0.049766038660822146
3225.0,0.049586215916629636
3224.0,0.04941956231057172
3223.0,0.049263691679921486
3222.0,0.04910605138141986
3221.0,0.04893725092467434
3220.0,0.04875966068885913
3219.0,0.048582598686490626
3218.0,0.048409727524303364
3217.0,0.04823428977367465
3216.0,0.04804918808730536
3215.0,0.047858569334479344
3214.0,0.047673744054014144
3213.0,0.04749828341756687
3212.0,0.047323482322747655
3211.0,0.04713945585337633
3210.0,0.0469448135604731
3209.0,0.04674410096522179
3208.0,0.04654188882473338
3207.0,0.0463421249967438
3206.0,0.04614773023989666
3205.0,0.04595666853690696
3204.0,0.045762235080078234
3203.0,0.045560994153188386
3202.0,0.045357267688352576
3201.0,0.04515644254819581
3200.0,0.044956762077186525
3199.0,0.044751056197979595
3198.0,0.04453475939899321
3197.0,0.04431006548054779
3196.0,0.04408409447100303
3195.0,0.0438645791842149
3194.0,0.04365493357365746
3193.0,0.04345157620318909
3192.0,0.0432475701321947
3191.0,0.04303950308327443
3190.0,0.042828594274554044
3189.0,0.04261511656319803
3188.0,0.042395909972006256
3187.0,0.04216906653862875
3186.0,0.04193746319312212
3185.0,0.04170564124166418
3184.0,0.04147600372583384
3183.0,0.041249080912247646
3182.0,0.04102380162435156
3181.0,0.0407962453433017
3180.0,0.04056243140590339
3179.0,0.04032431708171007
3178.0,0.040089002955714374
3177.0,0.03985991718634395
3176.0,0.03963272162298554
3175.0,0.039402125959744995
3174.0,0.0391686028661342
3173.0,0.038935837393444056
3172.0,0.038705845047138115
3171.0,0.038479560508970015
3170.0,0.03825745578657852
3169.0,0.03803532262602582
3168.0,0.03780423097662651
3167.0,0.037560948452846854
3166.0,0.03731559481007179
3165.0,0.03708280905389494
3164.0,0.03686656133017505
3163.0,0.03665872040194007
3162.0,0.0364515621788839
3161.0,0.03624534182974009
3160.0,0.03604187160509383
3159.0,0.03583661093998217
3158.0,0.03562203186860396
3157.0,0.035397240922300774
3156.0,0.03517066519739182
3155.0,0.03495231267323991
3154.0,0.03474461709290445
3153.0,0.0345416233379982
3152.0,0.03433625028054155
3151.0,0.034126865609828125
3150.0,0.033916609148749007
3149.0,0.033708433873987836
3148.0,0.033503083064257075
3147.0,0.033300650289040945
3146.0,0.03310067609958246
3145.0,0.03290051428381126
3144.0,0.0326968937911852
3143.0,0.03249050557422578
3142.0,0.03228696094378182
3141.0,0.0320919657756853
3140.0,0.0319067120945628
3139.0,0.03172807712387614
3138.0,0.03155093829321592
3137.0,0.03136946725187706
3136.0,0.0311790537541098
3135.0,0.030979028924785233
3134.0,0.030772582299686047
3133.0,0.030563865316056357
3132.0,0.030357024656090505
3131.0,0.030157864135455542
3130.0,0.02997257383259881
3129.0,0.029802137910943816
3128.0,0.02963963209262704
3127.0,0.02947507123636494
3126.0,0.02930232159066936
3125.0,0.029121421986834914
3124.0,0.028936702006882635
3123.0,0.02875360808400674
3122.0,0.028575100155674993
3121.0,0.028399801370222896
3120.0,0.028225163335798286
3119.0,0.028052223887917036
3118.0,0.027884251344101624
3117.0,0.027720723940220873
3116.0,0.027556745081937083
3115.0,0.02738995418406928
3114.0,0.027224251930884406
3113.0,0.02706426884837128
3112.0,0.026910143126883487
3111.0,0.026760665228016046
3110.0,0.026617520954996074
3109.0,0.026482298360209548
3108.0,0.026350945974780136
3107.0,0.026215405766079298
3106.0,0.026071115006017085
3105.0,0.02592102703914279
3104.0,0.025773327074095916
3103.0,0.025636051860520054
3102.0,0.025511395020198602
3101.0,0.02539278694613097
3100.0,0.025269030103781058
3099.0,0.025134110962394974
3098.0,0.024992000001987074
3097.0,0.024851058885392362
3096.0,0.024716122988547782
3095.0,0.02458682079725689
3094.0,0.024460690695951876
3093.0,0.024334666187848047
3092.0,0.024205076963863793
3091.0,0.024069754936362847
3090.0,0.02392995001164916
3089.0,0.02378902352591435
3088.0,0.02365053887473604
3087.0,0.02351875486849324
3086.0,0.023398086833565566
3085.0,0.023288803775598783
3084.0,0.023184592071478903
3083.0,0.023076621599230834
3082.0,0.022959861985528893
3081.0,0.022834874762422547
3080.0,0.022705897083748924
3079.0,0.0225793553977629
3078.0,0.022461135336967825
3077.0,0.02235174389276196
3076.0,0.022244982635177667
3075.0,0.022134007141668036
3074.0,0.022017785282170257
3073.0,0.02189927418238113
3072.0,0.021779258591040303
3071.0,0.021655061384289867
3070.0,0.021524913371002274
3069.0,0.021391010773224778
3068.0,0.021258389342197138
3067.0,0.02113290647717575
3066.0,0.02101898104054708
3065.0,0.020916093667633147
3064.0,0.020817091978656277
3063.0,0.020712326977060404
3062.0,0.020596723644998784
3061.0,0.020472589451538785
3060.0,0.020346384290329436
3059.0,0.020223216636234304
3058.0,0.020103043139221358
3057.0,0.019981194859210967
3056.0,0.01985336440151405
3055.0,0.019720750440638046
3054.0,0.01958883878735553
3053.0,0.019460778991162244
3052.0,0.01933505636041213
3051.0,0.019210038797195614
3050.0,0.019087036910065972
3049.0,0.018966377275071902
3048.0,0.018843978972896407
3047.0,0.018716259566893694
3046.0,0.018585835080960924
3045.0,0.018458254910186947
3044.0,0.018334184684990703
3043.0,0.01820960434621993
3042.0,0.01808354391010071
3041.0,0.017960771212434834
3040.0,0.017845499488259715
3039.0,0.017735202047806042
3038.0,0.017623183559692234
3037.0,0.017506151072374396
3036.0,0.017388205046797476
3035.0,0.01727808520377254
3034.0,0.017181979655340268
3033.0,0.017097923885507987
3032.0,0.017016695477829483
3031.0,0.016928392466634395
3030.0,0.01682877896372515
3029.0,0.016720016312334194
3028.0,0.016607646509749188
3027.0,0.01649805526881824
3026.0,0.01639650210698363
3025.0,0.016305455327337796
3024.0,0.016224538400479906
3023.0,0.016151821140147373
3022.0,0.016083853434297576
3021.0,0.016015289170119334
3020.0,0.015942373369185317
3019.0,0.01586795401204439
3018.0,0.015800158708571453
3017.0,0.01574426647579969
3016.0,0.015698289911160995
3015.0,0.01565710487871927
3014.0,0.015616775389514947
3013.0,0.015573800018493053
3012.0,0.015525473341531669
3011.0,0.01547463237570101
3010.0,0.015429951628635342
3009.0,0.015397266647284738
3008.0,0.015373613328064525
3007.0,0.01535292508684852
3006.0,0.01533347909225701
3005.0,0.015315589340266979
3004.0,0.015296284552112937
3003.0,0.015272976361337077
3002.0,0.015250619561689993
3001.0,0.015238928412939778
3000.0,0.015242633891132062
2999.0,0.015259543214897427
2998.0,0.015287227199485895
2997.0,0.015326784897569624
2996.0,0.015380350272271989
2995.0,0.015450173741224848
2994.0,0.015541208489230674
2993.0,0.01565992656695056
2992.0,0.015808757396024956
2991.0,0.01598418381966775
2990.0,0.01618031439996024
2989.0,0.016392834246770085
2988.0,0.016621730041879394
2987.0,0.01687501584626905
2986.0,0.017168440725187414
2985.0,0.017514862850373677
2984.0,0.017914032153560307
2983.0,0.018358323679779454
2982.0,0.01885061979407862
2981.0,0.019411113790837792
2980.0,0.02006445452082255
2979.0,0.020825301283201876
2978.0,0.021699093511061595
2977.0,0.022693454645765873
2976.0,0.02382446570098986
2975.0,0.025114239991288263
2974.0,0.026586981075518865
2973.0,0.028266968142972918
2972.0,0.03017474879986361
2971.0,0.032322054201383094
2970.0,0.03470972772257485
2969.0,0.037329279963411476
2968.0,0.04016473986531721
2967.0,0.04318943428437879
2966.0,0.046356375210894286
2965.0,0.04958165808072566
2964.0,0.05273423789981655
2963.0,0.05564326669102179
2962.0,0.058129165104211795
2961.0,0.060063474645365274
2960.0,0.061426977008053676
2959.0,0.06233102246114029
2958.0,0.06298889120000564
2957.0,0.06365595923201939
2956.0,0.06456316900710267
2955.0,0.06585075351815814
2954.0,0.06751534343855352
2953.0,0.06938699664787594
2952.0,0.0711454965525199
2951.0,0.07239056495394838
2950.0,0.07274265483511716
2949.0,0.07194650897033357
2948.0,0.06995194541649319
2947.0,0.06692279155134362
2946.0,0.06318542748480613
2945.0,0.05914160422969269
2944.0,0.05518630831887011
2943.0,0.05164542181539521
2942.0,0.04873733291615957
2941.0,0.046571274198883975
2940.0,0.045162471197727386
2939.0,0.044465486984470726
2938.0,0.044409453070080984
2937.0,0.04492193716230581
2936.0,0.04594528369477494
2935.0,0.047435889520139454
2934.0,0.04935108984049063
2933.0,0.05164056587556017
2932.0,0.054247318995374834
2931.0,0.05710823877667593
2930.0,0.060146206469086326
2929.0,0.06326455319642318
2928.0,0.06636141094985208
2927.0,0.06935768876200912
2926.0,0.07221380793560891
2925.0,0.07493182551052302
2924.0,0.07754530587152383
2923.0,0.08008989753194422
2922.0,0.08255602536378122
2921.0,0.08484499721151681
2920.0,0.08676247038253107
2919.0,0.08805113468878879
2918.0,0.08846398839393463
2917.0,0.08785652064442279
2916.0,0.08626349611126918
2915.0,0.08390480852252347
2914.0,0.081106302182534
2913.0,0.07820151926951806
2912.0,0.07545066204962565
2911.0,0.07299891380901871
2910.0,0.07087472134356451
2909.0,0.06901992888279744
2908.0,0.06733297141370082
2907.0,0.06570622369683665
2906.0,0.064049913696116
2905.0,0.062307014128620684
2904.0,0.0604638214854548
2903.0,0.05854284697949632
2902.0,0.05658274795975364
2901.0,0.054618614063736616
2900.0,0.05267804412661785
2899.0,0.05078890457928172
2898.0,0.04898397676574666
2897.0,0.04729925633867097
2896.0,0.04576835842802594
2895.0,0.044418903677758886
2894.0,0.043270096218853436
2893.0,0.042330247445440346
2892.0,0.04159456793097311
2891.0,0.04104598706809714
2890.0,0.040661324913374874
2889.0,0.0404182039355436
2888.0,0.04029932613688876
2887.0,0.040292414410093125
2886.0,0.04038853438132806
2885.0,0.04058393655361922
2884.0,0.040881961813578976
2883.0,0.04128745653241403
2882.0,0.04179031589361802
2881.0,0.04234904360050102
2880.0,0.04289004297220644
2879.0,0.04332341831914532
2878.0,0.04357167652749426
2877.0,0.043601619805477325
2876.0,0.04345031253378117
2875.0,0.043223587415662415
2874.0,0.04305766041575375
2873.0,0.043065290119909054
2872.0,0.043297158468768984
2871.0,0.043736770346259196
2870.0,0.04431258020682131
2869.0,0.044898276854638416
2868.0,0.045310259047792255
2867.0,0.04532721967436543
2866.0,0.04474647120783827
2865.0,0.04346454736958119
2864.0,0.0415335928450575
2863.0,0.03915689392670196
2862.0,0.036621493947275874
2861.0,0.03420796815610246
2860.0,0.03211678695594917
2859.0,0.03044068304301911
2858.0,0.029184392432620984
2857.0,0.028303127592592143
2856.0,0.027736889102164795
2855.0,0.027427201206814203
2854.0,0.027319666132876175
2853.0,0.027363614403956987
2852.0,0.02751731361754684
2851.0,0.0277604926973577
2850.0,0.02810338097454643
2849.0,0.02858347073524799
2848.0,0.029251025228232006
2847.0,0.030155661673546247
2846.0,0.03133572906959403
2845.0,0.032806305181144406
2844.0,0.03454253499875471
2843.0,0.03646381634406061
2842.0,0.03843100872306969
2841.0,0.04025788117996791
2840.0,0.041734883045757336
2839.0,0.04265426995533119
2838.0,0.042838038081667966
2837.0,0.04217404506947511
2836.0,0.04065773919054447
2835.0,0.03841332627712484
2834.0,0.03567400960857194
2833.0,0.03272367863057547
2832.0,0.029822494192408813
2831.0,0.027155435126271124
2830.0,0.02481770548121789
2829.0,0.022831883529606013
2828.0,0.021176356386875674
2827.0,0.01980547014435009
2826.0,0.018665003987977796
2825.0,0.01770172482402959
2824.0,0.016871004066528947
2823.0,0.016140780052961226
2822.0,0.01549060145854049
2821.0,0.014908245864796468
2820.0,0.014387417778120894
2819.0,0.013926146480578239
2818.0,0.013522304147130727
2817.0,0.013167510665542058
2816.0,0.012847374452608782
2815.0,0.01254984725729751
2814.0,0.012270723109266154
2813.0,0.012008959146907973
2812.0,0.01176031015452302
2811.0,0.011519083492326223
2810.0,0.011283071643745582
2809.0,0.011050944079426308
2808.0,0.010816059988774785
2807.0,0.010569285033074744
2806.0,0.010308791714088213
2805.0,0.010042742457641746
2804.0,0.009781562671712945
2803.0,0.009531524049232945
2802.0,0.009297151559208896
2801.0,0.009084251026571403
2800.0,0.008896879386893935
2799.0,0.008733579400910458
2798.0,0.00858895952603976
2797.0,0.00845730163490693
2796.0,0.008332730074915565
2795.0,0.008208386655024675
2794.0,0.008077875243775321
2793.0,0.007937689032855357
2792.0,0.007787851148532027
2791.0,0.007631148777782433
2790.0,0.007471625981649872
2789.0,0.007311723774732701
2788.0,0.0071508301602706366
2787.0,0.006988636114754223
2786.0,0.006829774787639918
2785.0,0.0066822630674451605
2784.0,0.006550477573332007
2783.0,0.006431778897403177
2782.0,0.0063210184275385405
2781.0,0.006216098974558915
2780.0,0.00611734543350771
2779.0,0.006023372263716433
2778.0,0.0059303772184176465
2777.0,0.005835861376693335
2776.0,0.0057420467470121585
2775.0,0.005654853013494646
2774.0,0.005579005875442347
2773.0,0.005514042121654122
2772.0,0.005455630441627327
2771.0,0.005400606840665451
2770.0,0.00534873689727478
2769.0,0.005298841392503482
2768.0,0.0052464748218234375
2767.0,0.005188473121600829
2766.0,0.005128307883137074
2765.0,0.005073547746637366
2764.0,0.005027974156787763
2763.0,0.004988807782066463
2762.0,0.004951114592643554
2761.0,0.004911714265384715
2760.0,0.004868893120097698
2759.0,0.004821662305945373
2758.0,0.004770915202678831
2757.0,0.004720011044677192
2756.0,0.004673001903944285
2755.0,0.0046320592324578455
2754.0,0.0045959344615171885
2753.0,0.004560541245989558
2752.0,0.0045227731645884435
2751.0,0.004485449538502305
2750.0,0.004456485390428283
2749.0,0.004440579158335437
2748.0,0.004433037818439338
2747.0,0.0044247221512912285
2746.0,0.0044125818793681725
2745.0,0.004402061385970896
2744.0,0.004399694736197604
2743.0,0.004406549752881414
2742.0,0.004419058338976452
2741.0,0.004433146824775716
2740.0,0.004446496260813239
2739.0,0.004459112143731928
2738.0,0.004473052131625319
2737.0,0.0044905613403115625
2736.0,0.004511825361471132
2735.0,0.004535053461995362
2734.0,0.004558825979968441
2733.0,0.00458409531868138
2732.0,0.004614588303614226
2731.0,0.004655515495529007
2730.0,0.004710239205274914
2729.0,0.004776998109280793
2728.0,0.0048500873030404516
2727.0,0.0049243747995075015
2726.0,0.0049958041777020575
2725.0,0.005056346629185571
2724.0,0.005092261030732591
2723.0,0.00509096441335672
2722.0,0.005048754622347452
2721.0,0.0049703683051908415
2720.0,0.004864248158604778
2719.0,0.004741899014732493
2718.0,0.004618331849728046
2717.0,0.004505843001710895
2716.0,0.004406294926635739
2715.0,0.004312299756868872
2714.0,0.004216547972777979
2713.0,0.00411814962855873
2712.0,0.004021589692415941
2711.0,0.00393371053853818
2710.0,0.003860888754005221
2709.0,0.0038044557863981766
2708.0,0.003757487067587782
2707.0,0.003709384311432893
2706.0,0.003654552841943593
2705.0,0.0035949745567590407
2704.0,0.0035353424424880917
2703.0,0.0034790697144546105
2702.0,0.00342879461744248
2701.0,0.0033861051147692357
2700.0,0.0033492429181032624
2699.0,0.0033141209821147075
2698.0,0.00327943149211196
2697.0,0.0032487430210181066
2696.0,0.0032263978101332654
2695.0,0.0032131543862417176
2694.0,0.0032061898203877364
2693.0,0.003201095464944316
2692.0,0.003193103469397932
2691.0,0.0031787192058834756
2690.0,0.0031577653041443597
2689.0,0.003133070942417809
2688.0,0.0031081758029114855
2687.0,0.0030862936815842317
2686.0,0.003070657180498563
2685.0,0.0030628160401675775
2684.0,0.003059967844189969
2683.0,0.003056317593683474
2682.0,0.003048396303510308
2681.0,0.003037817151357938
2680.0,0.0030279121090599753
2679.0,0.0030188319377041062
2678.0,0.0030067906085636765
2677.0,0.002987829565450887
2676.0,0.0029620908358641857
2675.0,0.002934512300804702
2674.0,0.0029111122910285433
2673.0,0.0028940881823439095
2672.0,0.0028809506318372507
2671.0,0.002868234424928289
2670.0,0.002854718501895278
2669.0,0.002841005767396884
2668.0,0.002828127896006489
2667.0,0.0028178798487538625
2666.0,0.002812689664477318
2665.0,0.0028136951757601015
2664.0,0.0028203070903748215
2663.0,0.0028324566002361044
2662.0,0.0028506247492329252
2661.0,0.002871849612819592
2660.0,0.0028884792775867242
2659.0,0.0028938705193036224
2658.0,0.002888226501202015
2657.0,0.002876607041494641
2656.0,0.0028629034570820393
2655.0,0.0028481939834265526
2654.0,0.0028327034852936406
2653.0,0.002816039284145169
2652.0,0.0027966629123105284
2651.0,0.0027744120066170463
2650.0,0.0027525291807872663
2649.0,0.0027342513917646043
2648.0,0.002718395578462718
2647.0,0.0027014409198744182
2646.0,0.0026827927658626596
2645.0,0.0026647190002770885
2644.0,0.0026479869426157803
2643.0,0.0026309183748004124
2642.0,0.0026121930659900134
2641.0,0.0025912570685943607
2640.0,0.00256669785072064
2639.0,0.002537929321159673
2638.0,0.0025084855292349544
2637.0,0.0024843534171329873
2636.0,0.0024687636627947463
2635.0,0.002460815027588218
2634.0,0.0024586476428063724
2633.0,0.002460937108352875
2632.0,0.002465580331516083
2631.0,0.002470110137780912
2630.0,0.002473634833626107
2629.0,0.002476325445058724
2628.0,0.002477683130713116
2627.0,0.002477875484163187
2626.0,0.002479987382118234
2625.0,0.0024877283734837732
2624.0,0.0025002763766856775
2623.0,0.00251144760582754
2622.0,0.0025144818634894863
2621.0,0.0025074067522400474
2620.0,0.0024950952371933723
2619.0,0.0024860258836687517
2618.0,0.0024842139531506186
2617.0,0.0024830920720784735
2616.0,0.0024709781062096383
2615.0,0.0024446718927124177
2614.0,0.002413591342117794
2613.0,0.0023876660334988956
2612.0,0.002366039747008071
2611.0,0.0023420959276251913
2610.0,0.0023146319002810473
2609.0,0.0022873054997350982
2608.0,0.0022601703854818332
2607.0,0.002229379722356296
2606.0,0.002194654207664837
2605.0,0.002160685502359505
2604.0,0.002130901628013477
2603.0,0.002104920101615742
2602.0,0.002082207647894061
2601.0,0.002063519304341194
2600.0,0.002048449355808396
2599.0,0.002035491253928346
2598.0,0.0020243925132612953
2597.0,0.002015431123075968
2596.0,0.0020078423881733005
2595.0,0.0020027966671509324
2594.0,0.002005936159768619
2593.0,0.0020218821117591783
2592.0,0.002046922291952534
2591.0,0.0020718610672222225
2590.0,0.0020920592720572576
2589.0,0.0021105611301268693
2588.0,0.0021314048786551234
2587.0,0.0021536171207705204
2586.0,0.002172214323924172
2585.0,0.002182912978649259
2584.0,0.002185671735152233
2583.0,0.0021841505596380505
2582.0,0.0021799302903689768
2581.0,0.002167551450559191
2580.0,0.0021404111675079533
2579.0,0.002102837577261268
2578.0,0.0020697253463894455
2577.0,0.002049668838927685
2576.0,0.0020339766328832326
2575.0,0.002007942144204537
2574.0,0.001967660107351948
2573.0,0.0019196250712664093
2572.0,0.0018697126757947803
2571.0,0.0018214280096331722
2570.0,0.0017813799421364435
2569.0,0.001755932964138528
2568.0,0.0017417708338111292
2567.0,0.0017273232250980465
2566.0,0.001705091218063465
2565.0,0.0016779801409719337
2564.0,0.0016538763716385247
2563.0,0.001638720051626383
2562.0,0.0016337399630010053
2561.0,0.00163413385909841
2560.0,0.0016312035041153327
2559.0,0.0016201901006174348
2558.0,0.00160490422112436
2557.0,0.0015913788968715263
2556.0,0.0015798029309468478
2555.0,0.0015669161045591465
2554.0,0.0015529247937089608
2553.0,0.0015402540986615904
2552.0,0.0015282404576763065
2551.0,0.001515114008309224
2550.0,0.0015027694037063667
2549.0,0.001493365132160174
2548.0,0.0014830666903970504
2547.0,0.0014654100711971446
2546.0,0.0014400115601930048
2545.0,0.001412984285569146
2544.0,0.0013901875184394899
2543.0,0.0013742835756653925
2542.0,0.001365423455952723
2541.0,0.0013590760132366232
2540.0,0.0013456634195757255
2539.0,0.0013193287386272503
2538.0,0.0012870247406825588
2537.0,0.0012642395994989712
2536.0,0.0012615628578445965
2535.0,0.0012770533228207376
2534.0,0.0012987703899255065
2533.0,0.0013121356136760608
2532.0,0.0013092444557768327
2531.0,0.0012953894468519112
2530.0,0.0012832683795986877
2529.0,0.0012779291960786708
2528.0,0.0012723475636815624
2527.0,0.0012607406081699157
2526.0,0.0012483603957453417
2525.0,0.0012416715485884396
2524.0,0.0012362707219138419
2523.0,0.0012233525192422057
2522.0,0.0012028342968579907
2521.0,0.0011813067561340816
2520.0,0.001161316829918762
2519.0,0.0011415169554952192
2518.0,0.0011240408466151174
2517.0,0.0011127699824912624
2516.0,0.0011061448791876254
2515.0,0.0010994297309220552
2514.0,0.0010922380013507129
2513.0,0.0010871539244814825
2512.0,0.0010836443097080046
2511.0,0.0010797840039556187
2510.0,0.0010766492254791426
2509.0,0.0010744323357366325
2508.0,0.0010681165364111122
2507.0,0.001054444958483612
2506.0,0.0010397401148348007
2505.0,0.0010333554072704668
2504.0,0.0010364624796218333
2503.0,0.0010439248412593286
2502.0,0.0010527348827161058
2501.0,0.0010609994950870974
2500.0,0.0010636085414108681
2499.0,0.0010580066969867873
2498.0,0.0010504384497414918
2497.0,0.0010476450157646763
2496.0,0.0010460645683889479
2495.0,0.001038282350367116
2494.0,0.001026092249895373
2493.0,0.001016855940846628
2492.0,0.0010101475971219425
2491.0,0.0009994193038264955
2490.0,0.0009855409955759787
2489.0,0.0009775445488179816
2488.0,0.00097933007594836
2487.0,0.0009846215257324114
2486.0,0.0009856398573905422
2485.0,0.0009795945393069002
2484.0,0.0009676802815090113
2483.0,0.0009549236022804812
2482.0,0.0009492527436989466
2481.0,0.0009531246630699887
2480.0,0.000957965333955051
2479.0,0.0009543537315575023
2478.0,0.0009448578537480676
2477.0,0.0009385417897766692
2476.0,0.0009363194042739391
2475.0,0.0009319526641595106
2474.0,0.0009250696133394373
2473.0,0.0009218365640125512
2472.0,0.0009231986953226019
2471.0,0.0009231401391579801
2470.0,0.000919086774050672
2469.0,0.0009143500241938207
2468.0,0.0009098261540627431
2467.0,0.000902880274860237
2466.0,0.0008953540197897353
2465.0,0.0008932572903591833
2464.0,0.0008968757300361477
2463.0,0.0008999141487451741
2462.0,0.0009004029109126858
2461.0,0.0009041789007453898
2460.0,0.0009149801664291469
2459.0,0.0009283453699802436
2458.0,0.0009381314017683842
2457.0,0.0009431888996664405
2456.0,0.0009455506231771968
2455.0,0.0009473768944561764
2454.0,0.0009514392883344398
2453.0,0.00095977563898554
2452.0,0.0009700415557562627
2451.0,0.0009765362973375253
2450.0,0.0009753944526247754
2449.0,0.0009665902808648332
2448.0,0.000953029966381752
2447.0,0.0009411953860399417
2446.0,0.0009392146262722806
2445.0,0.0009486794232112367
2444.0,0.0009608107758231274
2443.0,0.0009660352378074854
2442.0,0.0009645939142936253
2441.0,0.0009627352726151355
2440.0,0.0009629324723501088
2439.0,0.000964736428397198
2438.0,0.0009707656718378355
2437.0,0.0009827807398683083
2436.0,0.0009942463985241586
2435.0,0.0009957623523030507
2434.0,0.0009871305564880298
2433.0,0.0009769264369355248
2432.0,0.0009714291198643719
2431.0,0.0009704425345719706
2430.0,0.0009715893572926847
2429.0,0.0009714646522094768
2428.0,0.0009652415237850927
2427.0,0.0009530404343854684
2426.0,0.0009441665752468133
2425.0,0.000946676021866065
2424.0,0.0009547316407127096
2423.0,0.0009547772725226485
2422.0,0.0009425461316283057
2421.0,0.0009256259046913644
2420.0,0.0009114191678375699
2419.0,0.0009018140391266738
2418.0,0.0008980246189255719
2417.0,0.0009005596124388904
2416.0,0.0009043303810829083
2415.0,0.0009027376908904972
2414.0,0.0008970738382674743
2413.0,0.0008939615421081194
2412.0,0.0008936597435289415
2411.0,0.0008893575573870455
2410.0,0.00087855191403158
2409.0,0.000866766225479755
2408.0,0.000858563561775022
2407.0,0.0008525700179027513
2406.0,0.0008472025428731278
2405.0,0.0008442882153339003
2404.0,0.0008449978284962613
2403.0,0.0008478366033432317
2402.0,0.0008518410930152664
2401.0,0.0008570655915610926
2400.0,0.0008619119821461907
2399.0,0.0008647793519286128
2398.0,0.0008676462944297075
2397.0,0.0008726698532117751
2396.0,0.0008759769756705028
2395.0,0.0008707066103324482
2394.0,0.0008560515821897062
2393.0,0.0008383228993918987
2392.0,0.0008241018833782829
2391.0,0.0008170106131645649
2390.0,0.0008187901360297112
2389.0,0.0008270000561914697
2388.0,0.0008327613820340257
2387.0,0.000827575481445543
2386.0,0.0008125026409920866
2385.0,0.0007953837212706558
2384.0,0.0007801898619477293
2383.0,0.0007650661989071317
2382.0,0.0007495873282347934
2381.0,0.0007366598910818662
2380.0,0.0007263418995036414
2379.0,0.0007144154321955193
2378.0,0.0006995823789970946
2377.0,0.0006864334507640353
2376.0,0.0006794653734277033
2375.0,0.0006791563007357004
2374.0,0.0006845152856123655
2373.0,0.0006931626310753733
2372.0,0.0006977556037016926
2371.0,0.0006907479148154264
2370.0,0.0006753154099672343
2369.0,0.0006633767528061877
2368.0,0.000660149346442767
2367.0,0.0006596129096394028
2366.0,0.0006580447956936236
2365.0,0.0006610759187253148
2364.0,0.0006727580692347392
2363.0,0.0006894119371409072
2362.0,0.000704843812139213
2361.0,0.0007157089182989078
2360.0,0.0007225432190257164
2359.0,0.0007280406116995752
2358.0,0.0007364052987664943
2357.0,0.000744656552548384
2356.0,0.0007409690994572857
2355.0,0.000722548953575059
2354.0,0.0007045998521835282
2353.0,0.0007044633196674762
2352.0,0.0007182437780413225
2351.0,0.000729245320266708
2350.0,0.000728830483686388
2349.0,0.0007176583038585359
2348.0,0.0007036823774803153
2347.0,0.0006972190491759604
2346.0,0.0007064329012058877
2345.0,0.0007308813526687053
2344.0,0.0007622802425389815
2343.0,0.0007948730134374755
2342.0,0.0008230916161904255
2341.0,0.000842942338032799
2340.0,0.0008540963898095639
2339.0,0.0008640767205715214
2338.0,0.0008806074109649169
2337.0,0.0008989082618204472
2336.0,0.0009056071115146999
2335.0,0.000898234614347064
2334.0,0.0008910158772106735
2333.0,0.0008954338605883078
2332.0,0.0009037964291555213
2331.0,0.0009003128430602177
2330.0,0.0008884452492366928
2329.0,0.0008892271328869773
2328.0,0.0009300126336615382
2327.0,0.001023531958787772
2326.0,0.0011584101487128735
2325.0,0.0012919822862308681
2324.0,0.0013707042175643196
2323.0,0.001373022502350597
2322.0,0.001326375271599676
2321.0,0.001274040383986074
2320.0,0.0012325265500888532
2319.0,0.0011972828655215301
2318.0,0.001167932559397817
2317.0,0.00114790172270786
2316.0,0.0011320863489627042
2315.0,0.0011131383154660713
2314.0,0.0010978768382371316
2313.0,0.0010955573861201428
2312.0,0.0011009120648557745
2311.0,0.001099505849427711
2310.0,0.001092424917358435
2309.0,0.0010920263458081708
2308.0,0.0011021848121496812
2307.0,0.001113101851553667
2306.0,0.0011190066711492786
2305.0,0.0011223258716564586
2304.0,0.001124435416802718
2303.0,0.0011228858849916428
2302.0,0.001121133947826958
2301.0,0.0011263412201564492
2300.0,0.0011389924907031779
2299.0,0.0011513408347642337
2298.0,0.0011591325548967013
2297.0,0.0011638339110970404
2296.0,0.0011686901302563678
2295.0,0.0011790605943529072
2294.0,0.00120499549260659
2293.0,0.0012494966933380397
2292.0,0.001298382463506253
2291.0,0.0013322244863999912
2290.0,0.0013478550564246488
2289.0,0.0013566559826157577
2288.0,0.0013659797865286502
2287.0,0.0013741096190482088
2286.0,0.0013803967040803046
2285.0,0.0013855861525539537
2284.0,0.0013835713942971532
2283.0,0.0013683682973999437
2282.0,0.001347747030012406
2281.0,0.0013356076278602197
2280.0,0.0013310167779298943
2279.0,0.0013219819904169874
2278.0,0.0013086223269273005
2277.0,0.0013043012079696488
2276.0,0.0013113489570885867
2275.0,0.0013144709524751275
2274.0,0.0013037066844521004
2273.0,0.0012874914085495735
2272.0,0.0012779340239338324
2271.0,0.001276830603442611
2270.0,0.0012817951975444852
2269.0,0.0012920150242971594
2268.0,0.0013023940877559014
2267.0,0.0013030302051502255
2266.0,0.00128963244752339
2265.0,0.001267116972517385
2264.0,0.0012422872253891391
2263.0,0.0012214042601675717
2262.0,0.0012129442333372246
2261.0,0.001222419499009003
2260.0,0.001245384838675309
2259.0,0.0012731669563262936
2258.0,0.0012992021616735972
2257.0,0.0013110902174999178
2256.0,0.0012891624903742442
2255.0,0.0012302535817872104
2254.0,0.0011651399317451482
2253.0,0.0011319355188357833
2252.0,0.0011378576216738855
2251.0,0.0011626922735763696
2250.0,0.0011914835625996545
2249.0,0.0012210059003153174
2248.0,0.0012424912459943825
2247.0,0.001243093181299847
2246.0,0.0012248998299633682
2245.0,0.001203275435809089
2244.0,0.0011879331029388774
2243.0,0.0011824645457785587
2242.0,0.0011952203899313054
2241.0,0.0012276548458186286
2240.0,0.0012576108171152378
2239.0,0.0012604526119604363
2238.0,0.001245078615255566
2237.0,0.0012443137799603057
2236.0,0.0012691659525319106
2235.0,0.0012956476406641014
2234.0,0.001298847068048515
2233.0,0.0012776970553340164
2232.0,0.001245942916279185
2231.0,0.0012193043552026035
2230.0,0.001211908409638665
2229.0,0.0012249153368681983
2228.0,0.0012381330757052901
2227.0,0.0012328125972554894
2226.0,0.0012187854269814814
2225.0,0.0012188760913328252
2224.0,0.0012312286935323882
2223.0,0.0012323574688178024
2222.0,0.001215149920288449
2221.0,0.0011983684306840602
2220.0,0.0011977938089590234
2219.0,0.0012107941912232745
2218.0,0.0012286339138210451
2217.0,0.0012428228275785812
2216.0,0.0012421630034670202
2215.0,0.0012259121440421697
2214.0,0.0012148751306338052
2213.0,0.0012257250108853573
2212.0,0.0012412148627275591
2211.0,0.001233241543817725
2210.0,0.0012100132308858153
2209.0,0.0012091062124563183
2208.0,0.0012439679272635614
2207.0,0.0012866750091210665
2206.0,0.001306093587947782
2205.0,0.001295924067529677
2204.0,0.0012659062714835145
2203.0,0.0012320617960597355
2202.0,0.0012172039334330538
2201.0,0.0012349822476388221
2200.0,0.0012676820578397946
2199.0,0.0012831717658729068
2198.0,0.0012753268953240755
2197.0,0.001267996368244871
2196.0,0.001280955934405798
2195.0,0.0013123601820408154
2194.0,0.0013517217755613987
2193.0,0.001389343452697719
2192.0,0.0014167670020113214
2191.0,0.00143780427254129
2190.0,0.0014718059928340405
2189.0,0.0015255217211149119
2188.0,0.0015724985566138163
2187.0,0.0015825498813834794
2186.0,0.0015573530244588827
2185.0,0.0015130608949819125
2184.0,0.001445820452589998
2183.0,0.001349546156583888
2182.0,0.0012546182650372093
2181.0,0.0012077227820816415
2180.0,0.0012166375100046722
2179.0,0.0012482828783416627
2178.0,0.0012714582654202338
2177.0,0.001270906354494911
2176.0,0.0012378506307391146
2175.0,0.0011859673103222126
2174.0,0.0011639321645307813
2173.0,0.0012121220450304047
2172.0,0.0013143600481671466
2171.0,0.001426375705895644
2170.0,0.0015356725218024709
2169.0,0.0016550207101316263
2168.0,0.001771952054016819
2167.0,0.0018484548512757372
2166.0,0.0018723104058919046
2165.0,0.001875483002528714
2164.0,0.0018971664020705258
2163.0,0.0019456897735100095
2162.0,0.0019792793734711572
2161.0,0.001902413487191136
2160.0,0.001622625650697796
2159.0,0.0011704050715438598
2158.0,0.000725202421482463
2157.0,0.0004503621156779204
2156.0,0.0003506866691522785
2155.0,0.00034647297213458573
2154.0,0.0004021994761003873
2153.0,0.0005138915896942069
2152.0,0.0006412866423637693
2151.0,0.0007307641022661839
2150.0,0.0007765900220513683
2149.0,0.0008004373930109632
2148.0,0.0007948547069304018
2147.0,0.0007438381785413487
2146.0,0.0006791077727655655
2145.0,0.0006552627573372214
2144.0,0.0006784739177707254
2143.0,0.0007103479269540934
2142.0,0.0007303299319805165
2141.0,0.0007450307327674737
2140.0,0.0007500284718120892
2139.0,0.000732323472083007
2138.0,0.0007019350140208397
2137.0,0.00067652533592384
2136.0,0.0006434316395842715
2135.0,0.000582510416125577
2134.0,0.0005178499733772565
2133.0,0.0004987872485565471
2132.0,0.0005348472623761423
2131.0,0.0005912125332636422
2130.0,0.0006426047210170671
2129.0,0.0006902950514790093
2128.0,0.0007337070505947397
2127.0,0.0007639805330625614
2126.0,0.0007865258921395005
2125.0,0.000815987407956284
2124.0,0.0008465589547231543
2123.0,0.0008569637266821685
2122.0,0.0008469698514478655
2121.0,0.0008420648947793776
2120.0,0.0008591563580930849
2119.0,0.0008924731061128654
2118.0,0.0009331818164643618
2117.0,0.000977983755485776
2116.0,0.001017275105963197
2115.0,0.0010397741954452045
2114.0,0.0010504498480523189
2113.0,0.0010624652664836464
2112.0,0.0010727219973223632
2111.0,0.0010686902280011821
2110.0,0.0010570039914873208
2109.0,0.0010590905153031781
2108.0,0.0010781310677831692
2107.0,0.0010956676429446748
2106.0,0.0011007793236460816
2105.0,0.0010988197558909145
2104.0,0.0010927694694439106
2103.0,0.0010813458196103787
2102.0,0.0010735468569433942
2101.0,0.001079532680339561
2100.0,0.0010886745696757905
2099.0,0.0010805058037551614
2098.0,0.0010532001838577752
2097.0,0.0010173965784038943
2096.0,0.0009710693330166221
2095.0,0.0009116640171859599
2094.0,0.000864258659150266
2093.0,0.0008606042448840478
2092.0,0.0008945698908810233
2091.0,0.0009325698986923073
2090.0,0.0009631342468777743
2089.0,0.0010017867317829521
2088.0,0.0010500716524211027
2087.0,0.0010875680743276386
2086.0,0.0011073953114281326
2085.0,0.001124502007556865
2084.0,0.0011428716649818631
2083.0,0.001145877843983295
2082.0,0.0011270206838350108
2081.0,0.0011015104468303
2080.0,0.0010814797890914252
2079.0,0.0010660656780716272
2078.0,0.0010599790683201245
2077.0,0.0010709901764798793
2076.0,0.0010851763163701807
2075.0,0.0010763445022261482
2074.0,0.0010447693178240527
2073.0,0.0010178196636933608
2072.0,0.0010091561864546716
2071.0,0.0010079192760570816
2070.0,0.001010365498121526
2069.0,0.0010263331836021033
2068.0,0.0010495670043387635
2067.0,0.0010566445449908958
2066.0,0.001042433725645875
2065.0,0.001025196389134333
2064.0,0.001011317343814865
2063.0,0.000987647759752277
2062.0,0.0009548417681931143
2061.0,0.000934374045029167
2060.0,0.0009381131120588004
2059.0,0.000959076010628316
2058.0,0.0009910682637344658
2057.0,0.0010262420066467187
2056.0,0.001041667538769198
2055.0,0.0010300253490743844
2054.0,0.001037333601912791
2053.0,0.001118932013708749
2052.0,0.0012549058546091542
2051.0,0.0013564398170722162
2050.0,0.001363645822233786
2049.0,0.0013000929168629164
2048.0,0.0012225035249123978
2047.0,0.0011613742643980494
2046.0,0.001132002352993708
2045.0,0.001149058725449214
2044.0,0.0011958583649548874
2043.0,0.0012235225258490129
2042.0,0.0012078742081152256
2041.0,0.0011750269127812608
2040.0,0.0011574373186227082
2039.0,0.001161284838956848
2038.0,0.0011859714470667541
2037.0,0.0012271678900887448
2036.0,0.0012517697400687162
2035.0,0.0012208028437742005
2034.0,0.0011479359873966767
2033.0,0.0010861345259778456
2032.0,0.0010496843319037748
2031.0,0.001007481629825015
2030.0,0.0009546526506829301
2029.0,0.0009236629898573972
2028.0,0.0009169522459553468
2027.0,0.0008980806370871236
2026.0,0.0008623127728181442
2025.0,0.0008485065024298188
2024.0,0.0008652509328062853
2023.0,0.0008699457474279982
2022.0,0.0008399664286508274
2021.0,0.0008054957021832762
2020.0,0.0007943366896177011
2019.0,0.0007977117761864146
2018.0,0.0008063638725951355
2017.0,0.000828012298603643
2016.0,0.0008544886113628111
2015.0,0.000862550749236861
2014.0,0.0008575152201078799
2013.0,0.0008676394021490405
2012.0,0.000890255374615291
2011.0,0.0008913096021812231
2010.0,0.0008611640382493973
2009.0,0.0008217795099024683
2008.0,0.0007780502326548751
2007.0,0.0007169386775878379
2006.0,0.0006557747660508727
2005.0,0.0006325218553860818
2004.0,0.000645027157753312
2003.0,0.0006564259473229252
2002.0,0.0006606048567781734
2001.0,0.000685175843188446
2000.0,0.0007313226282647939
1999.0,0.0007640632233017739
1998.0,0.0007683130230531541
1997.0,0.0007663779587401237
1996.0,0.0007723503896194073
1995.0,0.00077482203588402
1994.0,0.0007722551477183238
1993.0,0.0007824654271159743
1992.0,0.0008075700597600976
1991.0,0.0008289273579371874
1990.0,0.0008436337233722385
1989.0,0.000865249296641866
1988.0,0.0008890544723915803
1987.0,0.0008990680622615809
1986.0,0.0009077977179901759
1985.0,0.0009453586484800326
1984.0,0.0010115855724015855
1983.0,0.0010830875545676342
1982.0,0.0011606885565175263
1981.0,0.0012532044733669062
1980.0,0.0013176603924954483
1979.0,0.0012781462335312113
1978.0,0.0011240203403860155
1977.0,0.0009375240644740868
1976.0,0.0007969337769572029
1975.0,0.0007092273261009433
1974.0,0.0006541217039663551
1973.0,0.000622098728150972
1972.0,0.0005957829117657998
1971.0,0.000557215555825359
1970.0,0.0005234093551300395
1969.0,0.0005245084027673738
1968.0,0.0005453937583729102
1967.0,0.0005423001015749147
1966.0,0.0005161071543655825
1965.0,0.0005055721607582905
1964.0,0.0005121917515155033
1963.0,0.0004975510955530215
1962.0,0.00045105794672172753
1961.0,0.0004049799902764279
1960.0,0.0003797125268183649
1959.0,0.00036413529933679994
1958.0,0.0003526339051533522
1957.0,0.00035215555267813865
1956.0,0.00035387316705154837
1955.0,0.00034349087655004024
1954.0,0.00033325137865700735
1953.0,0.0003427272850276751
1952.0,0.0003563337841735242
1951.0,0.00034649307313561846
1950.0,0.0003276185564741685
1949.0,0.0003364181212045439
1948.0,0.00036896431149959484
1947.0,0.00038801914731252196
1946.0,0.00038551717364323265
1945.0,0.000385824383936616
1944.0,0.0003905660732970031
1943.0,0.000374987239555712
1942.0,0.0003450515804508847
1941.0,0.00033777867194297647
1940.0,0.0003568460064068557
1939.0,0.0003704529069477793
1938.0,0.0003669495981458576
1937.0,0.00036311750877451084
1936.0,0.000361243441813751
1935.0,0.00034206710554432636
1934.0,0.00030384963884910103
1933.0,0.0002696779606913897
1932.0,0.00025024818952356883
1931.0,0.00023981952926384006
1930.0,0.0002465416271849474
1929.0,0.0002800656838832386
1928.0,0.0003178364365402815
1927.0,0.00032319864063641416
1926.0,0.0002996616223118709
1925.0,0.0002838040990291446
1924.0,0.00028611003560300027
1923.0,0.0002852150533364184
1922.0,0.0002801211277935849
1921.0,0.0002934493328808789
1920.0,0.000322384148643946
1919.0,0.0003343579702339719
1918.0,0.00031879969403821517
1917.0,0.00030608650066389533
1916.0,0.00031350789161243404
1915.0,0.0003231344863086663
1914.0,0.00032565276577864693
1913.0,0.00033722619928517965
1912.0,0.0003634756447096415
1911.0,0.0003838588753468863
1910.0,0.00038395857385839114
1909.0,0.00037220312780658984
1908.0,0.00035849500472853106
1907.0,0.00034059605489488993
1906.0,0.000324129408785377
1905.0,0.00032143339976240524
1904.0,0.00032394857093456656
1903.0,0.00031212439992664084
1902.0,0.00029196299295401187
1901.0,0.0002892690391170452
1900.0,0.00030896497688266136
1899.0,0.0003300755620783578
1898.0,0.0003450004597944701
1897.0,0.0003665476499047901
1896.0,0.00039158067094056264
1895.0,0.00039672574848457847
1894.0,0.0003786355215608081
1893.0,0.0003604125716079984
1892.0,0.00035190489641843123
1891.0,0.0003376785517216934
1890.0,0.00030941856043334827
1889.0,0.000286249117350761
1888.0,0.00028334038328267836
1887.0,0.00029019243952731384
1886.0,0.00029648490864130983
1885.0,0.00030498951031828283
1884.0,0.0003116232554713858
1883.0,0.0003058196189632596
1882.0,0.00029397846065727965
1881.0,0.00029389022601905524
1880.0,0.00030439971085294336
1879.0,0.000306740365285096
1878.0,0.0002986942337799553
1877.0,0.0002990146806057881
1876.0,0.0003106455354454701
1875.0,0.0003126035584650397
1874.0,0.0002958220102066403
1873.0,0.00027559228430867606
1872.0,0.0002642522748374503
1871.0,0.0002599966968595056
1870.0,0.0002632595534974952
1869.0,0.0002785103156770257
1868.0,0.00029840157580138954
1867.0,0.0003074639120611212
1866.0,0.00030490442678878036
1865.0,0.0003032571003307768
1864.0,0.00030412348277258287
1863.0,0.0002965593683675814
1862.0,0.00028150246983131826
1861.0,0.000274705589351145
1860.0,0.0002797339925176229
1859.0,0.00028296296159475325
1858.0,0.00028063514006113435
1857.0,0.00028351279611370315
1856.0,0.0002921304959609234
1855.0,0.0002932461585781626
1854.0,0.0002874485852951558
1853.0,0.00028841247720214503
1852.0,0.0002986156509259629
1851.0,0.0003055155996932917
1850.0,0.0003055371246390576
1849.0,0.00030890789342403113
1848.0,0.0003137006633478007
1847.0,0.00030347543351644116
1846.0,0.0002758113839316684
1845.0,0.00025094523059450175
1844.0,0.00024373351438822515
1843.0,0.00025081074156209327
1842.0,0.0002692023376340359
1841.0,0.00029864486359413016
1840.0,0.0003280991570673808
1839.0,0.0003382449178062874
1838.0,0.00032751591417633653
1837.0,0.00031545573170964163
1836.0,0.0003114506491778714
1835.0,0.00030605266843907657
1834.0,0.0002976918991574615
1833.0,0.0003015635805002567
1832.0,0.00032848049358403814
1831.0,0.00036130857151850317
1830.0,0.00037027813781132846
1829.0,0.00035984257393173685
1828.0,0.0003488832125373969
1827.0,0.00033439624962645963
1826.0,0.0003133726410462608
1825.0,0.0003002111066888857
1824.0,0.0003069738028384848
1823.0,0.00032515756743539367
1822.0,0.0003417737201798659
1821.0,0.00035267352825185314
1820.0,0.0003510743945066169
1819.0,0.00032684959209993304
1818.0,0.0002910876108807106
1817.0,0.0002738744918868001
1816.0,0.000285653685691911
1815.0,0.00030952220505736097
1814.0,0.00033170010039162696
1813.0,0.000355966208034809
1812.0,0.00038017382139180313
1811.0,0.000388695134496037
1810.0,0.0003848038718905133
1809.0,0.00039095463067000894
1808.0,0.00041053059624566025
1807.0,0.0004246660722581222
1806.0,0.0004254904289307951
1805.0,0.00042648570960375715
1804.0,0.0004370434579251043
1803.0,0.00045388799340207245
1802.0,0.00047394426805166096
1801.0,0.0005020251082307231
1800.0,0.0005346541754440519
1799.0,0.0005569907393731658
1798.0,0.0005663992992160833
1797.0,0.0005734599296989703
1796.0,0.0005793565168525504
1795.0,0.0005760993704648628
1794.0,0.0005678593641024591
1793.0,0.0005713703285698485
1792.0,0.0005849054015915048
1791.0,0.0005959742249340568
1790.0,0.0006109323324759558
1789.0,0.0006379611775749099
1788.0,0.0006653048819481901
1787.0,0.0006752812536628826
1786.0,0.000670813584648066
1785.0,0.0006753579313954531
1784.0,0.0006991146647614007
1783.0,0.0007315682007748275
1782.0,0.0007602199456803677
1781.0,0.0007845448414981135
1780.0,0.0008048672057469658
1779.0,0.0008149548496244918
1778.0,0.0008184256114542657
1777.0,0.0008295987754763519
1776.0,0.0008565361901637625
1775.0,0.0008913494614383205
1774.0,0.0009244205296635034
1773.0,0.0009487864243513638
1772.0,0.0009518478853568022
1771.0,0.0009371998259122972
1770.0,0.0009359208188647195
1769.0,0.0009741734411518042
1768.0,0.0010433336940416738
1767.0,0.001112632261310079
1766.0,0.0011677245289202006
1765.0,0.0012211579973771267
1764.0,0.001284994467124026
1763.0,0.0013598622523569737
1762.0,0.0014455173101190224
1761.0,0.0015544129447539194
1760.0,0.0016843894940321482
1759.0,0.0018190811667531297
1758.0,0.0019659717804574816
1757.0,0.002147517062942651
1756.0,0.0023579473840529912
1755.0,0.0025599725676877082
1754.0,0.002742501662692511
1753.0,0.0029375151471971363
1752.0,0.003176719831266048
1751.0,0.003441146158794238
1750.0,0.003690725157262459
1749.0,0.003916999171627641
1748.0,0.004116255902721127
1747.0,0.004274060722050115
1746.0,0.0043937688350513876
1745.0,0.0044971109824306285
1744.0,0.00458132988192444
1743.0,0.004620790547221251
1742.0,0.004620995719705164
1741.0,0.004619584012926959
1740.0,0.004619414106266778
1739.0,0.004587843422547012
1738.0,0.004528330451374056
1737.0,0.004475792046576213
1736.0,0.004437858058394953
1735.0,0.004385231356575765
1734.0,0.004297538078395393
1733.0,0.004230325761757671
1732.0,0.004206712888412725
1731.0,0.004185067612708842
1730.0,0.004151748918737043
1729.0,0.004129591730986742
1728.0,0.0041322282346501074
1727.0,0.0041460672487879146
1726.0,0.0041624365512687965
1725.0,0.004196231107683536
1724.0,0.004245072224638557
1723.0,0.004277235230504292
1722.0,0.004285360301762027
1721.0,0.004308741119947691
1720.0,0.0043894785835944415
1719.0,0.004522258031933097
1718.0,0.004651748710577268
1717.0,0.004753584960536675
1716.0,0.004843121180083964
1715.0,0.00492561771275301
1714.0,0.005021137374424942
1713.0,0.005154711096330318
1712.0,0.005312610359282172
1711.0,0.0054615728503987215
1710.0,0.005595741791537064
1709.0,0.0057391149558534745
1708.0,0.005912895308055268
1707.0,0.006114570851695392
1706.0,0.006328281915280643
1705.0,0.006535343460433192
1704.0,0.0067063738013189225
1703.0,0.0068257636685294006
1702.0,0.0069540265018486515
1701.0,0.007252243163006638
1700.0,0.007735130943079482
1699.0,0.008188685079378916
1698.0,0.00854546167315742
1697.0,0.00890068815107559
1696.0,0.009296480996143604
1695.0,0.009671514207835697
1694.0,0.009977417416961835
1693.0,0.010264526192636724
1692.0,0.010587431581231026
1691.0,0.01094471939225743
1690.0,0.011316601185942347
1689.0,0.011688939829634967
1688.0,0.012045909111116972
1687.0,0.012371170303721011
1686.0,0.012709592981294522
1685.0,0.013170976364545464
1684.0,0.013700205801155416
1683.0,0.01412216368112428
1682.0,0.014454910459040887
1681.0,0.0147980995815895
1680.0,0.015158232787150241
1679.0,0.015476718358488264
1678.0,0.01573864476746039
1677.0,0.016021793144492757
1676.0,0.016408206250083362
1675.0,0.016858598994579442
1674.0,0.017256301047528184
1673.0,0.017582815671157062
1672.0,0.017896790453044722
1671.0,0.018239522146869382
1670.0,0.01861794937870647
1669.0,0.019017569416512392
1668.0,0.019399705703545787
1667.0,0.019718120800544796
1666.0,0.01997818576010742
1665.0,0.020245535083572064
1664.0,0.020577910512202757
1663.0,0.020955661507204598
1662.0,0.021312903194105497
1661.0,0.02163511725797397
1660.0,0.021940529770920727
1659.0,0.02221648005874756
1658.0,0.022439416450419226
1657.0,0.022622527235132053
1656.0,0.02280653268911998
1655.0,0.023043219178431832
1654.0,0.023368817839657295
1653.0,0.023710501989509997
1652.0,0.023943614617910565
1651.0,0.024026945632593926
1650.0,0.024040504928757412
1649.0,0.024097002446240932
1648.0,0.024214827963920348
1647.0,0.02429710652079998
1646.0,0.024294908171420545
1645.0,0.024279380694656516
1644.0,0.024284544290035983
1643.0,0.02428758984055624
1642.0,0.02427359899765888
1641.0,0.024244794835077802
1640.0,0.024208334556323676
1639.0,0.024159932845349685
1638.0,0.024096341689182663
1637.0,0.024017979272271794
1636.0,0.023903091895538395
1635.0,0.02375528908464734
1634.0,0.023619316512808557
1633.0,0.02350968830645372
1632.0,0.02340095603077447
1631.0,0.023262661365479612
1630.0,0.023083309154245724
1629.0,0.022875315322481462
1628.0,0.02264931123657929
1627.0,0.02240863643228058
1626.0,0.022159000127509806
1625.0,0.0219082939842542
1624.0,0.021646963521740167
1623.0,0.021356188368192353
1622.0,0.021057845379407792
1621.0,0.020794400349170516
1620.0,0.020576201912350125
1619.0,0.020373714724952762
1618.0,0.02013109706417733
1617.0,0.019800572523553862
1616.0,0.019417127799979127
1615.0,0.019063959807384942
1614.0,0.018768476027860824
1613.0,0.018508575274327282
1612.0,0.018255683636166694
1611.0,0.017997207358898416
1610.0,0.017736218753649113
1609.0,0.01747524940322046
1608.0,0.017212139197678604
1607.0,0.01695292744255227
1606.0,0.01670863212661697
1605.0,0.016480356468355186
1604.0,0.01625948114330983
1603.0,0.01603787880384359
1602.0,0.015817699029341905
1601.0,0.015606454030890698
1600.0,0.01540639412291997
1599.0,0.015214726092693514
1598.0,0.015028581641000172
1597.0,0.014846098694302527
1596.0,0.014663793556259064
1595.0,0.014479623144557585
1594.0,0.014296297644959113
1593.0,0.014116708522623582
1592.0,0.013940416507822375
1591.0,0.013767768024332242
1590.0,0.013601271764983887
1589.0,0.013441032554289335
1588.0,0.013285807763898306
1587.0,0.013138856101439734
1586.0,0.013005566644290775
1585.0,0.012884458868868926
1584.0,0.012766252164781028
1583.0,0.012657083433781162
1582.0,0.012540041728728146
1581.0,0.01244363002247371
1580.0,0.012363474754955743
1579.0,0.012285054980756912
1578.0,0.012213328715879145
1577.0,0.012140515905271166
1576.0,0.012070367306474723
1575.0,0.011998590583600553
1574.0,0.011967140867546916
1573.0,0.011913365431109072
1572.0,0.011861601022033564
1571.0,0.011835605706530314
1570.0,0.011816038083796516
1569.0,0.011799938321170718
1568.0,0.011791594035337872
1567.0,0.01179959010679635
1566.0,0.01181908013228295
1565.0,0.011838063056545025
1564.0,0.011849240193591239
1563.0,0.01184913915220915
1562.0,0.011843037496289939
1561.0,0.011845500460899409
1560.0,0.01193579289548067
1559.0,0.01199750815475211
1558.0,0.012004970078024544
1557.0,0.012075779166767251
1556.0,0.012174107996626259
1555.0,0.012256055887532069
1554.0,0.012320222118335373
1553.0,0.012374393324080732
1552.0,0.012424691710750536
1551.0,0.012462513284200557
1550.0,0.012479227278502323
1549.0,0.012474818184913297
1548.0,0.012455732982968145
1547.0,0.01242776183049367
1546.0,0.01240386505811679
1545.0,0.012388082112628547
1544.0,0.012365312241098868
1543.0,0.012331664157526095
1542.0,0.012311486085661266
1541.0,0.012288863545105066
1540.0,0.012174984511559529
1539.0,0.012003631723029557
1538.0,0.011868773193433933
1537.0,0.01176887056512336
1536.0,0.01167796426669784
1535.0,0.011577956205401486
1534.0,0.011449684781899458
1533.0,0.011308081371616496
1532.0,0.011197000099663323
1531.0,0.011116242169498088
1530.0,0.01103572604254492
1529.0,0.010947088507515202
1528.0,0.010850507718347446
1527.0,0.010742593283920973
1526.0,0.010633800850081792
1525.0,0.010548655937925575
1524.0,0.010491983004304806
1523.0,0.010440267781551042
1522.0,0.010361652460079262
1521.0,0.0102637449880627
1520.0,0.010186523021903513
1519.0,0.010135953292174494
1518.0,0.01008922689638784
1517.0,0.010014981187614711
1516.0,0.009902740437374267
1515.0,0.009778794219694496
1514.0,0.009659818283281683
1513.0,0.009542916969792668
1512.0,0.00942136099886698
1511.0,0.009297947275939645
1510.0,0.009200199114955558
1509.0,0.009151652591509222
1508.0,0.009107291049119384
1507.0,0.008920077483372469
1506.0,0.008680056424629524
1505.0,0.008576363978063516
1504.0,0.008552089330411357
1503.0,0.008521554154234381
1502.0,0.008475656796057614
1501.0,0.00842684627235192
1500.0,0.0083873840483141
1499.0,0.008353034602540978
1498.0,0.008321452511211237
1497.0,0.00830099796125802
1496.0,0.008286732707006302
1495.0,0.008264026402465105
1494.0,0.008243540976837448
1493.0,0.008246503927206474
1492.0,0.008270128844532498
1491.0,0.008294578737896463
1490.0,0.008315252095045588
1489.0,0.00835360391120812
1488.0,0.008407463952704582
1487.0,0.008457172242402786
1486.0,0.008522085666441302
1485.0,0.008625834046927442
1484.0,0.008755586251621063
1483.0,0.008892878090438561
1482.0,0.009052925381975366
1481.0,0.00925641685438362
1480.0,0.009483734734082731
1479.0,0.009716890884552111
1478.0,0.010000970557046388
1477.0,0.010396478155159443
1476.0,0.010888432731822134
1475.0,0.011449740994960201
1474.0,0.012188148858545647
1473.0,0.013259852739317022
1472.0,0.014574723501602129
1471.0,0.01588290344846965
1470.0,0.017132493726436326
1469.0,0.018405886977693825
1468.0,0.019737286285557796
1467.0,0.02115558197417691
1466.0,0.022743679535666646
1465.0,0.024470292359073623
1464.0,0.026041048743154473
1463.0,0.0272090007759259
1462.0,0.028031108741914397
1461.0,0.028660031232210215
1460.0,0.02916883557160357
1459.0,0.0295939058426547
1458.0,0.030004989720728965
1457.0,0.030405290834392106
1456.0,0.030677227275796998
1455.0,0.030787398051563962
1454.0,0.030805799995478396
1453.0,0.030733840834029705
1452.0,0.030490812413322965
1451.0,0.03001158643454703
1450.0,0.029249890818794293
1449.0,0.028110265852846882
1448.0,0.026562085370652466
1447.0,0.02482020282677161
1446.0,0.023163152204015092
1445.0,0.0216773444350482
1444.0,0.020344575480612765
1443.0,0.019192713495088692
1442.0,0.018276472876096607
1441.0,0.01760004250461699
1440.0,0.017131476362197078
1439.0,0.016851393619430416
1438.0,0.016748733817577015
1437.0,0.016729241603421763
1436.0,0.016591244345929568
1435.0,0.01621105245029673
1434.0,0.015604133714281664
1433.0,0.014820924963939934
1432.0,0.013954225014000794
1431.0,0.013149307560681474
1430.0,0.012504381490829546
1429.0,0.01202302657445058
1428.0,0.01168450002640302
1427.0,0.011472419558467013
1426.0,0.011337446310471583
1425.0,0.011215239636277925
1424.0,0.011089676610463168
1423.0,0.010988951673748444
1422.0,0.010913825464025717
1421.0,0.010832726371665323
1420.0,0.010747567499006
1419.0,0.010684252016647721
1418.0,0.010638294200295963
1417.0,0.01058662547552755
1416.0,0.010528491623584756
1415.0,0.010475111065176462
1414.0,0.010417295071913116
1413.0,0.010334946797485022
1412.0,0.01023290775745272
1411.0,0.0101344358270712
1410.0,0.010039130651787614
1409.0,0.009928346232792635
1408.0,0.009806258299922028
1407.0,0.009696542992070215
1406.0,0.009594399174693066
1405.0,0.009467825830497215
1404.0,0.009324131868025247
1403.0,0.009203250704366355
1402.0,0.009103921244669138
1401.0,0.008992051297928924
1400.0,0.008866146076081003
1399.0,0.00875984918054208
1398.0,0.00868113220102903
1397.0,0.008602279724543556
1396.0,0.008519316938090422
1395.0,0.008463342907538056
1394.0,0.008444884855860247
1393.0,0.00844538484765316
1392.0,0.00846551753710491
1391.0,0.00852601674591298
1390.0,0.008635292860228757
1389.0,0.008807056680848815
1388.0,0.00910677698087287
1387.0,0.009620359732830432
1386.0,0.010379443714551016
1385.0,0.011414010230347734
1384.0,0.012848184495769067
1383.0,0.014838058782722277
1382.0,0.017459960936882065
1381.0,0.02075156429430842
1380.0,0.024766505781256738
1379.0,0.029348861505962963
1378.0,0.03385539664874415
1377.0,0.03729637696190836
1376.0,0.03872039500858087
1375.0,0.03754685434132698
1374.0,0.03408333891054548
1373.0,0.029597598350420785
1372.0,0.025294417452694718
1371.0,0.02161057874617069
1370.0,0.018551316089462755
1369.0,0.01611327071857651
1368.0,0.014324462060087504
1367.0,0.013131709500393916
1366.0,0.012401230460220009
1365.0,0.012011037688212815
1364.0,0.011889140363874161
1363.0,0.011988248010836394
1362.0,0.012249968535411309
1361.0,0.012582597678093969
1360.0,0.01286073302695384
1359.0,0.012955491098631918
1358.0,0.012781790910533879
1357.0,0.012331336378139792
1356.0,0.011668676519797715
1355.0,0.010901142840736362
1354.0,0.010142077692872299
1353.0,0.009471466475830876
1352.0,0.008911142097503873
1351.0,0.00844251083329828
1350.0,0.008042232629685833
1349.0,0.007697961067140295
1348.0,0.007402937806730514
1347.0,0.007148937395786703
1346.0,0.006927490946931965
1345.0,0.006732329871760761
1344.0,0.006560119092919035
1343.0,0.006410735513912741
1342.0,0.006285485101924367
1341.0,0.006181595416331599
1340.0,0.006090162258099545
1339.0,0.006005699446737622
1338.0,0.005933551473135911
1337.0,0.005882244941142005
1336.0,0.005856051863348212
1335.0,0.0058567316054596846
1334.0,0.005884329040372541
1333.0,0.005933670365067001
1332.0,0.005991709510117007
1331.0,0.006039926347999174
1330.0,0.006061134582568555
1329.0,0.00604676682103379
1328.0,0.005998648509048009
1327.0,0.005924854174128857
1326.0,0.005833528366408583
1325.0,0.005731210276608769
1324.0,0.005626225178058502
1323.0,0.0055283158907917
1322.0,0.005442550734013172
1321.0,0.005366121717024478
1320.0,0.005293162531928538
1319.0,0.005220410361889579
1318.0,0.005147588006386365
1317.0,0.005075614644238344
1316.0,0.005006745324014758
1315.0,0.0049443163290292785
1314.0,0.004890591322084788
1313.0,0.004847608478435045
1312.0,0.004821430768539946
1311.0,0.00482325627767945
1310.0,0.004866958088402711
1309.0,0.004968741871050964
1308.0,0.005141540784807769
1307.0,0.005375670930262026
1306.0,0.005620780445657902
1305.0,0.005799563814240266
1304.0,0.005853440079582519
1303.0,0.005781172382450739
1302.0,0.00563632113643954
1301.0,0.005487373539191697
1300.0,0.005378521729004207
1299.0,0.005318258179727087
1298.0,0.005290523749888318
1297.0,0.005271916598133815
1296.0,0.005243992234572914
1295.0,0.005197329079545256
1294.0,0.005130536674551922
1293.0,0.005048933501949973
1292.0,0.004963010361416719
1291.0,0.0048836169405515615
1290.0,0.004816187775237657
1289.0,0.004760821973373988
1288.0,0.004717256445107322
1287.0,0.004685947979823267
1286.0,0.0046644434478930324
1285.0,0.0046478763750277
1284.0,0.0046344450864327915
1283.0,0.004626370199648115
1282.0,0.00462489739535571
1281.0,0.0046282497765785
1280.0,0.004635571128672284
1279.0,0.004648527357258905
1278.0,0.004667340893615619
1277.0,0.004689172526492139
1276.0,0.004712104482385073
1275.0,0.004737636136051412
1274.0,0.004767913020415785
1273.0,0.004803586232435327
1272.0,0.004845488248948243
1271.0,0.004895605291625206
1270.0,0.0049555807452627415
1269.0,0.00502690929769264
1268.0,0.005113042253544984
1267.0,0.005217963791812087
1266.0,0.005342103376073869
1265.0,0.005482316186368233
1264.0,0.005635295293781472
1263.0,0.005797867483212357
1262.0,0.005965386158081577
1261.0,0.006134174742206641
1260.0,0.006305414518509696
1259.0,0.006480702631944585
1258.0,0.00664929764553014
1257.0,0.006781024017440369
1256.0,0.0068361025414855735
1255.0,0.006788513861049405
1254.0,0.006645902390666763
1253.0,0.006447964267962059
1252.0,0.006244231022304215
1251.0,0.006070029857522013
1250.0,0.005936656883160446
1249.0,0.005838546296277319
1248.0,0.005767025763981203
1247.0,0.0057168308311058
1246.0,0.005683873940501525
1245.0,0.005663105413202852
1244.0,0.005649805460561076
1243.0,0.005640295877172867
1242.0,0.005631365227751322
1241.0,0.005621552732589314
1240.0,0.005612554853882387
1239.0,0.00560656273278815
1238.0,0.005602417029554021
1237.0,0.005596921713060827
1236.0,0.00558923712379253
1235.0,0.005580919782880068
1234.0,0.005572362289059947
1233.0,0.00556281508868973
1232.0,0.005553721560844729
1231.0,0.005548234133479121
1230.0,0.005547181196357647
1229.0,0.00554902865448661
1228.0,0.005553932243245959
1227.0,0.005564253642433634
1226.0,0.00558089258802353
1225.0,0.005602728679828927
1224.0,0.005629842513523685
1223.0,0.005663005512974205
1222.0,0.005698735036102175
1221.0,0.005728452729198218
1220.0,0.005744397475506011
1219.0,0.005744435116471307
1218.0,0.005730530001852674
1217.0,0.005705109681285158
1216.0,0.005670246860823921
1215.0,0.005628686595909656
1214.0,0.005584579567670653
1213.0,0.005544252395125227
1212.0,0.005515466025294747
1211.0,0.0055025587085195185
1210.0,0.005501823918263886
1209.0,0.005504878517392918
1208.0,0.005507314517921703
1207.0,0.005511615296367128
1206.0,0.0055219709200500285
1205.0,0.00553959102667281
1204.0,0.005563257320798116
1203.0,0.005590524458482689
1202.0,0.005617105008794443
1201.0,0.0056381616378207
1200.0,0.005651742988396746
1199.0,0.005659343819753228
1198.0,0.005662857154382249
1197.0,0.005663176083556865
1196.0,0.005661915212619143
1195.0,0.005661790219646077
1194.0,0.005664312444369126
1193.0,0.005669089646112053
1192.0,0.005676066946094986
1191.0,0.005686566182757357
1190.0,0.00570191086223373
1189.0,0.005723216588206122
1188.0,0.005752757121837135
1187.0,0.005793150927891278
1186.0,0.005844720280675928
1185.0,0.005905684643179764
1184.0,0.0059752593575707665
1183.0,0.006055133187185728
1182.0,0.006148675096037431
1181.0,0.006260811769468891
1180.0,0.006398124795001819
1179.0,0.006566985961300325
1178.0,0.0067728426941657885
1177.0,0.007024396918132714
1176.0,0.007338292587433515
1175.0,0.007737243598295222
1174.0,0.00824268895464904
1173.0,0.008865813653529439
1172.0,0.009595601705477476
1171.0,0.010384578004403688
1170.0,0.01114594183426515
1169.0,0.011773267482523461
1168.0,0.01217530261212091
1167.0,0.012312660396590683
1166.0,0.012216013435045518
1165.0,0.011966737720739336
1164.0,0.011652520579374222
1163.0,0.01133620606607087
1162.0,0.011052855270706156
1161.0,0.010818044078796949
1160.0,0.010634599394053248
1159.0,0.010498179011964337
1158.0,0.010402505957569332
1157.0,0.010340659455824835
1156.0,0.01030289463086849
1155.0,0.010276880329465964
1154.0,0.010251017919135805
1153.0,0.010215115598909353
1152.0,0.010158113253912651
1151.0,0.010070040508036913
1150.0,0.009949186416819347
1149.0,0.009804971574934632
1148.0,0.009652411781859752
1147.0,0.009504801971697657
1146.0,0.009369984533062144
1145.0,0.009250185527548709
1144.0,0.00914479335594493
1143.0,0.009054254626868688
1142.0,0.008980108435114785
1141.0,0.00892048606785837
1140.0,0.008868695159579798
1139.0,0.008819735776697545
1138.0,0.008776513526439697
1137.0,0.008745314032552336
1136.0,0.008726100670447346
1135.0,0.008712590571144476
1134.0,0.008703013384554398
1133.0,0.008705782357889498
1132.0,0.008731562060902398
1131.0,0.008782790989166891
1130.0,0.008853435899332556
1129.0,0.00893574012559353
1128.0,0.009023074340695731
1127.0,0.00910821134025779
1126.0,0.009184109154671318
1125.0,0.009247152324314514
1124.0,0.00929739008673482
1123.0,0.009336567344755945
1122.0,0.009367932672439098
1121.0,0.009395994223062606
1120.0,0.009423512270033789
1119.0,0.009449513050240088
1118.0,0.00947198078934062
1117.0,0.009491253111402599
1116.0,0.009509222524594697
1115.0,0.009526925186774423
1114.0,0.009545153973903073
1113.0,0.009566674938459157
1112.0,0.009596121010368533
1111.0,0.00963812126252221
1110.0,0.009695909052267446
1109.0,0.009770895536191756
1108.0,0.009862936663112179
1107.0,0.009971137183591161
1106.0,0.010093222577052507
1105.0,0.01022098194309039
1104.0,0.010336042856184136
1103.0,0.010414629017441286
1102.0,0.01044024032746737
1101.0,0.010412274323556577
1100.0,0.010343798008804144
1099.0,0.010255026926816494
1098.0,0.010166261560793588
1097.0,0.01008867092767285
1096.0,0.010019738957215087
1095.0,0.009950322010629415
1094.0,0.009875802182609925
1093.0,0.009797497995805787
1092.0,0.00971582972557606
1091.0,0.009628370091036727
1090.0,0.009534862293205073
1089.0,0.0094391076966632
1088.0,0.009345089208043965
1087.0,0.009254828000666515
1086.0,0.009169674518305828
1085.0,0.009089386001097018
1084.0,0.009009379801919628
1083.0,0.008922370096601887
1082.0,0.008823636457028529
1081.0,0.008712959291984438
1080.0,0.008592787489662176
1079.0,0.008467726793557078
1078.0,0.008344292895218146
1077.0,0.008227066981037695
1076.0,0.008115462647555726
1075.0,0.008006902280355202
1074.0,0.007901671931719324
1073.0,0.007801492743240469
1072.0,0.007705037062304423
1071.0,0.00760915718988788
1070.0,0.007514184172607619
1069.0,0.007423987717511156
1068.0,0.007340402973447076
1067.0,0.007261073523725974
1066.0,0.0071836023101611145
1065.0,0.007108818658457592
1064.0,0.007038383997953963
1063.0,0.006971260647399339
1062.0,0.0069045429948326135
1061.0,0.0068369873188300605
1060.0,0.006770185681897991
1059.0,0.006706517795240492
1058.0,0.006647228294094011
1057.0,0.0065930171384818645
1056.0,0.006546011635603805
1055.0,0.006510286603318097
1054.0,0.00648975537594494
1053.0,0.006485142906923789
1052.0,0.006493040181657842
1051.0,0.006508375700417275
1050.0,0.006528058569665327
1049.0,0.006551130391751833
1048.0,0.006574249305985545
1047.0,0.006587593225171136
1046.0,0.006576191088955144
1045.0,0.006525749282950683
1044.0,0.006429337485685709
1043.0,0.0062924570214939
1042.0,0.0061323532205266075
1041.0,0.005969249132592006
1040.0,0.005815965787462718
1039.0,0.005674841411645813
1038.0,0.005542678912106885
1037.0,0.0054172133736914724
1036.0,0.005299129211994465
1035.0,0.0051894485169133794
1034.0,0.00508681280857688
1033.0,0.004987949092913677
1032.0,0.004889614089441607
1031.0,0.004789118934955207
1030.0,0.00468481944467089
1029.0,0.004578644547172444
1028.0,0.004477252137015905
1027.0,0.004387252609909631
1026.0,0.004308412312333877
1025.0,0.004234037134544763
1024.0,0.00415848258261564
1023.0,0.004081593446325087
1022.0,0.004005513968970884
1021.0,0.003930746827936111
1020.0,0.0038570459217451792
1019.0,0.003785046990414545
1018.0,0.0037144402475865644
1017.0,0.0036427580513155484
1016.0,0.0035686137300825612
1015.0,0.0034948214268267393
1014.0,0.0034262688546323715
1013.0,0.0033659557790060015
1012.0,0.003315137824127079
1011.0,0.003276431907047183
1010.0,0.003254896055065443
1009.0,0.003256404510964382
1008.0,0.003286349527390006
1007.0,0.0033506026645823226
1006.0,0.0034590681015764123
1005.0,0.0036308494061679936
1004.0,0.0038974408855154278
1003.0,0.004298688515509829
1002.0,0.004866404132585
1001.0,0.0055923996908426
1000.0,0.006389548371021625
999.0,0.007080410360360513
998.0,0.007454305110524069
997.0,0.007376486035603922
996.0,0.0068667945866072635
995.0,0.006083716134489908
994.0,0.005230070918363928
993.0,0.004456171378752342
992.0,0.0038253881450873327
991.0,0.0033390579937653837
990.0,0.0029736919715040912
989.0,0.0027027415798632657
988.0,0.002504985420935338
987.0,0.0023661569661195233
986.0,0.002277655954126723
985.0,0.0022367679729500076
984.0,0.0022486087559306636
983.0,0.002324997617868015
982.0,0.0024811367022013232
981.0,0.002736163092710334
980.0,0.0031145246680739707
979.0,0.003638018234363079
978.0,0.00431076100414454
977.0,0.005109314116191754
976.0,0.005976311806343658
975.0,0.006808163884135795
974.0,0.007450331682114756
973.0,0.007730532331478909
972.0,0.007535633165096997
971.0,0.006889063064128351
970.0,0.00595767160865684
969.0,0.004964913378642891
968.0,0.004081732171454772
967.0,0.003379280418613814
966.0,0.0028507981787138864
965.0,0.0024574726535198385
964.0,0.0021599911950673416
963.0,0.0019275545339107764
962.0,0.0017370181138261004
961.0,0.0015734355618211788
960.0,0.0014309116185240835
959.0,0.001308460569294549
958.0,0.0012034270872835406
957.0,0.0011101760919041198
956.0,0.0010245355892767715
955.0,0.0009464905200633391
954.0,0.0008777153944175674
953.0,0.0008187416167741825
952.0,0.0007693028838486647
951.0,0.0007292940116922792
950.0,0.0006984202309479161
949.0,0.0006765057721940509
948.0,0.0006646689521893926
947.0,0.0006649065891759154
946.0,0.0006786762461114754
945.0,0.0007068873797602682
944.0,0.0007493736406680752
943.0,0.0008011193407272358
942.0,0.0008497020288250395
941.0,0.0008799923052579331
940.0,0.0008824057720336585
939.0,0.0008560463188877956
938.0,0.0008059050263378061
937.0,0.0007401112852664718
936.0,0.0006691709268360161
935.0,0.000603598399931923
934.0,0.000549620262944985
933.0,0.0005076353043048619
932.0,0.00047468346419663084
931.0,0.0004469556226644276
930.0,0.0004210600895329618
929.0,0.0003959480838339382
928.0,0.00037389055952770367
927.0,0.0003576456177145316
926.0,0.0003470376425658865
925.0,0.0003401215741668847
924.0,0.00033635277230745914
923.0,0.0003357793430524324
922.0,0.0003363694059241402
921.0,0.00033565430606285074
920.0,0.00033446783513174823
919.0,0.00033580860569514415
918.0,0.00034043574567176223
917.0,0.00034679773578879386
916.0,0.00035504679422264027
915.0,0.00036787741462342583
914.0,0.00038714280921681166
913.0,0.0004120989521882298
912.0,0.00044083277152241057
911.0,0.00047135099670072775
910.0,0.0005024529306070658
909.0,0.0005368084160975468
908.0,0.0005833306308866077
907.0,0.0006550039795407631
906.0,0.0007656332520108583
905.0,0.0009294524524526993
904.0,0.0011579855602430623
903.0,0.001448334587088834
902.0,0.0017713189107865677
901.0,0.0020730047840089305
900.0,0.002289837806884407
899.0,0.002370029674040799
898.0,0.0022957970263849554
897.0,0.0020950746194005705
896.0,0.0018299296989900179
895.0,0.0015659412663481054
894.0,0.0013445460883928038
893.0,0.0011774023947813865
892.0,0.0010593031969136574
891.0,0.000980576992611855
890.0,0.0009308253880306308
889.0,0.000901020010833648
888.0,0.0008868042692369354
887.0,0.0008876512047683617
886.0,0.0009026803731180949
885.0,0.0009302715266542869
884.0,0.0009707820367543026
883.0,0.001025537999828051
882.0,0.0010936028341781536
881.0,0.001173201142807656
880.0,0.0012648931893971772
879.0,0.001368503441566523
878.0,0.0014776587346594112
877.0,0.0015817787206243517
876.0,0.0016723927965982145
875.0,0.0017436255834172854
874.0,0.0017890332213063081
873.0,0.0018037840811153793
872.0,0.00178986565199274
871.0,0.0017557705008361627
870.0,0.001712083456183594
869.0,0.0016700278624507906
868.0,0.001641593058735168
867.0,0.0016356370876790347
866.0,0.0016533967896412783
865.0,0.0016905573231154637
864.0,0.0017424450914088133
863.0,0.001804640880143451
862.0,0.0018718504641281912
861.0,0.0019409175799009236
860.0,0.002012815960897147
859.0,0.002087568272648661
858.0,0.0021597379405372914
857.0,0.0022228555452729337
856.0,0.0022749866555640853
855.0,0.002315543967691365
854.0,0.002341086808974338
853.0,0.002351209198262005
852.0,0.002356500484415336
851.0,0.002374723563955199
850.0,0.0024206991945131765
849.0,0.002505178093841171
848.0,0.0026432286750025834
847.0,0.0028638157136070827
846.0,0.003219169877450137
845.0,0.0037797499913716885
844.0,0.004580166246727123
843.0,0.005522126422276079
842.0,0.006334570156470255
841.0,0.00669640260655021
840.0,0.006461840805328644
839.0,0.005777878072101271
838.0,0.004966590865879023
837.0,0.004292769044172352
836.0,0.0038414610529285565
835.0,0.0035678226197379086
834.0,0.0034025459064085774
833.0,0.0033018342071637653
832.0,0.003240703253719673
831.0,0.003201640690606713
830.0,0.003176291941574619
829.0,0.0031636421912020606
828.0,0.003161501496497767
827.0,0.0031653044342411264
826.0,0.0031746876727445136
825.0,0.0031939433193638716
824.0,0.0032252086664801604
823.0,0.0032666669777190443
822.0,0.0033169146855815063
821.0,0.0033758822200166344
820.0,0.0034425212113060122
819.0,0.003516634954111293
818.0,0.0036031903914481543
817.0,0.0037124091868732736
816.0,0.003856162635359971
815.0,0.004045094328404287
814.0,0.004285349897948121
813.0,0.004571658408907912
812.0,0.004880645426447091
811.0,0.0051729476259939865
810.0,0.005405428742518391
809.0,0.005544030155874329
808.0,0.00557111878508035
807.0,0.005491359450915754
806.0,0.005334157941979469
805.0,0.00514331125901266
804.0,0.004958070807437275
803.0,0.004801188851731426
802.0,0.00467899603936486
801.0,0.004586868564272524
800.0,0.004515353117179863
799.0,0.0044561350666077505
798.0,0.004405202945917095
797.0,0.0043608955243550004
796.0,0.0043208511895896085
795.0,0.004283009818152189
794.0,0.0042477949750203605
793.0,0.004215979042438972
792.0,0.004185299199065332
791.0,0.004152610901422844
790.0,0.004119004208062988
789.0,0.004089372898771655
788.0,0.004066548228613194
787.0,0.004048596941780331
786.0,0.004032318861484209
785.0,0.004016882170248421
784.0,0.004003406472844572
783.0,0.003993048405201982
782.0,0.003986073599383917
781.0,0.0039813092577200004
780.0,0.0039765968178717085
779.0,0.003971545680269811
778.0,0.003969377047160121
777.0,0.0039737065390425905
776.0,0.003983693398182529
775.0,0.003994765359793422
774.0,0.004004167472876198
773.0,0.004013333972539307
772.0,0.004024621992778839
771.0,0.004038446510757363
770.0,0.00405420911650538
769.0,0.004071416525643301
768.0,0.004088859996110271
767.0,0.0041048147842924
766.0,0.004118925835554491
765.0,0.0041320208738993055
764.0,0.004143751714842358
763.0,0.004153036864456358
762.0,0.004161797657848255
761.0,0.0041756556218271335
760.0,0.004198919133766089
759.0,0.004229694553535831
758.0,0.004260890731472004
757.0,0.0042856930417135425
756.0,0.004302534565646363
755.0,0.00431642836300334
754.0,0.004335321689540133
753.0,0.004363189474160168
752.0,0.004396368221206096
751.0,0.004427564225263556
750.0,0.004452634111360085
749.0,0.0044722020358645
748.0,0.004488591919555952
747.0,0.004504285962721627
746.0,0.004522355200826356
745.0,0.004544628933897885
744.0,0.004569137269913533
743.0,0.004592073187384662
742.0,0.0046122320312680706
741.0,0.004631066383159972
740.0,0.004649125787107005
739.0,0.004665595257036258
738.0,0.004680604521769511
737.0,0.004694763288604291
736.0,0.004707368395689172
735.0,0.004718502046130012
734.0,0.004731797265706517
733.0,0.004751139979841031
732.0,0.004775475372869386
731.0,0.004800968229217375
730.0,0.004827469010937299
729.0,0.0048582834423775405
728.0,0.004894189212637732
727.0,0.004932714948057797
726.0,0.0049726380079160425
725.0,0.0050136066839798505
724.0,0.005051785895641923
723.0,0.005081692044720053
722.0,0.0051024036049874474
721.0,0.005116634312747439
720.0,0.005123886690924971
719.0,0.005121162890482908
718.0,0.005111494096011653
717.0,0.0051051173404668155
716.0,0.005110391276713857
715.0,0.005127182115435945
714.0,0.005148405276611645
713.0,0.00516409185465214
712.0,0.005165739391240593
711.0,0.005153129915014237
710.0,0.005136986333119898
709.0,0.005129360270514638
708.0,0.005131712062997713
707.0,0.005137261443027561
706.0,0.0051429206985709654
705.0,0.005151461036000948
704.0,0.005163148716242143
703.0,0.005174006189195432
702.0,0.005182240254762334
701.0,0.005187925968464194
700.0,0.005186502539521626
699.0,0.00517221173018757
698.0,0.005148958806197991
697.0,0.005127842950167102
696.0,0.0051126026224968275
695.0,0.005097383215595689
694.0,0.005080130901308424
693.0,0.005067266155136765
692.0,0.005061602148884077
691.0,0.0050562441252116515
690.0,0.005045666158803702
689.0,0.005033298883980573
688.0,0.005022706485613359
687.0,0.00501124336505864
686.0,0.004999246754087205
685.0,0.004994606937599738
684.0,0.005000404920672576
683.0,0.0050077406894483735
682.0,0.005007039599023065
681.0,0.004998449732544935
680.0,0.004986892517376433
679.0,0.004975108148055872
678.0,0.004966819696439905
677.0,0.00496808830749278
676.0,0.0049797412970275425
675.0,0.004994828291032354
674.0,0.00500504920427631
673.0,0.005005501370552234
672.0,0.004991761240118596
671.0,0.004962616802218977
670.0,0.004925069283245187
669.0,0.004907518464741006
668.0,0.004940100736539121
667.0,0.004982677042806976
666.0,0.004983142291199144
665.0,0.00495916143045917
664.0,0.004938726637669123
663.0,0.004925768705938815
662.0,0.0049123813981078995
661.0,0.004894869970712704
660.0,0.0048737467881294246
659.0,0.0048463413827866415
658.0,0.004812308842294355
657.0,0.004778160471568545
656.0,0.0047487009286540025
655.0,0.004721039226653245
654.0,0.00469243264798005
653.0,0.0046667760070141714
652.0,0.004647027816992911
651.0,0.004628430213982002
650.0,0.004605823949474447
649.0,0.004580621131160652
648.0,0.004553633412760173
647.0,0.004519330824800485
646.0,0.004474665962234465
645.0,0.004425832102607229
644.0,0.004379759515969559
643.0,0.004335500070932172
642.0,0.004288431252510766
641.0,0.0042369205880557585
640.0,0.0041816080446552654
639.0,0.004125111689647519
638.0,0.00407492005623847
637.0,0.004038191273433286
636.0,0.004012516878341409
635.0,0.003989929156776602
634.0,0.003968696633175266
633.0,0.003950141052709808
632.0,0.003925366049063754
631.0,0.003881243002607143
630.0,0.0038213445715051565
629.0,0.003762015232001476
628.0,0.0037033360660918713
627.0,0.0036242142247290624
626.0,0.00351498550173417
625.0,0.003396582168236871
624.0,0.0032955146700023256
623.0,0.003217434385335196
622.0,0.003154404520387179
621.0,0.0030998409679928694
620.0,0.0030442418709098907
619.0,0.0029717613079164266
618.0,0.0028798396384831972
617.0,0.0027908700457638345
616.0,0.0027289603914554556
615.0,0.0026992117996608965
614.0,0.002698007000646336
613.0,0.002729138702392369
612.0,0.0027954868282092735
611.0,0.002879399188080266
610.0,0.00295025271175961
609.0,0.0029921478999592015
608.0,0.0030077195082325765
607.0,0.003002051348081401
606.0,0.002983011639628606
605.0,0.002969080579217775
604.0,0.0029778405031441885
603.0,0.0030089386228449606
602.0,0.003043181593134622
601.0,0.0030533687071286897
600.0,0.0030155903167299325
599.0,0.002926592296232669
598.0,0.002818398564174743
597.0,0.0027350220721904187
596.0,0.002690010589787375
595.0,0.0026599448478335595
594.0,0.0026184553531159727
593.0,0.002561686413752178
592.0,0.002492808635900276
591.0,0.0024051591873955466
590.0,0.002297626216254901
589.0,0.0021872575589278707
588.0,0.0020907698082867935
587.0,0.0020050230388426182
586.0,0.001915407139904594
585.0,0.001815271503678776
584.0,0.00170514985930857
583.0,0.00157934033337458
582.0,0.001433436802293157
581.0,0.0012866196619089661
580.0,0.0011774782095093058
579.0,0.00112012112674379
578.0,0.0010681500562505159
577.0,0.0009586101930505247
576.0,0.0007983182993201859
575.0,0.0006734711695105854
574.0,0.0006517229940051347
573.0,0.0007093042986344071
572.0,0.0007856908635849487
571.0,0.0008487469855464709
570.0,0.0008862304539753781
569.0,0.000881703633613124
568.0,0.0008223564633510084
567.0,0.0007248639404562095
566.0,0.0006335255631084247
565.0,0.0005834590701907106
564.0,0.0005813409124478626
563.0,0.0006089263415531157
562.0,0.0006260202833645945
561.0,0.0005947862843669214
560.0,0.0005173433308403499
559.0,0.00043834398123400713
558.0,0.000390947580849961
557.0,0.0003567238948166537
556.0,0.0003113411058390447
555.0,0.00027753647537401543
554.0,0.0002907349445538726
553.0,0.00033178812423189166
552.0,0.0003432622625747974
551.0,0.00030614272127231935
550.0,0.00026077053452595606
