cm-1,A
4000.0,-0.0010043226053236542
3999.0,-0.0010119275711831357
3998.0,-0.0009470659096554586
3997.0,-0.0008391996622763641
3996.0,-0.0007470312945257705
3995.0,-0.0007252914047069388
3994.0,-0.0007876936894267873
3993.0,-0.0008987424938338498
3992.0,-0.0010039301864348741
3991.0,-0.0010688920811374805
3990.0,-0.0010862287811000838
3989.0,-0.0010597534404181018
3988.0,-0.0009915525690554748
3987.0,-0.0008889311524415615
3986.0,-0.0007677767135792165
3985.0,-0.0006407112402062255
3984.0,-0.0005140560612931248
3983.0,-0.00040049398447398587
3982.0,-0.00032939219427156885
3981.0,-0.00032734336693156446
3980.0,-0.00038587997477557276
3979.0,-0.0004600217393195367
3978.0,-0.0005043027464478999
3977.0,-0.0005131400551110286
3976.0,-0.0005167018764481086
3975.0,-0.0005482659280500804
3974.0,-0.0006176541527837063
3973.0,-0.0007092201000378925
3972.0,-0.0007977047845704657
3971.0,-0.000861985758279431
3970.0,-0.0008919043064218573
3969.0,-0.000883683533648837
3968.0,-0.0008427636420346757
3967.0,-0.000783818746490804
3966.0,-0.000726342220900979
3965.0,-0.0006837377391670195
3964.0,-0.0006537294665443683
3963.0,-0.0006228775230365377
3962.0,-0.000579730067968512
3961.0,-0.000530907330903285
3960.0,-0.0004973182275494672
3959.0,-0.0004954826687370802
3958.0,-0.0005326887179693124
3957.0,-0.0005857806424911425
3956.0,-0.0006104413147290065
3955.0,-0.0005892964887393515
3954.0,-0.0005609263516308839
3953.0,-0.0005879027837520806
3952.0,-0.0006907729700417315
3951.0,-0.0008120603760695562
3950.0,-0.0008505957871573627
3949.0,-0.0007632319190233421
3948.0,-0.0006391626016942992
3947.0,-0.0006063172602904479
3946.0,-0.0006715744200442918
3945.0,-0.000745502740552579
3944.0,-0.0007386160354326417
3943.0,-0.0006254486009464543
3942.0,-0.0004922758966954487
3941.0,-0.0004182694006605349
3940.0,-0.0003638338926100016
3939.0,-0.00028488950795298347
3938.0,-0.0002264506014602835
3937.0,-0.0002397195047052509
3936.0,-0.0003018117613220574
3935.0,-0.00035203956456300025
3934.0,-0.00037155933006259275
3933.0,-0.0003896438692887537
3932.0,-0.0004387473502435869
3931.0,-0.0005202745671529494
3930.0,-0.0005818384099581502
3929.0,-0.0005759124944745616
3928.0,-0.0005307162565367943
3927.0,-0.0005035534957906599
3926.0,-0.0005164626455691143
3925.0,-0.0005360552172589336
3924.0,-0.0005359405544453689
3923.0,-0.0005156575226026223
3922.0,-0.0004466917996918305
3921.0,-0.0003469618289909321
3920.0,-0.0002604450370372658
3919.0,-0.00015233772297128072
3918.0,-1.614141374693288e-05
3917.0,4.169135104370534e-05
3916.0,-4.7599917800421766e-05
3915.0,-0.0001693268891037004
3914.0,-0.0001518064570724953
3913.0,1.544072927167975e-05
3912.0,0.0002041679485076807
3911.0,0.00031723109183447347
3910.0,0.0003063738566409001
3909.0,0.00016142614051236617
3908.0,-0.00011404508313132985
3907.0,-0.0004610666219979902
3906.0,-0.0007610269917533794
3905.0,-0.0008783760526777228
3904.0,-0.0008278757244872825
3903.0,-0.0007926491167495639
3902.0,-0.0007993347424086099
3901.0,-0.0006960801668259417
3900.0,-0.00048347007075468245
3899.0,-0.00032890041938610963
3898.0,-0.00028281044631640255
3897.0,-0.00022026734451978717
3896.0,-0.00010008891040210865
3895.0,-4.20464460414141e-05
3894.0,-7.879901212247842e-05
3893.0,-4.1625332381510114e-05
3892.0,0.0001442952729864208
3891.0,0.00016732087316505056
3890.0,-0.00018532831074766893
3889.0,-0.0004739236271749281
3888.0,-0.0003506529360446655
3887.0,-3.3117047582288846e-05
3886.0,0.00016563003611353875
3885.0,5.910265182976779e-05
3884.0,-0.0003201566237795105
3883.0,-0.0005592525038442204
3882.0,-0.00047619758064734903
3881.0,-0.00026139193854647354
3880.0,-0.00013898206663033987
3879.0,-0.00024255566349865054
3878.0,-0.00032889854623525234
3877.0,-0.00018030098566733984
3876.0,-6.176764147606336e-05
3875.0,-0.0002361012298358403
3874.0,-0.0006286472270577662
3873.0,-0.0009912300754232493
3872.0,-0.0010577943493534012
3871.0,-0.0007800078209930427
3870.0,-0.00047997303534735684
3869.0,-0.0005716589449337903
3868.0,-0.000867009028782811
3867.0,-0.0007799399112252198
3866.0,-0.00042337159900612386
3865.0,-0.0002260207255270954
3864.0,-0.00016766590037973258
3863.0,-0.0001402988657582887
3862.0,-0.0001269048356977425
3861.0,-9.910607642284164e-05
3860.0,-0.0001120344131879513
3859.0,-0.00020002246360725654
3858.0,-0.000372816535178639
3857.0,-0.0006098978877444824
3856.0,-0.0008523484669182215
3855.0,-0.0008970111303816955
3854.0,-0.0003410630438262141
3853.0,0.0002659569378112255
3852.0,-0.0002173652209974473
3851.0,-0.0007249943466464056
3850.0,-0.0002853299953040373
3849.0,0.000361750764209605
3848.0,0.0006184043890652057
3847.0,0.0005568497358917281
3846.0,0.0003678442683252756
3845.0,0.00012528491180135689
3844.0,-0.00014692397360866892
3843.0,-0.00048376494069613744
3842.0,-0.0009154556661578805
3841.0,-0.001323667955858948
3840.0,-0.0015207192096399202
3839.0,-0.0013994130933667399
3838.0,-0.0011315030386269877
3837.0,-0.0009738662813614931
3836.0,-0.0008705852662331921
3835.0,-0.0005926203478636885
3834.0,-0.0001503021983118248
3833.0,0.0002529722307882151
3832.0,0.00044328382911207657
3831.0,0.0003958741036293352
3830.0,0.00025550840253667
3829.0,0.00019947261446075551
3828.0,0.000253037156718212
3827.0,0.00028810321880966207
3826.0,0.00016615231388974008
3825.0,-6.986967035516869e-05
3824.0,-0.00022814680734827085
3823.0,-0.00027808996543936043
3822.0,-0.0002566257451569505
3821.0,-0.0001650898144132096
3820.0,-0.00039343510433653033
3819.0,-0.0006882472516151867
3818.0,-0.0003904075300361498
3817.0,0.00020355868886590936
3816.0,0.0005123111909874892
3815.0,0.00034599135836352584
3814.0,0.00012721639012184876
3813.0,0.00038045975497483144
3812.0,0.0008366980463039579
3811.0,0.0009701026241650777
3810.0,0.0007992458443703472
3809.0,0.0006342579425764965
3808.0,0.0006224659975071815
3807.0,0.0005842113942975478
3806.0,0.00022963914921194577
3805.0,-0.00023516474156901393
3804.0,-0.000374159279748441
3803.0,-0.0002660335842902485
3802.0,-4.8598117879992834e-05
3801.0,6.32740204902203e-05
3800.0,-0.0002355269412966266
3799.0,-0.000370389772404182
3798.0,1.0535136885128334e-05
3797.0,0.00042354183218891363
3796.0,0.0005352782421897315
3795.0,0.0004513894179718758
3794.0,0.00047502379718178823
3793.0,0.0006883949363675167
3792.0,0.0008764777429263442
3791.0,0.0008886855658659537
3790.0,0.0007940378515488178
3789.0,0.0006916467302835099
3788.0,0.0006184787565633744
3787.0,0.0005996537111665479
3786.0,0.0006605938023259861
3785.0,0.0007401251865236437
3784.0,0.0007181537427357134
3783.0,0.0005984604784606007
3782.0,0.0005181799265775485
3781.0,0.0005326901591277378
3780.0,0.0005954668801490448
3779.0,0.0006217347295019863
3778.0,0.0005425031906216543
3777.0,0.0004921151580014468
3776.0,0.000589297053206859
3775.0,0.000689913192793054
3774.0,0.0006434850242744621
3773.0,0.0005204418349136375
3772.0,0.00046632340114083327
3771.0,0.0005046357857907055
3770.0,0.0005099328054439932
3769.0,0.00034935350704905785
3768.0,0.00012619219521027374
3767.0,6.617697063618822e-05
3766.0,0.00014569456036904547
3765.0,0.00017562003499841435
3764.0,8.769220782892518e-05
3763.0,1.8232597583382705e-05
3762.0,3.079759659043975e-05
3761.0,-1.8794935648375113e-05
3760.0,-0.0001236136386101416
3759.0,-0.00011637657964174851
3758.0,-5.629204513716386e-05
3757.0,-0.00010844713739224798
3756.0,-0.00025787675739606924
3755.0,-0.0004286707176809171
3754.0,-0.0006747548023797459
3753.0,-0.0010587261150739788
3752.0,-0.001250782225715128
3751.0,-0.0008489568251179171
3750.0,-0.0004645219466425238
3749.0,-0.0007242975248785638
3748.0,-0.0010959975540961381
3747.0,-0.0009516746656274836
3746.0,-0.00029030660423409336
3745.0,0.0005366761934871961
3744.0,0.0007341028259393184
3743.0,-3.1430241004277775e-05
3742.0,-0.0005787261045653589
3741.0,-0.0003546559709187335
3740.0,-0.0001617242124886686
3739.0,-0.00040621493658171345
3738.0,-0.0008441057015515343
3737.0,-0.001165240942222244
3736.0,-0.0011833304414648842
3735.0,-0.0009750409983411562
3734.0,-0.000806827400138541
3733.0,-0.0006350120129267281
3732.0,-0.0003899004768262886
3731.0,-0.00020035622108642234
3730.0,-2.5214351757856315e-05
3729.0,0.00023335554324031079
3728.0,0.0004649764950817783
3727.0,0.0005245474125169286
3726.0,0.0004374502672873362
3725.0,0.000319546813279166
3724.0,0.00026791241980983504
3723.0,0.0002609079314884392
3722.0,0.0002403142122912171
3721.0,0.000234664070943857
3720.0,0.00032798554109671803
3719.0,0.0005398929564844627
3718.0,0.0007425480089065547
3717.0,0.000791361844474873
3716.0,0.000683004169026903
3715.0,0.0004913475220563162
3714.0,0.00022306748322807688
3713.0,-4.6838518750179315e-05
3712.0,-5.1477678227615856e-06
3711.0,0.0003420182045578996
3710.0,0.0005146412015737711
3709.0,0.0005096088605528782
3708.0,0.0006146038840289874
3707.0,0.000827900117386166
3706.0,0.00102283264005771
3705.0,0.0011621934170834365
3704.0,0.0012786928407576585
3703.0,0.001410516351692525
3702.0,0.001551576848043859
3701.0,0.0015865625851056169
3700.0,0.0014894862091298809
3699.0,0.001452634642461527
3698.0,0.001563845074461266
3697.0,0.0016736825947879122
3696.0,0.001650676768740956
3695.0,0.0015167147350553865
3694.0,0.001310566312428652
3693.0,0.0009726342517383762
3692.0,0.0005008672771468971
3691.0,0.00017479866437700186
3690.0,0.00033812483794040736
3689.0,0.0007767666651032389
3688.0,0.0009529522299574363
3687.0,0.0009910661379376588
3686.0,0.0013291813831972626
3685.0,0.0018867123219919691
3684.0,0.00226135472090427
3683.0,0.0022950728157448198
3682.0,0.0021387758179716616
3681.0,0.0019485206847696624
3680.0,0.0016937679616369195
3679.0,0.0013369035369378487
3678.0,0.001064777867395303
3677.0,0.0011389356424714868
3676.0,0.0016427491291099668
3675.0,0.0018732556169326802
3674.0,0.001366624702940997
3673.0,0.0011282443209204131
3672.0,0.0015169621433950274
3671.0,0.001912697345909431
3670.0,0.0022150329160238974
3669.0,0.002345389489087788
3668.0,0.0023290082813424845
3667.0,0.002625785118380293
3666.0,0.0031713167636314363
3665.0,0.003597125169565905
3664.0,0.0038277088227255413
3663.0,0.00396349516349163
3662.0,0.004049000657303682
3661.0,0.004050276678338504
3660.0,0.0039834625767620835
3659.0,0.003962410194778028
3658.0,0.004099946775292546
3657.0,0.004361551214504469
3656.0,0.004491683591215279
3655.0,0.004279388230075766
3654.0,0.003958255188630013
3653.0,0.0036838040547923076
3652.0,0.0031865475921239415
3651.0,0.0024545131009245202
3650.0,0.0023448604088578628
3649.0,0.003111780123682484
3648.0,0.003576027634585501
3647.0,0.0035870645376887087
3646.0,0.0038407946986712214
3645.0,0.004445224630252712
3644.0,0.005149462766770738
3643.0,0.005700536020031589
3642.0,0.00601208908987214
3641.0,0.00615268417377272
3640.0,0.006256492354144836
3639.0,0.00641385431627699
3638.0,0.006600527275826814
3637.0,0.006764480489669506
3636.0,0.006905070737285926
3635.0,0.006992286221922137
3634.0,0.006953660971379552
3633.0,0.006771943942260994
3632.0,0.006562352970535406
3631.0,0.006424314701892044
3630.0,0.006567447141110778
3629.0,0.007285190901866974
3628.0,0.007895084758752217
3627.0,0.007937288333860067
3626.0,0.00815501751666685
3625.0,0.008584537809627459
3624.0,0.008732306558028978
3623.0,0.008554157978363789
3622.0,0.00828520613240122
3621.0,0.008132848414511014
3620.0,0.008205273183406659
3619.0,0.00843510492350288
3618.0,0.008550386576935295
3617.0,0.008543766151031303
3616.0,0.008622960761105327
3615.0,0.008819350893719676
3614.0,0.009112667553967377
3613.0,0.009494019982542932
3612.0,0.00987323097417008
3611.0,0.01020072234723746
3610.0,0.010503638799150368
3609.0,0.010807746473695612
3608.0,0.011120049600520258
3607.0,0.011366188165170207
3606.0,0.011529676365716116
3605.0,0.011688088738287482
3604.0,0.011819566965788428
3603.0,0.011868871984927075
3602.0,0.011874345734351257
3601.0,0.011899186946667754
3600.0,0.01195386860661698
3599.0,0.012058036849463676
3598.0,0.012266800346700314
3597.0,0.01257017317623814
3596.0,0.01287532377386176
3595.0,0.013069548844951609
3594.0,0.013123906583623697
3593.0,0.013141027308803547
3592.0,0.013258739454885189
3591.0,0.013462791126720802
3590.0,0.013605482755897572
3589.0,0.013619928632972459
3588.0,0.013690876401248806
3587.0,0.013909666195884088
3586.0,0.014129473176465323
3585.0,0.014421368120675248
3584.0,0.014859747969808816
3583.0,0.015268468863325824
3582.0,0.01552384900127184
3581.0,0.015676718211979856
3580.0,0.01582476331673092
3579.0,0.016002100629694004
3578.0,0.01619786075422867
3577.0,0.016399305799722073
3576.0,0.016609627167725422
3575.0,0.016821626420851634
3574.0,0.01700172757377432
3573.0,0.017104572269452372
3572.0,0.01710716817536686
3571.0,0.017021596143285193
3570.0,0.016886752237637984
3569.0,0.016771619660443503
3568.0,0.016808296092994057
3567.0,0.017021958776277248
3566.0,0.01719527165857992
3565.0,0.01733516939729011
3564.0,0.017662679448419333
3563.0,0.018120349553215176
3562.0,0.018518339037094367
3561.0,0.018833834378143174
3560.0,0.01915621224377855
3559.0,0.01951144039055391
3558.0,0.01983072938684539
3557.0,0.020042413159115747
3556.0,0.020140641406818257
3555.0,0.020195275668572415
3554.0,0.02029993214392485
3553.0,0.020494759609656344
3552.0,0.020714962282762178
3551.0,0.02088057321737583
3550.0,0.02099578256329252
3549.0,0.021076316131340523
3548.0,0.0210957704912462
3547.0,0.021088936971443466
3546.0,0.02117952977405087
3545.0,0.021428985159206465
3544.0,0.021766605235061107
3543.0,0.022093983991898797
3542.0,0.022361753005916682
3541.0,0.022575471361010273
3540.0,0.022770832267081986
3539.0,0.022980448316077443
3538.0,0.02321083524519324
3537.0,0.023444722192211522
3536.0,0.023652769467573834
3535.0,0.023819534824538777
3534.0,0.023960567494357276
3533.0,0.0241001710594169
3532.0,0.02425039510009543
3531.0,0.02441523128266626
3530.0,0.02459952707157417
3529.0,0.02479823879827845
3528.0,0.025002523174045336
3527.0,0.025208849988059175
3526.0,0.02541452749981959
3525.0,0.025613806044060942
3524.0,0.025821868534208623
3523.0,0.026072403414193347
3522.0,0.026361058871463193
3521.0,0.02662962657013563
3520.0,0.026821912865092
3519.0,0.026940161019477063
3518.0,0.027045495962977544
3517.0,0.027195168778930096
3516.0,0.027391245586559847
3515.0,0.027600037228554385
3514.0,0.027795561384265564
3513.0,0.027963513640608176
3512.0,0.028092151033097156
3511.0,0.028191508020427927
3510.0,0.02830930081160742
3509.0,0.028471531337681082
3508.0,0.028632955312142175
3507.0,0.02873638715917252
3506.0,0.028781895341614124
3505.0,0.028825882585521084
3504.0,0.0289434220126457
3503.0,0.029148490073336513
3502.0,0.02938291416200676
3501.0,0.029620196919235352
3500.0,0.029879576396143692
3499.0,0.030150000013884744
3498.0,0.03039386682859583
3497.0,0.03059525195142173
3496.0,0.030769888244271876
3495.0,0.030941169358781738
3494.0,0.031123842385874616
3493.0,0.03132421679713815
3492.0,0.03153413017112585
3491.0,0.031726112825088484
3490.0,0.031868247449224306
3489.0,0.031948708281120945
3488.0,0.03199039252286144
3487.0,0.032044950128231234
3486.0,0.03216432954345514
3485.0,0.03236331737628518
3484.0,0.032604799961381055
3483.0,0.032831807812897434
3482.0,0.03301990372162435
3481.0,0.03319129229141788
3480.0,0.033379052448876144
3479.0,0.03358389261978455
3478.0,0.03377433634256984
3477.0,0.0339290874108764
3476.0,0.03407198473899798
3475.0,0.03424904488254761
3474.0,0.03447009843189901
3473.0,0.03469540586563998
3472.0,0.03488086970011446
3471.0,0.03501770452663206
3470.0,0.035132051657271623
3469.0,0.035259015411657345
3468.0,0.03541607390811144
3467.0,0.03559478157386946
3466.0,0.03576608145810155
3465.0,0.03589462761268309
3464.0,0.0359665892115629
3463.0,0.03601960475354458
3462.0,0.03613075725381541
3461.0,0.036348567351478824
3460.0,0.03664116434923118
3459.0,0.03693079562704205
3458.0,0.03717113354822721
3457.0,0.037374440975669686
3456.0,0.037566938801528366
3455.0,0.037742852121700636
3454.0,0.037869414870062575
3453.0,0.0379217098095675
3452.0,0.03791249489069401
3451.0,0.037891808333294794
3450.0,0.03791369946305393
3449.0,0.03798949687809662
3448.0,0.03808204751591899
3447.0,0.03815483258533288
3446.0,0.038227142511926444
3445.0,0.038358912128854415
3444.0,0.038571865169197084
3443.0,0.03882102725797523
3442.0,0.039050234321045964
3441.0,0.039238085231361054
3440.0,0.039393450598137716
3439.0,0.03953538779061694
3438.0,0.039678327336863634
3437.0,0.039821913264080015
3436.0,0.03994974967591401
3435.0,0.04005760595897954
3434.0,0.04017675581481802
3433.0,0.04033640933496232
3432.0,0.040512443172541455
3431.0,0.04064666698959435
3430.0,0.040719472872802434
3429.0,0.0407679608369766
3428.0,0.040832143575350435
3427.0,0.040916927029185764
3426.0,0.04101402420700682
3425.0,0.0411252454148214
3424.0,0.04124836640521259
3423.0,0.04136470362326352
3422.0,0.04145810943444319
3421.0,0.04153563790816414
3420.0,0.041616079696125324
3419.0,0.04171080285911388
3418.0,0.04182325892836511
3417.0,0.04194966662377804
3416.0,0.04207507133200196
3415.0,0.042182811684726415
3414.0,0.04227552235935688
3413.0,0.04237466191247856
3412.0,0.04248903031725321
3411.0,0.0425957059343234
3410.0,0.04266707229079554
3409.0,0.042709988098079125
3408.0,0.04276052075308999
3407.0,0.04283856109840004
3406.0,0.042922560267292464
3405.0,0.04297779487263012
3404.0,0.04299920307110374
3403.0,0.043017069970685724
3402.0,0.04306283350725042
3401.0,0.04313951195524195
3400.0,0.04322680010396823
3399.0,0.04330444193656941
3398.0,0.043370918680311586
3397.0,0.043444458717458403
3396.0,0.04354342330480019
3395.0,0.04365978436181268
3394.0,0.04375661550929704
3393.0,0.04380139110702206
3392.0,0.04380378840017051
3391.0,0.043812212381595404
3390.0,0.043867133603747555
3389.0,0.043961563033795795
3388.0,0.04405108925073486
3387.0,0.04410159271988618
3386.0,0.04412339422957401
3385.0,0.044156570263019904
3384.0,0.04422047679366143
3383.0,0.04428622704084928
3382.0,0.044311437739861896
3381.0,0.044296403526471975
3380.0,0.044289943059570555
3379.0,0.04433157156352447
3378.0,0.04440344225044133
3377.0,0.04445766687754785
3376.0,0.04448048315563091
3375.0,0.04450346757557871
3374.0,0.04455291535756066
3373.0,0.044609171424185454
3372.0,0.044626206666203
3371.0,0.044585759671112564
3370.0,0.04452715108891021
3369.0,0.04451997813223708
3368.0,0.044596525564391476
3367.0,0.04470901668381699
3366.0,0.044768815062350115
3365.0,0.04473828995190286
3364.0,0.04466771731236828
3363.0,0.04463110529759942
3362.0,0.04464705594606088
3361.0,0.044681793481092094
3360.0,0.04470598334954867
3359.0,0.04470843284931693
3358.0,0.044666152966731355
3357.0,0.044556993890342685
3356.0,0.04441614395400647
3355.0,0.044328528180098414
3354.0,0.044334563597551786
3353.0,0.04438402017568041
3352.0,0.044414987284906116
3351.0,0.04444142559461054
3350.0,0.04451696689320652
3349.0,0.04463335753216509
3348.0,0.04471075682973675
3347.0,0.04469019287237257
3346.0,0.04458897352748112
3345.0,0.04446107618116959
3344.0,0.04434381149181569
3343.0,0.04425266070009141
3342.0,0.044192594096809944
3341.0,0.044156588229863875
3340.0,0.044135838019019304
3339.0,0.044140929293402256
3338.0,0.04419038784346074
3337.0,0.044267879184290086
3336.0,0.04431882850938882
3335.0,0.04430771265344832
3334.0,0.04425214754450801
3333.0,0.044185817089437224
3332.0,0.044118980843494054
3331.0,0.04405209180877717
3330.0,0.04399640308562656
3329.0,0.04395518955559202
3328.0,0.043908248144474867
3327.0,0.043845284446197424
3326.0,0.04379822836354827
3325.0,0.04380753713582471
3324.0,0.04386251418420029
3323.0,0.043903478970420455
3322.0,0.043882152119513025
3321.0,0.04380137122043457
3320.0,0.04370154836698394
3319.0,0.04362667432991589
3318.0,0.04359795709691812
3317.0,0.04359980267894556
3316.0,0.043592002225127505
3315.0,0.043548699662992324
3314.0,0.04348240835514278
3313.0,0.04342000185965311
3312.0,0.04336513034317865
3311.0,0.04330081096203148
3310.0,0.04321903736536353
3309.0,0.04312440479642828
3308.0,0.043016723704712434
3307.0,0.04290027456938622
3306.0,0.04280905590290404
3305.0,0.042789937978961946
3304.0,0.04284806624042076
3303.0,0.04292728358865912
3302.0,0.042957761735169936
3301.0,0.04291400379347656
3300.0,0.04281828475400043
3299.0,0.042703974945916136
3298.0,0.04259111452981968
3297.0,0.04248727756075043
3296.0,0.04239368913633295
3295.0,0.04230593963048951
3294.0,0.04221762391754974
3293.0,0.04213017924892977
3292.0,0.042057927942975144
3291.0,0.042018647335983185
3290.0,0.042017185820193904
3289.0,0.042038875152076535
3288.0,0.042061757273305966
3287.0,0.04207346569507797
3286.0,0.04206902461129388
3285.0,0.042034865068677346
3284.0,0.041953028133114065
3283.0,0.041828869984778805
3282.0,0.04169857131161504
3281.0,0.04159408968780879
3280.0,0.04150926966718321
3279.0,0.041417465622329876
3278.0,0.041317040862316856
3277.0,0.04123823181016935
3276.0,0.041199658079750026
3275.0,0.041175882729532834
3274.0,0.041121792274355626
3273.0,0.04102237532416343
3272.0,0.04090672433607313
3271.0,0.040814540179110986
3270.0,0.040755952293307
3269.0,0.0407032461972476
3268.0,0.04062023517837601
3267.0,0.04050138210115302
3266.0,0.04037983132661371
3265.0,0.04029209224467746
3264.0,0.04023815235235718
3263.0,0.040181195743747906
3262.0,0.04008560010090511
3261.0,0.03995055247900534
3260.0,0.03980620999764167
3259.0,0.03968449044080281
3258.0,0.03959586391975494
3257.0,0.039526265711405995
3256.0,0.03945028542822928
3255.0,0.03935409911433061
3254.0,0.03924901540254822
3253.0,0.039158428723144144
3252.0,0.03909047854484111
3251.0,0.03902887422502191
3250.0,0.03895262741679219
3249.0,0.03885830923051455
3248.0,0.038757602928260367
3247.0,0.03865620415930968
3246.0,0.03854285236935133
3245.0,0.03840071433658866
3244.0,0.03822664814243063
3243.0,0.038036444210893465
3242.0,0.037853587568063486
3241.0,0.037697059041672594
3240.0,0.037575539738304464
3239.0,0.037483958264336564
3238.0,0.03740565367877966
3237.0,0.0373251183157473
3236.0,0.0372400632341815
3235.0,0.03715541224254227
3234.0,0.037061133102736454
3233.0,0.0369274981261419
3232.0,0.03673960356838907
3231.0,0.03653470225048184
3230.0,0.0363855518300682
3229.0,0.036335511785183044
3228.0,0.03635871740633409
3227.0,0.036390445417056765
3226.0,0.03638379187734835
3225.0,0.03632446173005791
3224.0,0.03620668876055672
3223.0,0.036023706822844996
3222.0,0.035789665553826955
3221.0,0.03555501685451284
3220.0,0.035381464251088256
3219.0,0.03529126476163304
3218.0,0.035242518241274085
3217.0,0.03516008458484189
3216.0,0.03499609692615821
3215.0,0.034771009623098585
3214.0,0.034557041760534195
3213.0,0.03441299278083923
3212.0,0.03433916795738766
3211.0,0.03429694994142019
3210.0,0.03425142452004637
3209.0,0.034182690382764384
3208.0,0.03407521547503022
3207.0,0.033920665824038215
3206.0,0.033728630521601424
3205.0,0.03351991616774567
3204.0,0.033313924376117354
3203.0,0.033132784608020306
3202.0,0.03300395198279814
3201.0,0.032932546265419665
3200.0,0.03287460931352626
3199.0,0.03276827449701862
3198.0,0.03260065737020997
3197.0,0.032418940452722665
3196.0,0.032263047165880514
3195.0,0.03211714754553975
3194.0,0.03194543340195792
3193.0,0.03175013331452724
3192.0,0.03157154409138474
3191.0,0.031442893476628986
3190.0,0.03136314014560786
3189.0,0.03130553294420926
3188.0,0.03123427592965209
3187.0,0.03111628085286161
3186.0,0.030938203440865397
3185.0,0.030719002370557302
3184.0,0.030496245256800867
3183.0,0.030297857191775232
3182.0,0.03013083675330798
3181.0,0.02998943323277093
3180.0,0.02986314904029637
3179.0,0.029741241623974277
3178.0,0.029617720387440028
3177.0,0.029490252590979035
3176.0,0.029351030118419358
3175.0,0.02918732927905322
3174.0,0.029000967368480242
3173.0,0.028822884410018203
3172.0,0.028694061520064287
3171.0,0.02862642851496989
3170.0,0.02858861747260128
3169.0,0.02853219261164914
3168.0,0.02842881198817542
3167.0,0.02828253742633844
3166.0,0.02811388221449963
3165.0,0.027938446099771676
3164.0,0.027761013284159638
3163.0,0.027585712483304006
3162.0,0.027423137149777704
3161.0,0.027280253126991276
3160.0,0.02714672237876073
3159.0,0.0270009395807325
3158.0,0.02683076519932114
3157.0,0.026643391054001916
3156.0,0.02645609542848025
3155.0,0.02628377235070058
3154.0,0.026134231333687596
3153.0,0.026006799642517554
3152.0,0.02589284869603364
3151.0,0.02578247790288082
3150.0,0.02567177446962956
3149.0,0.02556085460991846
3148.0,0.025447110012542375
3147.0,0.0253248513400363
3146.0,0.025188818394804417
3145.0,0.025034460382469086
3144.0,0.02486140083846514
3143.0,0.02468404429858786
3142.0,0.0245303434657862
3141.0,0.02441841894117301
3140.0,0.02433604112592618
3139.0,0.024250292929930015
3138.0,0.0241357375456021
3137.0,0.023986578439535243
3136.0,0.023808081840211794
3135.0,0.02361394741108775
3134.0,0.023434000597536364
3133.0,0.023304040694261736
3132.0,0.023232844747126044
3131.0,0.023186987745078103
3130.0,0.02311769999516602
3129.0,0.02300042121652308
3128.0,0.02285222440946869
3127.0,0.02271612336337037
3126.0,0.02262089828564394
3125.0,0.022548030421937572
3124.0,0.022447088202522936
3123.0,0.022295976658954473
3122.0,0.022134276536911503
3121.0,0.022018725432624404
3120.0,0.02195656029890089
3119.0,0.021905158669223778
3118.0,0.02182877919526589
3117.0,0.021727709040712806
3116.0,0.021612574516637506
3115.0,0.021483325723495827
3114.0,0.021348655265884135
3113.0,0.021240098531278413
3112.0,0.021180005267694476
3111.0,0.021146227051353255
3110.0,0.02108806360672767
3109.0,0.02097551428149663
3108.0,0.020827285466962414
3107.0,0.02069359617116574
3106.0,0.02061502844718537
3105.0,0.020589032855837627
3104.0,0.02056991596235031
3103.0,0.020505393198902294
3102.0,0.02037520582546548
3101.0,0.02019864619055607
3100.0,0.02001610897911101
3099.0,0.019870281799556612
3098.0,0.019794583448726276
3097.0,0.019798300393711915
3096.0,0.01985467055731833
3095.0,0.01991318059912827
3094.0,0.01993161239653583
3093.0,0.01989417814398047
3092.0,0.01980458462076791
3091.0,0.019679235589140903
3090.0,0.01954574990373815
3089.0,0.019429768561121417
3088.0,0.019337136262957317
3087.0,0.01925416265061622
3086.0,0.01916423729620982
3085.0,0.019057754579392554
3084.0,0.018934357212334753
3083.0,0.018808557168482253
3082.0,0.018704503402720524
3081.0,0.018628753256175946
3080.0,0.01855384421706153
3079.0,0.01845154389414189
3078.0,0.018338722251642344
3077.0,0.01826320506118021
3076.0,0.0182436623833426
3075.0,0.018247273370660406
3074.0,0.01823215279749935
3073.0,0.01818709196727003
3072.0,0.018121277137825284
3071.0,0.018041368488231804
3070.0,0.017953757953073125
3069.0,0.017872744763455944
3068.0,0.017806388720147615
3067.0,0.017741908776088968
3066.0,0.017661147344311054
3065.0,0.017565151683054947
3064.0,0.017471592039582158
3063.0,0.01739142268114804
3062.0,0.017319002795407143
3061.0,0.017241307700511608
3060.0,0.017148281507830508
3059.0,0.01703926361559974
3058.0,0.016926750530231967
3057.0,0.016828626986327085
3056.0,0.016748038574847513
3055.0,0.016669239836078917
3054.0,0.016583428724655423
3053.0,0.016509151978565662
3052.0,0.01647011167095122
3051.0,0.01645540110672052
3050.0,0.01641840400293296
3049.0,0.016322246797226506
3048.0,0.01618188691102751
3047.0,0.01604975586560165
3046.0,0.015963940379306336
3045.0,0.015920553253468802
3044.0,0.015890796864079005
3043.0,0.01585456340831998
3042.0,0.015813044559907525
3041.0,0.015774244103964757
3040.0,0.01573541624786297
3039.0,0.015682672292023955
3038.0,0.015603818356864498
3037.0,0.015496108419005002
3036.0,0.015364856083007649
3035.0,0.015222698221456686
3034.0,0.015090997932890537
3033.0,0.014991503048064736
3032.0,0.01492605987009114
3031.0,0.01486886734738328
3030.0,0.01479203891228661
3029.0,0.014702047234317386
3028.0,0.01463803135354136
3027.0,0.01463084715563209
3026.0,0.014668523156378614
3025.0,0.014702177696034501
3024.0,0.01469064677876455
3023.0,0.014635010969465751
3022.0,0.014566914131931192
3021.0,0.014509994703180379
3020.0,0.014458410140459592
3019.0,0.014392241364825153
3018.0,0.014302706281618453
3017.0,0.014200943007178307
3016.0,0.014109180045191898
3015.0,0.01404639425923493
3014.0,0.014018304222638308
3013.0,0.01401531548768791
3012.0,0.014020016590107123
3011.0,0.014017028321919337
3010.0,0.01399749108526089
3009.0,0.013961289597709769
3008.0,0.013922776926507188
3007.0,0.013906947450341286
3006.0,0.013926341638529823
3005.0,0.013959962634343374
3004.0,0.013969026689274
3003.0,0.013939299526656302
3002.0,0.013891663660502165
3001.0,0.013849058584766606
3000.0,0.013814059440293097
2999.0,0.01378750907376855
2998.0,0.01378591279087837
2997.0,0.013819457672971592
2996.0,0.013866936477062478
2995.0,0.013897004449746099
2994.0,0.013908555375854332
2993.0,0.01392720559626415
2992.0,0.013964035655158623
2991.0,0.014004153395702509
2990.0,0.014039392463603525
2989.0,0.014088467979178045
2988.0,0.014173423708877706
2987.0,0.01429215098713129
2986.0,0.01442585592454135
2985.0,0.014561265419041654
2984.0,0.014694096388474404
2983.0,0.01482228579020733
2982.0,0.014953114743045653
2981.0,0.015111563688442981
2980.0,0.015325629463500457
2979.0,0.015600376662268215
2978.0,0.01591252465681497
2977.0,0.016233725266270246
2976.0,0.016555139912736577
2975.0,0.016892574095470833
2974.0,0.01727360821349751
2973.0,0.017719442988500807
2972.0,0.018233588514734354
2971.0,0.018802466234849227
2970.0,0.019406897984753257
2969.0,0.020034229682964304
2968.0,0.020681562990736372
2967.0,0.02134694596483647
2966.0,0.02201826640096253
2965.0,0.022673641370395944
2964.0,0.023295667590510098
2963.0,0.023884829951376987
2962.0,0.024456376331266738
2961.0,0.02502259532960612
2960.0,0.025576856815553314
2959.0,0.026094090759218858
2958.0,0.026546514147217034
2957.0,0.026923404203296357
2956.0,0.02723964132565414
2955.0,0.02752301820261137
2954.0,0.02778951619558538
2953.0,0.02803429320763047
2952.0,0.028255663473720164
2951.0,0.028488967155987473
2950.0,0.028807926622305795
2949.0,0.02929001446489391
2948.0,0.029988107574228377
2947.0,0.030936287141515112
2946.0,0.03216646367691836
2945.0,0.03370329067726227
2944.0,0.035546527231938865
2943.0,0.03767123195010751
2942.0,0.040049163704682054
2941.0,0.042668181541035466
2940.0,0.04553495144839512
2939.0,0.04866743987980584
2938.0,0.05208177532040955
2937.0,0.055781380646485496
2936.0,0.05976348220239617
2935.0,0.06403764663008317
2934.0,0.06863491250582075
2933.0,0.07359368984724168
2932.0,0.07893584180035394
2931.0,0.08466122561348835
2930.0,0.09077151659169706
2929.0,0.0973057052092007
2928.0,0.10434701336544909
2927.0,0.11198101974384574
2926.0,0.12024229033290844
2925.0,0.1291175879923145
2924.0,0.1385900708011591
2923.0,0.14864181882506766
2922.0,0.15919663809221085
2921.0,0.17004444674694139
2920.0,0.18077476854695632
2919.0,0.19068721759657745
2918.0,0.19873277328254696
2917.0,0.20370680304230684
2916.0,0.20468395896038982
2915.0,0.20140528891243195
2914.0,0.19436080093688987
2913.0,0.1846161235802692
2912.0,0.17346926324823483
2911.0,0.1620596839415614
2910.0,0.15117098810728358
2909.0,0.14122300324021764
2908.0,0.13238111268186353
2907.0,0.12464399891783515
2906.0,0.11791440009455069
2905.0,0.11206972365943249
2904.0,0.1069874653367297
2903.0,0.10254801356777227
2902.0,0.09862141047315225
2901.0,0.09508398220676077
2900.0,0.09184084519085547
2899.0,0.08881958441067463
2898.0,0.08595659386008904
2897.0,0.0831999627604477
2896.0,0.08051638000813839
2895.0,0.07788271408586156
2894.0,0.07527449090066933
2893.0,0.07266543529318109
2892.0,0.07003678113182868
2891.0,0.06738727089622125
2890.0,0.06474036774116425
2889.0,0.062137347495163975
2888.0,0.059611457174836735
2887.0,0.05716821730106734
2886.0,0.054804072475475536
2885.0,0.0525384681272466
2884.0,0.05040763085664449
2883.0,0.04842896752511045
2882.0,0.0465892401308393
2881.0,0.04487426225453895
2880.0,0.043292955664099936
2879.0,0.04186382680156698
2878.0,0.04059420357745825
2877.0,0.03948567510369514
2876.0,0.03855101247231057
2875.0,0.03781099751457128
2874.0,0.03727053356062596
2873.0,0.03690632944880134
2872.0,0.03668036080228229
2871.0,0.036563397445377004
2870.0,0.036552264121265124
2869.0,0.03667589332866778
2868.0,0.03699666399399286
2867.0,0.037600252733642286
2866.0,0.038576588359956886
2865.0,0.04000005621308647
2864.0,0.041928482064411396
2863.0,0.04442052583442411
2862.0,0.047548995637095234
2861.0,0.051401821714905545
2860.0,0.05607835811779144
2859.0,0.0616977934505622
2858.0,0.06840394697807071
2857.0,0.0763524931209504
2856.0,0.08569504609577928
2855.0,0.09655940984954124
2854.0,0.10899212681694966
2853.0,0.12281616610236708
2852.0,0.13734942254093158
2851.0,0.1510954380299732
2850.0,0.16173422173269966
2849.0,0.16678237469297305
2848.0,0.1648131277631525
2847.0,0.15626541454252646
2846.0,0.1430892566324912
2845.0,0.12769401656846024
2844.0,0.1120815417842139
2843.0,0.0975077034778296
2842.0,0.0845764766668272
2841.0,0.07347386247927076
2840.0,0.06414604279472763
2839.0,0.05642511618543565
2838.0,0.05009434602907443
2837.0,0.044923766436778576
2836.0,0.040688036304850655
2835.0,0.03718139733315045
2834.0,0.03424535691646632
2833.0,0.03178086659729397
2832.0,0.02972102051478025
2831.0,0.027999933703878536
2830.0,0.026544926544953582
2829.0,0.025285206651660647
2828.0,0.02416517129418453
2827.0,0.02314662752049303
2826.0,0.022212167417108075
2825.0,0.021357267229013703
2824.0,0.020575271791984734
2823.0,0.019853288029934565
2822.0,0.01918558276802251
2821.0,0.018581849006208222
2820.0,0.018052181144878277
2819.0,0.017586457159725382
2818.0,0.017156054468114166
2817.0,0.016736804912257833
2816.0,0.016323457251716137
2815.0,0.015926019031040753
2814.0,0.015557629278587438
2813.0,0.015223810095656369
2812.0,0.014919791426301118
2811.0,0.014635266587571482
2810.0,0.014361202748940781
2809.0,0.014092148089424422
2808.0,0.01382490567426677
2807.0,0.013562447835268384
2806.0,0.013318649983489203
2805.0,0.01310749527277452
2804.0,0.01292154142778373
2803.0,0.012729588519195482
2802.0,0.01250641982056953
2801.0,0.012262798947998643
2800.0,0.01203627841898352
2799.0,0.011853174620103116
2798.0,0.011706826627793921
2797.0,0.011570714542945747
2796.0,0.011424644700363553
2795.0,0.011263595722164052
2794.0,0.011088753505180966
2793.0,0.010901375049312075
2792.0,0.010705901008015698
2791.0,0.010513492761978334
2790.0,0.010336927508037204
2789.0,0.010181165673105721
2788.0,0.010041894210509616
2787.0,0.009913823501105689
2786.0,0.009797126789599816
2785.0,0.009692420155259574
2784.0,0.009591489307911684
2783.0,0.009478803546564359
2782.0,0.009344863961613626
2781.0,0.009197128306247694
2780.0,0.009055969463191052
2779.0,0.008938371055904028
2778.0,0.008845373961045032
2777.0,0.008764090353652448
2776.0,0.008681632478701176
2775.0,0.008596637777805843
2774.0,0.008514198133098793
2773.0,0.00843271084044757
2772.0,0.008343799142106515
2771.0,0.008247262220487946
2770.0,0.00815924499480546
2769.0,0.008098556166067602
2768.0,0.008066845876263502
2767.0,0.008046464231015255
2766.0,0.008014663443173364
2765.0,0.00795641780303778
2764.0,0.00787057906739465
2763.0,0.007772177101828823
2762.0,0.007686043861958574
2761.0,0.00762916662149893
2760.0,0.007595932617620704
2759.0,0.00756713383060683
2758.0,0.00753389465055878
2757.0,0.007502964096350203
2756.0,0.00747700892178447
2755.0,0.007441277330087252
2754.0,0.0073779246646608915
2753.0,0.007289755369162213
2752.0,0.007201149720848291
2751.0,0.007135452689136157
2750.0,0.007099334838654506
2749.0,0.007087877585544253
2748.0,0.007095132816849321
2747.0,0.007113996300101888
2746.0,0.0071315478538872806
2745.0,0.007135058205242023
2744.0,0.007124043210656901
2743.0,0.007108170013812716
2742.0,0.007090551637504675
2741.0,0.007062382902321518
2740.0,0.007019741311360553
2739.0,0.006976492368719455
2738.0,0.006949721267472245
2737.0,0.006935264915976915
2736.0,0.00691063747376767
2735.0,0.006863700422018119
2734.0,0.006807479037682406
2733.0,0.006764783933568332
2732.0,0.006745736196153978
2731.0,0.006742044385848171
2730.0,0.0067338967006808905
2729.0,0.006699838776389212
2728.0,0.006631260445396373
2727.0,0.006543679235954662
2726.0,0.006467004056267253
2725.0,0.006419543779926727
2724.0,0.006396982164814564
2723.0,0.0063872980236288875
2722.0,0.006384470190576289
2721.0,0.006382390312370524
2720.0,0.00636742608418447
2719.0,0.006329069515515605
2718.0,0.006274170456575529
2717.0,0.006222152915008041
2716.0,0.0061882574752121135
2715.0,0.006174862863428541
2714.0,0.006172260060695074
2713.0,0.006161876741705568
2712.0,0.006126318625913698
2711.0,0.006065958538996182
2710.0,0.006002158745162864
2709.0,0.005956785082941015
2708.0,0.005931498538116003
2707.0,0.005912587352287882
2706.0,0.005889182048813684
2705.0,0.005858802072369766
2704.0,0.005821350394989899
2703.0,0.005779009362463622
2702.0,0.005740832224682155
2701.0,0.00571721063837852
2700.0,0.005708636871291428
2699.0,0.005705282987302246
2698.0,0.005697471745546016
2697.0,0.00568290875192645
2696.0,0.005665533625829527
2695.0,0.00565168792287762
2694.0,0.005645846447755917
2693.0,0.005647613497933888
2692.0,0.005654751940355805
2691.0,0.005668846498554412
2690.0,0.0056921996215978194
2689.0,0.005718341317752578
2688.0,0.005734120031207437
2687.0,0.005734076688761177
2686.0,0.005724883625575773
2685.0,0.0057131526113600875
2684.0,0.00569870792165208
2683.0,0.005683565465679859
2682.0,0.0056747583876503175
2681.0,0.005671448382994697
2680.0,0.005661513926270779
2679.0,0.005641012654677793
2678.0,0.00562659746729363
2677.0,0.005636454795867322
2676.0,0.00566698761810719
2675.0,0.005698713683835961
2674.0,0.0057169907865499405
2673.0,0.0057163221103902154
2672.0,0.005693557453795254
2671.0,0.005652909859238557
2670.0,0.005612939409403165
2669.0,0.005595009510982809
2668.0,0.00560468719660052
2667.0,0.0056331363439236755
2666.0,0.005671125289434841
2665.0,0.005711347562199332
2664.0,0.005743273532028318
2663.0,0.005758736791317643
2662.0,0.005761670473936697
2661.0,0.005762581876366456
2660.0,0.005765377783612749
2659.0,0.0057660364974063925
2658.0,0.005757741963750521
2657.0,0.0057300670795518436
2656.0,0.005673739749207583
2655.0,0.005598484510996924
2654.0,0.005535884743966033
2653.0,0.005507914397325489
2652.0,0.005500671367953531
2651.0,0.005486821583577626
2650.0,0.005464453680494646
2649.0,0.005450730488384467
2648.0,0.0054436627337592644
2647.0,0.00541931354487605
2646.0,0.0053701568881898325
2645.0,0.005319138471848373
2644.0,0.005286475682623213
2643.0,0.005264804908142486
2642.0,0.005238952034375042
2641.0,0.005210024840606227
2640.0,0.005185026017763575
2639.0,0.00515710978942499
2638.0,0.0051132587421419805
2637.0,0.005054702639110984
2636.0,0.004997803247547309
2635.0,0.004958370467977998
2634.0,0.004940884518736272
2633.0,0.00493689358385012
2632.0,0.0049276498625377635
2631.0,0.004895305167335116
2630.0,0.00483652581523636
2629.0,0.004761339844279942
2628.0,0.004678660291724568
2627.0,0.004592760955114666
2626.0,0.0045148763726730115
2625.0,0.004463364907809332
2624.0,0.0044431786045165235
2623.0,0.004434045325760408
2622.0,0.004407202836359355
2621.0,0.004350136478364544
2620.0,0.004271839476981936
2619.0,0.004189639693979614
2618.0,0.004117160383959588
2617.0,0.004061444980430091
2616.0,0.004026178536464231
2615.0,0.004013476751517586
2614.0,0.004016435265071611
2613.0,0.004009953146639578
2612.0,0.003963245411759572
2611.0,0.003873311678213486
2610.0,0.003778757119340893
2609.0,0.003726225301118315
2608.0,0.003726425523368565
2607.0,0.0037549066224855246
2606.0,0.003784920597360614
2605.0,0.0038007940149729384
2604.0,0.0037894356158335247
2603.0,0.00374786781889044
2602.0,0.003702594203020563
2601.0,0.0036925657163702176
2600.0,0.00371938244001499
2599.0,0.0037342801955327952
2598.0,0.0036884528985786725
2597.0,0.0035851420594658753
2596.0,0.003471717465404297
2595.0,0.0033903486726812797
2594.0,0.0033484052476885984
2593.0,0.0033266995243045007
2592.0,0.0033021502844175184
2591.0,0.003265065373436385
2590.0,0.0032220050540582544
2589.0,0.003183708617065234
2588.0,0.00315138226537995
2587.0,0.003119725869470071
2586.0,0.003090179988278946
2585.0,0.0030696162931910203
2584.0,0.003055007892860805
2583.0,0.00303294168127589
2582.0,0.003001322882984067
2581.0,0.0029814197271044226
2580.0,0.002997625425777375
2579.0,0.0030479316739413327
2578.0,0.003100109254894835
2577.0,0.003117144119300307
2576.0,0.003084614058520086
2575.0,0.003015283309915677
2574.0,0.0029329244012232182
2573.0,0.0028565908581527433
2572.0,0.002799717643552846
2571.0,0.002773498635346266
2570.0,0.0027777315567961763
2569.0,0.0027893483531611584
2568.0,0.002775954104237708
2567.0,0.0027285511151172296
2566.0,0.0026713094854461353
2565.0,0.0026335714593079783
2564.0,0.0026221359761659092
2563.0,0.002624410177551763
2562.0,0.0026250915112445298
2561.0,0.002614129311004138
2560.0,0.0025930712391666333
2559.0,0.002579944660115937
2558.0,0.0025911523074496593
2557.0,0.0026108441555200133
2556.0,0.0025999437812387516
2555.0,0.002548790462559633
2554.0,0.002496856263885922
2553.0,0.0024809258645936954
2552.0,0.002487960243698889
2551.0,0.0024852129090508174
2550.0,0.0024745689333407874
2549.0,0.0024807282578951646
2548.0,0.0024976810837978084
2547.0,0.0024885950065041875
2546.0,0.0024407854497422343
2545.0,0.002385948079502165
2544.0,0.002355818397873149
2543.0,0.002343479457062367
2542.0,0.0023214515612242905
2541.0,0.002280679203734535
2540.0,0.0022392518861637347
2539.0,0.00222231032734772
2538.0,0.002239442178849807
2537.0,0.0022743450466459415
2536.0,0.0022961284217414635
2535.0,0.00228922889866518
2534.0,0.0022705425732849724
2533.0,0.002269608012546849
2532.0,0.002296393802349198
2531.0,0.002336287511946044
2530.0,0.0023683195830935953
2529.0,0.002377398557784243
2528.0,0.002358190644079168
2527.0,0.002321372691114816
2526.0,0.0022900195024310984
2525.0,0.002277201907844158
2524.0,0.002272969040375928
2523.0,0.0022623113243983623
2522.0,0.002244115921534165
2521.0,0.0022214002662171747
2520.0,0.0021896934126151035
2519.0,0.002153862012797268
2518.0,0.002141126445401006
2517.0,0.002172853262600133
2516.0,0.002232124430560159
2515.0,0.002281268106477401
2514.0,0.002302487828723111
2513.0,0.0023000245073050663
2512.0,0.002274686540716308
2511.0,0.002224802227620797
2510.0,0.002167589988438885
2509.0,0.0021307521941617176
2508.0,0.002119342519922789
2507.0,0.0021111497455925873
2506.0,0.0020849457612242485
2505.0,0.002036537644472021
2504.0,0.001973496007920941
2503.0,0.0019154617711453579
2502.0,0.0018925113784597318
2501.0,0.0019163135953696553
2500.0,0.001955495405536939
2499.0,0.0019670054581916573
2498.0,0.0019512898433869802
2497.0,0.0019481362151957272
2496.0,0.0019757789588381205
2495.0,0.002005469808313718
2494.0,0.0020065823330565166
2493.0,0.001988298202540521
2492.0,0.0019785162953906994
2491.0,0.0019816622733596087
2490.0,0.0019781176590984158
2489.0,0.001954791087806283
2488.0,0.0019190974333991966
2487.0,0.0018868914816167325
2486.0,0.0018687791730186494
2485.0,0.0018675489320865838
2484.0,0.0018815793741151052
2483.0,0.0019080713331677693
2482.0,0.0019415796204412922
2481.0,0.0019684415894831403
2480.0,0.0019687568722923086
2479.0,0.0019320500503904785
2478.0,0.0018700077688278082
2477.0,0.0018083676156691914
2476.0,0.0017671492825666753
2475.0,0.0017507824513885066
2474.0,0.0017508168080100027
2473.0,0.0017518409624143042
2472.0,0.0017411111695615291
2471.0,0.001720371573541153
2470.0,0.0017040975168976396
2469.0,0.0017011037614691673
2468.0,0.0017039340440046103
2467.0,0.0017005135080879433
2466.0,0.0016878278876803414
2465.0,0.0016703485334799923
2464.0,0.0016565365746940752
2463.0,0.0016615318737385567
2462.0,0.0016978857779620835
2461.0,0.0017542402839376462
2460.0,0.0017978859376868175
2459.0,0.0018099191381486571
2458.0,0.0018049276497162292
2457.0,0.001806450395172572
2456.0,0.0018186577028857973
2455.0,0.0018335529598240714
2454.0,0.001847746923643916
2453.0,0.0018552697161231383
2452.0,0.0018401496844982668
2451.0,0.0017956256915425406
2450.0,0.0017382249125598216
2449.0,0.0016864354270070619
2448.0,0.001640828617284989
2447.0,0.0016029413868518252
2446.0,0.0015936324784366755
2445.0,0.0016256300986319187
2444.0,0.0016725248635922818
2443.0,0.0016955956595315039
2442.0,0.0016936719661676662
2441.0,0.0016975231716159736
2440.0,0.0017194809004086986
2439.0,0.0017379579193092555
2438.0,0.0017329616795890086
2437.0,0.0017107179782982268
2436.0,0.0016874075735162982
2435.0,0.0016682001874637835
2434.0,0.001648815036239367
2433.0,0.0016240878274094532
2432.0,0.0015909346966243444
2431.0,0.001552305203387604
2430.0,0.0015185174223399606
2429.0,0.0014974789518866966
2428.0,0.0014872845116418218
2427.0,0.001484490638232122
2426.0,0.001490349285384933
2425.0,0.0015007532534482503
2424.0,0.0015036609214999826
2423.0,0.0014989590782578392
2422.0,0.001506005996705564
2421.0,0.0015348506893333388
2420.0,0.0015634358321759978
2419.0,0.0015625601630774317
2418.0,0.0015324934674362592
2417.0,0.0014957564423772715
2416.0,0.0014641689104677301
2415.0,0.0014356962532000442
2414.0,0.0014187679769003042
2413.0,0.0014351587631516306
2412.0,0.0014933877126203526
2411.0,0.0015719799584994537
2410.0,0.00163153450799284
2409.0,0.0016390614906222067
2408.0,0.0015894159186410366
2407.0,0.001512305680095097
2406.0,0.0014503868671745693
2405.0,0.0014227348311509345
2404.0,0.0014184896613107256
2403.0,0.0014280608739987136
2402.0,0.0014589043588617435
2401.0,0.001508073479853687
2400.0,0.0015425550455837379
2399.0,0.0015313709440042303
2398.0,0.0014838262875550153
2397.0,0.0014337292668539442
2396.0,0.0013975577188224829
2395.0,0.001370906041501254
2394.0,0.0013549060649442174
2393.0,0.0013587283303623143
2392.0,0.001378949513317656
2391.0,0.0013994272648529488
2390.0,0.0014136331482310182
2389.0,0.001431405748190259
2388.0,0.0014610630526121875
2387.0,0.0014947134354993939
2386.0,0.0015109743181761508
2385.0,0.0014877653817807102
2384.0,0.0014206693355975795
2383.0,0.0013350926080337832
2382.0,0.0012683978577839488
2381.0,0.001229833380868823
2380.0,0.0011933318516136493
2379.0,0.0011451026527457117
2378.0,0.0011120768223285107
2377.0,0.0011091386327516514
2376.0,0.0010835564754938644
2375.0,0.0009676957110552747
2374.0,0.0007818542958047968
2373.0,0.0006268502141176125
2372.0,0.0005743218634592689
2371.0,0.0006265339284018903
2370.0,0.0007758131286706965
2369.0,0.000994401335530032
2368.0,0.0011580168863268496
2367.0,0.0011185043645881262
2366.0,0.0009034001872159883
2365.0,0.000711094088305601
2364.0,0.0006617804004404453
2363.0,0.0007043953723120832
2362.0,0.0007945683604468585
2361.0,0.0009564020896514194
2360.0,0.0011416005105062677
2359.0,0.0012208812175841335
2358.0,0.0011689596464119958
2357.0,0.0011122745894317557
2356.0,0.0011322477230923768
2355.0,0.0011854910247916391
2354.0,0.0012285671726148045
2353.0,0.0012531015279933996
2352.0,0.0012515121742880636
2351.0,0.0012277198192373875
2350.0,0.0012360672532078288
2349.0,0.0013085476006057032
2348.0,0.001384709299381183
2347.0,0.0013938811585762208
2346.0,0.0013284042947912498
2345.0,0.0012419073878211203
2344.0,0.001179895748424193
2343.0,0.0011731639088078062
2342.0,0.001275904537813038
2341.0,0.0014761189284992673
2340.0,0.0016879727092191875
2339.0,0.0017967661757340902
2338.0,0.001769867064943224
2337.0,0.0016915523641686323
2336.0,0.0016655378227855861
2335.0,0.0017282022191504687
2334.0,0.0018310292600790521
2333.0,0.0019009512435487841
2332.0,0.0018825797244075588
2331.0,0.001803808363246634
2330.0,0.0017636716615487891
2329.0,0.0018797093012711615
2328.0,0.0021637851361407303
2327.0,0.0025561401390146467
2326.0,0.0029272756454520508
2325.0,0.0031570983887029376
2324.0,0.003173916218993743
2323.0,0.003029121992661565
2322.0,0.002866612448137397
2321.0,0.00277206890194807
2320.0,0.0027205911568855667
2319.0,0.0026496631935780256
2318.0,0.0025598448853038354
2317.0,0.00248781276367096
2316.0,0.0024331557306183863
2315.0,0.002380267625751974
2314.0,0.0023240497757821043
2313.0,0.0022832283976471955
2312.0,0.0022388724989913216
2311.0,0.0021736762557259546
2310.0,0.0020945767032748575
2309.0,0.0020500960319413935
2308.0,0.002058514067629364
2307.0,0.0021153202929627066
2306.0,0.0021996701311582925
2305.0,0.0022981483341826207
2304.0,0.0023784369034706462
2303.0,0.002412714816396195
2302.0,0.002395334434719346
2301.0,0.0023537820707432056
2300.0,0.002314519371498397
2299.0,0.0022987110366058904
2298.0,0.0023125498080349754
2297.0,0.002353637331591107
2296.0,0.0024021098198460803
2295.0,0.0024505986669824146
2294.0,0.0025081091536093185
2293.0,0.002585491718335379
2292.0,0.002665139412327504
2291.0,0.0027172707295847194
2290.0,0.0027217688899280963
2289.0,0.002673409486819931
2288.0,0.002580184140452742
2287.0,0.0024760154163513716
2286.0,0.002413804446742525
2285.0,0.0024151594243769768
2284.0,0.0024406621619236543
2283.0,0.002431921671560229
2282.0,0.002373406634282822
2281.0,0.0022937656917762805
2280.0,0.0022274928498887104
2279.0,0.002197526774278363
2278.0,0.0022133542690362384
2277.0,0.0022526061437523745
2276.0,0.002265487974982508
2275.0,0.0022324164122777615
2274.0,0.002196544051009456
2273.0,0.0022057377176839
2272.0,0.0022435874783842766
2271.0,0.002258750123785351
2270.0,0.0022333241203666004
2269.0,0.0021796185534485786
2268.0,0.00209337426109406
2267.0,0.001966321655139257
2266.0,0.0018311636110049001
2265.0,0.0017394375145327484
2264.0,0.0017034383549137948
2263.0,0.0017069275873853713
2262.0,0.001758610218108604
2261.0,0.0018769901718851056
2260.0,0.0020261910650228353
2259.0,0.002123669753231591
2258.0,0.002119369277523758
2257.0,0.002036256008364818
2256.0,0.0019359141413701928
2255.0,0.0018729782517014457
2254.0,0.0018681994956514499
2253.0,0.0018920179841155167
2252.0,0.0018821198703136317
2251.0,0.0018127467804647714
2250.0,0.001728806910859651
2249.0,0.0016893900836126964
2248.0,0.0017006846301760887
2247.0,0.0017423513233524146
2246.0,0.001820568721704225
2245.0,0.001943614824351389
2244.0,0.0020704060207744064
2243.0,0.002141356957852686
2242.0,0.002143641341544165
2241.0,0.0021036445423915358
2240.0,0.0020347709030772722
2239.0,0.0019379463060189457
2238.0,0.0018338640275845646
2237.0,0.001748625934048928
2236.0,0.0016816020542794147
2235.0,0.0016244194622200793
2234.0,0.001586523031167213
2233.0,0.0015669299081488542
2232.0,0.001542958960233941
2231.0,0.0015295445937347758
2230.0,0.0015943370664929868
2229.0,0.0017503675357713002
2228.0,0.0018838717807479327
2227.0,0.0018706341292508712
2226.0,0.0017259787843903298
2225.0,0.0015675341585125763
2224.0,0.001466998028675953
2223.0,0.0014202517289401008
2222.0,0.0014356214131353955
2221.0,0.0015444171933297072
2220.0,0.0017207863317402273
2219.0,0.001869627112469126
2218.0,0.0019053763185264585
2217.0,0.0018013677669481093
2216.0,0.0015918480683832887
2215.0,0.0013724045744641187
2214.0,0.0012701943831685163
2213.0,0.0013397160214271243
2212.0,0.0014928011985884278
2211.0,0.0015870598146521247
2210.0,0.0015641168020928164
2209.0,0.0014703984189087201
2208.0,0.0013891774475501258
2207.0,0.0013954994162361733
2206.0,0.0015187121495855184
2205.0,0.00168169378999293
2204.0,0.001739295047131308
2203.0,0.00164325196853817
2202.0,0.0015073166813688364
2201.0,0.001445872965965526
2200.0,0.0014238169110183164
2199.0,0.0013580233370185139
2198.0,0.0012855986821526293
2197.0,0.0013157613870161237
2196.0,0.0014653460034816299
2195.0,0.0016605949097737497
2194.0,0.0018534793051700278
2193.0,0.0020232398555660456
2192.0,0.002115384883185778
2191.0,0.0020917757328512234
2190.0,0.002006906911933819
2189.0,0.0019311248083907992
2188.0,0.0018398090691512962
2187.0,0.0016769621243601471
2186.0,0.001474616783340858
2185.0,0.0012984408620279426
2184.0,0.0011316473587595854
2183.0,0.0009530420964531724
2182.0,0.0008712632714368172
2181.0,0.00101106435009286
2180.0,0.0012917304850268729
2179.0,0.001488984368993565
2178.0,0.0014881024951813402
2177.0,0.0013468218543426255
2176.0,0.0011511944479279867
2175.0,0.0009410268762107335
2174.0,0.0007783891317895104
2173.0,0.0007551778992401983
2172.0,0.0009008490349509541
2171.0,0.0011652002901853151
2170.0,0.0014645528374854343
2169.0,0.001682328292821006
2168.0,0.001705747333836072
2167.0,0.0015724091169535656
2166.0,0.0015090931300678339
2165.0,0.0016876388673163457
2164.0,0.0019765147862255785
2163.0,0.0020664421273812513
2162.0,0.001778676750581143
2161.0,0.0011363765282007777
2160.0,0.00025372967222814236
2159.0,-0.0006585971413228806
2158.0,-0.0012850842165184073
2157.0,-0.001457533396637395
2156.0,-0.0013478916094273926
2155.0,-0.0012348940750952025
2154.0,-0.0011814820500877859
2153.0,-0.0010712652963704083
2152.0,-0.0008424612317077296
2151.0,-0.0005518132741338518
2150.0,-0.00026943737591845205
2149.0,-4.741355439235096e-05
2148.0,6.385617048399661e-05
2147.0,7.838040106332028e-05
2146.0,9.53194632606662e-05
2145.0,0.00015950556213729816
2144.0,0.00017153933431522005
2143.0,3.9412309207603296e-05
2142.0,-0.00015215490766946104
2141.0,-0.00022969244234778363
2140.0,-0.00013417398497682752
2139.0,6.075703297911617e-05
2138.0,0.00025763965931168976
2137.0,0.00035767445210402007
2136.0,0.00025873319019451
2135.0,-2.9548371071960738e-05
2134.0,-0.0003225603383984228
2133.0,-0.00042435570655672617
2132.0,-0.0003272359378092064
2131.0,-0.00016854769159557937
2130.0,-5.0709599412233626e-05
2129.0,9.830663227501977e-06
2128.0,2.6361667249563003e-05
2127.0,3.815416005755772e-05
2126.0,0.00012732714394974486
2125.0,0.00033543428142125686
2124.0,0.0005790750934167641
2123.0,0.0007290063422013194
2122.0,0.0007563280489094078
2121.0,0.0007310342867892165
2120.0,0.0007125866187369811
2119.0,0.0007172082678178049
2118.0,0.000769979629301121
2117.0,0.000888308414169728
2116.0,0.0010197372627587062
2115.0,0.0010790604136873547
2114.0,0.0010571714959557068
2113.0,0.0010230076184491095
2112.0,0.0010209560143505853
2111.0,0.00103318582571655
2110.0,0.001038182022210913
2109.0,0.001032196713148332
2108.0,0.000999072279049765
2107.0,0.0009305758835816231
2106.0,0.0008752670105748647
2105.0,0.0008934219237301678
2104.0,0.0009622545649902944
2103.0,0.0009963198267229111
2102.0,0.0009691584014604908
2101.0,0.0009472536796561869
2100.0,0.0009935480576602207
2099.0,0.001087827278692766
2098.0,0.0011510435008582319
2097.0,0.0011110000791376374
2096.0,0.0009567028097972668
2095.0,0.0007657978811955479
2094.0,0.0006560095000223366
2093.0,0.0006700740161807363
2092.0,0.0007329004617885758
2091.0,0.0007601483319210152
2090.0,0.0007622761042231513
2089.0,0.0007967349242369911
2088.0,0.0008621656101066365
2087.0,0.000916882603654639
2086.0,0.000956675936816449
2085.0,0.001000086252223092
2084.0,0.0010325715706296823
2083.0,0.001041984024079183
2082.0,0.001074005751528251
2081.0,0.0011708242591122727
2080.0,0.00128063340618776
2079.0,0.0013112984764628451
2078.0,0.0012517610778974581
2077.0,0.0011602417017240968
2076.0,0.001062839609550203
2075.0,0.0009513217105118876
2074.0,0.0008552378053697845
2073.0,0.0008189773220118367
2072.0,0.0008262315166537148
2071.0,0.0008338861151262285
2070.0,0.0008554863534616418
2069.0,0.0009164302655986205
2068.0,0.0009643689926836399
2067.0,0.0009318270443025153
2066.0,0.0008608307692787242
2065.0,0.00085268726744316
2064.0,0.0009050317063371593
2063.0,0.0009235471425184172
2062.0,0.000883971189208924
2061.0,0.0008486153742249456
2060.0,0.0008436279936636748
2059.0,0.0008312272215707218
2058.0,0.0007921540230942342
2057.0,0.0007406075613679429
2056.0,0.0006798542055979711
2055.0,0.0006496443196586988
2054.0,0.0007758094593690304
2053.0,0.0011299227849719728
2052.0,0.0015524780570325106
2051.0,0.0017518203093043099
2050.0,0.0015979228043723646
2049.0,0.0012435108917585374
2048.0,0.0009225871670441273
2047.0,0.0007316906552415348
2046.0,0.0006649710585498673
2045.0,0.0006926707103367652
2044.0,0.0007453052989644267
2043.0,0.0007534227084484227
2042.0,0.0007379534198284265
2041.0,0.0007593512259232618
2040.0,0.00078667878745045
2039.0,0.0007518932382827241
2038.0,0.0007049367564593116
2037.0,0.0007546467750901759
2036.0,0.0008683415516866082
2035.0,0.0008940589839684814
2034.0,0.000779457390626732
2033.0,0.0006027942652557792
2032.0,0.00039939490934443847
2031.0,0.00013903508103874345
2030.0,-0.00012731319721639436
2029.0,-0.00029018547628174623
2028.0,-0.0003614733281407154
2027.0,-0.00045674920120058473
2026.0,-0.000582245821963111
2025.0,-0.0006083558092234098
2024.0,-0.00046844922806177846
2023.0,-0.000245471695175484
2022.0,-5.6491156520404044e-05
2021.0,2.2564219377063915e-05
2020.0,-3.4804642889073615e-05
2019.0,-0.00014582153049569
2018.0,-0.00011637830210559227
2017.0,0.00014264288625862812
2016.0,0.0004395125506349534
2015.0,0.0005385822671203277
2014.0,0.00044107815198452297
2013.0,0.00029030815784988114
2012.0,0.0001605143594786498
2011.0,5.962917681730359e-05
2010.0,2.443229561406796e-05
2009.0,3.8703609756312674e-05
2008.0,-4.7418391694871334e-05
2007.0,-0.00030566528068684204
2006.0,-0.0005386676181747371
2005.0,-0.0005207389998485423
2004.0,-0.00031991201081482787
2003.0,-0.00018054169921780908
2002.0,-0.00019226941510406387
2001.0,-0.00026254070079676536
2000.0,-0.00033143048792966256
1999.0,-0.0004123120644630235
1998.0,-0.00046632190521019636
1997.0,-0.0004192879242907103
1996.0,-0.0003006534624833688
1995.0,-0.00020436873481483205
1994.0,-0.00013732411392530677
1993.0,-4.409059973390652e-05
1992.0,3.8652296945209004e-05
1991.0,2.7116306121134398e-05
1990.0,-2.3420005868485293e-05
1989.0,1.1888816517950955e-05
1988.0,0.000139383088661182
1987.0,0.0002799063162201938
1986.0,0.0004220693617145645
1985.0,0.000596595720565053
1984.0,0.0007568979383289823
1983.0,0.000843934507889364
1982.0,0.0009069899103222763
1981.0,0.0009860295854342866
1980.0,0.0009368688348748544
1979.0,0.0006049011452890199
1978.0,0.00012909002116608614
1977.0,-0.00018835405776240874
1976.0,-0.00030703961269771347
1975.0,-0.0004245298805661699
1974.0,-0.0005889244773399553
1973.0,-0.0006659131919816292
1972.0,-0.0006439750349213969
1971.0,-0.0006659912604589709
1970.0,-0.0007618361946833097
1969.0,-0.0008071946034754539
1968.0,-0.0007625128197718159
1967.0,-0.0007404411576952525
1966.0,-0.0007780105189518043
1965.0,-0.000781689592343604
1964.0,-0.0007445624356804941
1963.0,-0.0007649980300389204
1962.0,-0.0008544377913631539
1961.0,-0.0009193807292588447
1960.0,-0.0009428734729035371
1959.0,-0.0010047961642460368
1958.0,-0.0011024613297163858
1957.0,-0.00112852131796571
1956.0,-0.0010477259684291164
1955.0,-0.0009447271396001963
1954.0,-0.0008745463479729172
1953.0,-0.0008002568560538522
1952.0,-0.000699022908594435
1951.0,-0.000610952440862862
1950.0,-0.0005548717548544913
1949.0,-0.0005113464229793838
1948.0,-0.0004930943198515385
1947.0,-0.0005341540514704022
1946.0,-0.0006131448509498992
1945.0,-0.0006783734839403113
1944.0,-0.0007406526262899013
1943.0,-0.0008426159751239772
1942.0,-0.0009449609188358695
1941.0,-0.0009674844215373894
1940.0,-0.0009180910149313227
1939.0,-0.000854897362110981
1938.0,-0.0007805425045679888
1937.0,-0.0006737401820135437
1936.0,-0.0005830215822499115
1935.0,-0.0005811006905386293
1934.0,-0.0006469627520264747
1933.0,-0.0006926549678390167
1932.0,-0.0006979100430236831
1931.0,-0.0007180011516962613
1930.0,-0.0007533712591020436
1929.0,-0.0007439433777431862
1928.0,-0.0006797203983825759
1927.0,-0.0006146787151977025
1926.0,-0.0005837987074665241
1925.0,-0.0005689101423233354
1924.0,-0.0005666544462416236
1923.0,-0.0005866107081986424
1922.0,-0.00060067483401726
1921.0,-0.0005697430190888945
1920.0,-0.0005200318428458162
1919.0,-0.0005057807109945912
1918.0,-0.0005120815458014231
1917.0,-0.0004951035537125891
1916.0,-0.00048342837991173265
1915.0,-0.0005220518424386772
1914.0,-0.0005923217996956851
1913.0,-0.0006311373933372519
1912.0,-0.0006190586946332501
1911.0,-0.0005899423339029004
1910.0,-0.0005545995815810661
1909.0,-0.0005074268551705122
1908.0,-0.00048078141213421174
1907.0,-0.0005016503165608858
1906.0,-0.0005372476063271415
1905.0,-0.0005339170855885133
1904.0,-0.000508508449944582
1903.0,-0.0005059816860258351
1902.0,-0.0005100230762773625
1901.0,-0.0004826930823160305
1900.0,-0.00045304073651673
1899.0,-0.0004785594024427353
1898.0,-0.0005488982909884735
1897.0,-0.0005897747429568434
1896.0,-0.0005716704435954764
1895.0,-0.000533953316395054
1894.0,-0.0005018007086319812
1893.0,-0.00046355461132880846
1892.0,-0.0004312259332425758
1891.0,-0.0004354273151365596
1890.0,-0.0004588423084373001
1889.0,-0.0004645605148668173
1888.0,-0.00047352268913594415
1887.0,-0.000513908390583907
1886.0,-0.0005573169619933701
1885.0,-0.0005546518923228866
1884.0,-0.0005187401010279689
1883.0,-0.0005112955169719983
1882.0,-0.0005430065691148676
1881.0,-0.0005731298133862532
1880.0,-0.000583790155038798
1879.0,-0.0005883015256317387
1878.0,-0.000586032191868981
1877.0,-0.0005629266630267336
1876.0,-0.0005427072248822527
1875.0,-0.0005673669328173647
1874.0,-0.0006185505463387375
1873.0,-0.0006370765730468763
1872.0,-0.0006218244184604974
1871.0,-0.0006351362214824007
1870.0,-0.0006919582752935376
1869.0,-0.0006991397110784154
1868.0,-0.0006207840984522412
1867.0,-0.0005473602843142195
1866.0,-0.0005139603506063551
1865.0,-0.0005001800656610738
1864.0,-0.0005039636444987236
1863.0,-0.0005326204174525232
1862.0,-0.0005726285937898879
1861.0,-0.0006019107277796371
1860.0,-0.0006260465733689856
1859.0,-0.0006617721789183141
1858.0,-0.0006988071643369335
1857.0,-0.0007213662486069636
1856.0,-0.000741404114234813
1855.0,-0.0007665492954755479
1854.0,-0.0007665980948854195
1853.0,-0.0007253785554668375
1852.0,-0.0006920803997568965
1851.0,-0.0007100570510825098
1850.0,-0.0007637908958973206
1849.0,-0.0007932447524786836
1848.0,-0.0007768929744731352
1847.0,-0.000748437771550202
1846.0,-0.000733818975269503
1845.0,-0.0007149789374939373
1844.0,-0.0006827945415182064
1843.0,-0.0006729464038218698
1842.0,-0.0006610901577244455
1841.0,-0.0006233231544512093
1840.0,-0.0006058719748351126
1839.0,-0.0006460034770906665
1838.0,-0.0007079759145256265
1837.0,-0.0007175010316517504
1836.0,-0.0006764580616028882
1835.0,-0.0006462652853238399
1834.0,-0.0006447855880998218
1833.0,-0.0006421574620346471
1832.0,-0.000626116824529423
1831.0,-0.0006060841391126426
1830.0,-0.0005806602366810105
1829.0,-0.0005555979833920045
1828.0,-0.0005412432736366971
1827.0,-0.0005325905794689714
1826.0,-0.0005216882043462471
1825.0,-0.0004838763701274535
1824.0,-0.00045019277925307643
1823.0,-0.00047162539280047816
1822.0,-0.0005263023777747622
1821.0,-0.0005741179177334364
1820.0,-0.0006127470675568402
1819.0,-0.0006633169394650289
1818.0,-0.0007034445329558345
1817.0,-0.0006780789366656105
1816.0,-0.000609794474939331
1815.0,-0.0005738909529501835
1814.0,-0.0005851422208666621
1813.0,-0.0005907856965101761
1812.0,-0.0005482990525818904
1811.0,-0.0004914492703457967
1810.0,-0.00044909163897026926
1809.0,-0.0003948374274577687
1808.0,-0.00032951713567951134
1807.0,-0.00028975681618787137
1806.0,-0.0002809704152305589
1805.0,-0.00027895830154909054
1804.0,-0.00028525883583473436
1803.0,-0.0003165609038266121
1802.0,-0.0003402411987034975
1801.0,-0.0002949112239733539
1800.0,-0.00018996856398040274
1799.0,-0.00010895026458345586
1798.0,-6.60083799115755e-05
1797.0,-2.185397856433683e-05
1796.0,2.699465236828593e-05
1795.0,4.446861796425505e-05
1794.0,1.1494327813589122e-05
1793.0,-3.357210749364544e-05
1792.0,-4.0445478413860675e-05
1791.0,-3.9124017810276013e-05
1790.0,-2.933431105273457e-05
1789.0,1.1114103797902567e-05
1788.0,4.736320864928223e-05
1787.0,4.403808592367501e-05
1786.0,2.114665633667391e-05
1785.0,2.5840852931957332e-05
1784.0,5.129562456302134e-05
1783.0,5.60186370618769e-05
1782.0,3.561760817213716e-05
1781.0,1.4565328463509233e-05
1780.0,1.2247692679271532e-05
1779.0,-4.6966734688889435e-06
1778.0,-4.062743806318089e-05
1777.0,-7.256348673961854e-05
1776.0,-8.376092016976503e-05
1775.0,-7.350724580296609e-05
1774.0,-6.066706889674631e-05
1773.0,-2.079776243709688e-05
1772.0,5.712758503911928e-05
1771.0,8.190634559210146e-05
1770.0,7.889246062581885e-05
1769.0,0.0001258626951490269
1768.0,0.00019229327449826923
1767.0,0.000203587067882757
1766.0,0.00015722962194625626
1765.0,0.00012138603358267507
1764.0,0.00013233646550873035
1763.0,0.00017578738282450533
1762.0,0.00022771124519973575
1761.0,0.0002637067534863491
1760.0,0.0002935070318107781
1759.0,0.0003190063799334542
1758.0,0.00034264536647067535
1757.0,0.0003735277135421258
1756.0,0.00040374714859047704
1755.0,0.0004188199809125083
1754.0,0.00042681644355437075
1753.0,0.0004340787788282242
1752.0,0.0004457571570939153
1751.0,0.0004495408234726356
1750.0,0.0004260914101264085
1749.0,0.00043638466886038695
1748.0,0.0005114772191295229
1747.0,0.0005966768736299479
1746.0,0.0006587127478477998
1745.0,0.0007269625526017992
1744.0,0.0008253371012534984
1743.0,0.0009112972850414155
1742.0,0.0009620631363154476
1741.0,0.0010250338005090938
1740.0,0.0011257678468986044
1739.0,0.0012041066962967112
1738.0,0.0012463190600122843
1737.0,0.0013280628747269216
1736.0,0.0014497606809008622
1735.0,0.001567564352960472
1734.0,0.0016764661872528987
1733.0,0.0017046537658958454
1732.0,0.0017072727315414473
1731.0,0.001742811491892011
1730.0,0.0017858869850287734
1729.0,0.0018475067973686777
1728.0,0.0019331625319482038
1727.0,0.002019446298209762
1726.0,0.002082138752275694
1725.0,0.002145292929491482
1724.0,0.0022435871076602982
1723.0,0.002336571199432657
1722.0,0.0023987842149054478
1721.0,0.002461173489796125
1720.0,0.00252854225388108
1719.0,0.002548135916340762
1718.0,0.0025629758079689065
1717.0,0.002726575704287671
1716.0,0.002974975309420231
1715.0,0.0031640975779660347
1714.0,0.003290393996083759
1713.0,0.0034096358658514845
1712.0,0.003533208641835538
1711.0,0.0036359809554565555
1710.0,0.0037175070825938294
1709.0,0.003809153594260926
1708.0,0.00393578824647165
1707.0,0.004087967351787617
1706.0,0.004265545745273185
1705.0,0.004486551712032984
1704.0,0.004723934701248768
1703.0,0.004974380549677531
1702.0,0.005225991161137932
1701.0,0.005570689486520501
1700.0,0.006046225583571752
1699.0,0.006349822726044693
1698.0,0.00649889413588642
1697.0,0.006757826087883922
1696.0,0.007172002597511204
1695.0,0.007483025901874146
1694.0,0.00765516627424433
1693.0,0.007843038968372984
1692.0,0.008060811027382115
1691.0,0.00828743839945635
1690.0,0.008541115072350083
1689.0,0.00884755815770434
1688.0,0.009178002973690823
1687.0,0.009485862959609681
1686.0,0.009730754693562806
1685.0,0.010135830361948076
1684.0,0.010860607900581491
1683.0,0.01133775049646254
1682.0,0.011557618219756897
1681.0,0.011783764098945689
1680.0,0.012035639969673079
1679.0,0.012293617184713702
1678.0,0.012547890958420856
1677.0,0.012835925300975354
1676.0,0.013217672021609957
1675.0,0.01365981041986096
1674.0,0.014003042220932745
1673.0,0.014236090190613861
1672.0,0.014457439519336535
1671.0,0.014706831984781541
1670.0,0.015027418122989581
1669.0,0.01537999142689014
1668.0,0.015677475257718853
1667.0,0.0159091363790014
1666.0,0.01609172977338301
1665.0,0.01626581779100579
1664.0,0.016481176720210686
1663.0,0.016744295781449915
1662.0,0.016983458371472908
1661.0,0.017149339107453136
1660.0,0.017290947788923906
1659.0,0.017413825471951805
1658.0,0.01751776858029433
1657.0,0.01764008580300787
1656.0,0.017840570456265952
1655.0,0.018048526831368407
1654.0,0.01822400680485459
1653.0,0.018408312981918022
1652.0,0.018382459645564436
1651.0,0.018352420692416726
1650.0,0.018344217640803434
1649.0,0.0182844655685944
1648.0,0.01822012851805974
1647.0,0.018211937094746552
1646.0,0.018200229569779874
1645.0,0.018191297704923517
1644.0,0.018210227807950414
1643.0,0.018195534248110518
1642.0,0.018139291951612926
1641.0,0.0180631729352058
1640.0,0.01799375456305225
1639.0,0.017940576767545333
1638.0,0.017879875468451573
1637.0,0.01779944276879313
1636.0,0.01770962360228131
1635.0,0.017560477489196424
1634.0,0.01738345988434298
1633.0,0.01725560331663183
1632.0,0.0171192483499948
1631.0,0.016941005128421265
1630.0,0.01672441291373694
1629.0,0.016480060743884944
1628.0,0.016235564769552617
1627.0,0.016029525254463724
1626.0,0.015873135821053676
1625.0,0.015706591834910938
1624.0,0.01544574124160751
1623.0,0.015087220069134873
1622.0,0.014756435648249522
1621.0,0.014549890308702223
1620.0,0.014430825890546086
1619.0,0.014295357600809962
1618.0,0.014056356036834292
1617.0,0.013709441901460229
1616.0,0.01334355431985914
1615.0,0.01306791995884949
1614.0,0.012895917274556912
1613.0,0.012744456472197529
1612.0,0.012547769295276536
1611.0,0.012310877263870989
1610.0,0.012082057076747015
1609.0,0.011890823622518377
1608.0,0.011724921042202494
1607.0,0.011569035619924652
1606.0,0.011425369694738948
1605.0,0.011283482429608693
1604.0,0.011134183514572682
1603.0,0.010982146737467956
1602.0,0.010848459272147271
1601.0,0.01074515815021524
1600.0,0.010656084932806325
1599.0,0.010562196986411747
1598.0,0.010461578835026892
1597.0,0.010360754002523039
1596.0,0.010256032973918682
1595.0,0.010142566808012489
1594.0,0.010032453778533006
1593.0,0.0099351497215661
1592.0,0.00984166126780529
1591.0,0.009746063330500465
1590.0,0.009662690046417576
1589.0,0.009599578754178969
1588.0,0.009542426689280504
1587.0,0.009477202755346227
1586.0,0.009411440571726123
1585.0,0.009350165363422813
1584.0,0.009290662025118072
1583.0,0.009246114216881162
1582.0,0.009221331809759575
1581.0,0.009207802122015933
1580.0,0.00919501974052405
1579.0,0.009183404956837492
1578.0,0.009160220705504811
1577.0,0.009142569635051988
1576.0,0.009133502310580023
1575.0,0.009099587060214662
1574.0,0.009101370804939607
1573.0,0.0091552984202444
1572.0,0.009203039531652173
1571.0,0.009213843067931982
1570.0,0.009237753531846733
1569.0,0.009296797317377141
1568.0,0.00934321956990065
1567.0,0.009366060126409283
1566.0,0.009367728994563621
1565.0,0.009367635091249623
1564.0,0.009405481310810258
1563.0,0.009503046011298975
1562.0,0.009661015756286901
1561.0,0.009786546177609759
1560.0,0.009773186592018196
1559.0,0.009788595746489761
1558.0,0.00987170567166404
1557.0,0.010018441015568218
1556.0,0.010183326707272459
1555.0,0.010255971046720727
1554.0,0.010270149178170629
1553.0,0.01029182630131291
1552.0,0.010322999054597598
1551.0,0.010342201904078035
1550.0,0.010357816225763036
1549.0,0.010412717229549248
1548.0,0.010492232870202255
1547.0,0.010557096999443863
1546.0,0.010575028054528595
1545.0,0.010589155538305434
1544.0,0.010628877347503018
1543.0,0.010638898388048317
1542.0,0.010573363346581526
1541.0,0.010636390787572812
1540.0,0.010861770348613263
1539.0,0.010870441410297247
1538.0,0.010802798776100154
1537.0,0.010825763650312896
1536.0,0.010855842049695419
1535.0,0.010847944212694284
1534.0,0.010824480196073247
1533.0,0.010843683021725226
1532.0,0.010874935157494419
1531.0,0.010884467623464168
1530.0,0.010875800076941597
1529.0,0.010875373171169997
1528.0,0.010894389981697995
1527.0,0.010902813866388972
1526.0,0.010897382467839941
1525.0,0.010915078549461475
1524.0,0.010957677523332852
1523.0,0.010968363198771928
1522.0,0.01099802298558046
1521.0,0.011109638950520122
1520.0,0.011177992734064963
1519.0,0.01116009547359377
1518.0,0.011119204314422008
1517.0,0.011155386974968803
1516.0,0.011247376837086799
1515.0,0.01129202256298258
1514.0,0.011307947255836573
1513.0,0.011316308897576673
1512.0,0.011303598400039888
1511.0,0.011232861545000816
1510.0,0.011152700494029246
1509.0,0.011135501088680059
1508.0,0.011298073649913542
1507.0,0.011523746767336637
1506.0,0.011496922268905009
1505.0,0.011478170054176687
1504.0,0.011528969902623032
1503.0,0.01151985909407157
1502.0,0.011511965013259823
1501.0,0.011563747034146591
1500.0,0.011661093303111714
1499.0,0.011714242564688625
1498.0,0.011725682762921671
1497.0,0.011835687717563593
1496.0,0.012002590831973674
1495.0,0.012051762679825093
1494.0,0.012038661454308625
1493.0,0.01208185692135497
1492.0,0.012171329824361008
1491.0,0.012229863055285384
1490.0,0.012302453480537264
1489.0,0.012498456269883433
1488.0,0.012708105120877458
1487.0,0.012808904635813287
1486.0,0.012889268821473697
1485.0,0.013032147643852219
1484.0,0.013206388369320959
1483.0,0.013376817250132077
1482.0,0.013608909765282829
1481.0,0.013994416881561604
1480.0,0.014480682750596469
1479.0,0.015033150260388792
1478.0,0.015927807379425483
1477.0,0.017635971940277856
1476.0,0.020403498430577312
1475.0,0.024039990416032976
1474.0,0.028596093299796684
1473.0,0.03365057198268599
1472.0,0.03689303324335197
1471.0,0.037596944881137954
1470.0,0.03757212027951527
1469.0,0.03774212384719401
1468.0,0.03810210606336658
1467.0,0.03861437432754091
1466.0,0.03948290060845413
1465.0,0.04068233118705337
1464.0,0.041318230394141016
1463.0,0.04073443475577546
1462.0,0.03924615534653212
1461.0,0.037307298946170915
1460.0,0.0351546994723675
1459.0,0.03295964105483198
1458.0,0.030876456618158875
1457.0,0.0291151440558048
1456.0,0.02785052983526038
1455.0,0.026985723842066073
1454.0,0.026237762323659385
1453.0,0.0254300801729062
1452.0,0.024587637395662786
1451.0,0.023861531924105478
1450.0,0.023319523077884444
1449.0,0.022875327117111245
1448.0,0.022443321558643023
1447.0,0.02207590924983959
1446.0,0.021829856383716775
1445.0,0.021645133262246014
1444.0,0.02146006956834585
1443.0,0.021260803416118156
1442.0,0.021058033635090893
1441.0,0.020859757111205253
1440.0,0.0206879730025465
1439.0,0.020554181913463667
1438.0,0.020408206410774253
1437.0,0.020151439970599056
1436.0,0.019781016277053524
1435.0,0.019441172452125337
1434.0,0.019188722310617926
1433.0,0.01895732717383394
1432.0,0.01869335408742101
1431.0,0.01839795236594379
1430.0,0.018093309957118487
1429.0,0.01780023378556767
1428.0,0.017545101655670074
1427.0,0.017351527585469935
1426.0,0.017192251247494676
1425.0,0.017002992955630583
1424.0,0.016787698394699093
1423.0,0.01662614742322575
1422.0,0.016561621085824173
1421.0,0.016527605586204665
1420.0,0.016424269241515646
1419.0,0.01622724648607776
1418.0,0.016001139870644016
1417.0,0.015809141933815794
1416.0,0.01564787185222264
1415.0,0.015492658283990025
1414.0,0.015324435416241719
1413.0,0.015124425577655282
1412.0,0.014888371428990015
1411.0,0.014637857323703849
1410.0,0.01439497213657244
1409.0,0.014162875274905729
1408.0,0.013927741904498622
1407.0,0.013676144998414956
1406.0,0.013390168878496596
1405.0,0.013053934646332768
1404.0,0.012718708919042303
1403.0,0.012459762007865152
1402.0,0.012266285727468993
1401.0,0.012048872326064164
1400.0,0.011740044088009403
1399.0,0.011383665138603002
1398.0,0.011080795809792997
1397.0,0.010844469507889504
1396.0,0.010615943077594659
1395.0,0.010381359653741647
1394.0,0.010159979197476746
1393.0,0.009954868131019397
1392.0,0.009768951746356556
1391.0,0.009608184335765038
1390.0,0.009464338719144755
1389.0,0.0093073970822784
1388.0,0.009128806720923721
1387.0,0.008977089524227955
1386.0,0.008890302682858791
1385.0,0.008852236660310523
1384.0,0.008857039669380567
1383.0,0.008927211910700908
1382.0,0.00907263004192955
1381.0,0.009267916538121925
1380.0,0.009467551507493089
1379.0,0.009620278867865406
1378.0,0.00966391963749584
1377.0,0.009556773978038445
1376.0,0.009306281229769469
1375.0,0.008974850123616297
1374.0,0.008664111014136411
1373.0,0.008451210165770785
1372.0,0.008338616809298626
1371.0,0.008281253223218788
1370.0,0.008223647663436414
1369.0,0.008116832773393477
1368.0,0.007957943843369812
1367.0,0.007786016102758744
1366.0,0.00761959945510972
1365.0,0.007429903181161317
1364.0,0.007186000153932164
1363.0,0.006907393360250962
1362.0,0.006652319718757177
1361.0,0.0064525057481802615
1360.0,0.0063008046459554
1359.0,0.006182370214085469
1358.0,0.006081221303075472
1357.0,0.005982795656517239
1356.0,0.005892301513743618
1355.0,0.005831219870504702
1354.0,0.005798658123569993
1353.0,0.005763942625576413
1352.0,0.005702650366030388
1351.0,0.005618490020153851
1350.0,0.005519778278639332
1349.0,0.005401493988469338
1348.0,0.005271259760919245
1347.0,0.005148199581346869
1346.0,0.00503748282777268
1345.0,0.004928350208460433
1344.0,0.004822354780228388
1343.0,0.004732125574171287
1342.0,0.004652677731612622
1341.0,0.004559848588648855
1340.0,0.004447026359575838
1339.0,0.004336157963853549
1338.0,0.004237948715363076
1337.0,0.004140992865497696
1336.0,0.004044061797209371
1335.0,0.003959046767917739
1334.0,0.003883813499097454
1333.0,0.0038019047353124204
1332.0,0.003715174073404638
1331.0,0.003650855248648669
1330.0,0.00362328898896375
1329.0,0.003615680623594915
1328.0,0.003610287524103726
1327.0,0.003609101318503902
1326.0,0.0036141798206093517
1325.0,0.0036157850092302466
1324.0,0.0036117843832528754
1323.0,0.0036081275152873866
1322.0,0.0035988784011168028
1321.0,0.0035700861037942545
1320.0,0.003529176193306024
1319.0,0.0035035262433710697
1318.0,0.0034994477575173155
1317.0,0.0034947276978198553
1316.0,0.003480084602425486
1315.0,0.003471768483432445
1314.0,0.003479933404186203
1313.0,0.0034920964713404667
1312.0,0.003494064009513966
1311.0,0.003486437211557192
1310.0,0.0034713491525158475
1309.0,0.0034488478654229222
1308.0,0.0034293905994050872
1307.0,0.003425847961345062
1306.0,0.003428717708078002
1305.0,0.003413777964264097
1304.0,0.0033785089982096596
1303.0,0.0033431199309472293
1302.0,0.0033174917178731157
1301.0,0.003291167620659634
1300.0,0.003259365889475901
1299.0,0.00323052621663328
1298.0,0.0032034031838153714
1297.0,0.0031625096528409696
1296.0,0.0031045305267617673
1295.0,0.0030456058662671048
1294.0,0.002994692641632643
1293.0,0.00294491967570582
1292.0,0.00289647599630128
1291.0,0.002862904518574811
1290.0,0.0028467020862511343
1289.0,0.002831520836535418
1288.0,0.002808627570359056
1287.0,0.0027901322192249098
1286.0,0.002785602059202556
1285.0,0.0027867934240931574
1284.0,0.0027846276392830428
1283.0,0.0027816897224528375
1282.0,0.002781654171772228
1281.0,0.00278205387555378
1280.0,0.0027838143510613422
1279.0,0.002793154648379455
1278.0,0.002809465446851251
1277.0,0.0028264021349634297
1276.0,0.0028454575096898173
1275.0,0.0028729979499573476
1274.0,0.002903995971986765
1273.0,0.002927456619848145
1272.0,0.002948549436334602
1271.0,0.0029855225769415718
1270.0,0.0030408660611360838
1269.0,0.003096124659039209
1268.0,0.0031388616805321963
1267.0,0.00317361684877885
1266.0,0.0032051145302968934
1265.0,0.0032304815106178487
1264.0,0.0032497581644551823
1263.0,0.0032671785872333894
1262.0,0.0032803122776191053
1261.0,0.00328339006295841
1260.0,0.0032831322599266594
1259.0,0.003293866789558085
1258.0,0.00331421569189109
1257.0,0.0033264581510807426
1256.0,0.0033191310494778744
1255.0,0.003296697832552948
1254.0,0.0032697686933106495
1253.0,0.0032495355584142554
1252.0,0.0032483519475682253
1251.0,0.0032694124017904145
1250.0,0.0032971074877007484
1249.0,0.003313531412724802
1248.0,0.003321320832519863
1247.0,0.00333451605156573
1246.0,0.0033537293223664544
1245.0,0.0033696199537178364
1244.0,0.0033838163604752725
1243.0,0.0034044327759152147
1242.0,0.0034251600404719314
1241.0,0.003431808239050425
1240.0,0.003427158289548274
1239.0,0.003428279988065063
1238.0,0.0034411617222950604
1237.0,0.003458458510606237
1236.0,0.003480102877765852
1235.0,0.0035131294080209593
1234.0,0.003550713669812279
1233.0,0.0035739650688436393
1232.0,0.003577461851037706
1231.0,0.0035742390140382843
1230.0,0.0035747283480960547
1229.0,0.0035788615063194543
1228.0,0.003588179875125228
1227.0,0.003606005162209316
1226.0,0.003624373832505476
1225.0,0.003629904351354232
1224.0,0.0036250534710321504
1223.0,0.003626394139137769
1222.0,0.0036410757851445905
1221.0,0.0036614477573055724
1220.0,0.0036817996405829924
1219.0,0.003702320818232593
1218.0,0.003716905981233049
1217.0,0.003716105807121778
1216.0,0.0037036258978811274
1215.0,0.003693940863818761
1214.0,0.003693621914291125
1213.0,0.0036996195312479427
1212.0,0.0037125178205356484
1211.0,0.003733516012719271
1210.0,0.003751878330440177
1209.0,0.0037553997122190576
1208.0,0.0037515674134244135
1207.0,0.003759441824424347
1206.0,0.003782216179527337
1205.0,0.0038070594904053325
1204.0,0.0038306299082942995
1203.0,0.0038635960341301435
1202.0,0.003909428965136788
1201.0,0.003958495879127593
1200.0,0.004004023374481363
1199.0,0.0040454466680103374
1198.0,0.0040768254772579095
1197.0,0.004091542277613849
1196.0,0.004098303608159668
1195.0,0.004114068327779557
1194.0,0.004140371009720263
1193.0,0.004164706484797654
1192.0,0.004186333630152864
1191.0,0.0042214958305350075
1190.0,0.004279691115008796
1189.0,0.004352132116471306
1188.0,0.004427207641350206
1187.0,0.004501760534310071
1186.0,0.004575366649537529
1185.0,0.00464817996185723
1184.0,0.004725712757432339
1183.0,0.00481264477558337
1182.0,0.004902485017538646
1181.0,0.004986558311415918
1180.0,0.0050708256406982
1179.0,0.005168495881528328
1178.0,0.005277231059362161
1177.0,0.005379556070901355
1176.0,0.005464715219379454
1175.0,0.005535926205672163
1174.0,0.0055981134716224165
1173.0,0.005652508330961446
1172.0,0.005702960471361507
1171.0,0.005754542993963855
1170.0,0.005805633849629233
1169.0,0.005851001020598249
1168.0,0.00589036307442185
1167.0,0.005924862003675105
1166.0,0.005949870406262457
1165.0,0.005962627415442845
1164.0,0.005972469678792655
1163.0,0.005991606802821962
1162.0,0.0060196515163861986
1161.0,0.006047820949917692
1160.0,0.006072873427211889
1159.0,0.0060954160674950505
1158.0,0.006112284165298345
1157.0,0.006125281090727177
1156.0,0.006150654126673273
1155.0,0.006203149981276274
1154.0,0.006273203639427865
1153.0,0.006334868507923426
1152.0,0.0063745138847005715
1151.0,0.006400081509328793
1150.0,0.006427620245940475
1149.0,0.006470996353397743
1148.0,0.006538449647349837
1147.0,0.006624037624643446
1146.0,0.006706045870835427
1145.0,0.0067668455575118705
1144.0,0.006810040623224826
1143.0,0.0068482141210373625
1142.0,0.006883393831892563
1141.0,0.0069135759518359225
1140.0,0.00694869100027266
1139.0,0.007001327721880186
1138.0,0.007066466530586731
1137.0,0.007127912269093355
1136.0,0.007180832307865958
1135.0,0.007231099690562981
1134.0,0.007276616046063512
1133.0,0.007307831150343714
1132.0,0.007325557299361211
1131.0,0.007342284700626797
1130.0,0.007366239400107976
1129.0,0.0073974704315634375
1128.0,0.007437617184065774
1127.0,0.007488090185156346
1126.0,0.0075387009144059925
1125.0,0.007573385706187069
1124.0,0.007589499491926683
1123.0,0.007599802642355848
1122.0,0.007614380298616183
1121.0,0.007631224672996102
1120.0,0.007644849674075577
1119.0,0.0076531998372051085
1118.0,0.007655359987852075
1117.0,0.007652645840826942
1116.0,0.007653014189822057
1115.0,0.007665746324609753
1114.0,0.007690318494832801
1113.0,0.007717206235760473
1112.0,0.007738753318095395
1111.0,0.007752702997949832
1110.0,0.007758128074308606
1109.0,0.007758530443725334
1108.0,0.007767764690589554
1107.0,0.00780172627241491
1106.0,0.007860162307781065
1105.0,0.007921567238943923
1104.0,0.007960252274131857
1103.0,0.007968388589231575
1102.0,0.007962679627452205
1101.0,0.007969641630642274
1100.0,0.008000733132507204
1099.0,0.008043529458394365
1098.0,0.00807991570716711
1097.0,0.008106944762873353
1096.0,0.008131715813013085
1095.0,0.008152748422759051
1094.0,0.008164425857797045
1093.0,0.00817633723169122
1092.0,0.008205976890526937
1091.0,0.008248221658824242
1090.0,0.008274009457597768
1089.0,0.008268481879071095
1088.0,0.008251634424951974
1087.0,0.008251727212260435
1086.0,0.008275941126264147
1085.0,0.008316722731912456
1084.0,0.008365743826187808
1083.0,0.008404185678624814
1082.0,0.008399240255824263
1081.0,0.008334795282238482
1080.0,0.008235692214020332
1079.0,0.008142981572756232
1078.0,0.008072168576361095
1077.0,0.008010633736368494
1076.0,0.00794649294997888
1075.0,0.007879686527973148
1074.0,0.007809027831736266
1073.0,0.007727623957331075
1072.0,0.007633071507426575
1071.0,0.007531567222120228
1070.0,0.0074327430439224094
1069.0,0.007347292705604375
1068.0,0.007283236384191668
1067.0,0.0072347415032014695
1066.0,0.007183294567357773
1065.0,0.0071223947752627175
1064.0,0.007071107202822061
1063.0,0.007047794135761572
1062.0,0.007038730682677229
1061.0,0.0070111169371652945
1060.0,0.006952939601293369
1059.0,0.0068823983949231095
1058.0,0.006820452736695997
1057.0,0.006771316722250271
1056.0,0.00673066573271025
1055.0,0.0066964197995238815
1054.0,0.006667092440347341
1053.0,0.006641460094335638
1052.0,0.006623718824789834
1051.0,0.00662015830203882
1050.0,0.006629047380990122
1049.0,0.006641249835084847
1048.0,0.006647181297695887
1047.0,0.006635032333754195
1046.0,0.006591935644174993
1045.0,0.006518669971033987
1044.0,0.00643532230726832
1043.0,0.006361675137989079
1042.0,0.006297034732805231
1041.0,0.006228201189619302
1040.0,0.006149584390999139
1039.0,0.0060622961116787305
1038.0,0.005961903600939955
1037.0,0.005845478698379054
1036.0,0.005727803688661465
1035.0,0.00563315924733815
1034.0,0.005569706355643645
1033.0,0.005525248082112702
1032.0,0.005486963296203389
1031.0,0.00544960438528924
1030.0,0.005404708581802189
1029.0,0.005340395593998662
1028.0,0.005256866398656614
1027.0,0.0051681771209871885
1026.0,0.005083694816382583
1025.0,0.004998967820582527
1024.0,0.0049085310656881796
1023.0,0.004816326373671534
1022.0,0.00472904642470965
1021.0,0.004648432895529898
1020.0,0.004573291078058808
1019.0,0.0045001282789547525
1018.0,0.004419449597560951
1017.0,0.004321304181133346
1016.0,0.004207697640573377
1015.0,0.004091710172494998
1014.0,0.003983301220671741
1013.0,0.003884347185596635
1012.0,0.003797030468573045
1011.0,0.003724725017549684
1010.0,0.003661988446648997
1009.0,0.003594948484911273
1008.0,0.0035152866324725477
1007.0,0.0034260048763161115
1006.0,0.0033332807264650644
1005.0,0.003242213401631111
1004.0,0.0031597914989291032
1003.0,0.0030891695868312686
1002.0,0.0030190026916823483
1001.0,0.002931537272009524
1000.0,0.002825011946729572
999.0,0.0027166288058172085
998.0,0.002620187729511822
997.0,0.0025322245756466445
996.0,0.0024433689560805286
995.0,0.002350698676761881
994.0,0.002254212337331439
993.0,0.002153406829787997
992.0,0.0020538033328876704
991.0,0.001966299271230298
990.0,0.00189260799625964
989.0,0.0018199259611497935
988.0,0.0017360710772034212
987.0,0.001641827390991649
986.0,0.0015446665639814294
985.0,0.0014501946845942148
984.0,0.0013643120536711746
983.0,0.0012932635236442627
982.0,0.0012350079877050998
981.0,0.001178701022932908
980.0,0.0011172735724940836
979.0,0.0010522003023005749
978.0,0.0009830781936537632
977.0,0.0009040820739542321
976.0,0.0008165782063937546
975.0,0.0007344161066874626
974.0,0.000668824625044178
973.0,0.0006160306129448772
972.0,0.0005657168752706502
971.0,0.000513028263725214
970.0,0.00045666942465911846
969.0,0.00039421281767997376
968.0,0.00032632620462237465
967.0,0.0002589693254850065
966.0,0.00019512842958844916
965.0,0.00012988003814603036
964.0,5.872180169324073e-05
963.0,-1.4239380688452208e-05
962.0,-7.978357021956595e-05
961.0,-0.00013016094727570302
960.0,-0.0001615656394804519
959.0,-0.00017856995340654117
958.0,-0.00019807303320680016
957.0,-0.00023942388693001804
956.0,-0.00030644375896140934
955.0,-0.0003845254887635888
954.0,-0.0004555240566946825
953.0,-0.0005089612836034676
952.0,-0.0005412633064003115
951.0,-0.0005562241976925248
950.0,-0.0005672461221107213
949.0,-0.0005866531340584947
948.0,-0.0006105219645805866
947.0,-0.0006250013830346492
946.0,-0.0006280161303976774
945.0,-0.0006318995637622938
944.0,-0.0006436339930437403
943.0,-0.0006563968915935751
942.0,-0.00066317278990995
941.0,-0.0006658632589134055
940.0,-0.000668420633068309
939.0,-0.0006740163663526318
938.0,-0.000691282981755267
937.0,-0.0007282591226527822
936.0,-0.000775082331687842
935.0,-0.0008067152536615288
934.0,-0.0008101872319000187
933.0,-0.0007986733667993684
932.0,-0.0007938771652994097
931.0,-0.0008055859564205861
930.0,-0.0008315262757747095
929.0,-0.0008640370028025219
928.0,-0.0008913692050639792
927.0,-0.0009040014936887684
926.0,-0.000906072683454882
925.0,-0.0009113308220663752
924.0,-0.0009244723891207625
923.0,-0.0009373126899756643
922.0,-0.0009449785319720766
921.0,-0.0009518876919950344
920.0,-0.0009583533313399593
919.0,-0.0009565589245346933
918.0,-0.0009455542722757882
917.0,-0.0009355029781852337
916.0,-0.000930277659780333
915.0,-0.00092002479557096
914.0,-0.0008990765947726066
913.0,-0.0008778260466565831
912.0,-0.0008674730553519337
911.0,-0.000865168029503427
910.0,-0.0008645245103033397
909.0,-0.0008703705957737607
908.0,-0.0008914830680535942
907.0,-0.0009256128462449172
906.0,-0.00096112911546151
905.0,-0.0009878128520728509
904.0,-0.0009997750131099312
903.0,-0.0009956566499985421
902.0,-0.000983398202148926
901.0,-0.0009775975040156246
900.0,-0.0009849879895963316
899.0,-0.0009970548336874288
898.0,-0.0010002167315336461
897.0,-0.0009873853779582085
896.0,-0.0009586082624408899
895.0,-0.0009200007232576472
894.0,-0.0008847156590649757
893.0,-0.0008653693031550752
892.0,-0.0008619879387634002
891.0,-0.0008641892590363128
890.0,-0.0008639681899086111
889.0,-0.0008553532901892681
888.0,-0.0008226920152507814
887.0,-0.0007461342393837583
886.0,-0.0006250250823006363
885.0,-0.00048261531749627107
884.0,-0.0003414246243564397
883.0,-0.00020464311810901997
882.0,-6.240798099808702e-05
881.0,9.990859656985006e-05
880.0,0.00030238166229204846
879.0,0.0005576078242754256
878.0,0.0008452158054373347
877.0,0.0011176380372493779
876.0,0.0013446900819371506
875.0,0.0015354711918982994
874.0,0.0016984439920756586
873.0,0.0017924872034261949
872.0,0.0017429158045169438
871.0,0.0015127600177136102
870.0,0.0011487456536286647
869.0,0.0007532168478352683
868.0,0.0004197724220330462
867.0,0.00019362147389715909
866.0,7.130261366321451e-05
865.0,2.4717142145263063e-05
864.0,2.8665417343715777e-05
863.0,6.990475806326578e-05
862.0,0.000136211293178444
861.0,0.00020956451101760212
860.0,0.0002769023431345406
859.0,0.00034054402493125663
858.0,0.0004099016704710839
857.0,0.00048461486535256865
856.0,0.000549978686566031
855.0,0.0005852778159345824
854.0,0.0005715043446517746
853.0,0.0004952452676612977
852.0,0.00035436821004707075
851.0,0.0001639956380269699
850.0,-4.610555010093817e-05
849.0,-0.00024254861850389955
848.0,-0.00039757555775532874
847.0,-0.0004951977845074392
846.0,-0.000538753665132858
845.0,-0.0005523866810188023
844.0,-0.0005679242896124825
843.0,-0.0006067046898321441
842.0,-0.0006712516172748539
841.0,-0.0007484182239043576
840.0,-0.0008172139339603594
839.0,-0.000860040585971885
838.0,-0.0008760563370377884
837.0,-0.0008832424651186339
836.0,-0.0009011278200405648
835.0,-0.0009311658972621997
834.0,-0.0009581864356300422
833.0,-0.0009708257830698345
832.0,-0.000974401233444621
831.0,-0.0009819363529344587
830.0,-0.0009973246391316685
829.0,-0.0010106419120464727
828.0,-0.0010085576545825238
827.0,-0.0009857800422897328
826.0,-0.0009466184867163354
825.0,-0.0008993084019064072
824.0,-0.0008521071086865523
823.0,-0.0008129466807748845
822.0,-0.0007861245270541148
821.0,-0.000767765424331544
820.0,-0.0007489285678922118
819.0,-0.0007241000976772119
818.0,-0.0006936376220476898
817.0,-0.0006580569346442706
816.0,-0.0006150349351056635
815.0,-0.0005657097295072508
814.0,-0.0005205128166269266
813.0,-0.0004930253077094562
812.0,-0.00048687197594941833
811.0,-0.0004900902582948164
810.0,-0.000483553395814287
809.0,-0.0004571309718832007
808.0,-0.0004198429400377318
807.0,-0.0003929157334881025
806.0,-0.000389608262741363
805.0,-0.00040250766420906955
804.0,-0.00041329644345284265
803.0,-0.00041175437279089566
802.0,-0.0003985323440173806
801.0,-0.0003720121799836145
800.0,-0.00032531279384794345
799.0,-0.0002621246340978999
798.0,-0.00020608669557558787
797.0,-0.00018380563751334462
796.0,-0.00020021709884805033
795.0,-0.00023563351635504104
794.0,-0.00026414631482620486
793.0,-0.00027186517143059676
792.0,-0.0002621876052337057
791.0,-0.00025016123956689805
790.0,-0.00024986727360003583
789.0,-0.00026124946558641303
788.0,-0.0002698507201015759
787.0,-0.0002630736839116764
786.0,-0.00024409668991293328
785.0,-0.0002243690334469018
784.0,-0.00020562630961861936
783.0,-0.00017866766147974812
782.0,-0.00014111120810935893
781.0,-0.00010707731491146552
780.0,-9.258615962090717e-05
779.0,-9.513960140141581e-05
778.0,-9.573130608814262e-05
777.0,-8.22528964060671e-05
776.0,-6.368005242859791e-05
775.0,-5.652479437054034e-05
774.0,-6.168942897487491e-05
773.0,-6.245053571263086e-05
772.0,-4.6273088878967875e-05
771.0,-2.1423804579128597e-05
770.0,-7.48642320067168e-06
769.0,-1.3101247222268436e-05
768.0,-2.7867036908485812e-05
767.0,-3.4408374245537e-05
766.0,-2.3983246846293396e-05
765.0,-8.567720941061313e-07
764.0,2.428449827131772e-05
763.0,4.388967633630822e-05
762.0,5.9079262895233436e-05
761.0,7.630933430718273e-05
760.0,9.786720274050469e-05
759.0,0.00011729459072838157
758.0,0.00012599951957620315
757.0,0.00012522849294293627
756.0,0.0001320856014241749
755.0,0.0001714759431223553
754.0,0.0002540801581693338
753.0,0.00035632895927219244
752.0,0.0004294753282026581
751.0,0.0004417225304558809
750.0,0.00041284620020581864
749.0,0.0003960241055553787
748.0,0.00042371886370496346
747.0,0.00048328109551138386
746.0,0.0005451188832868627
745.0,0.0005972022074926461
744.0,0.0006435800017254786
743.0,0.0006846375709237528
742.0,0.0007150159226307455
741.0,0.0007347883839030067
740.0,0.0007537165969575699
739.0,0.0007909702287544375
738.0,0.0008745457111404408
737.0,0.0010333436259853286
736.0,0.0012977244079445081
735.0,0.0017350412318883988
734.0,0.0024786755927628957
733.0,0.0036526766685123016
732.0,0.0051906509339067
731.0,0.006726647705131386
730.0,0.007759252774634455
729.0,0.008024457615111755
728.0,0.0077034555011460115
727.0,0.007243416629453221
726.0,0.0070301398480469915
725.0,0.007241042593966032
724.0,0.007918827755265326
723.0,0.009087407431878393
722.0,0.010740019601268726
721.0,0.012682548239693864
720.0,0.014415411725755028
719.0,0.015338543125874689
718.0,0.015181279278139476
717.0,0.014119683258674867
716.0,0.012513267540114007
715.0,0.010686045946039186
714.0,0.00888500274773019
713.0,0.007283539974455574
712.0,0.005969521047692765
711.0,0.004947842447838538
710.0,0.004171567992806009
709.0,0.00357982415408707
708.0,0.0031189497504714933
707.0,0.002745836005221769
706.0,0.002431886847849205
705.0,0.0021684308265185054
704.0,0.0019555606834413333
703.0,0.0017822228629615373
702.0,0.0016278887507393883
701.0,0.0014827536346067646
700.0,0.0013523960343857881
699.0,0.0012399739251655814
698.0,0.0011365881582164807
697.0,0.0010336318149347119
696.0,0.0009311138245828524
695.0,0.0008296489935876086
694.0,0.0007270828429008502
693.0,0.0006269298853910539
692.0,0.0005393257259534261
691.0,0.0004684892955209054
690.0,0.00040883505046644675
689.0,0.00035485446381646087
688.0,0.00030118717384113036
687.0,0.00023603129881074984
686.0,0.00015508097006320526
685.0,8.124983919305037e-05
684.0,5.018282507245758e-05
683.0,7.321390681297966e-05
682.0,0.00012960658304180146
681.0,0.0001903543819073046
680.0,0.00022866179946391674
679.0,0.00021383389068587062
678.0,0.0001287942231242012
677.0,4.199486409254757e-06
676.0,-9.299572289432102e-05
675.0,-0.0001267528466848255
674.0,-0.00012608630473660148
673.0,-0.0001381525054003057
672.0,-0.00018248642051813674
671.0,-0.00025749389012777804
670.0,-0.00036514517339148074
669.0,-0.0004765603919713972
668.0,-0.0005070068076266712
667.0,-0.0004033213836605095
666.0,-0.00024400530238649805
665.0,-0.0001528757472129532
664.0,-0.00014785881399456517
663.0,-0.00017273711780396543
662.0,-0.0001885726459270945
661.0,-0.00019290794707912257
660.0,-0.00020244180552383279
659.0,-0.0002312226087556636
658.0,-0.00027794805470069024
657.0,-0.0003205849770259693
656.0,-0.00032923525845214054
655.0,-0.0003024496504800255
654.0,-0.00028379919654242594
653.0,-0.00031923883862325017
652.0,-0.00040270200703779353
651.0,-0.0004777218997541622
650.0,-0.0004929621857561843
649.0,-0.00045144552040149964
648.0,-0.00040242431939773067
647.0,-0.00039115879532634033
646.0,-0.0004179593749393546
645.0,-0.0004475475883596626
644.0,-0.00045797791942651586
643.0,-0.00047089607832580954
642.0,-0.0005253090598609268
641.0,-0.0006248503140515397
640.0,-0.0007269565923239251
639.0,-0.0007852704698529771
638.0,-0.0007902714264001326
637.0,-0.000765683975923288
636.0,-0.0007431515687740548
635.0,-0.0007511954819784585
634.0,-0.0008052952905702963
633.0,-0.0008905879373191806
632.0,-0.0009681945461020563
631.0,-0.0010085840366879303
630.0,-0.0010130655224042228
629.0,-0.0010004659062894123
628.0,-0.0009844728646098335
627.0,-0.0009745030439321407
626.0,-0.0009809606650674832
625.0,-0.0010026176562244402
624.0,-0.0010204666151228357
623.0,-0.0010150836060795736
622.0,-0.000978102870039195
621.0,-0.0009030844206200945
620.0,-0.0007923171147779032
619.0,-0.0006890555967358561
618.0,-0.0006690217915557347
617.0,-0.0007581741672258897
616.0,-0.0008830677044597592
615.0,-0.0009519167085239189
614.0,-0.0009604977362783745
613.0,-0.0009676262208109902
612.0,-0.0009950908480756884
611.0,-0.0010069627535600374
610.0,-0.0009833756320288337
609.0,-0.0009638860161057163
608.0,-0.000990333097851263
607.0,-0.001040762815983625
606.0,-0.001057196334966046
605.0,-0.0010244589838105216
604.0,-0.000979510106262401
603.0,-0.0009493278697151972
602.0,-0.0009250537173140748
601.0,-0.0009041928781189697
600.0,-0.0009171223813789764
