cm-1,A
4000.0,0.004034417790915609
3999.0,0.004029968725362284
3998.0,0.004025970453491323
3997.0,0.004025169708790069
3996.0,0.004029481160603883
3995.0,0.004037239351813105
3994.0,0.004043485954519936
3993.0,0.004044153558454594
3992.0,0.004039824536187859
3991.0,0.004034581958319257
3990.0,0.004031927308018672
3989.0,0.004031977873180628
3988.0,0.004032704373027634
3987.0,0.004032549389179456
3986.0,0.004031296167682491
3985.0,0.004029878618058699
3984.0,0.004029822481939872
3983.0,0.004032368239476559
3982.0,0.004036954854828225
3981.0,0.004041038551355026
3980.0,0.004042352930559697
3979.0,0.004041600775783864
3978.0,0.004042512870968084
3977.0,0.0040480059487762576
3976.0,0.004056772355394513
3975.0,0.00406411951433615
3974.0,0.00406587828563958
3973.0,0.004061665177332351
3972.0,0.0040542518796429375
3971.0,0.004046881147291936
3970.0,0.004041627110711274
3969.0,0.004039230729216987
3968.0,0.004040262364631734
3967.0,0.004045075994872177
3966.0,0.004052395856976197
3965.0,0.0040587044166172336
3964.0,0.004060484581412303
3963.0,0.0040578810551785095
3962.0,0.0040544949065139824
3961.0,0.004052123344940095
3960.0,0.004047891570368624
3959.0,0.0040385689555640595
3958.0,0.004026251091059388
3957.0,0.004016866299496519
3956.0,0.004014537045240502
3955.0,0.004018690675085871
3954.0,0.004026408849530836
3953.0,0.0040360350673771285
3952.0,0.0040468951499079645
3951.0,0.004057768793495337
3950.0,0.004066493048192796
3949.0,0.004071891914635625
3948.0,0.004076008584244649
3947.0,0.004081239276204289
3946.0,0.004085578888510263
3945.0,0.004083668904552768
3944.0,0.004073936120197938
3943.0,0.004062599045291784
3942.0,0.004056415262930312
3941.0,0.004054521456047535
3940.0,0.0040513467636988714
3939.0,0.0040447420997076836
3938.0,0.004040570445056419
3937.0,0.00404611956853642
3936.0,0.004060706081632656
3935.0,0.004075765763989501
3934.0,0.004082936566543311
3933.0,0.004080617692972416
3932.0,0.004071824690720495
3931.0,0.0040610290523753105
3930.0,0.004053514758307685
3929.0,0.004052961171413429
3928.0,0.004056713784858679
3927.0,0.004056541119157127
3926.0,0.004050256231100631
3925.0,0.004046729763206575
3924.0,0.004054365093987288
3923.0,0.004070731824168561
3922.0,0.004087595964525267
3921.0,0.004099995972574776
3920.0,0.004105673851709909
3919.0,0.004100813587578097
3918.0,0.004084498007512229
3917.0,0.004063948429511386
3916.0,0.004048064963653403
3915.0,0.004037183725244014
3914.0,0.004026366624249508
3913.0,0.0040139766677232715
3912.0,0.004004900490333256
3911.0,0.00400431409990265
3910.0,0.0040149365712111775
3909.0,0.004036678415736399
3908.0,0.004065589428144901
3907.0,0.004092242040863076
3906.0,0.004108199455373192
3905.0,0.004118220743048182
3904.0,0.004133782187829558
3903.0,0.004153429590562213
3902.0,0.004160855437273695
3901.0,0.004144784505356206
3900.0,0.004114224795596857
3899.0,0.004087227844330657
3898.0,0.004070902032901746
3897.0,0.00406209158820111
3896.0,0.004059621306614712
3895.0,0.0040634084374606095
3894.0,0.004068260511344925
3893.0,0.004064958274441094
3892.0,0.004057856684382777
3891.0,0.004063501878254718
3890.0,0.004089400114359022
3889.0,0.004117851962809395
3888.0,0.004113218608654047
3887.0,0.004067333627577447
3886.0,0.004025439321205095
3885.0,0.004030614731550401
3884.0,0.004070357275218149
3883.0,0.004097962234877089
3882.0,0.004084633867809504
3881.0,0.004048769218199005
3880.0,0.004029683808341788
3879.0,0.004040100132581571
3878.0,0.004061106186854926
3877.0,0.004065183266613763
3876.0,0.004046010841376606
3875.0,0.004034454775314993
3874.0,0.004062972853155542
3873.0,0.004115213018480796
3872.0,0.004135371083635764
3871.0,0.00410169984872279
3870.0,0.0040616076617293086
3869.0,0.004061022361536982
3868.0,0.004085136393393326
3867.0,0.00408884224873379
3866.0,0.004059042430602478
3865.0,0.004028899958560737
3864.0,0.004026334028429625
3863.0,0.004038067788247851
3862.0,0.0040406993654234944
3861.0,0.004028329262284383
3860.0,0.004013475525494774
3859.0,0.004015899529416488
3858.0,0.004049984537327408
3857.0,0.00410466962293174
3856.0,0.004129805325232353
3855.0,0.004100069485762336
3854.0,0.004077533901896861
3853.0,0.004100924703918069
3852.0,0.004125095732452879
3851.0,0.004113006872137966
3850.0,0.00407063659112186
3849.0,0.004025018346312342
3848.0,0.003998454980706494
3847.0,0.0039945488602775355
3846.0,0.004003782596524294
3845.0,0.00401476382164515
3844.0,0.004026609754738809
3843.0,0.004046235477953145
3842.0,0.004075134843222987
3841.0,0.004099888806349109
3840.0,0.004106416093858238
3839.0,0.004097676145959383
3838.0,0.004089920877630114
3837.0,0.004093503804683805
3836.0,0.0041039199323886074
3835.0,0.004108417256548679
3834.0,0.004094809243610618
3833.0,0.004063606749588179
3832.0,0.0040326077329302734
3831.0,0.004020332919220844
3830.0,0.004027624150061766
3829.0,0.0040357592595363315
3828.0,0.004027333498824523
3827.0,0.004011490763911555
3826.0,0.00401775768816471
3825.0,0.004057292316595537
3824.0,0.004099267395703722
3823.0,0.00410246175119849
3822.0,0.004081046167109234
3821.0,0.004084975748939945
3820.0,0.004120767059752398
3819.0,0.00414790837070749
3818.0,0.004120754483778407
3817.0,0.004048781759757848
3816.0,0.003999046989794531
3815.0,0.004004049203618302
3814.0,0.004029487413618021
3813.0,0.004037384702332994
3812.0,0.004029094979231525
3811.0,0.004028062288198561
3810.0,0.00403907141718644
3809.0,0.004038558993844853
3808.0,0.004019120997409054
3807.0,0.004011030130500755
3806.0,0.004038811802432988
3805.0,0.004088939312331789
3804.0,0.004118171392502274
3803.0,0.0041021140962823974
3802.0,0.00408233027286561
3801.0,0.004100045723321259
3800.0,0.004134076000520301
3799.0,0.004144040358831634
3798.0,0.004116461391191406
3797.0,0.004076001836837383
3796.0,0.004054039099184199
3795.0,0.004053305229515137
3794.0,0.004055145584267146
3793.0,0.004047999005075886
3792.0,0.004035202693474807
3791.0,0.004023572112862493
3790.0,0.004016371447453083
3789.0,0.004015168953016526
3788.0,0.004020023640004111
3787.0,0.0040274388144712694
3786.0,0.004033914693550461
3785.0,0.004041812435991993
3784.0,0.004055854617316541
3783.0,0.00407245407387683
3782.0,0.004080524100139043
3781.0,0.004075878401129482
3780.0,0.0040708511439818225
3779.0,0.004077782206924938
3778.0,0.004090647146119324
3777.0,0.00409395832397683
3776.0,0.004084960035662984
3775.0,0.0040802424296851394
3774.0,0.004097328128497436
3773.0,0.004129963275817555
3772.0,0.004155501949046339
3771.0,0.004168474757562869
3770.0,0.0041851897924259345
3769.0,0.004210671223946288
3768.0,0.004226547350522455
3767.0,0.004215467549621671
3766.0,0.004186882564252351
3765.0,0.004168936790500786
3764.0,0.004173735482269093
3763.0,0.004186048607319958
3762.0,0.004188653276175413
3761.0,0.004186627113405569
3760.0,0.004196537087229677
3759.0,0.004216946941778425
3758.0,0.004236132466749987
3757.0,0.004254134957570902
3756.0,0.004276919197502284
3755.0,0.004301353472545634
3754.0,0.004320008904746295
3753.0,0.004337965746424235
3752.0,0.004365868802888266
3751.0,0.004396900556465894
3750.0,0.004421730613119554
3749.0,0.00445414710037892
3748.0,0.004504036332415268
3747.0,0.004531239974138458
3746.0,0.004487872951953461
3745.0,0.004425560764244492
3744.0,0.004420327485753572
3743.0,0.004450756480134993
3742.0,0.004467615821210582
3741.0,0.004462241231380253
3740.0,0.004455113973581264
3739.0,0.004459153108628836
3738.0,0.004465105657452533
3737.0,0.004471707105835352
3736.0,0.004489874282473964
3735.0,0.004508430611027756
3734.0,0.004499153664049881
3733.0,0.004461737437550202
3732.0,0.0044273258070487145
3731.0,0.004421289891785629
3730.0,0.004440928647218174
3729.0,0.004464202535021577
3728.0,0.004475118343283843
3727.0,0.004481460518919148
3726.0,0.004495833787649703
3725.0,0.004512883983105426
3724.0,0.004519700870303286
3723.0,0.004515058553517635
3722.0,0.00450982271432165
3721.0,0.004511193424113011
3720.0,0.004514842573838083
3719.0,0.0045130202195231145
3718.0,0.004510181307352788
3717.0,0.004521981907876686
3716.0,0.00455446028637513
3715.0,0.004596683703643688
3714.0,0.004638364584490903
3713.0,0.0046863583990507185
3712.0,0.00474805200334096
3711.0,0.0048050524056037075
3710.0,0.00483176688517053
3709.0,0.00482375609395995
3708.0,0.004796573899957925
3707.0,0.004773761497775259
3706.0,0.004771795527176296
3705.0,0.004790274561889382
3704.0,0.0048163348002960606
3703.0,0.004841767997759265
3702.0,0.004872619756249178
3701.0,0.004916817829389044
3700.0,0.004969064946679707
3699.0,0.005013483991832686
3698.0,0.005041531342997084
3697.0,0.005064439773538328
3696.0,0.005099644839386379
3695.0,0.005151705956900179
3694.0,0.00521455627551196
3693.0,0.005281596563294315
3692.0,0.005344714587775869
3691.0,0.005390198626295916
3690.0,0.005413869910931981
3689.0,0.0054324304805730625
3688.0,0.005463347144751888
3687.0,0.005505972406219593
3686.0,0.005550301474326532
3685.0,0.00559256334130303
3684.0,0.005639878667069819
3683.0,0.005699637853567424
3682.0,0.005768003894111724
3681.0,0.005843129537462649
3680.0,0.005935318588193949
3679.0,0.006047371826352575
3678.0,0.006148142363338304
3677.0,0.006211124434639618
3676.0,0.006271980995741324
3675.0,0.006368576735383765
3674.0,0.006486829016324927
3673.0,0.006594940634676036
3672.0,0.006667441787577978
3671.0,0.006719681921800301
3670.0,0.00679283268369592
3669.0,0.006883144508048816
3668.0,0.006960055806696322
3667.0,0.007018276098922959
3666.0,0.007075434076657606
3665.0,0.0071497888529359534
3664.0,0.0072456647362643175
3663.0,0.0073551730374549935
3662.0,0.007472088875042856
3661.0,0.007598879239808905
3660.0,0.007736578847467543
3659.0,0.007876147692042923
3658.0,0.008008535265422247
3657.0,0.008143607226204571
3656.0,0.008296039828494806
3655.0,0.008462262352661294
3654.0,0.00862944358776353
3653.0,0.008786573085337599
3652.0,0.008935861155761102
3651.0,0.009108004377031777
3650.0,0.009328361412725899
3649.0,0.009565754269131704
3648.0,0.009765172684723543
3647.0,0.009910275373926886
3646.0,0.01002289649125478
3645.0,0.010129358629201479
3644.0,0.010245981866277266
3643.0,0.010382146002168233
3642.0,0.010541880953383353
3641.0,0.010719565749734195
3640.0,0.010902733540456285
3639.0,0.01108559407234143
3638.0,0.011272311975795646
3637.0,0.01146702700967251
3636.0,0.011667561263683294
3635.0,0.011872609982320662
3634.0,0.012085197725314311
3633.0,0.012302810605403018
3632.0,0.01251346247737566
3631.0,0.012711463247916773
3630.0,0.012935456142431004
3629.0,0.013218276192682881
3628.0,0.013498130981915825
3627.0,0.01370854194451834
3626.0,0.013864791619646844
3625.0,0.014012228140114602
3624.0,0.014180512287013135
3623.0,0.014371972576064276
3622.0,0.014576557967005015
3621.0,0.014795814507625873
3620.0,0.015043844557465168
3619.0,0.01531661046677257
3618.0,0.015585010756452404
3617.0,0.015829336088028816
3616.0,0.016051795097080157
3615.0,0.01626858817832448
3614.0,0.01649902831657487
3613.0,0.016745789876423327
3612.0,0.016988853197816005
3611.0,0.017210896219784395
3610.0,0.017422337256344872
3609.0,0.01764807184103377
3608.0,0.01789153905875723
3607.0,0.01812916808926005
3606.0,0.018344657135082355
3605.0,0.018546050877892045
3604.0,0.018750695176899295
3603.0,0.018971185313295526
3602.0,0.019211562002725637
3601.0,0.019466855522448912
3600.0,0.019723452531279165
3599.0,0.01997016642266857
3598.0,0.020210415663256986
3597.0,0.020455900244087277
3596.0,0.020709191935525968
3595.0,0.020961491926288333
3594.0,0.02120317132687174
3593.0,0.021431224991901063
3592.0,0.021649435513432857
3591.0,0.021866159091528607
3590.0,0.02209703890348772
3589.0,0.022363707946653242
3588.0,0.022668266279847925
3587.0,0.022972259663254314
3586.0,0.023234869500100622
3585.0,0.023455311224709976
3584.0,0.0236592100000756
3583.0,0.02387082160983208
3582.0,0.024101227566262318
3581.0,0.024346947875589657
3580.0,0.024596012207964382
3579.0,0.0248406165865201
3578.0,0.025084562475924898
3577.0,0.025335054299174854
3576.0,0.025592083818305546
3575.0,0.025850093926206106
3574.0,0.02610602170618503
3573.0,0.026358916781584432
3572.0,0.026607254972340108
3571.0,0.02685369244494445
3570.0,0.027111009225902417
3569.0,0.027399682171818734
3568.0,0.027726870052162615
3567.0,0.02806173269601812
3566.0,0.028358161392980356
3565.0,0.028603274318997614
3564.0,0.028819791496640317
3563.0,0.0290379413583833
3562.0,0.02927642213165698
3561.0,0.029535360349165152
3560.0,0.029801143840718324
3559.0,0.03006226061082328
3558.0,0.030320346845050458
3557.0,0.030582408422928038
3556.0,0.030850160364463718
3555.0,0.031122602012815963
3554.0,0.03140253022442028
3553.0,0.0316904935735536
3552.0,0.031975138775269786
3551.0,0.0322434312972846
3550.0,0.032498672004014816
3549.0,0.032759194103623664
3548.0,0.033040983871955316
3547.0,0.03334466270146766
3546.0,0.033656478258239204
3545.0,0.033957594862542725
3544.0,0.03423487185735892
3543.0,0.034488913055965624
3542.0,0.034733080746802675
3541.0,0.03498160052206701
3540.0,0.03523895671534319
3539.0,0.03550316591447859
3538.0,0.03577504994771706
3537.0,0.03605659789261664
3536.0,0.0363418949825312
3535.0,0.03662049415007865
3534.0,0.036889071042590614
3533.0,0.03715253084473878
3532.0,0.037416054473439375
3531.0,0.03768337142896586
3530.0,0.03796090681912295
3529.0,0.03825341507729951
3528.0,0.03855473304895954
3527.0,0.03885189507668394
3526.0,0.03913982993081699
3525.0,0.03942411908108532
3524.0,0.03970875617190697
3523.0,0.0399896733417918
3522.0,0.04026305955147657
3521.0,0.04053189737548269
3520.0,0.04080106990637025
3519.0,0.041071885580456935
3518.0,0.04134287609133243
3517.0,0.04161215773909584
3516.0,0.041878844506150516
3515.0,0.04214563963034124
3514.0,0.04241819386826906
3513.0,0.04269888657698625
3512.0,0.0429838365409149
3511.0,0.0432681264453114
3510.0,0.04354971278853513
3509.0,0.04382580004824442
3508.0,0.044092791351171785
3507.0,0.04435539637287825
3506.0,0.04462905127226524
3505.0,0.04492542804128259
3504.0,0.04523751201345966
3503.0,0.04554532553856048
3502.0,0.0458359901677789
3501.0,0.04611160812796636
3500.0,0.04638019836039736
3499.0,0.04664936607203184
3498.0,0.04692643654898687
3497.0,0.04721401347769889
3496.0,0.04750608578192985
3495.0,0.04779480744754335
3494.0,0.04807855750111442
3493.0,0.04835828484121701
3492.0,0.0486317744956412
3491.0,0.048899442447416945
3490.0,0.04917055707805076
3489.0,0.049453746562811436
3488.0,0.0497443119583075
3487.0,0.05003035238869196
3486.0,0.05030916254541168
3485.0,0.05058851762149025
3484.0,0.05087403759325967
3483.0,0.05116381369388718
3482.0,0.0514534598582375
3481.0,0.051738926905552624
3480.0,0.052016206138905265
3479.0,0.05228593994409701
3478.0,0.052556603882124055
3477.0,0.05283638770729055
3476.0,0.05312341731794348
3475.0,0.053409247779211765
3474.0,0.0536897402149972
3473.0,0.05396686994966271
3472.0,0.05424352398226959
3471.0,0.0545232903751356
3470.0,0.05481125303582291
3469.0,0.05510673342922332
3468.0,0.055398312216360344
3467.0,0.055674291106635854
3466.0,0.05593618978135369
3465.0,0.05619570943919955
3464.0,0.05646206759164537
3463.0,0.05673780542081586
3462.0,0.05702139909912562
3461.0,0.05730660021527345
3460.0,0.0575831497448973
3459.0,0.057846567543566374
3458.0,0.058104842889643966
3457.0,0.05836898543542602
3456.0,0.058640818812816936
3455.0,0.058915639600860416
3454.0,0.05919069618764542
3453.0,0.05946353863980072
3452.0,0.05972783186805912
3451.0,0.059981121997530897
3450.0,0.0602344066196947
3449.0,0.060503944545480366
3448.0,0.06079206559435366
3447.0,0.061082164405702105
3446.0,0.061355713082710275
3445.0,0.06161001495392894
3444.0,0.06185761911320034
3443.0,0.062113463553076814
3442.0,0.062382474894475584
3441.0,0.06265606661135427
3440.0,0.06292309785890447
3439.0,0.06318441842684584
3438.0,0.063450588650512
3437.0,0.06372488052121131
3436.0,0.06399673401853741
3435.0,0.06425574254054614
3434.0,0.06450438719452377
3433.0,0.06475170687224978
3432.0,0.06500160874477713
3431.0,0.06525369924766089
3430.0,0.0655088740311416
3429.0,0.06576631960187902
3428.0,0.06602020058148723
3427.0,0.06626651971964467
3426.0,0.06650929320837798
3425.0,0.06675430687029439
3424.0,0.06700192622339525
3423.0,0.06725157002178112
3422.0,0.06750690902867956
3421.0,0.0677690184181001
3420.0,0.06802952771670114
3419.0,0.06827886762578798
3418.0,0.06851741976891197
3417.0,0.06875207244044966
3416.0,0.06898615114360909
3415.0,0.06921855564256296
3414.0,0.06944834631980025
3413.0,0.06967427865558687
3412.0,0.06989420273294049
3411.0,0.07011038112572274
3410.0,0.07033060201712947
3409.0,0.07055848323826162
3408.0,0.07078772955324981
3407.0,0.07101154513348185
3406.0,0.07123187206135856
3405.0,0.07145327989437096
3404.0,0.07167401647229486
3403.0,0.0718901281709493
3402.0,0.07210275462248023
3401.0,0.0723138209512318
3400.0,0.07251957125524205
3399.0,0.07271619110125
3398.0,0.0729073456461668
3397.0,0.07309912011652427
3396.0,0.07329231618639082
3395.0,0.073485885989984
3394.0,0.07368176794818877
3393.0,0.07387839303892475
3392.0,0.0740653392507369
3391.0,0.07423413217122989
3390.0,0.07439081431975351
3389.0,0.07455006547639563
3388.0,0.07471994717573173
3387.0,0.07489794621448397
3386.0,0.07507745260182311
3385.0,0.07525158329952832
3384.0,0.07541492705890745
3383.0,0.07556919503501372
3382.0,0.0757240666025518
3381.0,0.07588612975714153
3380.0,0.07605023538888935
3379.0,0.07620733959405217
3378.0,0.07635695137344609
3377.0,0.07650525807967704
3376.0,0.07665449775834135
3375.0,0.07680083662093941
3374.0,0.07694026991218203
3373.0,0.0770714991189842
3372.0,0.07719608442927134
3371.0,0.07731987285537502
3370.0,0.07745016926809871
3369.0,0.07758728230313648
3368.0,0.07772308205551351
3367.0,0.0778514277672191
3366.0,0.07797446222054304
3365.0,0.07809520254447823
3364.0,0.07821137225769859
3363.0,0.07832164864782162
3362.0,0.07843070651428855
3361.0,0.078541735460327
3360.0,0.07865006780155828
3359.0,0.07875087321288668
3358.0,0.0788478269454656
3357.0,0.07894746734802037
3356.0,0.07904981705596846
3355.0,0.07915085007684854
3354.0,0.07924924208841434
3353.0,0.07934464040936309
3352.0,0.0794342783684499
3351.0,0.07951748215210352
3350.0,0.07959919092156369
3349.0,0.07968304219624646
3348.0,0.07976477039483175
3347.0,0.07983789510701209
3346.0,0.07990251966309417
3345.0,0.07996426533212371
3344.0,0.0800287440281956
3343.0,0.08010051424623091
3342.0,0.08018139982679552
3341.0,0.08026521948056853
3340.0,0.08033980249674354
3339.0,0.08039914114073779
3338.0,0.08044879987551289
3337.0,0.08049572475464148
3336.0,0.0805394857374494
3335.0,0.08057858634373294
3334.0,0.0806180947478403
3333.0,0.08066393339519184
3332.0,0.0807149584776494
3331.0,0.08076669596173683
3330.0,0.08081787340775412
3329.0,0.08086826650609365
3328.0,0.08091553112609974
3327.0,0.08095934333861945
3326.0,0.08100338222682864
3325.0,0.08104771039162623
3324.0,0.08108468158240296
3323.0,0.08110884201254213
3322.0,0.08112653130221256
3321.0,0.08114979406380331
3320.0,0.08118440579449954
3319.0,0.0812281505673396
3318.0,0.08127580120126238
3317.0,0.08132084990328858
3316.0,0.08135749197728247
3315.0,0.08138654798302945
3314.0,0.08141580258747941
3313.0,0.08145055337218139
3312.0,0.08148805052583577
3311.0,0.08152443225626792
3310.0,0.08156129132414233
3309.0,0.08160081584851048
3308.0,0.08164018759633063
3307.0,0.08167612470023206
3306.0,0.08171013099888703
3305.0,0.08174438324940039
3304.0,0.08177724084479165
3303.0,0.08180726773613045
3302.0,0.08183642228743622
3301.0,0.08186464162077774
3300.0,0.08188664246918846
3299.0,0.08189918194209157
3298.0,0.08190686391578884
3297.0,0.08191632423092944
3296.0,0.08192931753557278
3295.0,0.08194530017439766
3294.0,0.08196504355454
3293.0,0.08198670996594196
3292.0,0.082003503779374
3291.0,0.0820103198857503
3290.0,0.08200862063728534
3289.0,0.08200109253998343
3288.0,0.0819866075258074
3287.0,0.08196453470834437
3286.0,0.08193878473782246
3285.0,0.08191275338830158
3284.0,0.08188459681320685
3283.0,0.08185160739070374
3282.0,0.08181446201484792
3281.0,0.08177294104760717
3280.0,0.08172271443208473
3279.0,0.08166137536429448
3278.0,0.08159327542966262
3277.0,0.08152381178542782
3276.0,0.08145280289402643
3275.0,0.08137728571744615
3274.0,0.08129644366675381
3273.0,0.08121003543949364
3272.0,0.08111666659435156
3271.0,0.08101734110417193
3270.0,0.08091603511230035
3269.0,0.08081329296255078
3268.0,0.08070400595208517
3267.0,0.08058491341863616
3266.0,0.08045939492598884
3265.0,0.08033113238287896
3264.0,0.0801979542402613
3263.0,0.08005609075265609
3262.0,0.07990614129161992
3261.0,0.07975113042584286
3260.0,0.07959310180500143
3259.0,0.07943472695856031
3258.0,0.07927937285967568
3257.0,0.07912648868656505
3256.0,0.07897164427057403
3255.0,0.07881372099322059
3254.0,0.07865650431365374
3253.0,0.07850024827742966
3252.0,0.07833807158557081
3251.0,0.0781649880921157
3250.0,0.07798506884729543
3249.0,0.07780579930334867
3248.0,0.07763063265506734
3247.0,0.07746065508388697
3246.0,0.07729738622940016
3245.0,0.0771384219899292
3244.0,0.07697528581909147
3243.0,0.0768016159968754
3242.0,0.07662030994638763
3241.0,0.07643859783965207
3240.0,0.07625997993428486
3239.0,0.07608438459868884
3238.0,0.0759114502290338
3237.0,0.07573919862227659
3236.0,0.07556339487887828
3235.0,0.07538273579215092
3234.0,0.07520170571496018
3233.0,0.07502470080279097
3232.0,0.07485028157512563
3231.0,0.0746741299777437
3230.0,0.0744941332860282
3229.0,0.07430989226123226
3228.0,0.07412129277037009
3227.0,0.07393034065224144
3226.0,0.07374043540728885
3225.0,0.07355125145509393
3224.0,0.07335864351457373
3223.0,0.07316226755020917
3222.0,0.0729682793537103
3221.0,0.07278074020833351
3220.0,0.07259481497618528
3219.0,0.07240261656820098
3218.0,0.0722021076997694
3217.0,0.07199664434851233
3216.0,0.07178963938530399
3215.0,0.0715833799553701
3214.0,0.07137960416372158
3213.0,0.07117743703523817
3212.0,0.0709730420163954
3211.0,0.07076383309891429
3210.0,0.07055066324127222
3209.0,0.07033463786438732
3208.0,0.07011544612385744
3207.0,0.0698942818687806
3206.0,0.06967397570140282
3205.0,0.06945395130209656
3204.0,0.06922935765979883
3203.0,0.06899769742853495
3202.0,0.068762053502645
3201.0,0.06852549343287977
3200.0,0.06828719053434545
3199.0,0.0680468426352907
3198.0,0.06780779155219194
3197.0,0.06757193699497817
3196.0,0.06733572905724747
3195.0,0.06709493156009338
3194.0,0.06684964561897376
3193.0,0.0666014813952815
3192.0,0.06634958887198561
3191.0,0.06609288897570623
3190.0,0.06583287070404606
3189.0,0.06557065143850707
3188.0,0.06530427407461258
3187.0,0.06503244561285561
3186.0,0.0647581273954606
3185.0,0.06448500543084147
3184.0,0.06421313112127254
3183.0,0.06394110443786005
3182.0,0.06366961817410566
3181.0,0.0633994164673093
3180.0,0.06312819636730059
3179.0,0.06285311052775006
3178.0,0.06257492957884135
3177.0,0.062297063889080836
3176.0,0.062021388671551686
3175.0,0.06174668312985594
3174.0,0.061470066402480775
3173.0,0.06118899566120077
3172.0,0.06090349543459669
3171.0,0.06061697745650992
3170.0,0.06033248773046082
3169.0,0.060047689443905226
3168.0,0.05975685644145308
3167.0,0.059458852964105205
3166.0,0.059159781108092425
3165.0,0.05886663121344588
3164.0,0.05858140757609406
3163.0,0.05830205644729175
3162.0,0.058025560287051955
3161.0,0.05774878884075243
3160.0,0.05746957764890097
3159.0,0.05718866132091731
3158.0,0.056908053591565005
3157.0,0.056627249391307886
3156.0,0.056344674995641005
3155.0,0.056062896970585155
3154.0,0.055787331767727724
3153.0,0.05551876970675163
3152.0,0.05525206458104116
3151.0,0.05498370157119426
3150.0,0.05471570776980203
3149.0,0.05444948220900682
3148.0,0.05418100850249928
3147.0,0.05390651997854189
3146.0,0.05362920870911209
3145.0,0.05335631501871138
3144.0,0.05309186715608301
3143.0,0.05283482751321103
3142.0,0.05258161122833479
3141.0,0.052327594704731875
3140.0,0.052068587586012356
3139.0,0.051804260126025424
3138.0,0.05153890494971211
3137.0,0.05127689438860772
3136.0,0.051019532886555786
3135.0,0.05076746913302976
3134.0,0.05052254083840105
3133.0,0.05028470486297268
3132.0,0.05004983114818168
3131.0,0.04981330468409275
3130.0,0.04957402694264492
3129.0,0.04933339536363188
3128.0,0.04909331065285131
3127.0,0.04885663333970282
3126.0,0.048626002653077156
3125.0,0.04840027108386124
3124.0,0.04817504984022944
3123.0,0.04794877858078449
3122.0,0.04772556627126051
3121.0,0.047509578004461844
3120.0,0.047299358159360046
3119.0,0.04709003723224236
3118.0,0.04687840271871437
3117.0,0.04666407463609321
3116.0,0.04644887626124174
3115.0,0.04623734365127207
3114.0,0.04603476625623138
3113.0,0.04584148509197145
3112.0,0.045651624943314456
3111.0,0.045460010832370286
3110.0,0.045267847029629125
3109.0,0.045079721292803784
3108.0,0.04489739977401916
3107.0,0.04471896015745054
3106.0,0.04454172736059632
3105.0,0.04436348901112675
3104.0,0.044183129154131834
3103.0,0.04400231417978056
3102.0,0.043824829481495034
3101.0,0.043652360843447015
3100.0,0.04348260309699977
3099.0,0.04331338558278774
3098.0,0.04314580785141731
3097.0,0.04298109956893631
3096.0,0.042817464358220016
3095.0,0.04265287397552887
3094.0,0.042489184398232974
3093.0,0.04232996991234083
3092.0,0.042175173415872326
3091.0,0.04202068795296911
3090.0,0.04186259173347813
3089.0,0.041700225887617536
3088.0,0.041535951536203417
3087.0,0.04137331531166445
3086.0,0.04121456658310114
3085.0,0.04105876391797591
3084.0,0.04090298187164223
3083.0,0.040745507709489905
3082.0,0.04058667892623435
3081.0,0.0404265247873296
3080.0,0.040264071417795325
3079.0,0.04009966095659536
3078.0,0.039935310669664874
3077.0,0.039771928115186955
3076.0,0.03960829301212192
3075.0,0.03944358863991852
3074.0,0.03927860217450533
3073.0,0.039114011206282544
3072.0,0.038950037690771114
3071.0,0.038787907365180375
3070.0,0.038628832207166675
3069.0,0.03847081045885901
3068.0,0.0383096341130434
3067.0,0.038143322776531305
3066.0,0.03797253636535372
3065.0,0.03779691696343695
3064.0,0.03761555009261597
3063.0,0.03743187363089068
3062.0,0.03725216026401565
3061.0,0.037077123898352694
3060.0,0.03689959820880358
3059.0,0.03671339811984087
3058.0,0.03652057862185959
3057.0,0.03632638995848034
3056.0,0.0361316976973862
3055.0,0.0359339544236911
3054.0,0.035733087997747694
3053.0,0.03553214890526242
3052.0,0.03533370422872925
3051.0,0.035138304420740056
3050.0,0.034944825754816035
3049.0,0.034750694583113514
3048.0,0.034554190750645745
3047.0,0.03435785726125795
3046.0,0.034166195340788005
3045.0,0.033978741147220784
3044.0,0.033789193088065134
3043.0,0.0335943570871028
3042.0,0.03339915797999384
3041.0,0.03321004898073871
3040.0,0.03302736143087321
3039.0,0.032847885811426114
3038.0,0.032670875246174264
3037.0,0.0324965291244708
3036.0,0.032322145698115846
3035.0,0.03214485747030327
3034.0,0.031966616134385124
3033.0,0.03179156452775546
3032.0,0.031620313134031804
3031.0,0.03145038068748047
3030.0,0.0312804831731722
3029.0,0.031110238352799975
3028.0,0.03093776935219572
3027.0,0.030761983568224335
3026.0,0.030585916152742573
3025.0,0.03041363979440822
3024.0,0.03024482052635067
3023.0,0.030075609442763003
3022.0,0.029903873207245545
3021.0,0.029731164311219468
3020.0,0.029561407495395438
3019.0,0.029400436716755116
3018.0,0.029253829992310836
3017.0,0.029120700050585563
3016.0,0.028992185684731057
3015.0,0.02886059659421601
3014.0,0.028728205978095188
3013.0,0.028603017430136143
3012.0,0.028487316304784287
3011.0,0.028375927316795297
3010.0,0.02826367094710859
3009.0,0.02814982433613786
3008.0,0.02803543034480327
3007.0,0.027921198599256524
3006.0,0.027808274957634903
3005.0,0.027697426122161146
3004.0,0.027587452902739014
3003.0,0.027477888347159442
3002.0,0.027372719327384172
3001.0,0.02727788130502127
3000.0,0.027194278296690175
2999.0,0.027116976311119066
2998.0,0.02704147958992619
2997.0,0.026968866528156228
2996.0,0.026904215425021725
2995.0,0.026852329477773714
2994.0,0.026815017312185614
2993.0,0.02679066340849236
2992.0,0.02677659446090829
2991.0,0.026772692193117373
2990.0,0.026781924503525057
2989.0,0.026806019636982755
2988.0,0.026842777141742026
2987.0,0.0268893676798683
2986.0,0.026946436183500653
2985.0,0.02701652201143093
2984.0,0.027101025696333946
2983.0,0.027201575459427498
2982.0,0.027322207557395475
2981.0,0.02746651179394603
2980.0,0.02763438911833793
2979.0,0.027824731729982313
2978.0,0.028040297041447143
2977.0,0.028286892269305877
2976.0,0.028569876344861734
2975.0,0.028894306482528657
2974.0,0.029266961581149054
2973.0,0.029694449986087848
2972.0,0.030180018498278605
2971.0,0.030725142745681493
2970.0,0.03133232957509562
2969.0,0.03200280758193159
2968.0,0.03273287651656522
2967.0,0.03351605067813483
2966.0,0.03434635476754942
2965.0,0.03521379659713945
2964.0,0.036095691495761015
2963.0,0.03695595597350333
2962.0,0.03775255584048587
2961.0,0.038448006411216804
2960.0,0.03901741478942443
2959.0,0.0394542118203725
2958.0,0.03977196814522737
2957.0,0.04000012918289927
2956.0,0.040177304368589246
2955.0,0.04034355060451726
2954.0,0.04052883733783245
2953.0,0.04073709479585908
2952.0,0.04093697010160628
2951.0,0.04107039615175463
2950.0,0.04107380504836576
2949.0,0.04089665155164887
2948.0,0.040515644033961844
2947.0,0.03994168119614773
2946.0,0.03921983082716583
2945.0,0.038418636557358464
2944.0,0.03761452727101249
2943.0,0.03687939479471053
2942.0,0.03627162170500539
2941.0,0.03582968784894668
2940.0,0.03556837360676848
2939.0,0.03548397469579254
2938.0,0.035563452149803956
2937.0,0.03578895936618097
2936.0,0.036140572119601214
2935.0,0.036601117947389204
2934.0,0.03715905215198944
2933.0,0.03780545262871462
2932.0,0.038527286664434834
2931.0,0.03930480190247389
2930.0,0.0401129546095344
2929.0,0.040923426672576375
2928.0,0.04170834279599904
2927.0,0.04244570779107908
2926.0,0.043120961889786015
2925.0,0.04372405701077181
2924.0,0.04424959593432097
2923.0,0.044700472526695824
2922.0,0.04508443229831381
2921.0,0.045398358699503864
2920.0,0.04561632478280858
2919.0,0.045694851106378685
2918.0,0.04559202430466957
2917.0,0.04528400699144734
2916.0,0.04477436099223953
2915.0,0.044097151243369936
2914.0,0.0433102603430025
2913.0,0.04248154330363857
2912.0,0.04167099916989156
2911.0,0.04091954696619388
2910.0,0.040246300840565685
2909.0,0.03964972528480031
2908.0,0.0391118312987533
2907.0,0.038606331547589405
2906.0,0.03810882360254471
2905.0,0.03760218108840218
2904.0,0.03707776202608203
2903.0,0.03653299784210154
2902.0,0.03596869808538991
2901.0,0.03538714900843612
2900.0,0.03479332271270112
2899.0,0.034197288280700844
2898.0,0.03361192407289106
2897.0,0.033047266730382094
2896.0,0.03250850570098445
2895.0,0.03200109783997908
2894.0,0.031534387590185516
2893.0,0.031116959997486475
2892.0,0.030750521594490716
2891.0,0.03043060664455105
2890.0,0.03015292730812536
2889.0,0.029915914306354388
2888.0,0.029719533907347533
2887.0,0.029564110366786953
2886.0,0.029449648831282205
2885.0,0.029374351090622877
2884.0,0.029335745184280025
2883.0,0.029335079507690296
2882.0,0.029377125280606615
2881.0,0.029460755610454564
2880.0,0.029569902681993856
2879.0,0.029676155473534284
2878.0,0.02975115627839403
2877.0,0.02977734649762687
2876.0,0.029753976808182994
2875.0,0.029698401638392102
2874.0,0.029639615548739482
2873.0,0.029604171379222905
2872.0,0.02960426504747341
2871.0,0.029638986809623447
2870.0,0.029701800154993793
2869.0,0.029779734201003653
2868.0,0.02984605483927001
2867.0,0.029860405648122774
2866.0,0.029779926272862807
2865.0,0.029575763330178674
2864.0,0.02924449491046972
2863.0,0.02881387307673969
2862.0,0.028336661912017908
2861.0,0.027873345906789495
2860.0,0.027470684817556296
2859.0,0.02715204752273001
2858.0,0.026920402933161457
2857.0,0.02676410709097786
2856.0,0.02666123623744016
2855.0,0.02658588315796931
2854.0,0.026513475470581055
2853.0,0.026421269379776933
2852.0,0.02628604210450097
2851.0,0.026090027753575273
2850.0,0.02583285225967028
2849.0,0.025539357606252762
2848.0,0.025253050570305007
2847.0,0.025022718643837823
2846.0,0.024888094946818012
2845.0,0.02487135136959376
2844.0,0.02497503269789276
2843.0,0.02518518029181024
2842.0,0.025474804689414484
2841.0,0.025803325678280135
2840.0,0.02611763839135068
2839.0,0.02635925158063661
2838.0,0.02647361622546584
2837.0,0.02641657885731099
2836.0,0.026161328937400894
2835.0,0.025708975673994123
2834.0,0.025094474583528655
2833.0,0.024377655014550415
2832.0,0.02362212257886969
2831.0,0.02287921482090159
2830.0,0.0221834995840293
2829.0,0.021554729760709285
2828.0,0.021000038302653
2827.0,0.02051570102689779
2826.0,0.020091752553696867
2825.0,0.01971544846182232
2824.0,0.01937501376692027
2823.0,0.019062938746801206
2822.0,0.018776694778797242
2821.0,0.01851441490885521
2820.0,0.01827130163047818
2819.0,0.01804235214993694
2818.0,0.017827128761340277
2817.0,0.017628067663442083
2816.0,0.017445109822586242
2815.0,0.01727499809436481
2814.0,0.017115183438769447
2813.0,0.016964633471223962
2812.0,0.016820930756630062
2811.0,0.016679942383738187
2810.0,0.016539019241308912
2809.0,0.01639785857296389
2808.0,0.01625628742158945
2807.0,0.016113613554038127
2806.0,0.015970429878374444
2805.0,0.015828647014217045
2804.0,0.01568965334221011
2803.0,0.015553996422158767
2802.0,0.01542248539916961
2801.0,0.01529595487382673
2800.0,0.015174928743137084
2799.0,0.015060949667403279
2798.0,0.014956436286727114
2797.0,0.014860829731993798
2796.0,0.014768901833651498
2795.0,0.014675778296362714
2794.0,0.014581489896867162
2793.0,0.01448753948835526
2792.0,0.014391425510798792
2791.0,0.014289266024110996
2790.0,0.014182499233647401
2789.0,0.014076993005385367
2788.0,0.013975713543227795
2787.0,0.013876306738860318
2786.0,0.013776274628847113
2785.0,0.013676748510668291
2784.0,0.013580274074770795
2783.0,0.013487992753324442
2782.0,0.013399747403244167
2781.0,0.01331458528550103
2780.0,0.013230919585659478
2779.0,0.013148215155919865
2778.0,0.01306812993888564
2777.0,0.012991974310160682
2776.0,0.012918263288380548
2775.0,0.012845215854671955
2774.0,0.012774293299841944
2773.0,0.01270825009498124
2772.0,0.012646683096537487
2771.0,0.012586763858618592
2770.0,0.012527491053837152
2769.0,0.012469834273796002
2768.0,0.012413377098928752
2767.0,0.012356105895558578
2766.0,0.012297343913803636
2765.0,0.012238065474740179
2764.0,0.01217877185384635
2763.0,0.01211973676674844
2762.0,0.012062485776828894
2761.0,0.01200813615879112
2760.0,0.01195498002033022
2759.0,0.011900536782236966
2758.0,0.01184513945556887
2757.0,0.011790853513037745
2756.0,0.011738007737871923
2755.0,0.01168576076945595
2754.0,0.01163504428870565
2753.0,0.011587717209573885
2752.0,0.011543552037403195
2751.0,0.011500806646408077
2750.0,0.011458691416936881
2749.0,0.011416617266595342
2748.0,0.011372724052768868
2747.0,0.011326518697544596
2746.0,0.011281556405794356
2745.0,0.011241909858257298
2744.0,0.011207041342633915
2743.0,0.011173542047580387
2742.0,0.011140511205802667
2741.0,0.01110936420700953
2740.0,0.011079585586569301
2739.0,0.011048958685045131
2738.0,0.011017436004791627
2737.0,0.010986966682621918
2736.0,0.01095794395059621
2735.0,0.010929362309124717
2734.0,0.010902029756326754
2733.0,0.010878127812916919
2732.0,0.010858018177778449
2731.0,0.010840765229258942
2730.0,0.010826919920579166
2729.0,0.010817222273411949
2728.0,0.010809318795213105
2727.0,0.01079942690637963
2726.0,0.01078672613733556
2725.0,0.010772636280992287
2724.0,0.01075632681781229
2723.0,0.010734208765579047
2722.0,0.010703545758756181
2721.0,0.010663431056169174
2720.0,0.010613343174091558
2719.0,0.01055435688458803
2718.0,0.010490950375074934
2717.0,0.010427839102392979
2716.0,0.010365608652055514
2715.0,0.010302733031022117
2714.0,0.01024092592170499
2713.0,0.01018460684789097
2712.0,0.01013527280201665
2711.0,0.010090175057923399
2710.0,0.010046515567242441
2709.0,0.010003540437447075
2708.0,0.009960809129535373
2707.0,0.009917577036674185
2706.0,0.009873755169577489
2705.0,0.009828921175780731
2704.0,0.009781539556896547
2703.0,0.009732021786157645
2702.0,0.00968504919515111
2701.0,0.009644957021369242
2700.0,0.00961004469114756
2699.0,0.009575239933963978
2698.0,0.009539376498322222
2697.0,0.009505909916522868
2696.0,0.009477274534141508
2695.0,0.009452686847516427
2694.0,0.009430756408459574
2693.0,0.009409993240283937
2692.0,0.00938739005220864
2691.0,0.009360870803628006
2690.0,0.009332886511157629
2689.0,0.009307435449511112
2688.0,0.009283748813058079
2687.0,0.009257255203449454
2686.0,0.009226720263676215
2685.0,0.009195956877776352
2684.0,0.009168030004714486
2683.0,0.009141848483678059
2682.0,0.009115564472973943
2681.0,0.009089603473774828
2680.0,0.00906518667187475
2679.0,0.0090426294847416
2678.0,0.009021721945887056
2677.0,0.00900130392708429
2676.0,0.008978447266525401
2675.0,0.00895082988820968
2674.0,0.008920151186527786
2673.0,0.008890703131784153
2672.0,0.008864714866104947
2671.0,0.008841415774112307
2670.0,0.00881985040325334
2669.0,0.008799815488498357
2668.0,0.008780789393878352
2667.0,0.008763347073869363
2666.0,0.00875110597549935
2665.0,0.008747802866805578
2664.0,0.008752226626677122
2663.0,0.008758921660516568
2662.0,0.008763559141356538
2661.0,0.008765254943386366
2660.0,0.008764358668948393
2659.0,0.00876134610895809
2658.0,0.008757591034931156
2657.0,0.008754011646728546
2656.0,0.008748882431555612
2655.0,0.008739617341004733
2654.0,0.008726332309938124
2653.0,0.008711189610353517
2652.0,0.008695019472129204
2651.0,0.008677503591627387
2650.0,0.008659778417744712
2649.0,0.008643635913105066
2648.0,0.008628718882135985
2647.0,0.008613483238270835
2646.0,0.008598048031783866
2645.0,0.008583221710716366
2644.0,0.008568064995459406
2643.0,0.0085518116213523
2642.0,0.008536844444337116
2641.0,0.008525778392323118
2640.0,0.008516447932356678
2639.0,0.008503552492901398
2638.0,0.008484711591668352
2637.0,0.008461747621992963
2636.0,0.008437556954416246
2635.0,0.008415470706454802
2634.0,0.008399728765746864
2633.0,0.008391920727609642
2632.0,0.008387579642812375
2631.0,0.008380529380631913
2630.0,0.008369677751094979
2629.0,0.008357736472534984
2628.0,0.008345153858503325
2627.0,0.008330409661123287
2626.0,0.00831504654351196
2625.0,0.00830308818535385
2624.0,0.008295510423152054
2623.0,0.008289692871508875
2622.0,0.008283715338518077
2621.0,0.008277039860902849
2620.0,0.00826805020081485
2619.0,0.008255399575999129
2618.0,0.008240972856480311
2617.0,0.008227498368523867
2616.0,0.008214447725557017
2615.0,0.008199988982743009
2614.0,0.008184588150622254
2613.0,0.008167972916003697
2612.0,0.008145735033878254
2611.0,0.008115171139514127
2610.0,0.008082261257061593
2609.0,0.008056040151195501
2608.0,0.008036951656200223
2607.0,0.008017659648585364
2606.0,0.007994474973648929
2605.0,0.007971064267340042
2604.0,0.007951027049078139
2603.0,0.007933524397697338
2602.0,0.00791709213717934
2601.0,0.007901868254037403
2600.0,0.007886906219870357
2599.0,0.007870265955447328
2598.0,0.007852435569246054
2597.0,0.007835673134518073
2596.0,0.007820110126596315
2595.0,0.007804504876546417
2594.0,0.007790015615955086
2593.0,0.0077788666332882315
2592.0,0.007770198947985706
2591.0,0.007761366065393913
2590.0,0.0077521009528156645
2589.0,0.007743596944682643
2588.0,0.007735534926348785
2587.0,0.007728187599592018
2586.0,0.007724434574928392
2585.0,0.0077247720006941335
2584.0,0.007723375399859272
2583.0,0.0077145658343382925
2582.0,0.007700280580931461
2581.0,0.007685507095835717
2580.0,0.007669888528253814
2579.0,0.0076507085341489655
2578.0,0.007630827547615099
2577.0,0.007615835562124435
2576.0,0.0076050976009082675
2575.0,0.007592752453548688
2574.0,0.007576093688862945
2573.0,0.007556319633573283
2572.0,0.0075330230253175135
2571.0,0.007505170887132286
2570.0,0.007476207049790138
2569.0,0.0074513613045148405
2568.0,0.007430815198954848
2567.0,0.007411257199288292
2566.0,0.007392452630620255
2565.0,0.007376446132606658
2564.0,0.007362618949276837
2563.0,0.0073496686002486235
2562.0,0.007339679242082599
2561.0,0.007333676785416746
2560.0,0.007326353342596832
2559.0,0.007312395938905189
2558.0,0.007295075861915681
2557.0,0.007281130600722347
2556.0,0.0072701469661302
2555.0,0.007256783798639499
2554.0,0.007240709639923654
2553.0,0.007225832011800177
2552.0,0.007212123963604981
2551.0,0.007197097961823527
2550.0,0.007183354453481563
2549.0,0.007175670511940434
2548.0,0.007171714047795299
2547.0,0.007164153605645588
2546.0,0.007151233959758947
2545.0,0.007137356710140609
2544.0,0.007124427316111593
2543.0,0.007110770826924083
2542.0,0.007097587857982977
2541.0,0.00708821921548973
2540.0,0.007081263964104302
2539.0,0.007072203445451474
2538.0,0.00706150112662907
2537.0,0.0070537693193985715
2536.0,0.007049455079369739
2535.0,0.007044305377418446
2534.0,0.007036491284532827
2533.0,0.007027622897211322
2532.0,0.0070175991105414694
2531.0,0.007005218386776581
2530.0,0.006992988996553844
2529.0,0.006984670992483481
2528.0,0.006978725314662681
2527.0,0.0069701170424980065
2526.0,0.0069576115468682025
2525.0,0.0069439106035861925
2524.0,0.00693053080019774
2523.0,0.006918005238311445
2522.0,0.00690829086379026
2521.0,0.006900996804209123
2520.0,0.006890591695107355
2519.0,0.006874064964641941
2518.0,0.006857936107303003
2517.0,0.006850227589546418
2516.0,0.0068484260491138045
2515.0,0.006843124168224082
2514.0,0.006830919583687863
2513.0,0.006816008278312961
2512.0,0.006801580421552166
2511.0,0.006787319470311125
2510.0,0.00677333696082374
2509.0,0.006759621152382742
2508.0,0.006743874052245471
2507.0,0.006726199163245495
2506.0,0.006712468179417397
2505.0,0.006706200685603537
2504.0,0.006701309327808443
2503.0,0.006690716289178055
2502.0,0.006677757542075
2501.0,0.006670106144016209
2500.0,0.006666297810716745
2499.0,0.0066579590882477205
2498.0,0.0066428446376142316
2497.0,0.0066264030205596
2496.0,0.0066125486407232975
2495.0,0.0066017053840124835
2494.0,0.006595789869809758
2493.0,0.006596025098535867
2492.0,0.0065971917672171185
2491.0,0.006592359914905014
2490.0,0.00658182398581825
2489.0,0.006569975162007467
2488.0,0.006556304813735671
2487.0,0.006538031760024805
2486.0,0.006518859748234343
2485.0,0.006505795944460377
2484.0,0.006498805468675642
2483.0,0.006491994360756632
2482.0,0.00648331671350967
2481.0,0.006475030507699481
2480.0,0.006466490407134608
2479.0,0.006454799666110463
2478.0,0.006441259838662338
2477.0,0.00642969970110487
2476.0,0.006420037682878155
2475.0,0.006410281849951434
2474.0,0.006402148406634865
2473.0,0.006397500994002171
2472.0,0.006392558974419434
2471.0,0.006383369834416591
2470.0,0.006373519025160539
2469.0,0.006368429489345492
2468.0,0.006365878301683749
2467.0,0.006360803099859032
2466.0,0.006355643699395798
2465.0,0.006356480023359713
2464.0,0.006362033442237671
2463.0,0.006365885576447228
2462.0,0.006366863050667813
2461.0,0.006368179202365939
2460.0,0.006369394791535285
2459.0,0.006368712444116448
2458.0,0.0063702108701383965
2457.0,0.0063787534999749426
2456.0,0.006389921652931598
2455.0,0.006394629679891271
2454.0,0.006391679902506931
2453.0,0.006386415715929502
2452.0,0.006379401275404219
2451.0,0.006366616366659305
2450.0,0.0063494210029573115
2449.0,0.006334537200371823
2448.0,0.006324947240903856
2447.0,0.006319238007902459
2446.0,0.006317848899302063
2445.0,0.006320993235149304
2444.0,0.006322861135754928
2443.0,0.006317562995603359
2442.0,0.006309038272997646
2441.0,0.006305856011733822
2440.0,0.006308081404025892
2439.0,0.006308377020903235
2438.0,0.006303992328017733
2437.0,0.006298408148449962
2436.0,0.006293190065303971
2435.0,0.0062874509885753275
2434.0,0.0062832937227392275
2433.0,0.006282548784516049
2432.0,0.006280207060855377
2431.0,0.006270347778652891
2430.0,0.00625645402420431
2429.0,0.006246688174074039
2428.0,0.0062413534352861256
2427.0,0.006234402448797732
2426.0,0.006224800139829753
2425.0,0.006216561434027892
2424.0,0.006209737513921683
2423.0,0.006201307701718414
2422.0,0.006193158669348715
2421.0,0.006189322944003283
2420.0,0.0061870183024725
2419.0,0.006180015712468194
2418.0,0.006169035183577668
2417.0,0.006159488022867236
2416.0,0.006151090497088147
2415.0,0.006139312806941018
2414.0,0.006125567851503431
2413.0,0.00611668999564209
2412.0,0.006115205961382126
2411.0,0.00611771262535045
2410.0,0.006120372321653363
2409.0,0.0061183411551847195
2408.0,0.006104244188055661
2407.0,0.0060774283178688365
2406.0,0.006051038384425342
2405.0,0.006038958125809355
2404.0,0.00603873770745025
2403.0,0.006037758571525084
2402.0,0.006032214219338425
2401.0,0.006028188264252867
2400.0,0.00602699440740089
2399.0,0.006022689081568935
2398.0,0.006013897941120033
2397.0,0.006006061217156387
2396.0,0.006000941406876053
2395.0,0.005994595363669358
2394.0,0.0059866801917981645
2393.0,0.005981563974975835
2392.0,0.005979334131652584
2391.0,0.0059751961564142655
2390.0,0.005968953232106134
2389.0,0.0059667615617999764
2388.0,0.0059723756413313095
2387.0,0.005983849958446871
2386.0,0.005998644366169297
2385.0,0.006013992283197741
2384.0,0.006022359746140426
2383.0,0.0060145270110562535
2382.0,0.005987443649822757
2381.0,0.005942457919317053
2380.0,0.005877875941697922
2379.0,0.005793922126697998
2378.0,0.005705255737556953
2377.0,0.005635896585405551
2376.0,0.005598367996966972
2375.0,0.005587952556091229
2374.0,0.005598169030243691
2373.0,0.005627762458577307
2372.0,0.005668734091220285
2371.0,0.005703244580669396
2370.0,0.0057202500144040574
2369.0,0.005723461124248834
2368.0,0.0057198305031108026
2367.0,0.0057129294762301355
2366.0,0.00570717617608968
2365.0,0.005704629912304423
2364.0,0.005700500911239505
2363.0,0.005695215756600908
2362.0,0.005702343328732773
2361.0,0.005726596518597405
2360.0,0.005750491962938419
2359.0,0.005756386277444654
2358.0,0.005744674984740639
2357.0,0.005719587092855225
2356.0,0.005677994399677244
2355.0,0.005624043700376865
2354.0,0.0055710480321646775
2353.0,0.005536419159710261
2352.0,0.005537003837208508
2351.0,0.005578848480330525
2350.0,0.005647640839733406
2349.0,0.005713912009615121
2348.0,0.005754141614500989
2347.0,0.005761567244488736
2346.0,0.005750396013858003
2345.0,0.005745702592213012
2344.0,0.005760492932930541
2343.0,0.0057883124569172275
2342.0,0.005812016000525369
2341.0,0.005822217337314658
2340.0,0.005819365226862952
2339.0,0.005809442014222049
2338.0,0.005797983462215138
2337.0,0.005786424943763445
2336.0,0.005776150138703912
2335.0,0.005771452969086629
2334.0,0.005773977967633944
2333.0,0.00577812047490442
2332.0,0.005777437804463107
2331.0,0.005774046353762261
2330.0,0.0057864609742480765
2329.0,0.0058370567190488675
2328.0,0.005941267739032832
2327.0,0.00609623225796242
2326.0,0.006276929528890968
2325.0,0.0064362336110476495
2324.0,0.006520692364665457
2323.0,0.006509759583300874
2322.0,0.006436453816552627
2321.0,0.00635886097949277
2320.0,0.0063080008533529675
2319.0,0.0062792331581118565
2318.0,0.006261417140843108
2317.0,0.0062497992319891105
2316.0,0.006239956960991853
2315.0,0.006227823507842258
2314.0,0.006219696415705335
2313.0,0.006224107737355574
2312.0,0.006238619895540489
2311.0,0.006252484408321734
2310.0,0.006263337395919294
2309.0,0.006276139923193916
2308.0,0.00628997128931215
2307.0,0.006299631340547316
2306.0,0.006307949717220291
2305.0,0.006322832483501936
2304.0,0.006342160389288882
2303.0,0.006355996613394984
2302.0,0.006362874905045487
2301.0,0.006371303892923639
2300.0,0.006385176270487516
2299.0,0.006399877632120012
2298.0,0.006414459667248022
2297.0,0.006433347108747061
2296.0,0.006457239657626378
2295.0,0.0064817933267651145
2294.0,0.006506751727555161
2293.0,0.006534485351850432
2292.0,0.006561338336607962
2291.0,0.00658112833469462
2290.0,0.0065960106488535414
2289.0,0.0066132156968841645
2288.0,0.006631876513838025
2287.0,0.006645168214711899
2286.0,0.006652851883937461
2285.0,0.006659505767214484
2284.0,0.006661103047201763
2283.0,0.0066481956325970155
2282.0,0.0066217510174208655
2281.0,0.006593557238388265
2280.0,0.006571112033566964
2279.0,0.006554934098340702
2278.0,0.006547399471277157
2277.0,0.006549596625815087
2276.0,0.006552371802977749
2275.0,0.006545701261905411
2274.0,0.006534693621414946
2273.0,0.006530649186880842
2272.0,0.006531208803962083
2271.0,0.006525619811736027
2270.0,0.006514786202497905
2269.0,0.006506774920980738
2268.0,0.006497505854641412
2267.0,0.00647766764881096
2266.0,0.006455572591808617
2265.0,0.006450380968238053
2264.0,0.006462934538340004
2263.0,0.00647525230354918
2262.0,0.006479188574297487
2261.0,0.006484812874766885
2260.0,0.006499177500491923
2259.0,0.006516024055724478
2258.0,0.006527077075603315
2257.0,0.006526473584918922
2256.0,0.006506244105977461
2255.0,0.006466585210272516
2254.0,0.006427785372484374
2253.0,0.006411446553787567
2252.0,0.006412888393958841
2251.0,0.0064118676875690225
2250.0,0.00640551309219875
2249.0,0.006407929702298731
2248.0,0.006422005471964157
2247.0,0.006436671468525054
2246.0,0.006449980476827556
2245.0,0.0064697718079899345
2244.0,0.006491704305445974
2243.0,0.006501143687666293
2242.0,0.006497590291107208
2241.0,0.0064941427554744266
2240.0,0.006493066713451396
2239.0,0.006484647349278953
2238.0,0.0064697556611818
2237.0,0.006461016230166178
2236.0,0.0064614324716905916
2235.0,0.006463467119375193
2234.0,0.0064676858641555205
2233.0,0.006480077565439575
2232.0,0.0064931891415779125
2231.0,0.0064930024558369
2230.0,0.006482288104603957
2229.0,0.006474947506602097
2228.0,0.006471754924145966
2227.0,0.006464085575398761
2226.0,0.00645532506324577
2225.0,0.0064534933883916385
2224.0,0.00644966239596962
2223.0,0.006430812410976917
2222.0,0.006407457972269351
2221.0,0.006400680104454355
2220.0,0.006408125903571748
2219.0,0.006412253162752908
2218.0,0.006414655028526193
2217.0,0.006429362702655403
2216.0,0.006448409446106786
2215.0,0.006448735764981437
2214.0,0.006430783455379814
2213.0,0.006417973258817908
2212.0,0.006418991864189996
2211.0,0.00642148396179758
2210.0,0.006420879712157779
2209.0,0.006424222834328078
2208.0,0.0064282275742235636
2207.0,0.006423673110089736
2206.0,0.006418374147165279
2205.0,0.006426500997324422
2204.0,0.006440013304750641
2203.0,0.00644084549198493
2202.0,0.00643437358128286
2201.0,0.006438832105368736
2200.0,0.006449979991395729
2199.0,0.006449811352540837
2198.0,0.006442115125229229
2197.0,0.006445072979773939
2196.0,0.0064566518296726395
2195.0,0.006462454346464534
2194.0,0.006468604860195408
2193.0,0.006489663429757439
2192.0,0.00651413710890983
2191.0,0.006521788076633734
2190.0,0.006524726770852246
2189.0,0.00654894692234756
2188.0,0.006584391683702975
2187.0,0.006596882237602995
2186.0,0.006581016833337304
2185.0,0.006556091749824893
2184.0,0.006518703692404102
2183.0,0.006451070280094852
2182.0,0.006372966516748002
2181.0,0.006331858563425459
2180.0,0.0063393352825808795
2179.0,0.006364125598904938
2178.0,0.006382915796592048
2177.0,0.006391368671431507
2176.0,0.006376408188466867
2175.0,0.006330888875845699
2174.0,0.006290288628993232
2173.0,0.00630254686425781
2172.0,0.006364844025078509
2171.0,0.00643837217411279
2170.0,0.006514045584977698
2169.0,0.006609812701187306
2168.0,0.006712155508369085
2167.0,0.0067795955361751575
2166.0,0.006809863675397819
2165.0,0.0068498710796159505
2164.0,0.006926703810375646
2163.0,0.007010581396826055
2162.0,0.007041530489542448
2161.0,0.006946301430351777
2160.0,0.006654232227330379
2159.0,0.0061833528561891825
2158.0,0.005702962487175757
2157.0,0.00540670825405091
2156.0,0.005328665084062434
2155.0,0.005365491038792347
2154.0,0.005431434170187781
2153.0,0.0055071653778583085
2152.0,0.005581184756534488
2151.0,0.005629894322368579
2150.0,0.005653134419019467
2149.0,0.005669502865529011
2148.0,0.005673840050533997
2147.0,0.005647762469222602
2146.0,0.0056070966373826135
2145.0,0.005590164960640276
2144.0,0.005602718783638225
2143.0,0.005619667534644713
2142.0,0.0056339478849789385
2141.0,0.00565664956853816
2140.0,0.005676163732243288
2139.0,0.005663832482474523
2138.0,0.005616372871243577
2137.0,0.005552357569250425
2136.0,0.005473904672295079
2135.0,0.0053753737921345855
2134.0,0.005283006518491411
2133.0,0.005239153411151634
2132.0,0.005249119248481962
2131.0,0.0052834349516447925
2130.0,0.0053264858354161
2129.0,0.005383153910590343
2128.0,0.005444610573069356
2127.0,0.0054878682549046745
2126.0,0.005510339366485962
2125.0,0.005532112749505345
2124.0,0.0055618167945885
2123.0,0.005588713715392982
2122.0,0.005608414861081339
2121.0,0.0056284224658503705
2120.0,0.005648412764296196
2119.0,0.005662373919765229
2118.0,0.005679261109931409
2117.0,0.005714194154956399
2116.0,0.005759703687540236
2115.0,0.005792413648089886
2114.0,0.005807225400333447
2113.0,0.005818225510613181
2112.0,0.005828200685914357
2111.0,0.0058262996113736
2110.0,0.005815800137883731
2109.0,0.005814441374465768
2108.0,0.005825014095819099
2107.0,0.005833023893260486
2106.0,0.0058339354418848015
2105.0,0.005835368215962936
2104.0,0.005833455449122775
2103.0,0.005816582172575047
2102.0,0.005791938738570675
2101.0,0.005779394131412898
2100.0,0.00577841932331011
2099.0,0.005769020193641511
2098.0,0.005744093753528743
2097.0,0.005712395563469812
2096.0,0.0056745595271444575
2095.0,0.005628293940160711
2094.0,0.005593300237500391
2093.0,0.005595460604314446
2092.0,0.005627394733141121
2091.0,0.005656601595540468
2090.0,0.005669768546515273
2089.0,0.0056787930021475605
2088.0,0.005687714633339345
2087.0,0.005688057571725018
2086.0,0.00568567780936988
2085.0,0.005698065875496042
2084.0,0.005722818622942714
2083.0,0.005740049227053836
2082.0,0.005746621410947636
2081.0,0.005757002337731914
2080.0,0.005770596217851233
2079.0,0.005771430042486004
2078.0,0.005761354523825696
2077.0,0.005759191417109155
2076.0,0.005767313101314865
2075.0,0.0057706849376436345
2074.0,0.005767968779246803
2073.0,0.005769575257778076
2072.0,0.0057666407376042225
2071.0,0.005740887948346138
2070.0,0.005703399385620021
2069.0,0.005684286188398689
2068.0,0.005683920277028303
2067.0,0.005675054841667027
2066.0,0.005652621250105646
2065.0,0.005638457638247965
2064.0,0.0056355924838186475
2063.0,0.005623249293455772
2062.0,0.005600487206568991
2061.0,0.0055906054585602456
2060.0,0.005601034707854298
2059.0,0.005618673402551387
2058.0,0.005641432431932841
2057.0,0.005671282790242181
2056.0,0.0056848969507738625
2055.0,0.005665062083504198
2054.0,0.00565712774182844
2053.0,0.005729750596193651
2052.0,0.0058703838623523725
2051.0,0.005978963008570138
2050.0,0.00598065683304283
2049.0,0.005900016473120499
2048.0,0.005806400448821855
2047.0,0.005735220359203572
2046.0,0.005692955899444458
2045.0,0.005685476270756481
2044.0,0.005702741952711151
2043.0,0.00571839663299397
2042.0,0.005728923721210566
2041.0,0.00575507118896369
2040.0,0.005794276887224544
2039.0,0.005818323569487398
2038.0,0.0058234179458066734
2037.0,0.005827907545521353
2036.0,0.005817351525576071
2035.0,0.005752373395346299
2034.0,0.00564131620336558
2033.0,0.00554385135062942
2032.0,0.0054901831182997685
2031.0,0.005458679497530813
2030.0,0.005439463627173856
2029.0,0.005448770885255055
2028.0,0.005474986570995761
2027.0,0.0054805908695447735
2026.0,0.005464839964338837
2025.0,0.005461256983716125
2024.0,0.005468852737642895
2023.0,0.005454073406739186
2022.0,0.00542076712165436
2021.0,0.005409040109004885
2020.0,0.0054233029190093535
2019.0,0.005428232384966988
2018.0,0.005417661114990859
2017.0,0.0054190529397601115
2016.0,0.005428279995872385
2015.0,0.005412562195433109
2014.0,0.005379036989279276
2013.0,0.005368578570204572
2012.0,0.005382036326918529
2011.0,0.005379371687318993
2010.0,0.005350463117259568
2009.0,0.005317750386686104
2008.0,0.005273612623746119
2007.0,0.0051909251544212
2006.0,0.005095580768504432
2005.0,0.005052548721135574
2004.0,0.005071566374929255
2003.0,0.005101507001429322
2002.0,0.00511276580090478
2001.0,0.005118604340043512
2000.0,0.0051230154438308
1999.0,0.005108084918216358
1998.0,0.005082445044382797
1997.0,0.00508256267290321
1996.0,0.005115346489827177
1995.0,0.0051498214946307744
1994.0,0.005168403394556184
1993.0,0.005180213327099159
1992.0,0.005185943289313628
1991.0,0.005178265801009041
1990.0,0.0051761865151631545
1989.0,0.005206077988649451
1988.0,0.0052515751775168
1987.0,0.005275801992970633
1986.0,0.005284643145210165
1985.0,0.005314348234878315
1984.0,0.005366493503827029
1983.0,0.005417803505722979
1982.0,0.0054774229401281845
1981.0,0.005561674002804243
1980.0,0.0056215900242196646
1979.0,0.00557208469216866
1978.0,0.005410833272171911
1977.0,0.005231285598122555
1976.0,0.005097906901648372
1975.0,0.004996478132292125
1974.0,0.004917962667331705
1973.0,0.004885356178418077
1972.0,0.004885824514304313
1971.0,0.004870814435757725
1970.0,0.004834750998276279
1969.0,0.004816679966146743
1968.0,0.004820985948435233
1967.0,0.004812943492625327
1966.0,0.004793264480877732
1965.0,0.004795245638772022
1964.0,0.004809429724318031
1963.0,0.00478988712670978
1962.0,0.00473252185678059
1961.0,0.004678597822392307
1960.0,0.004641408041615325
1959.0,0.004599519930099243
1958.0,0.004560827183949264
1957.0,0.00455701340190252
1956.0,0.004578566303059995
1955.0,0.004583370490310377
1954.0,0.004567953932564219
1953.0,0.004565737094829212
1952.0,0.004577104070182588
1951.0,0.004572047653717406
1950.0,0.004552408043087802
1949.0,0.0045468035187652125
1948.0,0.0045507282561744805
1947.0,0.004533445432562766
1946.0,0.004500807618304967
1945.0,0.00448666424508103
1944.0,0.00448444730285594
1943.0,0.004456732468818577
1942.0,0.004414570799848731
1941.0,0.004408082678965111
1940.0,0.004439553536613222
1939.0,0.004462627579604311
1938.0,0.004457701657799037
1937.0,0.004447004675247173
1936.0,0.0044398969465715005
1935.0,0.004417752759467697
1934.0,0.0043826616158729945
1933.0,0.004363625173097956
1932.0,0.004362928240609907
1931.0,0.0043579191134112015
1930.0,0.004345292707095244
1929.0,0.0043417335891616044
1928.0,0.004344158383216555
1927.0,0.004334590200086547
1926.0,0.0043274256928035005
1925.0,0.0043457313963294495
1924.0,0.004367365710142735
1923.0,0.004352764853235304
1922.0,0.004314657275116154
1921.0,0.004300188180361117
1920.0,0.0043135693005630915
1919.0,0.004312848550398163
1918.0,0.004287758440059316
1917.0,0.004274942449193824
1916.0,0.004284916389700788
1915.0,0.004288023856355233
1914.0,0.004278083522484649
1913.0,0.004283739798193234
1912.0,0.004310701787923862
1911.0,0.004328114257458626
1910.0,0.004318709268101175
1909.0,0.004303942378572187
1908.0,0.004300073411928824
1907.0,0.004292566004615321
1906.0,0.004277487033541988
1905.0,0.004267482840245067
1904.0,0.004260130287276084
1903.0,0.004242360060669985
1902.0,0.004221002683403437
1901.0,0.004218099424071114
1900.0,0.004231756443482967
1899.0,0.004238126413908673
1898.0,0.004238450649495583
1897.0,0.0042518290810897525
1896.0,0.0042681268444051046
1895.0,0.004257703239610827
1894.0,0.004227499512006878
1893.0,0.0042164206206559566
1892.0,0.0042320400776631175
1891.0,0.004236303402258797
1890.0,0.0042077583795298475
1889.0,0.004177237166380262
1888.0,0.004172104618438027
1887.0,0.004178966828399388
1886.0,0.0041831142396192515
1885.0,0.004189483436199288
1884.0,0.004195861729267706
1883.0,0.004188827129293364
1882.0,0.004171249645646609
1881.0,0.004164643473396565
1880.0,0.004173982311914405
1879.0,0.004177628571309637
1878.0,0.00416766486881238
1877.0,0.004161527838100487
1876.0,0.004161647030502829
1875.0,0.004148338778630516
1874.0,0.004120324969682638
1873.0,0.004103098612623149
1872.0,0.004111812079358519
1871.0,0.0041335437817967445
1870.0,0.004147836919507068
1869.0,0.004151366882601065
1868.0,0.004149719729820875
1867.0,0.004139407561256471
1866.0,0.004125280004317932
1865.0,0.004124462115864752
1864.0,0.004136308468057293
1863.0,0.0041415640366150525
1862.0,0.004135798035360771
1861.0,0.004134435004595062
1860.0,0.0041391635870164315
1859.0,0.004133071900779784
1858.0,0.004114967641455037
1857.0,0.004105476341921354
1856.0,0.0041095360630527275
1855.0,0.0041105307404382535
1854.0,0.004102808188545525
1853.0,0.004100213989054607
1852.0,0.00411333934003143
1851.0,0.0041251815977462886
1850.0,0.004116934147387577
1849.0,0.004090005793547558
1848.0,0.0040542528895341975
1847.0,0.004018371616129271
1846.0,0.003994607564144365
1845.0,0.003991935777735222
1844.0,0.004002485162713729
1843.0,0.004012853747097589
1842.0,0.004024803816751979
1841.0,0.004049130332837972
1840.0,0.004076713206035415
1839.0,0.004084900033212787
1838.0,0.004077062968370791
1837.0,0.004074181617842276
1836.0,0.004072885809232371
1835.0,0.004050499017508889
1834.0,0.004011974379839353
1833.0,0.003997730942242163
1832.0,0.0040282792700767935
1831.0,0.004055698431330503
1830.0,0.004037821149576796
1829.0,0.00401159573098374
1828.0,0.004017263542992745
1827.0,0.004038142962085466
1826.0,0.004045370396185739
1825.0,0.004045095350911292
1824.0,0.004055608725657043
1823.0,0.004068505161595494
1822.0,0.004070353042372797
1821.0,0.0040683366802616505
1820.0,0.0040652486724211245
1819.0,0.004045625904735833
1818.0,0.0040111134832816345
1817.0,0.003986666118114301
1816.0,0.003986997898098664
1815.0,0.004002024201665934
1814.0,0.004022018686953092
1813.0,0.004052461691167427
1812.0,0.004081563504089155
1811.0,0.004087176081322155
1810.0,0.004077901556578152
1809.0,0.004078804849712536
1808.0,0.004088616000878571
1807.0,0.004085207506570167
1806.0,0.004069113771566596
1805.0,0.0040635208950141
1804.0,0.004077237357249962
1803.0,0.004093368438086061
1802.0,0.004096414647018664
1801.0,0.004102434254595154
1800.0,0.004123740530337552
1799.0,0.004145796924033027
1798.0,0.0041532727871189555
1797.0,0.0041465803990314975
1796.0,0.004131436678707791
1795.0,0.004114352680830419
1794.0,0.004107248169342311
1793.0,0.004117870207136497
1792.0,0.004132524335174438
1791.0,0.0041379855298090285
1790.0,0.004141524095498856
1789.0,0.0041562986153580615
1788.0,0.004177041941131203
1787.0,0.004185319247365381
1786.0,0.004179732382333442
1785.0,0.004179814529323449
1784.0,0.004201252175038116
1783.0,0.0042365944543382135
1782.0,0.004261122800552422
1781.0,0.004272034983717253
1780.0,0.004275379165062439
1779.0,0.004268743388295207
1778.0,0.004248263922982201
1777.0,0.004222915053213816
1776.0,0.00421105142695608
1775.0,0.004219925389901388
1774.0,0.004239540613802345
1773.0,0.004252201690612583
1772.0,0.00425714509792964
1771.0,0.0042691464177508085
1770.0,0.004305716071080884
1769.0,0.004369012097233422
1768.0,0.0044334335339730755
1767.0,0.004474481091283368
1766.0,0.004501535396774404
1765.0,0.004547040474428114
1764.0,0.004620825286274367
1763.0,0.004696121235380072
1762.0,0.004758088174693852
1761.0,0.004841374702851526
1760.0,0.004960636052854698
1759.0,0.005097341437755034
1758.0,0.0052352635137846775
1757.0,0.0053838285979104835
1756.0,0.005553801742150655
1755.0,0.005726722212329219
1754.0,0.005899483587922187
1753.0,0.006104680773808157
1752.0,0.006360283655725287
1751.0,0.006629417665691183
1750.0,0.006878426190723208
1749.0,0.007111060960023282
1748.0,0.007329205632056751
1747.0,0.007510848792718336
1746.0,0.007649854946207242
1745.0,0.007768160180729563
1744.0,0.00786102490923609
1743.0,0.007908797157227277
1742.0,0.007939063255296374
1741.0,0.007998540639951668
1740.0,0.008060438863102927
1739.0,0.008063231168576
1738.0,0.008020161848969365
1737.0,0.008008127082890042
1736.0,0.008067969023022467
1735.0,0.00813930587395276
1734.0,0.008165461549164152
1733.0,0.008209578184111652
1732.0,0.008292531236056548
1731.0,0.008356666703299003
1730.0,0.008380428733323583
1729.0,0.008404843402943367
1728.0,0.00846446857425982
1727.0,0.008538752692202795
1726.0,0.008611728235930202
1725.0,0.008706416515114824
1724.0,0.008810264185935321
1723.0,0.008871113801230318
1722.0,0.008888429887207672
1721.0,0.008941874242219273
1720.0,0.009100602546262047
1719.0,0.009321944780109958
1718.0,0.009516680495021017
1717.0,0.009697814520492978
1716.0,0.009898300041503673
1715.0,0.010089188391294067
1714.0,0.010272829715858495
1713.0,0.0104863480711003
1712.0,0.01072721155684893
1711.0,0.010954179589652634
1710.0,0.01115359984454203
1709.0,0.011371089020347747
1708.0,0.01165541457686451
1707.0,0.011985636781785306
1706.0,0.012308380467791652
1705.0,0.01260112036251076
1704.0,0.012848330029709615
1703.0,0.013057245072577413
1702.0,0.013349352866520007
1701.0,0.013925075585954723
1700.0,0.014745127718067574
1699.0,0.015496640065986216
1698.0,0.01610455778237331
1697.0,0.016726029694130014
1696.0,0.017448382437980813
1695.0,0.018177542573223248
1694.0,0.01879825466908013
1693.0,0.019375926736085874
1692.0,0.019998010882382174
1691.0,0.02066695176881374
1690.0,0.021342681977509256
1689.0,0.02198999743268903
1688.0,0.022586412837816018
1687.0,0.02313643191974392
1686.0,0.023758376806196385
1685.0,0.02459684050959156
1684.0,0.025590203146322592
1683.0,0.026472917135177566
1682.0,0.027174328091978412
1681.0,0.027827626862101093
1680.0,0.028474584038366675
1679.0,0.029060966706297774
1678.0,0.02959291430687809
1677.0,0.030202378432193495
1676.0,0.030997952445047147
1675.0,0.03187803089377658
1674.0,0.03264309356625132
1673.0,0.03329207562502944
1672.0,0.03394953557562623
1671.0,0.034686612332844015
1670.0,0.03550034549278701
1669.0,0.036354041507041565
1668.0,0.0371631065039123
1667.0,0.03784085412685845
1666.0,0.03841988196041955
1665.0,0.03903870532915815
1664.0,0.039792468093399105
1663.0,0.04062606001048124
1662.0,0.04140742728203366
1661.0,0.042105398947166556
1660.0,0.04275319690681804
1659.0,0.043321151282926754
1658.0,0.04376244096305234
1657.0,0.04410994973105777
1656.0,0.044466602995596696
1655.0,0.04492492454002646
1654.0,0.0454572542109752
1653.0,0.045984347448581646
1652.0,0.046387624104809747
1651.0,0.04659042402037808
1650.0,0.04671902443972418
1649.0,0.04690547144646445
1648.0,0.04714776615950228
1647.0,0.047326039253900665
1646.0,0.04740322554814428
1645.0,0.047467018173586194
1644.0,0.04755797956067493
1643.0,0.04764136407437008
1642.0,0.0476733136094589
1641.0,0.047658487680593165
1640.0,0.047626372899637115
1639.0,0.04758071993757914
1638.0,0.0475157979630022
1637.0,0.047409758856946115
1636.0,0.0472354971530242
1635.0,0.047012688763595316
1634.0,0.0467912293243745
1633.0,0.04658826746586197
1632.0,0.04637550172993251
1631.0,0.04610614494007372
1630.0,0.04575178830225531
1629.0,0.045313014439298714
1628.0,0.044812671708544506
1627.0,0.04428729528451512
1626.0,0.043762149900875735
1625.0,0.04323404778069695
1624.0,0.042649591858921615
1623.0,0.04197464594787082
1622.0,0.04127853628150611
1621.0,0.04065761052886191
1620.0,0.04012840267127543
1619.0,0.03962206877599961
1618.0,0.03901595160470249
1617.0,0.03823461936294988
1616.0,0.03740387208097356
1615.0,0.036697068893578384
1614.0,0.03612012479498944
1613.0,0.035584548030907846
1612.0,0.035026840447157585
1611.0,0.03444329940728301
1610.0,0.03385489539707273
1609.0,0.03327066781925338
1608.0,0.03269494412413625
1607.0,0.03214908669443872
1606.0,0.031645691165843676
1605.0,0.031175874539816788
1604.0,0.03072280404563906
1603.0,0.030275369694476133
1602.0,0.02983307990978036
1601.0,0.029399779211515143
1600.0,0.028984607305633812
1599.0,0.02859910590495572
1598.0,0.028243872682262784
1597.0,0.02790314605512734
1596.0,0.027559182541212972
1595.0,0.027213027012000672
1594.0,0.02687808898637522
1593.0,0.026560031566215052
1592.0,0.026256083402339495
1591.0,0.025967335816586563
1590.0,0.025695686136977362
1589.0,0.025439194324508585
1588.0,0.025199880137652793
1587.0,0.02498862937318734
1586.0,0.024809242522561427
1585.0,0.024644842292173612
1584.0,0.024489837420618336
1583.0,0.024350057307435776
1582.0,0.02422247577977033
1581.0,0.024099285119101407
1580.0,0.023998781758216892
1579.0,0.023951557889117493
1578.0,0.02395208707293965
1577.0,0.02392981384163862
1576.0,0.02383845699943852
1575.0,0.02373962431494385
1574.0,0.023685168267888003
1573.0,0.02366850026709893
1572.0,0.023678370353297316
1571.0,0.02371943020679566
1570.0,0.02378011330217126
1569.0,0.02384357476575417
1568.0,0.023920806523386073
1567.0,0.024021793285855957
1566.0,0.024138074512049076
1565.0,0.02423313577993677
1564.0,0.024280523913046987
1563.0,0.024281633598690754
1562.0,0.02426861457950489
1561.0,0.024354286491794108
1560.0,0.024604209676808143
1559.0,0.024828848037720667
1558.0,0.02504015149376673
1557.0,0.025286507054302413
1556.0,0.02553426298388008
1555.0,0.025761391121184758
1554.0,0.025955095104540058
1553.0,0.0261291549507185
1552.0,0.02629532597713704
1551.0,0.02643341821139455
1550.0,0.026513985000590375
1549.0,0.026535683572803902
1548.0,0.026529568513721603
1547.0,0.026519577761773182
1546.0,0.02649803422639954
1545.0,0.026428030440718148
1544.0,0.0263022485173901
1543.0,0.02617225905025144
1542.0,0.02609672112322231
1541.0,0.02599821723768936
1540.0,0.025755862988043672
1539.0,0.02546526766628869
1538.0,0.025237541973942998
1537.0,0.025067382616169177
1536.0,0.024925053508752543
1535.0,0.02476714365961903
1534.0,0.024527557612914395
1533.0,0.024229915854585223
1532.0,0.023970882321961273
1531.0,0.023761406273217146
1530.0,0.023558524559919847
1529.0,0.023339282806415854
1528.0,0.023091317756925273
1527.0,0.022803026928786593
1526.0,0.02249138260959722
1525.0,0.02221532591443569
1524.0,0.022013673471767727
1523.0,0.02184370013501067
1522.0,0.02160669223319522
1521.0,0.02131417813241427
1520.0,0.021090619263693006
1519.0,0.020965420121456392
1518.0,0.020851458747465027
1517.0,0.02064857495282411
1516.0,0.02036052512767599
1515.0,0.02006223518484795
1514.0,0.019774668115088583
1513.0,0.019477353733593595
1512.0,0.019156209110643946
1511.0,0.01883526765856038
1510.0,0.0185601332260462
1509.0,0.01834987186802724
1508.0,0.01808113464739295
1507.0,0.01759998042054702
1506.0,0.017141527614523998
1505.0,0.0169133075240295
1504.0,0.016814553217863928
1503.0,0.01672640411525798
1502.0,0.016599499136729635
1501.0,0.016441774991174288
1500.0,0.016294369207047965
1499.0,0.016179524336541653
1498.0,0.016085067403421194
1497.0,0.015993840868113594
1496.0,0.01589542739204996
1495.0,0.01578916272166792
1494.0,0.015691589744548266
1493.0,0.015632527399532366
1492.0,0.015619663501346907
1491.0,0.015609127040160972
1490.0,0.015548035461587596
1489.0,0.015459112104755032
1488.0,0.015378735339711506
1487.0,0.015308865365823127
1486.0,0.015258390896757179
1485.0,0.0152389145959607
1484.0,0.015252994191304464
1483.0,0.015283507938005442
1482.0,0.015322851592508745
1481.0,0.015381592150058888
1480.0,0.015464776228983165
1479.0,0.015568936314056786
1478.0,0.01570836733807361
1477.0,0.015903431918574077
1476.0,0.016144711208463714
1475.0,0.016431127488232628
1474.0,0.016807131705330127
1473.0,0.0173217947809017
1472.0,0.017938421731144932
1471.0,0.01855858492711315
1470.0,0.019148694641909443
1469.0,0.019730159714465755
1468.0,0.0203132452165633
1467.0,0.020920401083728023
1466.0,0.021599328927248192
1465.0,0.022353018058237917
1464.0,0.023078964393206725
1463.0,0.02366419081656897
1462.0,0.02411225352190081
1461.0,0.024488503182286868
1460.0,0.024848738503160488
1459.0,0.025236217303315756
1458.0,0.025684638553719538
1457.0,0.0261806491127736
1456.0,0.02661142241574806
1455.0,0.02690279622274716
1454.0,0.02711065302626682
1453.0,0.027277153895753088
1452.0,0.027373501418911213
1451.0,0.02736872945608018
1450.0,0.02726248573923161
1449.0,0.027034536877158226
1448.0,0.026639749486012162
1447.0,0.026115623305150812
1446.0,0.02555879277607629
1445.0,0.025024385235096272
1444.0,0.024517716288719283
1443.0,0.024047122923926918
1442.0,0.023637060562974325
1441.0,0.023297021647255074
1440.0,0.02302395717409186
1439.0,0.022827493157807355
1438.0,0.022737173937681775
1437.0,0.02273082650146396
1436.0,0.02271387145719399
1435.0,0.022611123258241887
1434.0,0.022415046608367746
1433.0,0.022139147504066047
1432.0,0.021811796930383407
1431.0,0.021483469140077087
1430.0,0.021199761891486556
1429.0,0.0209741946599964
1428.0,0.02080088876864369
1427.0,0.02068217957167708
1426.0,0.0206031352985607
1425.0,0.020520854247092633
1424.0,0.020401916290224878
1423.0,0.020261057847760583
1422.0,0.02013518182171016
1421.0,0.020043674552207274
1420.0,0.019977919566367734
1419.0,0.019902807443317138
1418.0,0.019819075960883115
1417.0,0.01974167158241519
1416.0,0.019659369765609586
1415.0,0.01956335370846704
1414.0,0.019456938300930843
1413.0,0.019338082957996133
1412.0,0.019195727420183616
1411.0,0.019024493607895855
1410.0,0.018832031927467324
1409.0,0.018625649245514995
1408.0,0.018402975374872246
1407.0,0.018164261682277683
1406.0,0.017898904561313985
1405.0,0.017589687135865117
1404.0,0.017252211930449988
1403.0,0.016930515788501656
1402.0,0.016643411813139865
1401.0,0.016365960553423722
1400.0,0.01606678996926292
1399.0,0.01575335005583902
1398.0,0.015462012621545364
1397.0,0.015197328649863916
1396.0,0.014936981447441128
1395.0,0.014683893915573936
1394.0,0.01446407240099171
1393.0,0.014286598922017644
1392.0,0.014140598300856212
1391.0,0.014022308423015162
1390.0,0.013935292848242319
1389.0,0.013882435829968114
1388.0,0.013873229029726746
1387.0,0.013935531953166349
1386.0,0.014099130107747063
1385.0,0.014389371733123976
1384.0,0.01485482351437845
1383.0,0.015556189448842381
1382.0,0.01652925745326302
1381.0,0.017786890612530377
1380.0,0.01933413428622134
1379.0,0.021094540878016186
1378.0,0.022822210140892724
1377.0,0.024162523762444328
1376.0,0.02478508197536948
1375.0,0.0244805453083106
1374.0,0.02332051872364495
1373.0,0.021711699160027326
1372.0,0.02007819142212432
1371.0,0.018601938901952293
1370.0,0.01730059987302655
1369.0,0.016179295915173524
1368.0,0.015269111854887708
1367.0,0.014584917487344123
1366.0,0.014103146774533153
1365.0,0.01378372471237346
1364.0,0.013589191696721018
1363.0,0.01349179242411852
1362.0,0.013477731545858015
1361.0,0.013526810960851208
1360.0,0.013593517168745788
1359.0,0.013620939602799882
1358.0,0.013563858899369466
1357.0,0.013405244415048406
1356.0,0.013159632740243458
1355.0,0.012863138080911635
1354.0,0.012557878803141386
1353.0,0.012278424584740814
1352.0,0.012039404551858323
1351.0,0.011840867796225502
1350.0,0.01167246421445516
1349.0,0.011523823914895282
1348.0,0.011391101495738545
1347.0,0.011273876497148566
1346.0,0.011168749533655849
1345.0,0.011072272609187436
1344.0,0.010988463338046858
1343.0,0.010925685771518956
1342.0,0.010882682800797652
1341.0,0.01084110302871174
1340.0,0.0107800285703623
1339.0,0.01069937187894889
1338.0,0.01061703448959696
1337.0,0.010547486572889462
1336.0,0.010496109907210942
1335.0,0.010465159099660823
1334.0,0.010454205655512474
1333.0,0.010458825446119799
1332.0,0.010472968417385063
1331.0,0.010490795651494881
1330.0,0.010504756059081313
1329.0,0.010508267087391077
1328.0,0.010500758812898255
1327.0,0.010487368411572726
1326.0,0.010469370353499242
1325.0,0.010443302894060263
1324.0,0.010409436935857589
1323.0,0.010374196490125545
1322.0,0.010342614229807718
1321.0,0.010313093350608867
1320.0,0.010281091138543898
1319.0,0.010243656549718391
1318.0,0.01020035078315698
1317.0,0.01015332276615372
1316.0,0.010107710016704073
1315.0,0.010067353179418356
1314.0,0.01002975555597591
1313.0,0.009990630656216028
1312.0,0.00995366104827233
1311.0,0.009930624175905019
1310.0,0.009932324128875195
1309.0,0.00996620338173769
1308.0,0.010038053937314318
1307.0,0.010146235713940018
1306.0,0.010268274555159279
1305.0,0.010364700094476528
1304.0,0.010403021844583452
1303.0,0.01037852284112833
1302.0,0.010313398449924183
1301.0,0.010239341874888253
1300.0,0.010180853940095897
1299.0,0.010147355862995425
1298.0,0.01013406560426409
1297.0,0.010129707764765603
1296.0,0.01012609819646764
1295.0,0.010120634776659221
1294.0,0.010112884318415142
1293.0,0.010103804364731342
1292.0,0.010097761514125328
1291.0,0.01010019002298215
1290.0,0.010112090067974436
1289.0,0.010130264171486603
1288.0,0.010153296918401042
1287.0,0.010183113535112916
1286.0,0.0102203116099168
1285.0,0.010262696449354826
1284.0,0.010309312791619889
1283.0,0.010361848765405024
1282.0,0.01042151480660877
1281.0,0.010487054502184704
1280.0,0.010557008824822137
1279.0,0.010630690130661771
1278.0,0.010707351599515899
1277.0,0.010787007347737987
1276.0,0.010872190537546284
1275.0,0.010965861970907778
1274.0,0.011067554093398515
1273.0,0.011174289836810061
1272.0,0.011285105638362916
1271.0,0.011402325268745772
1270.0,0.011528770316494578
1269.0,0.011666095999572032
1268.0,0.011815597673490616
1267.0,0.011977253432678735
1266.0,0.012148307835735853
1265.0,0.01232481902039985
1264.0,0.012503773376126692
1263.0,0.012681909722498063
1262.0,0.012854108836812712
1261.0,0.013015168096082483
1260.0,0.013164071968287245
1259.0,0.013304018252445749
1258.0,0.013436395680562933
1257.0,0.013553531106191886
1256.0,0.013638297982810826
1255.0,0.013674474527859429
1254.0,0.013661174699495775
1253.0,0.013616723543567435
1252.0,0.013567413613711454
1251.0,0.013532558443897277
1250.0,0.01351854874769029
1249.0,0.013522910291671738
1248.0,0.01354087775243212
1247.0,0.013568135376194692
1246.0,0.01360113083896167
1245.0,0.013637422418042708
1244.0,0.013675428001483372
1243.0,0.013713590466307345
1242.0,0.013750466543167587
1241.0,0.013785409079651995
1240.0,0.01381809905135191
1239.0,0.01384763567268921
1238.0,0.013873098929828666
1237.0,0.013894716983588969
1236.0,0.013913486719774444
1235.0,0.013929900728137316
1234.0,0.01394371793859129
1233.0,0.013954551658448406
1232.0,0.013962075563088719
1231.0,0.013966291254438632
1230.0,0.013968384592148907
1229.0,0.01397049434137201
1228.0,0.013973814009904398
1227.0,0.013977843768409354
1226.0,0.013982109148531194
1225.0,0.013987301685874066
1224.0,0.013993577374496701
1223.0,0.01399871319921555
1222.0,0.013999155882719251
1221.0,0.013992158091057177
1220.0,0.013976188337355915
1219.0,0.013950399494425024
1218.0,0.013915057721790455
1217.0,0.01387188862732086
1216.0,0.013823107420525303
1215.0,0.01377073742813504
1214.0,0.013717090365617083
1213.0,0.013664945562437997
1212.0,0.013616441575198313
1211.0,0.013572567779816466
1210.0,0.013534119789839007
1209.0,0.013501948623296137
1208.0,0.013475438455656887
1207.0,0.013451843592975809
1206.0,0.013428692052681105
1205.0,0.013406542877486993
1204.0,0.013388525938904192
1203.0,0.013377569440582888
1202.0,0.013374723833293179
1201.0,0.013379501818153415
1200.0,0.013390844056089382
1199.0,0.013407898516574313
1198.0,0.013430905337464081
1197.0,0.013461338233122271
1196.0,0.013500336828444818
1195.0,0.01354747599826249
1194.0,0.013601716398052504
1193.0,0.013662959953416681
1192.0,0.013731665526492468
1191.0,0.01380755887052643
1190.0,0.013889956746317766
1189.0,0.013978908170501014
1188.0,0.014075087113976665
1187.0,0.014179349471805519
1186.0,0.014293371033361396
1185.0,0.014419410101605027
1184.0,0.014558118569715253
1183.0,0.014708041834491665
1182.0,0.014868730458930217
1181.0,0.015042873147741453
1180.0,0.015234014477197941
1179.0,0.015444335857946474
1178.0,0.015676659570048948
1177.0,0.015936656821963283
1176.0,0.016231186837298715
1175.0,0.016567144729000182
1174.0,0.016953493918772516
1173.0,0.017399607787400066
1172.0,0.017905241257664666
1171.0,0.01845097302889428
1170.0,0.01899917130027449
1169.0,0.019502779514409724
1168.0,0.01991552463006672
1167.0,0.0202078072590142
1166.0,0.020382739690546433
1165.0,0.02047280246539971
1164.0,0.020516443850887047
1163.0,0.020542197746276643
1162.0,0.020571167771535042
1161.0,0.02061950166290629
1160.0,0.02069316900624504
1159.0,0.02078879055294998
1158.0,0.020903357274060883
1157.0,0.021036664935971304
1156.0,0.021183860624546153
1155.0,0.021335639024410623
1154.0,0.021488094722457628
1153.0,0.021642523179535515
1152.0,0.02179359233513188
1151.0,0.021929188285472002
1150.0,0.022045480820580013
1149.0,0.022151381541359334
1148.0,0.022255393240288773
1147.0,0.022359081802864476
1146.0,0.02246522930124837
1145.0,0.022579724147759713
1144.0,0.022702098544842314
1143.0,0.02282594622169333
1142.0,0.022951785646624458
1141.0,0.023087866939129686
1140.0,0.023235839240267363
1139.0,0.023388366926026315
1138.0,0.02354345293272277
1137.0,0.023707302665537118
1136.0,0.023880072705401663
1135.0,0.024053606105833344
1134.0,0.024227170206347407
1133.0,0.024410352477714604
1132.0,0.02460603297093866
1131.0,0.024805380653505377
1130.0,0.02500388528247048
1129.0,0.025206562604035754
1128.0,0.025412353623831544
1127.0,0.025609838367981284
1126.0,0.02579445075289062
1125.0,0.025973536693694566
1124.0,0.0261487637618531
1123.0,0.026310814567559983
1122.0,0.026457316730627112
1121.0,0.026598263600685557
1120.0,0.02673776774561037
1119.0,0.026868119310459605
1118.0,0.026987016402031022
1117.0,0.027102534121164527
1116.0,0.027216195041005246
1115.0,0.027320123035802155
1114.0,0.027415908312891556
1113.0,0.027516389892615664
1112.0,0.027623207213511095
1111.0,0.027723334417765567
1110.0,0.027813206937198687
1109.0,0.02790576552274253
1108.0,0.028007551075130248
1107.0,0.02810995802885028
1106.0,0.028208089566674782
1105.0,0.028305594138347642
1104.0,0.028395290500941223
1103.0,0.02845823476225621
1102.0,0.028488786763551495
1101.0,0.028499542630041
1100.0,0.028495872807439912
1099.0,0.028469953730913405
1098.0,0.02842516979826691
1097.0,0.028381094683277312
1096.0,0.028346810748575264
1095.0,0.028312167727717857
1094.0,0.028271675933596432
1093.0,0.028233834627502424
1092.0,0.028200635083279676
1091.0,0.028161145103602327
1090.0,0.02811244670378181
1089.0,0.028065220141726757
1088.0,0.028022223662553976
1087.0,0.027972436784367616
1086.0,0.027911896176134536
1085.0,0.027848096598577225
1084.0,0.027778288309098544
1083.0,0.02768629038211172
1082.0,0.02756697365192299
1081.0,0.02743230340226177
1080.0,0.027288775105388845
1079.0,0.02713121217172823
1078.0,0.026962187845747693
1077.0,0.02679393243704429
1076.0,0.026626355347277843
1075.0,0.026445658603667852
1074.0,0.026249452885938343
1073.0,0.026051438602215503
1072.0,0.025857228691992813
1071.0,0.02565788195772294
1070.0,0.025451902649748944
1069.0,0.025251671102857743
1068.0,0.025062505716320467
1067.0,0.02487561948059593
1066.0,0.024687191149190997
1065.0,0.024505688279780544
1064.0,0.024334955675433506
1063.0,0.024167208598813064
1062.0,0.023997963544309456
1061.0,0.02383252785393269
1060.0,0.023673324320133013
1059.0,0.023515862160742605
1058.0,0.02336132912473346
1057.0,0.023218758614765616
1056.0,0.02309138894666286
1055.0,0.02297483383305528
1054.0,0.022871588928145448
1053.0,0.02279270037525818
1052.0,0.022739863232856938
1051.0,0.022699792980595043
1050.0,0.022662366515888023
1049.0,0.022628726209779265
1048.0,0.02259517926524039
1047.0,0.022545675380461476
1046.0,0.022464761472288756
1045.0,0.022343555497958415
1044.0,0.02217317880546327
1043.0,0.02194879858648148
1042.0,0.02168174597836264
1041.0,0.02139407924708547
1040.0,0.0211000627660389
1039.0,0.020803813656004828
1038.0,0.02051194427889175
1037.0,0.020233897399721226
1036.0,0.019969559052079946
1035.0,0.019709316196093264
1034.0,0.019448008385442975
1033.0,0.019188620996193406
1032.0,0.018932237564944495
1031.0,0.018675446682718866
1030.0,0.01841864766336363
1029.0,0.01816680468170592
1028.0,0.017920791139370396
1027.0,0.01767644550311794
1026.0,0.017432221951098885
1025.0,0.01718958832318688
1024.0,0.016946447367297373
1023.0,0.01669863806665552
1022.0,0.016447833149876006
1021.0,0.016199951879696826
1020.0,0.015955749666074198
1019.0,0.015710668130260688
1018.0,0.015463857653432573
1017.0,0.015219645983225498
1016.0,0.014979995818216529
1015.0,0.014743120808298673
1014.0,0.014510348987061931
1013.0,0.014287509173050453
1012.0,0.014078099927437665
1011.0,0.013880547713217454
1010.0,0.013693520765113924
1009.0,0.013519731400206372
1008.0,0.013363912033326063
1007.0,0.013231353091482618
1006.0,0.013129700843205902
1005.0,0.013069585360092232
1004.0,0.0130643848291647
1003.0,0.013133078982610898
1002.0,0.013299472414122077
1001.0,0.013574178219599234
1000.0,0.013923126729669874
999.0,0.014252056872054084
998.0,0.014434655403353605
997.0,0.014373499642847856
996.0,0.014050041433718984
995.0,0.013530016561900424
994.0,0.012923130481788694
993.0,0.0123262714153618
992.0,0.011791079092871828
991.0,0.011329959449339969
990.0,0.01093750150568168
989.0,0.010603472006748101
988.0,0.010316819606825952
987.0,0.010068877630908865
986.0,0.009855700771082505
985.0,0.009676518220366713
984.0,0.00953165320324957
983.0,0.009423996724411873
982.0,0.009361608926456436
981.0,0.009357228333169725
980.0,0.009425003015566018
979.0,0.00957681708460637
978.0,0.009818711027555589
977.0,0.01014641069878218
976.0,0.010538144031133186
975.0,0.010944628869420714
974.0,0.011283282489595113
973.0,0.011450054564261236
972.0,0.011357437277373653
971.0,0.010985355018999658
970.0,0.010404016818126204
969.0,0.009738375516469801
968.0,0.009101937830458092
967.0,0.008555606171073914
966.0,0.008109810260108435
965.0,0.007748213690873997
964.0,0.007448263287704203
963.0,0.0071904772582890835
962.0,0.0069605143688230686
961.0,0.006748975670972875
960.0,0.006550907517797962
959.0,0.006365109919154755
958.0,0.00619266394733676
957.0,0.006034650984718726
956.0,0.005890259725047222
955.0,0.005756644200227664
954.0,0.005630812336928618
953.0,0.005512185109824843
952.0,0.005403235983900866
951.0,0.00530695587246514
950.0,0.005223593762802726
949.0,0.005150453183634352
948.0,0.005084807574703103
947.0,0.0050263833380205375
946.0,0.0049774073793301035
945.0,0.004941176040947248
944.0,0.004919998730853657
943.0,0.004912667367537423
942.0,0.004913152358398554
941.0,0.004912380717137189
940.0,0.0049017996688486675
939.0,0.004876280519281618
938.0,0.004835869461443451
937.0,0.00478590515553658
936.0,0.004733722615665497
935.0,0.00468303773558622
934.0,0.004631625321070421
933.0,0.004575445550274003
932.0,0.00451401201085376
931.0,0.004450244223075005
930.0,0.004386599727352914
929.0,0.0043242117923609595
928.0,0.004265385205938443
927.0,0.004213725254317801
926.0,0.004170931627801078
925.0,0.004135727229431207
924.0,0.004106649296409186
923.0,0.004083785470401637
922.0,0.0040671473415299295
921.0,0.004055413067416585
920.0,0.00404705971155046
919.0,0.004041109047859169
918.0,0.004036352189899926
917.0,0.004031570732438417
916.0,0.004027014496110664
915.0,0.004024157019977303
914.0,0.004023590845668543
913.0,0.004024510892196027
912.0,0.004026380958475644
911.0,0.004029542980722577
910.0,0.004034170780855436
909.0,0.004040716297825753
908.0,0.004052274378330677
907.0,0.004075297061825836
906.0,0.0041174772733018755
905.0,0.004185665095664145
904.0,0.004284650338647871
903.0,0.004413990046996354
902.0,0.004562766321784538
901.0,0.004707177677291369
900.0,0.004815106562692722
899.0,0.00485768640534733
898.0,0.0048229188617726435
897.0,0.00472196834868825
896.0,0.004582703109482073
895.0,0.004435917649124014
894.0,0.0043043316474703705
893.0,0.004199550847291924
892.0,0.004124508498823013
891.0,0.004076032529872212
890.0,0.004046658755330949
889.0,0.004028160672344619
888.0,0.004015736068962168
887.0,0.004009214855896727
886.0,0.004011325431626973
885.0,0.00402608631984607
884.0,0.004058116014354149
883.0,0.00411156567641942
882.0,0.004189136434591005
881.0,0.004291763876118997
880.0,0.004416529855361957
879.0,0.0045524855478219235
878.0,0.0046807874062964015
877.0,0.004782895285185105
876.0,0.0048489512024675295
875.0,0.004876907419241898
874.0,0.004864794596829064
873.0,0.004807086276182827
872.0,0.004701850838770238
871.0,0.004563014122361887
870.0,0.004423057086866829
869.0,0.004318333003458231
868.0,0.004268253157463446
867.0,0.0042674480712330005
866.0,0.004297090546328321
865.0,0.004342681268111345
864.0,0.004400293877961455
863.0,0.004469394146886418
862.0,0.004546767884583344
861.0,0.004629304106633501
860.0,0.0047171562661145645
859.0,0.004810468552564777
858.0,0.0049060215523553975
857.0,0.004999017098034601
856.0,0.005084011309619401
855.0,0.0051519055240314485
854.0,0.005191875787413267
853.0,0.005201834610988037
852.0,0.005194883573267136
851.0,0.005192117030550789
850.0,0.00521116740926234
849.0,0.005263917809025643
848.0,0.005361539803371217
847.0,0.005518972035522035
846.0,0.005760937396852682
845.0,0.006126122795298063
844.0,0.0066453448909292966
843.0,0.007284341373817801
842.0,0.007902402486813245
841.0,0.008300129725253336
840.0,0.008346901839270298
839.0,0.008078661866569293
838.0,0.007667425583307883
837.0,0.007291026970659569
836.0,0.007032494843736366
835.0,0.006883377464836117
834.0,0.006804385347065723
833.0,0.006766053829633412
832.0,0.006751464219322699
831.0,0.0067503676856282575
830.0,0.00676026589415551
829.0,0.006783672741789896
828.0,0.0068191890004641615
827.0,0.0068607317982184324
826.0,0.0069065350197333175
825.0,0.006960805779679297
824.0,0.007024377741670147
823.0,0.007092109475649654
822.0,0.007161387785566877
821.0,0.007234677005293897
820.0,0.0073128031052558575
819.0,0.007393913166930952
818.0,0.007479763504940281
817.0,0.007576759979912627
816.0,0.007690772073222881
815.0,0.00782624894658153
814.0,0.007988947263296136
813.0,0.008181286413265359
812.0,0.008392810612017848
811.0,0.008601012267161633
810.0,0.008783359712806447
809.0,0.008924006647133541
808.0,0.009011236802123995
807.0,0.009040379397360571
806.0,0.009022833432591927
805.0,0.00898266036381229
804.0,0.008940381654944264
803.0,0.008905763230303617
802.0,0.008884577728671586
801.0,0.00888120874674624
800.0,0.00889216180253444
799.0,0.008906857757069545
798.0,0.008919009562272625
797.0,0.008930071554937842
796.0,0.00893962668009971
795.0,0.008941836156802515
794.0,0.008935188627959926
793.0,0.008927165353405177
792.0,0.00892500339091606
791.0,0.0089289139124446
790.0,0.008937031435437576
789.0,0.00894935558016923
788.0,0.008964077000064189
787.0,0.008977904127740981
786.0,0.008993064565589928
785.0,0.009016331562470524
784.0,0.009048695618763467
783.0,0.009083892932760192
782.0,0.009118924006163674
781.0,0.009156496014145234
780.0,0.009194211533084872
779.0,0.009222148585618095
778.0,0.009236539285209164
777.0,0.009246708419140836
776.0,0.00926316878406152
775.0,0.009287112596783685
774.0,0.00931616462803021
773.0,0.009351500004328366
772.0,0.00939323284129694
771.0,0.009436547620801202
770.0,0.009478754391865164
769.0,0.009523822969865273
768.0,0.009574649771108678
767.0,0.009627035508352394
766.0,0.009675719678415365
765.0,0.009720033444807517
764.0,0.00976034526685111
763.0,0.009796515979920421
762.0,0.009833356532536985
761.0,0.009879553220943242
760.0,0.009937074378982984
759.0,0.009998920571089684
758.0,0.010060351816917203
757.0,0.010124017537706326
756.0,0.010191124958509115
755.0,0.010257170595861044
754.0,0.010320354417670822
753.0,0.01038471590422398
752.0,0.010450866206607953
751.0,0.010513594112191386
750.0,0.010572911156958228
749.0,0.010636903322261557
748.0,0.010708622166105262
747.0,0.010780287317327861
746.0,0.01084589369724144
745.0,0.010909565238521157
744.0,0.010975573432703417
743.0,0.011039840179766693
742.0,0.011097420097486186
741.0,0.01114923419845822
740.0,0.01119575662314113
739.0,0.01123336863941619
738.0,0.011262062542013382
737.0,0.01128739701784252
736.0,0.011310964283457601
735.0,0.011329102265044674
734.0,0.011344852413491275
733.0,0.01137000162807797
732.0,0.011410505729586715
731.0,0.011460557610061147
730.0,0.011515401376806053
729.0,0.01157816783668553
728.0,0.01164770602608391
727.0,0.01171352498798734
726.0,0.011771532196179088
725.0,0.011830947006232894
724.0,0.0118977510212783
723.0,0.011964340654989386
722.0,0.01202232801293588
721.0,0.012072494545830002
720.0,0.01211519885871366
719.0,0.012146267927003029
718.0,0.012171249013485434
717.0,0.012208321665892828
716.0,0.01226764591139927
715.0,0.012338441666611313
714.0,0.01240317664374396
713.0,0.012454365216077502
712.0,0.012491028246768569
711.0,0.012512746824760921
710.0,0.012526172062789023
709.0,0.01254507314222681
708.0,0.01257531966792826
707.0,0.01261003307578331
706.0,0.012646314113685633
705.0,0.012692098239798298
704.0,0.012748977587999123
703.0,0.01280502594141918
702.0,0.012851495637866719
701.0,0.012891339972512315
700.0,0.012924966197589614
699.0,0.012943378142540454
698.0,0.01294506561540967
697.0,0.012941484882115169
696.0,0.012936090586045019
695.0,0.012918211904243991
694.0,0.012885432422046074
693.0,0.012854556150466278
692.0,0.01283980344804251
691.0,0.012834971048981108
690.0,0.012830762157540771
689.0,0.012831732547084682
688.0,0.012842000626714142
687.0,0.012853517824564582
686.0,0.01286218555713732
685.0,0.012876834062099059
684.0,0.01289937230799085
683.0,0.012915614817679139
682.0,0.012918361523907601
681.0,0.012919274082085586
680.0,0.012928120065501165
679.0,0.012937558709767243
678.0,0.01294239554372362
677.0,0.012954113229723209
676.0,0.012977019557362447
675.0,0.012996953312514367
674.0,0.013004711113131354
673.0,0.013005459484897182
672.0,0.012996239630741157
671.0,0.012953685067195665
670.0,0.012865356200672584
669.0,0.012758025050977763
668.0,0.012723252306496222
667.0,0.012805960346015943
666.0,0.012904974185991472
665.0,0.012953432244139376
664.0,0.012973414967908933
663.0,0.012975183612597793
662.0,0.012959402920416845
661.0,0.012935369142984415
660.0,0.01291054539216175
659.0,0.012874514991078275
658.0,0.012823740005536457
657.0,0.012779119096193996
656.0,0.01275344415352363
655.0,0.012733638887694208
654.0,0.012711112531375152
653.0,0.012697894432526294
652.0,0.012696555796293373
651.0,0.012685937454190898
650.0,0.012656476794911251
649.0,0.012626892830051827
648.0,0.012603939279571048
647.0,0.012562767347321927
646.0,0.012490209312157833
645.0,0.012407272310436541
644.0,0.012331425204969625
643.0,0.012254337834016884
642.0,0.012171288238920181
641.0,0.012097424824125558
640.0,0.01203695505439284
639.0,0.011971917311159663
638.0,0.011902579600993574
637.0,0.011858863487987762
636.0,0.011849687116689357
635.0,0.011842353502407352
634.0,0.01181248913344098
633.0,0.011771084161362917
632.0,0.011722017391746067
631.0,0.01164367310929014
630.0,0.011536066673064463
629.0,0.01143378510529608
628.0,0.011346895576479395
627.0,0.01123814640299867
626.0,0.011085869246345678
625.0,0.010919404278631938
624.0,0.01076152485605849
623.0,0.010591782839243308
622.0,0.010403471513343563
621.0,0.01023828062658404
620.0,0.01012550019864606
619.0,0.010040402751088084
618.0,0.009957902801614887
617.0,0.009897033571050203
616.0,0.009874147906094914
615.0,0.009867687754804847
614.0,0.009865213114092566
613.0,0.009885633903623386
612.0,0.009926756658138594
611.0,0.009950530036019846
610.0,0.009953183281011139
609.0,0.009988915060391776
608.0,0.010085945950145184
607.0,0.010198393656890223
606.0,0.010279906711127062
605.0,0.010344564875743565
604.0,0.010410658722497336
603.0,0.01045160372570014
602.0,0.010446652478975076
601.0,0.010414391053202087
600.0,0.010359743288034552
599.0,0.010252526329595803
598.0,0.01009205828569507
597.0,0.009929322087113425
596.0,0.0097940215524152
595.0,0.009658875733033291
594.0,0.009499755210814531
593.0,0.009333416958746482
592.0,0.00916994246368193
591.0,0.008988180793927106
590.0,0.008788685902892283
589.0,0.008605997805945249
588.0,0.008441523656469007
587.0,0.008245689954115839
586.0,0.0079926516596255
585.0,0.007719193698209052
584.0,0.007464634399138435
583.0,0.007223539787214859
582.0,0.006974770739174189
581.0,0.006712352953385495
580.0,0.0064372047045434845
579.0,0.0061662968531779085
578.0,0.005947200065423753
577.0,0.005811526938193702
576.0,0.005725158969448061
575.0,0.005627295470207402
574.0,0.00551759916052637
573.0,0.005451608543420958
572.0,0.005448621523396853
571.0,0.005460950797556633
570.0,0.005435297199956045
569.0,0.005363266801836193
568.0,0.005255361365201246
567.0,0.005116442674828251
566.0,0.004969272828491748
565.0,0.004854055205728229
564.0,0.0047962422505638
563.0,0.004797160026962094
562.0,0.004844194556718908
561.0,0.004910189641489624
560.0,0.004950551459477063
559.0,0.0049343376287209455
558.0,0.004884149179785035
557.0,0.004836389269665609
556.0,0.0047662169843812816
555.0,0.004620346021317471
554.0,0.004420456302688546
553.0,0.004250032843998001
552.0,0.004138968064397211
551.0,0.004034851821454874
550.0,0.0038890336145394697
