cm-1,A
4000.0,0.0018844870290384286
3999.0,0.001880519992316729
3998.0,0.001878465747166952
3997.0,0.0018786720586235353
3996.0,0.0018859972764544636
3995.0,0.0019030235805323984
3994.0,0.0019252228415953495
3993.0,0.0019444135214319784
3992.0,0.0019554057303946275
3991.0,0.0019589948538295695
3990.0,0.001959271531590524
3989.0,0.0019589839341761154
3988.0,0.00195845914136287
3987.0,0.0019573511181057153
3986.0,0.001956253302845613
3985.0,0.001956281000633921
3984.0,0.001957658142308235
3983.0,0.0019597479645575505
3982.0,0.0019617476625114565
3981.0,0.0019627046041416226
3980.0,0.0019617714112087127
3979.0,0.0019594960747695614
3978.0,0.001958577597707907
3977.0,0.0019615479811806945
3976.0,0.0019672921819566453
3975.0,0.001971135734016452
3974.0,0.0019695839352973097
3973.0,0.0019643690701488365
3972.0,0.0019598552604635014
3971.0,0.0019576410149602557
3970.0,0.001955822081241072
3969.0,0.001952801596261398
3968.0,0.0019503242860071691
3967.0,0.001951427215745143
3966.0,0.0019560377045785824
3965.0,0.0019604229460228042
3964.0,0.0019609763074439255
3963.0,0.0019579786486439155
3962.0,0.0019550445936429425
3961.0,0.0019547969773956687
3960.0,0.0019563930520140726
3959.0,0.001957563623771957
3958.0,0.0019576024168750723
3957.0,0.001957191962658563
3956.0,0.001956012159291243
3955.0,0.0019524666660427738
3954.0,0.0019461563816276558
3953.0,0.0019393294709512646
3952.0,0.0019347397978058064
3951.0,0.0019335653841709806
3950.0,0.0019365832661380866
3949.0,0.0019462047866034057
3948.0,0.001963628073450856
3947.0,0.0019832221224940177
3946.0,0.0019939639411371093
3945.0,0.0019892841468023216
3944.0,0.001975541105372729
3943.0,0.001966253738415057
3942.0,0.0019665183300861377
3941.0,0.0019687713811202675
3940.0,0.0019651933768031265
3939.0,0.001959233314443422
3938.0,0.001961378964388927
3937.0,0.001974902857303865
3936.0,0.0019911538060488933
3935.0,0.0019997592065383145
3934.0,0.001998678760780057
3933.0,0.001994955756326383
3932.0,0.0019967296764652072
3931.0,0.002005001816073681
3930.0,0.002014292883049924
3929.0,0.002018209691725738
3928.0,0.002013979186551938
3927.0,0.002005267772833595
3926.0,0.002001255527079545
3925.0,0.0020097791770352924
3924.0,0.0020285551335164267
3923.0,0.002045851823965245
3922.0,0.0020525791414630883
3921.0,0.002049531344429923
3920.0,0.0020432320733952676
3919.0,0.002039365292478819
3918.0,0.0020393818768060243
3917.0,0.0020405574322208578
3916.0,0.0020381319699664395
3915.0,0.0020289662376255986
3914.0,0.0020148574288275283
3913.0,0.0020007703233935093
3912.0,0.0019886101616990847
3911.0,0.001975822036698882
3910.0,0.0019625339166911473
3909.0,0.0019559160667925405
3908.0,0.0019648150832084947
3907.0,0.001990827716038584
3906.0,0.0020240346735208785
3905.0,0.002049368441115254
3904.0,0.00206159840066195
3903.0,0.0020726644891032897
3902.0,0.0020970833131272576
3901.0,0.0021337246792550954
3900.0,0.002163967561691327
3899.0,0.0021695365134485113
3898.0,0.0021495328684737456
3897.0,0.002118523401645609
3896.0,0.0020930689855845697
3895.0,0.002079369123510965
3894.0,0.002071891860353987
3893.0,0.002062093377161803
3892.0,0.0020484828614529323
3891.0,0.002038954186183608
3890.0,0.0020401029749661024
3889.0,0.002047870218785685
3888.0,0.00205556835860556
3887.0,0.0020627261990775183
3886.0,0.00207088843389249
3885.0,0.002081264072554845
3884.0,0.002094055447956197
3883.0,0.002107907021534363
3882.0,0.002119886597828064
3881.0,0.0021232360170992458
3880.0,0.002112311178815607
3879.0,0.0020926914434250612
3878.0,0.002076722594428377
3877.0,0.0020743360786490295
3876.0,0.002089030749396851
3875.0,0.0021141729852174676
3874.0,0.002137415606290578
3873.0,0.0021523513361984725
3872.0,0.0021629677254588796
3871.0,0.002177652333941527
3870.0,0.002197980530660731
3869.0,0.00221361366788203
3868.0,0.002212915422352767
3867.0,0.0021986554163019446
3866.0,0.002185998541551201
3865.0,0.0021810364269309566
3864.0,0.0021739113335887193
3863.0,0.002157839571307924
3862.0,0.0021397550586976974
3861.0,0.0021287544595022536
3860.0,0.002125065113944691
3859.0,0.0021249352837980667
3858.0,0.0021294788558564983
3857.0,0.0021414568353538763
3856.0,0.002157146156213062
3855.0,0.002165382439690563
3854.0,0.0021606817403462433
3853.0,0.0021585347001340494
3852.0,0.00216962825703026
3851.0,0.0021780762794454947
3850.0,0.002167418144411204
3849.0,0.002140549769647356
3848.0,0.0021078468946741976
3847.0,0.0020780701040387884
3846.0,0.0020587829711988703
3845.0,0.002053162153456506
3844.0,0.0020589734569361013
3843.0,0.0020739943186330744
3842.0,0.0020986101364836485
3841.0,0.00213189745821984
3840.0,0.0021691274704347834
3839.0,0.0022023820083007886
3838.0,0.0022246782193026337
3837.0,0.0022358044290595276
3836.0,0.002240541485301751
3835.0,0.0022424360126718492
3834.0,0.0022412080783635728
3833.0,0.0022341223760532552
3832.0,0.0022188134422195037
3831.0,0.002197150708704237
3830.0,0.0021745682141275247
3829.0,0.002156596829569015
3828.0,0.0021453048640605087
3827.0,0.002138563082073505
3826.0,0.002133433287203991
3825.0,0.0021295138402452384
3824.0,0.0021313918725035883
3823.0,0.002149505171679739
3822.0,0.0021907975844625833
3821.0,0.002245754339851883
3820.0,0.0022924479285153505
3819.0,0.002313390898528341
3818.0,0.0023072658570752764
3817.0,0.002285579850078091
3816.0,0.0022556147652331112
3815.0,0.0022173612331450776
3814.0,0.002173984933562599
3813.0,0.0021378355394508224
3812.0,0.00212037114896199
3811.0,0.0021145344388952157
3810.0,0.0021032393080152732
3809.0,0.002085711708731951
3808.0,0.0020819130220721266
3807.0,0.002110671884517778
3806.0,0.002166460899526062
3805.0,0.0022232763368431586
3804.0,0.002262136719308166
3803.0,0.0022815288683937715
3802.0,0.002285696312346783
3801.0,0.0022787718033222483
3800.0,0.0022616632884470663
3799.0,0.002232972271538396
3798.0,0.0022007132012080446
3797.0,0.002178006948570961
3796.0,0.0021680603354915975
3795.0,0.002165162901772479
3794.0,0.0021632499497017173
3793.0,0.002160819730321131
3792.0,0.002156856174689916
3791.0,0.002146988013235748
3790.0,0.0021286314030307648
3789.0,0.0021053036034122067
3788.0,0.002083502565641798
3787.0,0.0020682962539964344
3786.0,0.0020645270985151136
3785.0,0.00207748053370413
3784.0,0.0021075547958602048
3783.0,0.002145937137452401
3782.0,0.00217968950077322
3781.0,0.0021991695483366855
3780.0,0.0022014280071320502
3779.0,0.002191142561659405
3778.0,0.002177911465343151
3777.0,0.002168837751661699
3776.0,0.0021657043271831947
3775.0,0.0021670035471291495
3774.0,0.0021699032646206157
3773.0,0.0021745177138708183
3772.0,0.0021857487171381366
3771.0,0.002207651864092414
3770.0,0.0022354821519766344
3769.0,0.002257815451680065
3768.0,0.00226788761965707
3767.0,0.0022693779721832635
3766.0,0.0022702227967792837
3765.0,0.002273552179707163
3764.0,0.002277134961749514
3763.0,0.0022804288200369504
3762.0,0.0022877332163199534
3761.0,0.002301621743826323
3760.0,0.002317265370967523
3759.0,0.0023305854556327677
3758.0,0.002346729313782641
3757.0,0.0023718813590231777
3756.0,0.0024030203530283783
3755.0,0.0024350328017409975
3754.0,0.0024705393097094086
3753.0,0.0025129787654229116
3752.0,0.0025549984707937657
3751.0,0.0025890912268676384
3750.0,0.0026239480659933367
3749.0,0.002669869594707708
3748.0,0.002716905997139695
3747.0,0.0027485893354762115
3746.0,0.002764161708767996
3745.0,0.0027670775013807903
3744.0,0.002755359875892759
3743.0,0.002730277052617888
3742.0,0.0026968999733548303
3741.0,0.0026675324916446766
3740.0,0.002652592369522167
3739.0,0.002646151139202167
3738.0,0.0026443009850369084
3737.0,0.0026573155887500617
3736.0,0.0026931176657335816
3735.0,0.002745076524795691
3734.0,0.0027992241278187533
3733.0,0.002844292413669254
3732.0,0.002868902590428024
3731.0,0.0028615082343695832
3730.0,0.0028225728397773824
3729.0,0.0027727558089653066
3728.0,0.002738934460819645
3727.0,0.0027310495931703997
3726.0,0.0027372145568469396
3725.0,0.0027405409802656196
3724.0,0.0027356182592367393
3723.0,0.0027289644984413333
3722.0,0.0027288456678180467
3721.0,0.002738819048515869
3720.0,0.0027583381957765303
3719.0,0.0027839290435117906
3718.0,0.002812935219934273
3717.0,0.0028459919201123235
3716.0,0.002885952974086253
3715.0,0.0029370817134322515
3714.0,0.0030028357999518913
3713.0,0.003077896662570822
3712.0,0.0031440082066741325
3711.0,0.0031857320914184246
3710.0,0.0032071359712272786
3709.0,0.0032225568720483074
3708.0,0.003237951676770325
3707.0,0.00324997497242657
3706.0,0.003254711190235411
3705.0,0.0032532834689050893
3704.0,0.0032523790564965584
3703.0,0.0032603952633113065
3702.0,0.0032828688211672358
3701.0,0.003318882718735225
3700.0,0.00336164031056308
3699.0,0.0034045909361815133
3698.0,0.0034484886833938255
3697.0,0.0034994360892517474
3696.0,0.0035602256111043977
3695.0,0.0036279018534789596
3694.0,0.0036995941676968027
3693.0,0.0037738899483721797
3692.0,0.003847528943387482
3691.0,0.0039190250019670615
3690.0,0.003993797698632166
3689.0,0.004077485654567655
3688.0,0.004164510866181998
3687.0,0.004241626243117971
3686.0,0.004302321285689093
3685.0,0.004354118501958994
3684.0,0.004408181247572818
3683.0,0.004467594769828204
3682.0,0.0045326035699670576
3681.0,0.004607346135952688
3680.0,0.004695057539385899
3679.0,0.004794017549463615
3678.0,0.0049053968081895875
3677.0,0.005040549534687541
3676.0,0.005204426353758528
3675.0,0.005376051978531362
3674.0,0.0055282494162576185
3673.0,0.005655745080490281
3672.0,0.005773282118277881
3671.0,0.005891634635713399
3670.0,0.006002612704932817
3669.0,0.006097592319124878
3668.0,0.006184990318390381
3667.0,0.00627927609257154
3666.0,0.006384883774060584
3665.0,0.006495763639571311
3664.0,0.00660900568540685
3663.0,0.006731432763789315
3662.0,0.0068730488881851215
3661.0,0.00703720120436266
3660.0,0.007217574640177071
3659.0,0.007405589172967835
3658.0,0.0075964839489339854
3657.0,0.007786218404528233
3656.0,0.007968985223642158
3655.0,0.008146236132019915
3654.0,0.008330954655988706
3653.0,0.008541557565758558
3652.0,0.008788491714281352
3651.0,0.009058525194706067
3650.0,0.009321847653919598
3649.0,0.009559407085446014
3648.0,0.009773317510807683
3647.0,0.009971000262239838
3646.0,0.010157783249607526
3645.0,0.010342203243422315
3644.0,0.010535023788772961
3643.0,0.010739565276078295
3642.0,0.010951233216755271
3641.0,0.011167990274703323
3640.0,0.011391993706861326
3639.0,0.011622827109850948
3638.0,0.011855307664779978
3637.0,0.012086829692860209
3636.0,0.012322860681050374
3635.0,0.012571812725642163
3634.0,0.012835425439734231
3633.0,0.01310864044115668
3632.0,0.013389417115764964
3631.0,0.013681950806894171
3630.0,0.013981960215653656
3629.0,0.014267552505430483
3628.0,0.014528216177889816
3627.0,0.014780367066815802
3626.0,0.015040586665019017
3625.0,0.01531130343127498
3624.0,0.015584123259415824
3623.0,0.015852619615570388
3622.0,0.01612357226777745
3621.0,0.016406146085818595
3620.0,0.016695512250124247
3619.0,0.01697819213859968
3618.0,0.017254436034623472
3617.0,0.01753826349911265
3616.0,0.017839639572562325
3615.0,0.018157838091577783
3614.0,0.01848180861076785
3613.0,0.01879498231877268
3612.0,0.0190889541313304
3611.0,0.019373446324155205
3610.0,0.01966377727347188
3609.0,0.019957889567567392
3608.0,0.020235504345507836
3607.0,0.02048749555441524
3606.0,0.020732688162719334
3605.0,0.02099509312109745
3604.0,0.021279925794245397
3603.0,0.021576185568772603
3602.0,0.021873426414911353
3601.0,0.022170484448325315
3600.0,0.022471241123548737
3599.0,0.022778649783742215
3598.0,0.02309183753525948
3597.0,0.023400692411082346
3596.0,0.023686674992054322
3595.0,0.023941949291208544
3594.0,0.024185266116830983
3593.0,0.024448542473935644
3592.0,0.02475089337763009
3591.0,0.025091867130710842
3590.0,0.025454872501750648
3589.0,0.025803561261658295
3588.0,0.02609383368382706
3587.0,0.026322839750249773
3586.0,0.02654439614081557
3585.0,0.026810105741364946
3584.0,0.027124484166332917
3583.0,0.027459255452514108
3582.0,0.027786343701935782
3581.0,0.028093572442074017
3580.0,0.028382606685098375
3579.0,0.028662577579062834
3578.0,0.028945455438873106
3577.0,0.02923767400262339
3576.0,0.029534010378287425
3575.0,0.029826402174079586
3574.0,0.03011862631797038
3573.0,0.0304268536148174
3572.0,0.030766210113605443
3571.0,0.031139873553413532
3570.0,0.03153289990821956
3569.0,0.03190557118480624
3568.0,0.032204745341694166
3567.0,0.03241870593627885
3566.0,0.03260948037044811
3565.0,0.03285089853382851
3564.0,0.03315890934471149
3563.0,0.03349951930102465
3562.0,0.033834196624818104
3561.0,0.03414973702102363
3560.0,0.034459238248648175
3559.0,0.03478456050183914
3558.0,0.03513521673390672
3557.0,0.03549855469073296
3556.0,0.03584933168789401
3555.0,0.03617082800486896
3554.0,0.036467969284357866
3553.0,0.03676010134019611
3552.0,0.03706479464045325
3551.0,0.037391928470634626
3550.0,0.03774608863095319
3549.0,0.038121722886830633
3548.0,0.03849556403783692
3547.0,0.038837283964285575
3546.0,0.03913656215334444
3545.0,0.039413629283475804
3544.0,0.03969856252595659
3543.0,0.040007816875820605
3542.0,0.04034210257260779
3541.0,0.04069464683081893
3540.0,0.04105630234923693
3539.0,0.04141713716924506
3538.0,0.04176452039071036
3537.0,0.04208286026261411
3536.0,0.04236504404519552
3535.0,0.042626762763759145
3534.0,0.042899597315834925
3533.0,0.04320461324041633
3532.0,0.04353616092261139
3531.0,0.04387256057104377
3530.0,0.04419579689489444
3529.0,0.044497625420016534
3528.0,0.04477813761697259
3527.0,0.045048066909347054
3526.0,0.04532449374472586
3525.0,0.0456141124465107
3524.0,0.04590647761035449
3523.0,0.04619307265594876
3522.0,0.046484879137548764
3521.0,0.046798313170691164
3520.0,0.04713071007435294
3519.0,0.047461936084907945
3518.0,0.04777709522575815
3517.0,0.04807819686925161
3516.0,0.04837623179322217
3515.0,0.04868142456708806
3514.0,0.04899885208554045
3513.0,0.04932535624845886
3512.0,0.04965173939716293
3511.0,0.049974459026642756
3510.0,0.050302227725695876
3509.0,0.050644650899714205
3508.0,0.050999672843818934
3507.0,0.051358609606311265
3506.0,0.051715379399294784
3505.0,0.05206211876157233
3504.0,0.05238507519230562
3503.0,0.05268072845467446
3502.0,0.052970847210972685
3501.0,0.05328448163156623
3500.0,0.05362862149611679
3499.0,0.053987798481368136
3498.0,0.05434636827153761
3497.0,0.05470050574021375
3496.0,0.05505137666468878
3495.0,0.05539874957111053
3494.0,0.055744216746721385
3493.0,0.056092848446523326
3492.0,0.056449342022750426
3491.0,0.056815528811700475
3490.0,0.057189172032710775
3489.0,0.05756188905995816
3488.0,0.05792480264186665
3487.0,0.05828152712315092
3486.0,0.058647541638164304
3485.0,0.05902925104848027
3484.0,0.05941074066927583
3483.0,0.05977171667335274
3482.0,0.06011413926667863
3481.0,0.06045922320963142
3480.0,0.060821470370350676
3479.0,0.061197473097877514
3478.0,0.06157658723602355
3477.0,0.06195094592006544
3476.0,0.062316935762523784
3475.0,0.06267840509413053
3474.0,0.06304856248297823
3473.0,0.06343841996111738
3472.0,0.06384247443778952
3471.0,0.06424230801088476
3470.0,0.0646236324755791
3469.0,0.06498616172305074
3468.0,0.06534136194791695
3467.0,0.06570522414968034
3466.0,0.06608761830401973
3465.0,0.06648164992115616
3464.0,0.0668671917018658
3463.0,0.06723217918267288
3462.0,0.067586471424432
3461.0,0.06794833843882826
3460.0,0.06832452327407415
3459.0,0.06871245682927705
3458.0,0.06911317298036437
3457.0,0.06952761815556721
3456.0,0.06994396750071104
3455.0,0.07034335879299757
3454.0,0.0707207215284693
3453.0,0.07109186655609537
3452.0,0.07147773095254988
3451.0,0.0718853801061009
3450.0,0.0723033133977053
3449.0,0.07271019535400966
3448.0,0.07309201880983675
3447.0,0.07345916221832408
3446.0,0.07384108204954618
3445.0,0.0742552757850081
3444.0,0.07468708025390079
3443.0,0.0751057236531238
3442.0,0.07549560178281915
3441.0,0.07586804009624364
3440.0,0.07624692743143399
3439.0,0.07664944638709456
3438.0,0.07707716109195849
3437.0,0.07751578692395238
3436.0,0.07794375897882658
3435.0,0.07834883307518588
3434.0,0.07873734722221302
3433.0,0.07912534198525378
3432.0,0.07952406117145167
3431.0,0.07993542150545652
3430.0,0.08035397675106885
3429.0,0.08076839190964342
3428.0,0.08116894513164533
3427.0,0.0815608196352263
3426.0,0.08196322633298378
3425.0,0.08238767953898829
3424.0,0.08282186301092148
3423.0,0.08324128766285857
3422.0,0.08363289360225501
3421.0,0.08400193282733087
3420.0,0.08436194907501982
3419.0,0.08472683693821689
3418.0,0.08510790215749899
3417.0,0.08550801665245604
3416.0,0.08591869865767686
3415.0,0.08632796555908802
3414.0,0.08672922954494207
3413.0,0.08712024898917592
3412.0,0.08750017111335752
3411.0,0.08787277037672817
3410.0,0.08824551983516807
3409.0,0.08861900889308308
3408.0,0.08898365243352091
3407.0,0.08933342517702308
3406.0,0.08967617485202362
3405.0,0.09002369053273941
3404.0,0.09037865601917774
3403.0,0.09073831565409085
3402.0,0.09110280621595174
3401.0,0.09146952097116476
3400.0,0.09182501598239681
3399.0,0.09215456584007749
3398.0,0.09245863303084813
3397.0,0.09275204159530176
3396.0,0.0930481144944728
3395.0,0.09334835979740955
3394.0,0.09364441085551134
3393.0,0.0939250479504806
3392.0,0.09418486379220886
3391.0,0.09443019998275598
3390.0,0.09467263078515271
3389.0,0.09491420987678985
3388.0,0.0951443755534136
3387.0,0.09535329595693698
3386.0,0.09554129450576573
3385.0,0.0957128640871689
3384.0,0.09587199181284337
3383.0,0.09602883316934335
3382.0,0.09619867597716066
3381.0,0.09638414837804583
3380.0,0.09656612921496889
3379.0,0.09672171918750357
3378.0,0.09684572769594543
3377.0,0.09694723132856083
3376.0,0.09703348318060215
3375.0,0.09710807564160676
3374.0,0.09717846988846149
3373.0,0.0972527857051093
3372.0,0.09733082795268701
3371.0,0.09740609903417533
3370.0,0.09747395855729352
3369.0,0.09753107492485655
3368.0,0.09757049520278875
3367.0,0.09758578714946457
3366.0,0.0975791718563455
3365.0,0.09755968460741167
3364.0,0.09753468153771623
3363.0,0.09750706287496846
3362.0,0.09747788716302204
3361.0,0.09744763831449588
3360.0,0.09741692089976575
3359.0,0.09738731907537414
3358.0,0.0973575284631634
3357.0,0.09731869910589486
3356.0,0.0972617539258837
3355.0,0.09719152111647548
3354.0,0.09712415230213782
3353.0,0.09706667276339727
3352.0,0.09700853943010793
3351.0,0.09693852685034159
3350.0,0.09685985867905789
3349.0,0.096780314709329
3348.0,0.09669625651397848
3347.0,0.0965973114937363
3346.0,0.09648147510267407
3345.0,0.09635564222528879
3344.0,0.09622576953672751
3343.0,0.09609605987269887
3342.0,0.09597319583383532
3341.0,0.09585999183736499
3340.0,0.09574521499754386
3339.0,0.09560897772149957
3338.0,0.09544123585108073
3337.0,0.095251087572476
3336.0,0.09505752062871084
3335.0,0.09487421313718472
3334.0,0.09470263292309858
3333.0,0.09453590524066877
3332.0,0.0943680323247341
3331.0,0.0941997301190915
3330.0,0.094034123190295
3329.0,0.09386808943871393
3328.0,0.0936931240629933
3327.0,0.09350618650026514
3326.0,0.09331425228393707
3325.0,0.09312497762723734
3324.0,0.09293779563814843
3323.0,0.09274799163990516
3322.0,0.09255498150889545
3321.0,0.09236204635786725
3320.0,0.09217117533735161
3319.0,0.09198220204924407
3318.0,0.09179440407840032
3317.0,0.09160572481156969
3316.0,0.09141294012794965
3315.0,0.09121571133964697
3314.0,0.0910190325667678
3313.0,0.09082970817552456
3312.0,0.0906508331402705
3311.0,0.09047891771602903
3310.0,0.09030438039652537
3309.0,0.0901171333550597
3308.0,0.0899163542157636
3307.0,0.08971309138128385
3306.0,0.08951789835108723
3305.0,0.08932818130678656
3304.0,0.08913493725224268
3303.0,0.08893997637020103
3302.0,0.08875632630932793
3301.0,0.08859041892601727
3300.0,0.08843399429893233
3299.0,0.08827663731155039
3298.0,0.08811659397038725
3297.0,0.08795465458322353
3296.0,0.08778679241223285
3295.0,0.08761031223385332
3294.0,0.08743118236270607
3293.0,0.08725775628455078
3292.0,0.08709024489481917
3291.0,0.08692165825928966
3290.0,0.0867470006105211
3289.0,0.0865685028406696
3288.0,0.086394634677084
3287.0,0.08623566138069762
3286.0,0.08609539653763278
3285.0,0.08596464172672211
3284.0,0.08582752042993187
3283.0,0.08567720067841358
3282.0,0.08552066234292288
3281.0,0.08536570655448802
3280.0,0.08521025799051846
3279.0,0.08504919090738929
3278.0,0.08488505217407495
3277.0,0.0847245792775645
3276.0,0.08456792299066243
3275.0,0.08440894662517327
3274.0,0.08424649705227619
3273.0,0.08409024920641377
3272.0,0.08395323037258756
3271.0,0.08383944322452544
3270.0,0.08373903514837536
3269.0,0.08363635776321593
3268.0,0.0835243276062923
3267.0,0.08340956070653249
3266.0,0.08330098924601054
3265.0,0.08319668419508612
3264.0,0.0830882845866587
3263.0,0.0829771593899361
3262.0,0.08287778992065986
3261.0,0.08280296640032925
3260.0,0.0827523346615362
3259.0,0.08271770198868011
3258.0,0.08269225011610544
3257.0,0.08267027356996376
3256.0,0.08264413550208169
3255.0,0.08260814649810108
3254.0,0.0825636818143888
3253.0,0.08251675797508382
3252.0,0.08247186290229228
3251.0,0.08242927897368485
3250.0,0.08238475373772046
3249.0,0.08232956409317639
3248.0,0.08225421057580692
3247.0,0.08215441661930206
3246.0,0.08203170312709167
3245.0,0.08188829733339355
3244.0,0.0817256638828116
3243.0,0.08154840617085579
3242.0,0.08136366581315047
3241.0,0.08117356739799525
3240.0,0.08097208563526707
3239.0,0.0807521653649774
3238.0,0.08051334048640678
3237.0,0.08026074365736627
3236.0,0.07999945207602664
3235.0,0.07973086680937112
3234.0,0.0794513408346814
3233.0,0.07915344722940149
3232.0,0.07883274975830222
3231.0,0.0784954358434767
3230.0,0.07815597598454271
3229.0,0.07782529006360014
3228.0,0.07750373412981111
3227.0,0.07718621483350366
3226.0,0.07687003204779438
3225.0,0.07655557517754444
3224.0,0.07624278818358678
3223.0,0.07593034362770877
3222.0,0.07561718987337245
3221.0,0.0753031007781268
3220.0,0.07498844456242251
3219.0,0.07467390170685234
3218.0,0.07435943010452781
3217.0,0.07404402139035803
3216.0,0.07372815904078225
3215.0,0.0734154699404512
3214.0,0.0731089160587575
3213.0,0.07280527798928656
3212.0,0.07249614530756844
3211.0,0.07217525399764325
3210.0,0.07184397244627373
3209.0,0.07151020925577364
3208.0,0.0711826906807432
3207.0,0.07086437717520602
3206.0,0.07054981165659037
3205.0,0.07023105456733769
3204.0,0.06990791235969727
3203.0,0.06958883916045709
3202.0,0.069278886724825
3201.0,0.06897143856731924
3200.0,0.06865692727156604
3199.0,0.0683353139108372
3198.0,0.06801281052833281
3197.0,0.06768931173822064
3196.0,0.06735822851255215
3195.0,0.06701847090756893
3194.0,0.06667774950275503
3193.0,0.06634239981470832
3192.0,0.0660110535636168
3191.0,0.06568025660804656
3190.0,0.06534967520507198
3189.0,0.06501874994245826
3188.0,0.06468426199465638
3187.0,0.06434554947456926
3186.0,0.06400789412698442
3185.0,0.06367658599416995
3184.0,0.0633504009985593
3183.0,0.06302367117901816
3182.0,0.06269188153337703
3181.0,0.06235296599346532
3180.0,0.062006621605214335
3179.0,0.061655865629280694
3178.0,0.061307384898786656
3177.0,0.06096722103347646
3176.0,0.060636007583722284
3175.0,0.06030890226511871
3174.0,0.05997918519076715
3173.0,0.05964234513134075
3172.0,0.05929917022925517
3171.0,0.05895539036591753
3170.0,0.058616469606468206
3169.0,0.05828283494084368
3168.0,0.057951758928325
3167.0,0.05762184454014193
3166.0,0.05729210437518338
3165.0,0.05695897531861889
3164.0,0.05662004760593109
3163.0,0.056280467532646164
3162.0,0.05594963582322125
3161.0,0.055629604720337185
3160.0,0.0553112503399472
3159.0,0.05498409802581258
3158.0,0.054646350787024685
3157.0,0.054304167208823965
3156.0,0.053965476923427444
3155.0,0.05363587810117994
3154.0,0.05331594965416366
3153.0,0.053000427908674055
3152.0,0.05268350188197708
3151.0,0.05236609560333155
3150.0,0.05205373927051263
3149.0,0.05174592186887217
3148.0,0.05143375232881164
3147.0,0.05111199929356733
3146.0,0.05078784230582488
3145.0,0.05047253866424199
3144.0,0.05016829744196588
3143.0,0.04986860115985512
3142.0,0.04956819110659376
3141.0,0.049266604909947276
3140.0,0.0489635055303211
3139.0,0.048657405242837216
3138.0,0.0483504089193933
3137.0,0.04804881467138073
3136.0,0.04775620725794239
3135.0,0.04746872534257508
3134.0,0.04717941475784481
3133.0,0.0468863317405395
3132.0,0.04659456942306747
3131.0,0.04630996744527938
3130.0,0.046032094375168565
3129.0,0.045754951312935686
3128.0,0.045474947757203586
3127.0,0.04519598947725166
3126.0,0.044924150104768745
3125.0,0.04465898190919784
3124.0,0.04439403310783662
3123.0,0.04412594958978752
3122.0,0.04385852128775072
3121.0,0.043595877718241874
3120.0,0.04333636892576057
3119.0,0.04307599206556865
3118.0,0.042813624307830846
3117.0,0.042549767863587135
3116.0,0.04228417192980517
3115.0,0.04201912677316641
3114.0,0.04176219760720031
3113.0,0.04151968733324535
3112.0,0.04128835275554268
3111.0,0.04105860379713207
3110.0,0.04082489018499816
3109.0,0.04058863600893056
3108.0,0.040351341465975465
3107.0,0.040110341869205916
3106.0,0.03986387237669436
3105.0,0.03961609198306746
3104.0,0.03937374457083695
3103.0,0.039139494924783434
3102.0,0.038910750238560575
3101.0,0.03868411018118443
3100.0,0.038458964790366985
3099.0,0.03823640951403753
3098.0,0.038016068788223736
3097.0,0.03779606318246428
3096.0,0.03757711810939736
3095.0,0.037365171475582604
3094.0,0.03716629709603267
3093.0,0.03697789312382672
3092.0,0.03678838320135958
3091.0,0.0365880171795078
3090.0,0.03637743810018678
3089.0,0.03616341031171461
3088.0,0.03594925917021589
3087.0,0.03573392893639285
3086.0,0.03551872114652854
3085.0,0.0353086539644599
3084.0,0.03510668103852763
3083.0,0.034910680327316465
3082.0,0.0347166836324361
3081.0,0.03452154684869535
3080.0,0.034321877038639384
3079.0,0.034115392321306996
3078.0,0.03390537499759158
3077.0,0.03369990784751373
3076.0,0.03350407471263615
3075.0,0.03331524156534252
3074.0,0.03312800479415751
3073.0,0.03294021245415078
3072.0,0.032751588899483756
3071.0,0.03256022279130658
3070.0,0.03236528999299034
3069.0,0.032172089691508095
3068.0,0.03198853249763776
3067.0,0.031815301928739985
3066.0,0.03164258038079223
3065.0,0.031458503207825006
3064.0,0.03125971398872083
3063.0,0.03105284392234864
3062.0,0.030848198412775824
3061.0,0.03065300454484226
3060.0,0.03046779539751081
3059.0,0.030286029338384608
3058.0,0.030098204253600453
3057.0,0.029899965866925407
3056.0,0.029697459111147087
3055.0,0.02950327620143161
3054.0,0.029325381788977634
3053.0,0.029160701952159557
3052.0,0.028999405094826014
3051.0,0.028833004091888447
3050.0,0.028657793069158492
3049.0,0.028473441191583505
3048.0,0.0282825223972665
3047.0,0.02809129944877237
3046.0,0.027906588944009922
3045.0,0.02772980426496293
3044.0,0.02755543711822004
3043.0,0.02737726678243485
3042.0,0.027194628846897627
3041.0,0.027011994870875536
3040.0,0.026834338301800112
3039.0,0.026663988549495952
3038.0,0.026499989654662194
3037.0,0.026338255543160705
3036.0,0.026173913036091418
3035.0,0.02600580624442927
3034.0,0.02583771140949455
3033.0,0.02567307737440506
3032.0,0.025510441871891276
3031.0,0.025346137125759047
3030.0,0.02517998785882449
3029.0,0.025014273238144348
3028.0,0.024848277729586365
3027.0,0.02467859812534542
3026.0,0.024505554083726032
3025.0,0.02433471492760192
3024.0,0.024169120625466195
3023.0,0.024003721144722157
3022.0,0.023831241442683622
3021.0,0.023652572162883363
3020.0,0.023477016810059915
3019.0,0.02331223203114122
3018.0,0.02315718133790765
3017.0,0.023005907167124785
3016.0,0.02285571916943521
3015.0,0.022708297709300766
3014.0,0.022564435831956792
3013.0,0.022421055156687634
3012.0,0.022275172436830186
3011.0,0.022128310666767938
3010.0,0.021984782882703953
3009.0,0.021846425846512824
3008.0,0.021711140514400325
3007.0,0.021576323364104873
3006.0,0.0214415347174821
3005.0,0.021307899528040814
3004.0,0.02117663450012147
3003.0,0.02104826377309405
3002.0,0.02092109235693406
3001.0,0.02079034992814563
3000.0,0.020652281488140134
2999.0,0.020510305410457078
2998.0,0.020374599595230723
2997.0,0.020253105822568573
2996.0,0.020144689536689523
2995.0,0.020042755963909305
2994.0,0.019942698134768674
2993.0,0.01984360646146821
2992.0,0.019744980554800326
2991.0,0.01964608589393147
2990.0,0.019547765755706454
2989.0,0.01945166633599641
2988.0,0.019358050505647824
2987.0,0.019266934170902892
2986.0,0.019180494663572818
2985.0,0.01910072355541117
2984.0,0.019025022845147205
2983.0,0.01894781273964249
2982.0,0.01886769168862318
2981.0,0.018789901978470816
2980.0,0.018720147376543962
2979.0,0.018658050103465877
2978.0,0.018598065132156488
2977.0,0.01853558470245194
2976.0,0.018470571238757585
2975.0,0.01840650121250877
2974.0,0.018346507668285158
2973.0,0.018290499225981905
2972.0,0.01823545564965466
2971.0,0.018179043309029495
2970.0,0.01812195546583343
2969.0,0.018065770009728525
2968.0,0.018009452626198352
2967.0,0.01795034618146623
2966.0,0.01788825603977789
2965.0,0.0178260050384814
2964.0,0.01776490115522909
2963.0,0.017702133058484035
2962.0,0.017634017731023688
2961.0,0.01756115467073876
2960.0,0.017488312232445565
2959.0,0.017419465194228937
2958.0,0.017353112213340266
2957.0,0.017283303301634908
2956.0,0.017205755012681238
2955.0,0.017123655467699256
2954.0,0.017046946608893325
2953.0,0.01698538694495419
2952.0,0.016943059329660254
2951.0,0.016919342804925158
2950.0,0.016913391317862132
2949.0,0.016925687183717956
2948.0,0.01695676939499372
2947.0,0.017007256972695405
2946.0,0.017079503999600138
2945.0,0.017177745481365532
2944.0,0.01730591298337901
2943.0,0.017465727994932564
2942.0,0.01765638357081867
2941.0,0.01787577653220798
2940.0,0.018122998411913702
2939.0,0.018401250836210345
2938.0,0.018717381018021586
2937.0,0.019076765037995935
2936.0,0.019478281038589722
2935.0,0.01991575266735446
2934.0,0.02038495202527903
2933.0,0.020891259880796244
2932.0,0.021451336821992847
2931.0,0.022087340121011087
2930.0,0.02281609457195406
2929.0,0.023643116089903035
2928.0,0.02456973678347419
2927.0,0.025607281564295935
2926.0,0.02678132031616849
2925.0,0.028119748166701562
2924.0,0.029636992055720627
2923.0,0.03132798340076994
2922.0,0.033172617179697765
2921.0,0.03514061756486054
2920.0,0.03718646050900754
2919.0,0.03923096234323157
2918.0,0.04113806127083707
2917.0,0.04271699818697366
2916.0,0.04376717184692184
2915.0,0.044148613564724486
2914.0,0.043832449890644255
2913.0,0.04290861684178104
2912.0,0.04154954000249224
2911.0,0.03995293964819112
2910.0,0.03829336346055928
2909.0,0.03669025647407365
2908.0,0.035210300343068865
2907.0,0.03388190926934965
2906.0,0.03271160969726026
2905.0,0.03169119066876042
2904.0,0.030802855195418706
2903.0,0.030025576817540686
2902.0,0.029339645810547398
2901.0,0.028726891498192193
2900.0,0.028169459318826563
2899.0,0.027651310397324682
2898.0,0.027160580488812678
2897.0,0.0266895536792389
2896.0,0.026232950613366963
2895.0,0.02578667873834751
2894.0,0.025346966743672046
2893.0,0.024908537076835865
2892.0,0.024464982356711525
2891.0,0.024012592291901193
2890.0,0.02355271944595306
2889.0,0.02308919982176587
2888.0,0.022623843686207318
2887.0,0.022156179608608488
2886.0,0.021686059530604422
2885.0,0.021213970431505316
2884.0,0.020738988447874904
2883.0,0.020258617198134113
2882.0,0.019771285176081878
2881.0,0.01927802930565859
2880.0,0.01878189746802277
2879.0,0.018287080247351213
2878.0,0.017797838619330146
2877.0,0.01731717140988448
2876.0,0.016847277229032464
2875.0,0.01639275220534208
2874.0,0.01596230926081539
2873.0,0.01556533444313362
2872.0,0.015207499012618685
2871.0,0.014891475909977758
2870.0,0.014620600749771217
2869.0,0.014398779208231642
2868.0,0.014227668141371191
2867.0,0.014107607829573933
2866.0,0.014041442491958147
2865.0,0.01403610384766288
2864.0,0.014101424921401862
2863.0,0.014251071744974638
2862.0,0.01450380925539496
2861.0,0.014881050487894504
2860.0,0.015402711737841034
2859.0,0.016090144743599266
2858.0,0.016974388510681674
2857.0,0.018099943040498938
2856.0,0.0195198217710096
2855.0,0.02128557203370302
2854.0,0.023430816995605692
2853.0,0.025946013058273567
2852.0,0.028735707658145336
2851.0,0.031584789783860374
2850.0,0.03415209121322105
2849.0,0.03604505584277987
2848.0,0.036954940365236034
2847.0,0.03678658298205335
2846.0,0.03567701064619625
2845.0,0.033919130788700694
2844.0,0.03183321066740955
2843.0,0.029681479836012763
2842.0,0.02763268136475118
2841.0,0.025775461028002267
2840.0,0.024139052070885302
2839.0,0.02272014778370989
2838.0,0.02149624923320982
2837.0,0.020440525551660163
2836.0,0.019524384455578827
2835.0,0.018721444101633126
2834.0,0.018009840390819366
2833.0,0.017374477400834865
2832.0,0.016805427375795705
2831.0,0.016294340045720907
2830.0,0.015832679375617595
2829.0,0.015411992627401767
2828.0,0.015024979913385214
2827.0,0.014666105608735172
2826.0,0.014331651938960877
2825.0,0.014019310367642313
2824.0,0.013727953991801246
2823.0,0.013457519796834898
2822.0,0.013208085242306412
2821.0,0.012978119762927665
2820.0,0.012764239026172236
2819.0,0.012562714315216958
2818.0,0.012370103960352699
2817.0,0.012182270524153108
2816.0,0.011995427423210695
2815.0,0.01180999750040887
2814.0,0.011631686083299637
2813.0,0.011465766950950154
2812.0,0.011311228742902692
2811.0,0.011162525802286936
2810.0,0.011016159803511602
2809.0,0.010873416562016198
2808.0,0.010737328378432567
2807.0,0.010609384559866816
2806.0,0.010489269426486345
2805.0,0.01037516080547285
2804.0,0.010263374929909447
2803.0,0.010149645875013661
2802.0,0.01003189761690537
2801.0,0.009911811016121133
2800.0,0.009793827554379025
2799.0,0.009682265268110524
2798.0,0.009578515362689373
2797.0,0.009479813790409318
2796.0,0.009381449922873063
2795.0,0.00928095134073696
2794.0,0.009179355627506217
2793.0,0.009078781011828916
2792.0,0.008980887046018831
2791.0,0.008887789352117759
2790.0,0.008801305037199959
2789.0,0.008719544913067928
2788.0,0.008636929710383691
2787.0,0.008550294045964253
2786.0,0.00846255434076784
2785.0,0.00837795675318131
2784.0,0.008296048261591785
2783.0,0.008213362598107255
2782.0,0.008129680250633417
2781.0,0.008049122534878463
2780.0,0.007975127006252577
2779.0,0.007906463229863034
2778.0,0.007838305836130646
2777.0,0.007766666338236314
2776.0,0.007692554476121953
2775.0,0.007622069848335213
2774.0,0.007560150893362099
2773.0,0.00750378222577175
2772.0,0.0074449488379491205
2771.0,0.007381300458987121
2770.0,0.00731935726415456
2769.0,0.007264476457608737
2768.0,0.007212718148643881
2767.0,0.007157331531242096
2766.0,0.007098920168406907
2765.0,0.007042931874410822
2764.0,0.006989994915925954
2763.0,0.006936205583115586
2762.0,0.006882003195839474
2761.0,0.006833195699910513
2760.0,0.0067919934145776765
2759.0,0.00675278364589405
2758.0,0.006708612862704415
2757.0,0.006657911764110868
2756.0,0.006603289720011209
2755.0,0.006548154031187112
2754.0,0.006496469513079438
2753.0,0.006452077428313924
2752.0,0.006415536867515842
2751.0,0.0063834950458550995
2750.0,0.0063522874007310715
2749.0,0.006320263813625893
2748.0,0.006285943470620557
2747.0,0.006246893708670572
2746.0,0.006202553468779397
2745.0,0.0061565432078842
2744.0,0.0061143109218854096
2743.0,0.006078707192405884
2742.0,0.006048567853377086
2741.0,0.006020747958124539
2740.0,0.005993088874450371
2739.0,0.005965570386582128
2738.0,0.005938801913413989
2737.0,0.005911816535125911
2736.0,0.005882518068220171
2735.0,0.005850093524487064
2734.0,0.005815250628329315
2733.0,0.005778065265359894
2732.0,0.005738231782632958
2731.0,0.005698098063659018
2730.0,0.005662109749187113
2729.0,0.005630995570049248
2728.0,0.005599465903029956
2727.0,0.005562256008053384
2726.0,0.00552033960488464
2725.0,0.005478897009666424
2724.0,0.005441732268459515
2723.0,0.005409892742352811
2722.0,0.005382813295434318
2721.0,0.0053574029123544895
2720.0,0.005328729307953503
2719.0,0.0052952886327713635
2718.0,0.005261573167825689
2717.0,0.0052320258705106865
2716.0,0.005205071739805463
2715.0,0.00517696448421224
2714.0,0.005148668445735913
2713.0,0.0051235770417974134
2712.0,0.005099916145474584
2711.0,0.00507113958363807
2710.0,0.005034240940587518
2709.0,0.004993108306750727
2708.0,0.004953733441533143
2707.0,0.004919871897389162
2706.0,0.004893428588409557
2705.0,0.004874559302445957
2704.0,0.0048598920787147675
2703.0,0.0048438020017897545
2702.0,0.0048225751063459945
2701.0,0.004796229643437116
2700.0,0.004766998647323872
2699.0,0.004738523468277145
2698.0,0.004715146085259249
2697.0,0.004698399059303051
2696.0,0.004684224837401387
2695.0,0.004666349541123467
2694.0,0.004642547150068876
2693.0,0.004615529343780783
2692.0,0.0045889142095952365
2691.0,0.004564911392611882
2690.0,0.004544653028011241
2689.0,0.004527748420405849
2688.0,0.00451201188393202
2687.0,0.004496248272092177
2686.0,0.004482004219414912
2685.0,0.004469921442750657
2684.0,0.00445616692412176
2683.0,0.004436310177914448
2682.0,0.004411761611770258
2681.0,0.004388917274625789
2680.0,0.004372314246758987
2679.0,0.00436153297182197
2678.0,0.004353371391512785
2677.0,0.004343516238363216
2676.0,0.004327643926232503
2675.0,0.004305193369511293
2674.0,0.0042820427105254
2673.0,0.004265463106447472
2672.0,0.004256156104499004
2671.0,0.0042480923581292036
2670.0,0.004235932813964179
2669.0,0.004220209980185535
2668.0,0.004206118343070624
2667.0,0.004200258071829892
2666.0,0.004207134386254444
2665.0,0.0042249219376779105
2664.0,0.004244911409545354
2663.0,0.004258367762148722
2662.0,0.004263606217267826
2661.0,0.004264479355845853
2660.0,0.0042638531803076
2659.0,0.0042624831304508
2658.0,0.004262147104924837
2657.0,0.004264623979580821
2656.0,0.004267582816114003
2655.0,0.004266158543673932
2654.0,0.004259108753945148
2653.0,0.0042501212156135565
2652.0,0.0042431605497332495
2651.0,0.004239925277559169
2650.0,0.004240953489908819
2649.0,0.004244749800040728
2648.0,0.004246386020977026
2647.0,0.004241725417891138
2646.0,0.004233216801933972
2645.0,0.0042271277777859145
2644.0,0.0042248455241688685
2643.0,0.004221564432133074
2642.0,0.004214083582379561
2641.0,0.004204873541461448
2640.0,0.004197268605603696
2639.0,0.004190928751533688
2638.0,0.004183862004434252
2637.0,0.004175540286998551
2636.0,0.004166893832403626
2635.0,0.004160280312789689
2634.0,0.0041595381134855594
2633.0,0.004166107002643172
2632.0,0.004174258289026066
2631.0,0.004174364584414995
2630.0,0.004162456957931975
2629.0,0.00414348665044955
2628.0,0.004124180260986992
2627.0,0.004106002844206
2626.0,0.004086298614169509
2625.0,0.0040635213515088295
2624.0,0.004039851528610223
2623.0,0.0040202511834615245
2622.0,0.004008743139514378
2621.0,0.004003507217803488
2620.0,0.003996482519063408
2619.0,0.003981045528438749
2618.0,0.003959269510840357
2617.0,0.003938764718456869
2616.0,0.003923662079585511
2615.0,0.003912495891781597
2614.0,0.0039036679695332085
2613.0,0.003897442680813246
2612.0,0.0038919192724200793
2611.0,0.00388163808759941
2610.0,0.0038621456280885404
2609.0,0.003834134688475331
2608.0,0.0038030856774975853
2607.0,0.00377639860965151
2606.0,0.0037593245737506534
2605.0,0.003750397491769133
2604.0,0.0037419621989636482
2603.0,0.0037283492948281313
2602.0,0.00371191895165266
2601.0,0.0036981239213135612
2600.0,0.00368744103871359
2599.0,0.0036766478639196276
2598.0,0.00366569559045302
2597.0,0.0036576090096743967
2596.0,0.00365247120717894
2595.0,0.003646417940642113
2594.0,0.0036362086656450054
2593.0,0.0036209597987640098
2592.0,0.0036009988604762456
2591.0,0.0035793059258143176
2590.0,0.003562022088081582
2589.0,0.0035525883143510168
2588.0,0.0035467710329917393
2587.0,0.003538224509630711
2586.0,0.003527032354062419
2585.0,0.0035176924285796837
2584.0,0.00351074649907891
2583.0,0.0035021561152108797
2582.0,0.0034893615013897815
2581.0,0.0034725807048440627
2580.0,0.0034519058268716123
2579.0,0.0034289716064441924
2578.0,0.0034097259748209837
2577.0,0.0033991271056039193
2576.0,0.003394387431149267
2575.0,0.003389703793194329
2574.0,0.0033860633467891034
2573.0,0.003389165509209878
2572.0,0.003398159980620212
2571.0,0.0034038022568087783
2570.0,0.0033987899627488027
2569.0,0.0033840862706702017
2568.0,0.0033646898738563416
2567.0,0.003345003914805423
2566.0,0.00332908348784394
2565.0,0.0033199856375966995
2564.0,0.0033171036095096056
2563.0,0.003317545782280325
2562.0,0.003320447685672248
2561.0,0.0033268020547626135
2560.0,0.0033357706532189807
2559.0,0.003344356917271689
2558.0,0.0033494777847401618
2557.0,0.0033475902492813756
2556.0,0.0033354047901121508
2555.0,0.00331559556494098
2554.0,0.0032991105489757625
2553.0,0.003296114307366841
2552.0,0.003305838886241448
2551.0,0.003319397541700601
2550.0,0.0033297229241198213
2549.0,0.0033339331256586504
2548.0,0.003329254056276448
2547.0,0.0033137426312466484
2546.0,0.003290936734854805
2545.0,0.0032689593772030354
2544.0,0.0032547535367863064
2543.0,0.0032510079424116233
2542.0,0.003255638703379322
2541.0,0.003261301970116915
2540.0,0.0032596647835419156
2539.0,0.003250459359009579
2538.0,0.003242508115639008
2537.0,0.0032422510671676454
2536.0,0.0032462737655224827
2535.0,0.003249005754820018
2534.0,0.0032509547492132014
2533.0,0.003253279833922611
2532.0,0.0032512365328467357
2531.0,0.00324123768953074
2530.0,0.0032288571542119526
2529.0,0.003221629283808191
2528.0,0.0032191603810339956
2527.0,0.0032186230817449163
2526.0,0.0032239263536822035
2525.0,0.0032385165492124627
2524.0,0.003253556322557989
2523.0,0.003255456687640432
2522.0,0.003243686928268338
2521.0,0.003231033459866937
2520.0,0.0032273739700357184
2519.0,0.0032319282374166803
2518.0,0.0032394634755302312
2517.0,0.0032444543024607625
2516.0,0.003240128765049795
2515.0,0.0032231706999460525
2514.0,0.0031998701123555923
2513.0,0.003180126516409576
2512.0,0.0031661654538067633
2511.0,0.0031539960307190385
2510.0,0.0031432926247524974
2509.0,0.0031372455865782754
2508.0,0.00313464404219017
2507.0,0.0031312798416871
2506.0,0.0031281402689442555
2505.0,0.0031295861699159196
2504.0,0.00313464306005836
2503.0,0.0031388700654243432
2502.0,0.0031435199917618536
2501.0,0.0031534670117398973
2500.0,0.0031665149713848983
2499.0,0.0031737750661679134
2498.0,0.0031708450373528116
2497.0,0.0031608505620328254
2496.0,0.0031471647331643817
2495.0,0.0031313303864517125
2494.0,0.0031174223768523717
2493.0,0.003109410874917569
2492.0,0.003103998497450073
2491.0,0.0030946182807330127
2490.0,0.0030830299017148093
2489.0,0.003078735519217978
2488.0,0.003086036459697325
2487.0,0.003098929421903433
2486.0,0.003109033297858363
2485.0,0.0031115036579499743
2484.0,0.0031037926792062097
2483.0,0.0030868299305578943
2482.0,0.003068241963445264
2481.0,0.003057371482543045
2480.0,0.003056119611288794
2479.0,0.0030597555788870437
2478.0,0.003064733444428734
2477.0,0.003068674173556495
2476.0,0.0030655652405267002
2475.0,0.0030513278288888056
2474.0,0.0030341457956599574
2473.0,0.003028979542606295
2472.0,0.003039291991607082
2471.0,0.003052240821066035
2470.0,0.003054373444125365
2469.0,0.003045290338704212
2468.0,0.003034155137352337
2467.0,0.0030296611866046774
2466.0,0.0030357229178116073
2465.0,0.0030505699666527387
2464.0,0.0030665103211355398
2463.0,0.0030744799820781256
2462.0,0.0030714726663077637
2461.0,0.003062148669334268
2460.0,0.0030540856002220533
2459.0,0.003053778021989754
2458.0,0.0030642704195373333
2457.0,0.003081858418671358
2456.0,0.0030971996393369264
2455.0,0.0031043830936709994
2454.0,0.003106456068387597
2453.0,0.0031076645240101916
2452.0,0.003104854362616222
2451.0,0.003093700435326825
2450.0,0.003079634899238226
2449.0,0.0030735032221823884
2448.0,0.0030776210390755293
2447.0,0.003084326785913462
2446.0,0.00308770635285029
2445.0,0.0030890680131788247
2444.0,0.0030911563859031166
2443.0,0.0030943099195709133
2442.0,0.0030988246325187063
2441.0,0.003105114646932
2440.0,0.0031112054111012157
2439.0,0.0031145373394219442
2438.0,0.003115015051441165
2437.0,0.0031122631100802445
2436.0,0.0031034139410058463
2435.0,0.0030895073919609984
2434.0,0.003080304879149095
2433.0,0.0030850423491792745
2432.0,0.0031004353087476007
2431.0,0.003114894303409324
2430.0,0.0031224553363244046
2429.0,0.0031257113289673514
2428.0,0.0031278842777651725
2427.0,0.0031298881432021476
2426.0,0.0031331539545115766
2425.0,0.0031375094641511057
2424.0,0.0031379027526198004
2423.0,0.0031308172031201545
2422.0,0.0031221753618901537
2421.0,0.003121064110387501
2420.0,0.0031271653186294274
2419.0,0.003132292184777473
2418.0,0.0031330481336763545
2417.0,0.0031340136536477936
2416.0,0.0031390412792192263
2415.0,0.0031466433471548376
2414.0,0.003153892394225211
2413.0,0.0031589280973730828
2412.0,0.0031603483567526187
2411.0,0.003159245021245485
2410.0,0.003159683217102458
2409.0,0.0031616765267583487
2408.0,0.0031571831806650906
2407.0,0.003140382396904064
2406.0,0.0031186756395267276
2405.0,0.003105189027908589
2404.0,0.0031029726294834587
2403.0,0.0031047581059601517
2402.0,0.0031053034721508278
2401.0,0.00310470554513541
2400.0,0.0031015394197391384
2399.0,0.0030932807543888803
2398.0,0.0030844948960862674
2397.0,0.003085475025624007
2396.0,0.003099987817125316
2395.0,0.0031206212089124785
2394.0,0.00313770233278028
2393.0,0.003147108484511641
2392.0,0.0031489221001397465
2391.0,0.0031448263645571252
2390.0,0.0031386095463965414
2389.0,0.0031346265014003624
2388.0,0.0031340103100612055
2387.0,0.003134826018376554
2386.0,0.003135358822541402
2385.0,0.0031342627849780544
2384.0,0.003128972317871687
2383.0,0.003117555403056935
2382.0,0.0031008017927455465
2381.0,0.003079359536228846
2380.0,0.003050952815965891
2379.0,0.003014422125257674
2378.0,0.0029738346735445243
2377.0,0.0029347648215241125
2376.0,0.0029019479546496503
2375.0,0.0028856952175552383
2374.0,0.0029016042286881755
2373.0,0.0029508189672809316
2372.0,0.003007001653393793
2371.0,0.0030396113308061874
2370.0,0.0030460323523239306
2369.0,0.0030453890445484256
2368.0,0.003049586954571521
2367.0,0.0030606834506798344
2366.0,0.0030850265959777626
2365.0,0.003123328587115787
2364.0,0.0031560274239823194
2363.0,0.0031647221443619235
2362.0,0.0031596556896713577
2361.0,0.0031627937914331474
2360.0,0.003167246475515528
2359.0,0.003149211005317977
2358.0,0.003111412134467298
2357.0,0.0030763323472845993
2356.0,0.0030555928582028714
2355.0,0.0030418425363288905
2354.0,0.0030243197404920177
2353.0,0.003001595721815103
2352.0,0.002987711725413009
2351.0,0.0030128360285552004
2350.0,0.0030890898251620417
2349.0,0.003194923659386208
2348.0,0.003291367815236697
2347.0,0.003343458918408259
2346.0,0.0033471439593181543
2345.0,0.0033302005268636284
2344.0,0.003328147677855173
2343.0,0.0033441485978974337
2342.0,0.00335885544298813
2341.0,0.0033702730261916548
2340.0,0.0033832658420314306
2339.0,0.00339840437470308
2338.0,0.003410586776169326
2337.0,0.0034196790859940757
2336.0,0.0034292219078776464
2335.0,0.003442149321971794
2334.0,0.0034571190509742953
2333.0,0.0034655932302361976
2332.0,0.003456529580356886
2331.0,0.003432968159151359
2330.0,0.003415430790685468
2329.0,0.00342835465010856
2328.0,0.003488469622592191
2327.0,0.0035956702083089305
2326.0,0.0037399864425730275
2325.0,0.003881700806283639
2324.0,0.003966271869269875
2323.0,0.003957600350981911
2322.0,0.0038786736075208487
2321.0,0.003793423201838937
2320.0,0.003745615020005504
2319.0,0.00373832119538245
2318.0,0.003752523095927267
2317.0,0.0037724647279366707
2316.0,0.0037836895460369576
2315.0,0.0037765310067481607
2314.0,0.0037559000258794084
2313.0,0.003737341564657085
2312.0,0.003731822106496043
2311.0,0.0037362156528886357
2310.0,0.003745327553577542
2309.0,0.0037552813899934603
2308.0,0.003765359332091809
2307.0,0.0037754620425343947
2306.0,0.0037915276823147796
2305.0,0.00381639504346324
2304.0,0.0038460754412824733
2303.0,0.003874645667458601
2302.0,0.003905031819141911
2301.0,0.003941142637401407
2300.0,0.003977231461873407
2299.0,0.0040019036703596855
2298.0,0.0040147069815092765
2297.0,0.004024501230566362
2296.0,0.004038068862829587
2295.0,0.004055894900774703
2294.0,0.004080597061708905
2293.0,0.004113504385301113
2292.0,0.004149304000548544
2291.0,0.0041810526968873735
2290.0,0.004211896269648396
2289.0,0.004248263683093071
2288.0,0.004285952594401148
2287.0,0.004312943458610453
2286.0,0.004325087182160332
2285.0,0.0043270974278335735
2284.0,0.004321209296434296
2283.0,0.004308012697241628
2282.0,0.00429565271732453
2281.0,0.004293242122438285
2280.0,0.004294949639928946
2279.0,0.0042863903425859745
2278.0,0.004266732029007971
2277.0,0.004250697660641817
2276.0,0.004247280471023799
2275.0,0.004251140527797221
2274.0,0.004254866883538121
2273.0,0.004256272168301328
2272.0,0.00425396565914405
2271.0,0.004248205802031528
2270.0,0.004244346384859538
2269.0,0.004242248488732363
2268.0,0.004227810243437798
2267.0,0.00419098605496235
2266.0,0.004146557978895132
2265.0,0.004118787005329726
2264.0,0.004110507961316658
2263.0,0.00410802906191943
2262.0,0.00411163967090376
2261.0,0.004136021979484124
2260.0,0.004180962409120229
2259.0,0.004224345386858119
2258.0,0.004247273397723672
2257.0,0.004247420188179116
2256.0,0.004227954466079351
2255.0,0.004194371321194249
2254.0,0.004162490162759866
2253.0,0.004148532807972411
2252.0,0.004148077562214185
2251.0,0.0041431956105206
2250.0,0.004130438004320336
2249.0,0.004122834641633387
2248.0,0.004125773587978331
2247.0,0.004131525663153338
2246.0,0.004136894302319001
2245.0,0.004144548958426344
2244.0,0.004147180614022592
2243.0,0.004132609168085742
2242.0,0.004107101228489832
2241.0,0.004092049825048084
2240.0,0.004095155370261054
2239.0,0.0041041058781868985
2238.0,0.004108769544193856
2237.0,0.004109685044544652
2236.0,0.004105265307660117
2235.0,0.004092224801302447
2234.0,0.0040787182299311
2233.0,0.004076075514157715
2232.0,0.004077638856015597
2231.0,0.004067412382904034
2230.0,0.004048293597302989
2229.0,0.004038976528425429
2228.0,0.004044839815106293
2227.0,0.004054435012346332
2226.0,0.004062257407763266
2225.0,0.004069816732186915
2224.0,0.004066687618846095
2223.0,0.004037889007491338
2222.0,0.003990929271394766
2221.0,0.00395128042593634
2220.0,0.00392996273032037
2219.0,0.0039182519094880155
2218.0,0.003911234811093405
2217.0,0.003911733160256241
2216.0,0.003915505113456376
2215.0,0.003918856700813415
2214.0,0.003934776712554775
2213.0,0.003971603160196039
2212.0,0.004002510041037254
2211.0,0.003990494483994174
2210.0,0.003941076533233074
2209.0,0.0038974005757382753
2208.0,0.003883796356679404
2207.0,0.003887230833406201
2206.0,0.0038925770225928715
2205.0,0.003898698757899421
2204.0,0.0038994723072964966
2203.0,0.0038871537818780328
2202.0,0.003879724295662165
2201.0,0.00390791334552288
2200.0,0.003966468423837272
2199.0,0.004012335384176639
2198.0,0.004018689611968989
2197.0,0.004000705248116194
2196.0,0.003982666217111702
2195.0,0.003970446964109335
2194.0,0.003964436584290652
2193.0,0.00396900088890838
2192.0,0.003978575549806401
2191.0,0.003979714943777465
2190.0,0.003973670936839099
2189.0,0.0039750267141503036
2188.0,0.003986711121272376
2187.0,0.003998538473647815
2186.0,0.004006283453388898
2185.0,0.004005760407136759
2184.0,0.003976014550768927
2183.0,0.0039022676263363934
2182.0,0.0038116734666676522
2181.0,0.003751817520803594
2180.0,0.0037369902590256195
2179.0,0.0037484713792158434
2178.0,0.0037753440897326353
2177.0,0.003813623820272967
2176.0,0.003837636943701165
2175.0,0.0038202355947104206
2174.0,0.003778468459408783
2173.0,0.0037568862282518637
2172.0,0.003770330981185321
2171.0,0.003804019548010115
2170.0,0.0038580464379346672
2169.0,0.003942192256251737
2168.0,0.0040315224150752685
2167.0,0.004078572738572936
2166.0,0.0040774012241170275
2165.0,0.004073162810591063
2164.0,0.004101219366673909
2163.0,0.00415283843307616
2162.0,0.004191966178130848
2161.0,0.0041564504534742485
2160.0,0.003961052006802197
2159.0,0.0035848740038633567
2158.0,0.0031609399433180146
2157.0,0.0028828913487144872
2156.0,0.0028157769043696814
2155.0,0.002880218546032907
2154.0,0.002988611990345469
2153.0,0.003108885554736716
2152.0,0.0032222458733228063
2151.0,0.0032976472676862936
2150.0,0.0033200458365597986
2149.0,0.003300511377183208
2148.0,0.003250521693552147
2147.0,0.0031791004985380427
2146.0,0.0031126892608041874
2145.0,0.0030810420707033438
2144.0,0.003083332321247121
2143.0,0.0030990408326172546
2142.0,0.003123107699014973
2141.0,0.0031565573830432602
2140.0,0.0031770526626796244
2139.0,0.0031592437429156014
2138.0,0.0031147912756461357
2137.0,0.0030740081814416976
2136.0,0.003037081163792356
2135.0,0.002984440702313011
2134.0,0.002926207782952563
2133.0,0.0028963257684981917
2132.0,0.0029016507784016456
2131.0,0.0029178124143187556
2130.0,0.0029317227434022437
2129.0,0.002950708630709329
2128.0,0.0029745338516045045
2127.0,0.002993853709899566
2126.0,0.003015421539646967
2125.0,0.00305630143587151
2124.0,0.0031120387653433865
2123.0,0.003159941373318421
2122.0,0.0031932198093160384
2121.0,0.0032234258654436675
2120.0,0.0032510413168798445
2119.0,0.0032649706304009223
2118.0,0.003272111206729144
2117.0,0.0032956750291796458
2116.0,0.003338842780773044
2115.0,0.0033782474227625012
2114.0,0.0033981731750899998
2113.0,0.003404502954045466
2112.0,0.0034021406559229077
2111.0,0.00338786473023644
2110.0,0.003371884380623999
2109.0,0.0033767326965326613
2108.0,0.003404640896460772
2107.0,0.0034310892757431722
2106.0,0.0034387132701358897
2105.0,0.003434533069243086
2104.0,0.003428200280060265
2103.0,0.0034182067040826078
2102.0,0.0034052440824841137
2101.0,0.0033942272221443403
2100.0,0.003377298476339452
2099.0,0.003337979674208907
2098.0,0.0032776005988781505
2097.0,0.0032159178586706762
2096.0,0.003163890332722903
2095.0,0.003120841483031601
2094.0,0.0030974038710156215
2093.0,0.003111239460452589
2092.0,0.0031573617907130138
2091.0,0.0032097978957445015
2090.0,0.0032542386953140195
2089.0,0.0032940412835007963
2088.0,0.0033249852494096387
2087.0,0.0033328501881440056
2086.0,0.0033192492194770943
2085.0,0.003303830813137625
2084.0,0.0032974864159169754
2083.0,0.0032967881788664435
2082.0,0.003304370971497888
2081.0,0.003325994845098708
2080.0,0.003347459352418237
2079.0,0.00334670819872148
2078.0,0.003331242522790253
2077.0,0.003330652673305215
2076.0,0.0033474316995660397
2075.0,0.0033500464296760527
2074.0,0.0033217600381944216
2073.0,0.003283534976275342
2072.0,0.0032596164271858808
2071.0,0.003251364465830635
2070.0,0.0032546537307697144
2069.0,0.003270241548610971
2068.0,0.0032876445214592097
2067.0,0.00328811234921704
2066.0,0.003270793859026192
2065.0,0.0032506396089135876
2064.0,0.003229685615601135
2063.0,0.0032019243758300018
2062.0,0.0031843111771971537
2061.0,0.003204365473310208
2060.0,0.003255528815638794
2059.0,0.0033019019454038046
2058.0,0.0033267318245558367
2057.0,0.003337578464193311
2056.0,0.0033297344557684386
2055.0,0.0032959149473538716
2054.0,0.003274391410374906
2053.0,0.0033270565376282055
2052.0,0.0034506264134157665
2051.0,0.0035587524153820093
2050.0,0.0035731744215429465
2049.0,0.0034996928926823196
2048.0,0.003398277074990682
2047.0,0.00331526877878076
2046.0,0.003271539999414708
2045.0,0.0032727786901883852
2044.0,0.003296203727287421
2043.0,0.0033045336323811255
2042.0,0.003296825316711457
2041.0,0.003310169701068098
2040.0,0.0033554804050673352
2039.0,0.003395539334841169
2038.0,0.003402265208340275
2037.0,0.003385909255768487
2036.0,0.0033531643292771538
2035.0,0.003288546566206624
2034.0,0.0032002145600164233
2033.0,0.0031350471571422464
2032.0,0.003119636113041889
2031.0,0.003130907758896194
2030.0,0.0031423280738518767
2029.0,0.0031521477308242727
2028.0,0.003155450901566192
2027.0,0.0031389370929603257
2026.0,0.00311328694172664
2025.0,0.0031029546132823995
2024.0,0.0030990709806514405
2023.0,0.0030719789369541466
2022.0,0.003030165334691681
2021.0,0.003008305522254156
2020.0,0.00299907250239701
2019.0,0.0029608867423220396
2018.0,0.002897270104148945
2017.0,0.002861819187999823
2016.0,0.002871079705907477
2015.0,0.0028812576531121294
2014.0,0.0028658512310688186
2013.0,0.002849353408586584
2012.0,0.0028510218383047794
2011.0,0.002855254489019238
2010.0,0.0028497914577173943
2009.0,0.002836412842399445
2008.0,0.0027943582909013866
2007.0,0.0026961806782189613
2006.0,0.002573495343864865
2005.0,0.002505427218235618
2004.0,0.0025252831099100677
2003.0,0.002591873954992532
2002.0,0.0026571633911556176
2001.0,0.002704084964819693
2000.0,0.00272157895132491
1999.0,0.002699329512922157
1998.0,0.0026588551189533163
1997.0,0.0026430290226021522
1996.0,0.0026581606939164613
1995.0,0.0026721946754580117
1994.0,0.002675529403781188
1993.0,0.0026941272625394994
1992.0,0.002733026739498125
1991.0,0.002760278081390723
1990.0,0.0027635692143507173
1989.0,0.0027694694423739227
1988.0,0.0027923041377865268
1987.0,0.002811482254722422
1986.0,0.0028110492100084897
1985.0,0.0028002031751050206
1984.0,0.0027893612486848
1983.0,0.002788342325552163
1982.0,0.0028265676989106697
1981.0,0.0029179102074080934
1980.0,0.0030032826386373695
1979.0,0.002988049036613699
1978.0,0.002856515679112423
1977.0,0.0026948038963725543
1976.0,0.0025767082543993254
1975.0,0.0025014961337937345
1974.0,0.002458723913359441
1973.0,0.002459425016587062
1972.0,0.0024823696917792783
1971.0,0.002473579468811064
1970.0,0.0024218298908929366
1969.0,0.0023710384582669914
1968.0,0.002344675800528866
1967.0,0.002320213835125941
1966.0,0.0022920142656457348
1965.0,0.002289212555837868
1964.0,0.0023138300654985474
1963.0,0.00232579919285008
1962.0,0.0023014005208412216
1961.0,0.0022551375889955393
1960.0,0.0021977227872449177
1959.0,0.00212620107560811
1958.0,0.002064524060346206
1957.0,0.0020550334903363353
1956.0,0.0020969490183588816
1955.0,0.0021428477836403816
1954.0,0.002161705853935185
1953.0,0.002163587736109021
1952.0,0.0021599640944772896
1951.0,0.0021477383178724503
1950.0,0.00213547671773357
1949.0,0.002139133089433805
1948.0,0.0021505579320434433
1947.0,0.0021462101230630727
1946.0,0.002127071244306367
1945.0,0.0021139937242441037
1944.0,0.0021070771595484354
1943.0,0.002091590070379418
1942.0,0.002079957652203563
1941.0,0.0020955412129777503
1940.0,0.0021191516603110212
1939.0,0.0021092911510192792
1938.0,0.0020670132747122407
1937.0,0.002033662539936549
1936.0,0.002027713270253819
1935.0,0.0020263280026247823
1934.0,0.0020134127261458175
1933.0,0.0020018635494113055
1932.0,0.001999865611187396
1931.0,0.0019994115716215066
1930.0,0.0020020541857286105
1929.0,0.0020168935354726064
1928.0,0.002036153401668034
1927.0,0.0020372107904866378
1926.0,0.002016412041188609
1925.0,0.0019894119304696227
1924.0,0.0019630208350967155
1923.0,0.001940502890879482
1922.0,0.0019375516509243067
1921.0,0.001961864697916591
1920.0,0.0019889870821198424
1919.0,0.0019887061281865384
1918.0,0.0019693430996732763
1917.0,0.0019628047402713107
1916.0,0.0019674814730825116
1915.0,0.001958457450683802
1914.0,0.0019440018215892392
1913.0,0.001955326447520995
1912.0,0.001989916413519844
1911.0,0.002012191269421882
1910.0,0.002008032919613438
1909.0,0.0019964300193363997
1908.0,0.0019882558350316193
1907.0,0.001972619274334977
1906.0,0.0019563339866157294
1905.0,0.0019642735650330237
1904.0,0.0019939026252419013
1903.0,0.0020158069374181654
1902.0,0.002016148088936562
1901.0,0.0020101711500686
1900.0,0.0020090538380911154
1899.0,0.0020035837892104042
1898.0,0.0019935325925029713
1897.0,0.0019932266449699822
1896.0,0.0020009048423066606
1895.0,0.001999680757200346
1894.0,0.001990184650477332
1893.0,0.0019882545147175902
1892.0,0.001989815119992869
1891.0,0.0019746217454152362
1890.0,0.0019475433488470206
1889.0,0.0019400958306385503
1888.0,0.001956889967045176
1887.0,0.0019664588501513702
1886.0,0.0019573786603333783
1885.0,0.0019534815680263256
1884.0,0.0019674064760027365
1883.0,0.0019812342521442093
1882.0,0.0019812827071732046
1881.0,0.0019782690705458157
1880.0,0.001981239433628901
1879.0,0.001980912304666591
1878.0,0.0019761285840711497
1877.0,0.001982755352714217
1876.0,0.0020005421568232836
1875.0,0.0020086800961377077
1874.0,0.0020000753394647836
1873.0,0.0019862341293904557
1872.0,0.001968188577412077
1871.0,0.0019344527022203861
1870.0,0.0018952841541169442
1869.0,0.0018887073916083455
1868.0,0.0019267800073703508
1867.0,0.0019698576588383877
1866.0,0.001984188513420774
1865.0,0.0019798397533312643
1864.0,0.001975346964998866
1863.0,0.001970000776112499
1862.0,0.001961989399256541
1861.0,0.001959717657416438
1860.0,0.0019623032713870204
1859.0,0.001955619212219738
1858.0,0.0019388697161124083
1857.0,0.0019289008667363978
1856.0,0.0019306010424194886
1855.0,0.0019299853766384118
1854.0,0.001925335659360477
1853.0,0.0019309008216010647
1852.0,0.0019472167936112473
1851.0,0.001949929403717768
1850.0,0.0019295010731354063
1849.0,0.0019097135961395244
1848.0,0.0019021661788052187
1847.0,0.001887801770884206
1846.0,0.001858022625449254
1845.0,0.0018409879193248212
1844.0,0.0018603314975272436
1843.0,0.0018950976695608144
1842.0,0.0019094266540663736
1841.0,0.0019012155691505743
1840.0,0.001892933645870145
1839.0,0.0018898784572962198
1838.0,0.0018875736609988325
1837.0,0.001889350403777492
1836.0,0.0018951707944045754
1835.0,0.0018979822453172954
1834.0,0.0018962076196197054
1833.0,0.001895931642862645
1832.0,0.0018973986092100411
1831.0,0.0018917626887357286
1830.0,0.001887109180693874
1829.0,0.0019024812340050672
1828.0,0.0019163795820849126
1827.0,0.0018930386238223858
1826.0,0.001851678959658739
1825.0,0.001845696177289234
1824.0,0.0018837281809714725
1823.0,0.0019183985407206557
1822.0,0.0019201696433927668
1821.0,0.0019089274680895948
1820.0,0.0019039176491481556
1819.0,0.0018939443157372417
1818.0,0.0018727149517569442
1817.0,0.0018576809845694264
1816.0,0.00186059213658964
1815.0,0.001870965720295555
1814.0,0.0018768614087438604
1813.0,0.0018861574807858524
1812.0,0.0019052160903112593
1811.0,0.0019242276655676229
1810.0,0.0019374726269237668
1809.0,0.0019485278577578771
1808.0,0.00195823962996142
1807.0,0.001962348288793449
1806.0,0.001962898326704353
1805.0,0.0019688340819903117
1804.0,0.001976896234439867
1803.0,0.0019736624446945418
1802.0,0.001959660631693311
1801.0,0.001960550042753733
1800.0,0.0019883248965884975
1799.0,0.002023061183965578
1798.0,0.0020488615342158577
1797.0,0.0020685687200713036
1796.0,0.00208261778549458
1795.0,0.002080640772951189
1794.0,0.002065222732502999
1793.0,0.002065539716032491
1792.0,0.00209732290145124
1791.0,0.002135009397652963
1790.0,0.002150336957098548
1789.0,0.002148811788311999
1788.0,0.0021479042851226195
1787.0,0.002146263079519523
1786.0,0.002139521913483946
1785.0,0.0021397233205362994
1784.0,0.0021509304687342148
1783.0,0.0021552749935594556
1782.0,0.002140730838240995
1781.0,0.0021303639642876607
1780.0,0.0021384374111660977
1779.0,0.00214191433692544
1778.0,0.0021265445918709825
1777.0,0.002110472131354815
1776.0,0.0021113494370217714
1775.0,0.0021124074279321877
1774.0,0.002099784478644624
1773.0,0.0021011650396793695
1772.0,0.0021411431056492258
1771.0,0.002182973732357735
1770.0,0.0021751394385919015
1769.0,0.0021321233264004653
1768.0,0.0021049165061969273
1767.0,0.0021110507358957525
1766.0,0.002130598436107876
1765.0,0.0021441005553274354
1764.0,0.0021473661200727147
1763.0,0.002144627886136275
1762.0,0.002146895902981396
1761.0,0.002168976192571114
1760.0,0.0021911325142068582
1759.0,0.0021811541977893034
1758.0,0.0021492427155898036
1757.0,0.0021379023330536013
1756.0,0.0021641560653094106
1755.0,0.0021866424798957233
1754.0,0.002172043708991675
1753.0,0.0021440837885620305
1752.0,0.0021368827658997413
1751.0,0.002144902548232795
1750.0,0.0021531940328717164
1749.0,0.0021652889208566093
1748.0,0.0021837569062873774
1747.0,0.002195127114571609
1746.0,0.002192781830532997
1745.0,0.002202599319121343
1744.0,0.0022402505191870155
1743.0,0.0022868047191860206
1742.0,0.0023269842641993085
1741.0,0.002380746967532772
1740.0,0.0024742227700039732
1739.0,0.0025933664870552843
1738.0,0.0026910044884905643
1737.0,0.0027440914382597195
1736.0,0.0027860201724719436
1735.0,0.0028627969008085292
1734.0,0.0029984342410985746
1733.0,0.0031856043374107867
1732.0,0.0033442117858526995
1731.0,0.003428081959573356
1730.0,0.0034967153498847653
1729.0,0.0036085141071174514
1728.0,0.003755214330648564
1727.0,0.0038881956328859647
1726.0,0.0039925976294085085
1725.0,0.004105402242199606
1724.0,0.004243441104520336
1723.0,0.004381368600230416
1722.0,0.00449764941557159
1721.0,0.004600939902372817
1720.0,0.004712302114641938
1719.0,0.004835787653150491
1718.0,0.004973561176028718
1717.0,0.005148989378754504
1716.0,0.005347433508035327
1715.0,0.005514551876357958
1714.0,0.005652687538061959
1713.0,0.0058051863452608585
1712.0,0.005983200730351452
1711.0,0.0061642542683643595
1710.0,0.006339390267751259
1709.0,0.006531253799461261
1708.0,0.006752760496243713
1707.0,0.006984871533299471
1706.0,0.0072255349755516035
1705.0,0.007493481758240283
1704.0,0.007761057386729695
1703.0,0.007972748057563556
1702.0,0.008161459298702977
1701.0,0.008457824679221605
1700.0,0.008910803705317308
1699.0,0.009358249077751901
1698.0,0.009662227901116687
1697.0,0.009932704053587059
1696.0,0.010329830493764958
1695.0,0.010811853370973639
1694.0,0.011236831583429545
1693.0,0.011575187648377647
1692.0,0.01191043368614888
1691.0,0.012298522957732778
1690.0,0.012722723949295465
1689.0,0.013151515707035074
1688.0,0.013563539999341697
1687.0,0.013944300585058939
1686.0,0.014334723204386335
1685.0,0.014821262952766152
1684.0,0.015403449230789613
1683.0,0.015935787569053585
1682.0,0.016325444270682204
1681.0,0.01666449340397925
1680.0,0.01706330100060678
1679.0,0.017498846653236193
1678.0,0.01791629641767093
1677.0,0.01833591994469566
1676.0,0.018799596260867413
1675.0,0.019280386926963725
1674.0,0.019722060415218384
1673.0,0.020128718911903522
1672.0,0.020535304593608996
1671.0,0.020956979343065524
1670.0,0.021383687134675852
1669.0,0.02182377020928389
1668.0,0.022270979886201688
1667.0,0.022679930198701896
1666.0,0.023053789232957495
1665.0,0.023448619261372837
1664.0,0.023887570304678984
1663.0,0.024328303245034728
1662.0,0.02473002159553057
1661.0,0.02512000243289319
1660.0,0.025524966113440038
1659.0,0.02592909173677256
1658.0,0.026322912333394344
1657.0,0.02673164525876469
1656.0,0.0271691248793495
1655.0,0.027601361021072142
1654.0,0.027940202747411873
1653.0,0.028202201444829954
1652.0,0.028583655360844874
1651.0,0.02900700753060358
1650.0,0.029364018066528413
1649.0,0.02974674429617579
1648.0,0.03018931278582923
1647.0,0.030615627442733113
1646.0,0.03098990042932187
1645.0,0.03137464285675737
1644.0,0.03179843754599829
1643.0,0.03223661900545487
1642.0,0.03265801349633845
1641.0,0.033059597552820674
1640.0,0.033449442563162055
1639.0,0.033797179999466666
1638.0,0.03403383011621685
1637.0,0.034039794241470134
1636.0,0.033694965436886444
1635.0,0.0331045199193333
1634.0,0.03253115239690827
1633.0,0.032035701115167535
1632.0,0.03155377903799194
1631.0,0.031031350964552458
1630.0,0.030428270282633077
1629.0,0.02974806538004207
1628.0,0.029050657600655838
1627.0,0.028415813241479505
1626.0,0.027865789043264606
1625.0,0.02734623665481857
1624.0,0.026772909967902686
1623.0,0.02613874178093338
1622.0,0.02555898770494583
1621.0,0.02511883494392407
1620.0,0.02477912669933456
1619.0,0.02443880939786358
1618.0,0.023988076352273444
1617.0,0.023391398957059883
1616.0,0.022786874946148797
1615.0,0.02230979350357343
1614.0,0.021926273390739187
1613.0,0.021563850005101203
1612.0,0.021188553613047854
1611.0,0.020794446296313874
1610.0,0.020395997810503386
1609.0,0.020009997320377094
1608.0,0.01964075130524248
1607.0,0.0192898906213919
1606.0,0.01896056651446525
1605.0,0.018651923073832576
1604.0,0.018353275115010895
1603.0,0.018057448896550924
1602.0,0.017773817712077943
1601.0,0.017508610340206784
1600.0,0.01725531070784219
1599.0,0.01700964202867208
1598.0,0.01677572089056019
1597.0,0.016552581335207265
1596.0,0.016329287700641047
1595.0,0.01610257369721297
1594.0,0.015882153404741955
1593.0,0.015674514880784612
1592.0,0.015476096135905195
1591.0,0.01528627896065396
1590.0,0.01511117582590472
1589.0,0.014950746064868993
1588.0,0.01479581929465448
1587.0,0.014642982354348678
1586.0,0.014501002047805134
1585.0,0.01437538469127142
1584.0,0.014262764450935102
1583.0,0.014155263409389607
1582.0,0.01405924189956237
1581.0,0.013987273414743762
1580.0,0.013935957002088783
1579.0,0.013889164258271912
1578.0,0.013837027170008988
1577.0,0.013770974842386954
1576.0,0.013697242110661438
1575.0,0.013653514295205975
1574.0,0.01363539406329211
1573.0,0.013615263964011798
1572.0,0.0135914449723932
1571.0,0.013562069447826331
1570.0,0.013529562428547004
1569.0,0.013513171993354244
1568.0,0.013514252638342217
1567.0,0.01351126136848026
1566.0,0.013511689705071408
1565.0,0.013530086729306575
1564.0,0.013562233335229252
1563.0,0.013595135722289107
1562.0,0.013631233534933071
1561.0,0.013683170391675837
1560.0,0.013721983208660866
1559.0,0.013690654293394592
1558.0,0.013696890008249965
1557.0,0.013745492016021182
1556.0,0.013749333923050588
1555.0,0.013754631852082836
1554.0,0.013795107448408846
1553.0,0.013861782455316253
1552.0,0.013917417184786604
1551.0,0.013941773657788613
1550.0,0.013958505616770246
1549.0,0.013988943545212674
1548.0,0.014027731779658027
1547.0,0.014053186780560615
1546.0,0.014058755102182147
1545.0,0.014051906975933996
1544.0,0.014041240407472434
1543.0,0.014031465761332997
1542.0,0.014023393358840276
1541.0,0.013991003285669521
1540.0,0.013908148103480514
1539.0,0.013829312906502321
1538.0,0.013790942036535286
1537.0,0.01375801865899709
1536.0,0.013718807987856085
1535.0,0.013667778432190364
1534.0,0.01359084404129583
1533.0,0.013512532845082406
1532.0,0.013455785823453635
1531.0,0.013403886947866069
1530.0,0.013354151179531345
1529.0,0.013310982297010499
1528.0,0.013262614851575231
1527.0,0.013197301935098925
1526.0,0.013128167735251816
1525.0,0.013082802318478526
1524.0,0.013056197175512268
1523.0,0.01301700555042887
1522.0,0.01295177680445599
1521.0,0.012895025481340201
1520.0,0.012875910302845663
1519.0,0.012858717041443188
1518.0,0.012821417189890046
1517.0,0.012772210912358823
1516.0,0.012717255759260042
1515.0,0.012657794702763576
1514.0,0.012591190955920172
1513.0,0.01252601113867181
1512.0,0.012463538683577092
1511.0,0.012400018522202917
1510.0,0.012336155795151994
1509.0,0.012275364268804174
1508.0,0.012202736561809117
1507.0,0.01209680506836305
1506.0,0.01202373426797457
1505.0,0.012024190967531203
1504.0,0.012026045620783824
1503.0,0.01200464969585267
1502.0,0.011985676412842672
1501.0,0.011987487858814797
1500.0,0.012004457269859381
1499.0,0.01201188329799476
1498.0,0.012001361226316204
1497.0,0.011991599456651372
1496.0,0.01199544138180324
1495.0,0.012004509249954477
1494.0,0.012009708840140867
1493.0,0.01201974656240007
1492.0,0.012037938068749563
1491.0,0.012049955572825096
1490.0,0.01205472461681541
1489.0,0.012071621312947926
1488.0,0.012097318613418076
1487.0,0.0121195242498375
1486.0,0.012146660399121963
1485.0,0.012191096583004565
1484.0,0.012250948108643578
1483.0,0.0123125178432032
1482.0,0.012392211737173293
1481.0,0.012522764662516409
1480.0,0.012708838912115402
1479.0,0.012956247625571396
1478.0,0.013352231495627443
1477.0,0.014060608460387359
1476.0,0.01519640160671491
1475.0,0.01673173390257658
1474.0,0.01846198283070926
1473.0,0.01988143174353076
1472.0,0.02039201798287791
1471.0,0.020061328083518924
1470.0,0.01946568468013305
1469.0,0.018975311990421875
1468.0,0.018673502669736223
1467.0,0.018576033961080412
1466.0,0.018780311032794216
1465.0,0.019389018273508307
1464.0,0.020223936199306212
1463.0,0.02085225630301763
1462.0,0.020992728140607972
1461.0,0.020638212383528233
1460.0,0.019938071413786913
1459.0,0.01909087570672974
1458.0,0.01827519353073787
1457.0,0.017630186000642457
1456.0,0.017241878421819394
1455.0,0.01705283864561736
1454.0,0.016947156619837193
1453.0,0.016860950661051463
1452.0,0.016769467814768235
1451.0,0.01668381540698029
1450.0,0.01661936388823015
1449.0,0.01656501732534455
1448.0,0.016507126713521145
1447.0,0.016460842735890758
1446.0,0.01643915023668065
1445.0,0.016433474701418795
1444.0,0.016424900063599028
1443.0,0.016410329649907757
1442.0,0.01640328759843979
1441.0,0.016406398963948365
1440.0,0.016409207398842995
1439.0,0.016402315834234963
1438.0,0.01638107265727341
1437.0,0.016333357195910073
1436.0,0.01627355352202602
1435.0,0.016241755201229446
1434.0,0.016245934609086708
1433.0,0.016265187948508415
1432.0,0.016274177259785645
1431.0,0.016260186382873708
1430.0,0.01623285687231973
1429.0,0.016205291568495716
1428.0,0.016182191139393648
1427.0,0.016167338648168043
1426.0,0.016159053131510403
1425.0,0.01615313796234301
1424.0,0.016143596380693525
1423.0,0.016134652786932446
1422.0,0.01613347477654591
1421.0,0.01612936588844106
1420.0,0.016098235042270342
1419.0,0.01603778245941712
1418.0,0.015989456356411424
1417.0,0.015966795977014402
1416.0,0.015949449773769213
1415.0,0.01593169685705642
1414.0,0.015913963471325714
1413.0,0.015882296823596487
1412.0,0.015813816077581866
1411.0,0.01570563888490817
1410.0,0.015577714412086514
1409.0,0.015437472348389193
1408.0,0.015269829898396769
1407.0,0.015063989137680714
1406.0,0.014820472234701326
1405.0,0.014548293594353855
1404.0,0.014267548745254807
1403.0,0.014007093418141492
1402.0,0.013774537122397124
1401.0,0.013540405093271774
1400.0,0.01327389715831307
1399.0,0.012989786564157842
1398.0,0.012730953498996077
1397.0,0.012499959823248457
1396.0,0.012268220322297983
1395.0,0.012030468192049367
1394.0,0.011812038185991927
1393.0,0.011628658349121607
1392.0,0.011469566839934633
1391.0,0.011325062391509015
1390.0,0.011188088142441854
1389.0,0.011041494590027331
1388.0,0.01087329809933045
1387.0,0.01070209904437257
1386.0,0.010556039527249754
1385.0,0.01043461729231778
1384.0,0.010322432493244897
1383.0,0.010216752330020614
1382.0,0.010122267219879211
1381.0,0.010032652928275466
1380.0,0.009938402279401832
1379.0,0.00984027003850969
1378.0,0.00974182056399441
1377.0,0.00963681068040181
1376.0,0.009516426084387115
1375.0,0.009384271261533274
1374.0,0.00925564243618309
1373.0,0.009143661885416831
1372.0,0.009050193237127909
1371.0,0.008971517441999555
1370.0,0.008896583151443921
1369.0,0.008810390394980643
1368.0,0.00870767942061839
1367.0,0.008599027801855924
1366.0,0.008493885213276143
1365.0,0.008386840958805377
1364.0,0.008268832095241554
1363.0,0.008143644003172265
1362.0,0.008025337420675214
1361.0,0.007922625355057049
1360.0,0.00783805470269962
1359.0,0.007773668562890978
1358.0,0.007725315121966621
1357.0,0.0076816522261458995
1356.0,0.007635662457217111
1355.0,0.007590853880778082
1354.0,0.007550433932632257
1353.0,0.00750961049296644
1352.0,0.007464842329856492
1351.0,0.007421071031172717
1350.0,0.007379086795577661
1349.0,0.0073321736745751345
1348.0,0.007275924657494564
1347.0,0.0072157645792862
1346.0,0.007157868098421312
1345.0,0.007101159832618312
1344.0,0.007044289589668762
1343.0,0.006990237062671351
1342.0,0.006938059133335096
1341.0,0.006878681159711285
1340.0,0.006806608389231902
1339.0,0.0067297586366031215
1338.0,0.006659036533985021
1337.0,0.006595789897046863
1336.0,0.006538020887621532
1335.0,0.006487593238258701
1334.0,0.006444172043276485
1333.0,0.006401620164871353
1332.0,0.006356418457162321
1331.0,0.006312339656326998
1330.0,0.0062717485403365105
1329.0,0.006230508774696629
1328.0,0.006186055515278321
1327.0,0.006143107800690214
1326.0,0.006105698433347248
1325.0,0.006072065314634693
1324.0,0.006040237703953209
1323.0,0.006012144437836965
1322.0,0.005987704165535686
1321.0,0.0059621602988052125
1320.0,0.005934425004498648
1319.0,0.005910663802113849
1318.0,0.005894424978464348
1317.0,0.005880435893643775
1316.0,0.005863615162603433
1315.0,0.005845635235975116
1314.0,0.0058280408333043696
1313.0,0.005806735810932415
1312.0,0.0057786031216578
1311.0,0.005746904621657013
1310.0,0.005715126362375804
1309.0,0.005682297235348504
1308.0,0.0056483019931583296
1307.0,0.005617412931316047
1306.0,0.0055913846064120885
1305.0,0.005566236343843093
1304.0,0.005538767453892552
1303.0,0.005511127460688976
1302.0,0.00548541752586168
1301.0,0.005459897233732858
1300.0,0.005433894941712711
1299.0,0.0054101482121057115
1298.0,0.005389076595641546
1297.0,0.005366844750087758
1296.0,0.0053425998518930075
1295.0,0.005321088876150015
1294.0,0.005305205565522197
1293.0,0.005291968562934474
1292.0,0.005278500413228969
1291.0,0.005265636248455248
1290.0,0.005253224944998769
1289.0,0.005238847649905069
1288.0,0.005224088329747615
1287.0,0.005215017078918813
1286.0,0.005213210777274029
1285.0,0.005213047909450439
1284.0,0.005210567747557975
1283.0,0.005207998050442702
1282.0,0.005206910196670153
1281.0,0.005204113687958334
1280.0,0.005198061066327657
1279.0,0.005192524806881767
1278.0,0.005190818783391704
1277.0,0.005192078767598666
1276.0,0.005195963011029137
1275.0,0.005204353520617235
1274.0,0.0052158432377425075
1273.0,0.005225611811460331
1272.0,0.00523415519059184
1271.0,0.005249573703969154
1270.0,0.005277371215341765
1269.0,0.005314089131885037
1268.0,0.005354225882286066
1267.0,0.005396555066964563
1266.0,0.0054406850560512025
1265.0,0.005484082506311673
1264.0,0.00552638506730359
1263.0,0.00557052406801439
1262.0,0.0056159406915121685
1261.0,0.005656775884568938
1260.0,0.005690766131750295
1259.0,0.00572380286922195
1258.0,0.005761810734730602
1257.0,0.005803262346599258
1256.0,0.005843650866162259
1255.0,0.0058819462580330314
1254.0,0.005918743418277472
1253.0,0.005952773572704151
1252.0,0.005983559282347646
1251.0,0.006013944043473777
1250.0,0.006046506636341431
1249.0,0.006080595857488489
1248.0,0.006115384360531278
1247.0,0.006151940316471946
1246.0,0.006190012360247892
1245.0,0.006226841318643645
1244.0,0.006261995720611042
1243.0,0.006299151567597881
1242.0,0.006339941668336974
1241.0,0.006380005883728812
1240.0,0.006414141844241852
1239.0,0.006441730924927029
1238.0,0.006464534519808135
1237.0,0.006483191028623268
1236.0,0.006499257856212
1235.0,0.006517078888694733
1234.0,0.0065397113499074955
1233.0,0.006565499503439553
1232.0,0.006591596358962391
1231.0,0.006618203606188091
1230.0,0.006646898431191711
1229.0,0.006677858368460566
1228.0,0.006711467184686022
1227.0,0.00674962593493878
1226.0,0.006792810439630818
1225.0,0.006838884764103921
1224.0,0.006887376589419743
1223.0,0.00694166024284327
1222.0,0.007003911427819637
1221.0,0.007070750768960644
1220.0,0.00713683972715237
1219.0,0.007200279126355376
1218.0,0.0072618449035608944
1217.0,0.007321472261202102
1216.0,0.007378794974348648
1215.0,0.007435426619866854
1214.0,0.0074935808469075126
1213.0,0.007553373839344599
1212.0,0.007613627130891084
1211.0,0.007674303348485753
1210.0,0.007736333988136024
1209.0,0.007800418052709774
1208.0,0.007867492200688078
1207.0,0.007938556799413233
1206.0,0.008012334611392233
1205.0,0.008085039088839369
1204.0,0.008154396843755811
1203.0,0.008222119698096145
1202.0,0.00829053014767683
1201.0,0.00835854630452742
1200.0,0.008423240217743651
1199.0,0.008483695566313076
1198.0,0.008540765852533926
1197.0,0.008594096955769367
1196.0,0.008642237815914906
1195.0,0.008685295532850648
1194.0,0.008724800558791029
1193.0,0.00876092774381255
1192.0,0.00879217385701491
1191.0,0.008818087509624489
1190.0,0.00884021463883728
1189.0,0.008859801464155744
1188.0,0.008876210830363176
1187.0,0.008888036604163088
1186.0,0.008894802826419836
1185.0,0.008898179504347958
1184.0,0.008903179163803438
1183.0,0.008917302428805873
1182.0,0.008945870694666912
1181.0,0.008988232639342227
1180.0,0.009040756407580135
1179.0,0.009102908493152278
1178.0,0.009177634075020877
1177.0,0.0092657585142857
1176.0,0.009363092539548661
1175.0,0.00946420548848675
1174.0,0.009567074276854671
1173.0,0.00967276905353035
1172.0,0.009782044856623116
1171.0,0.009894051558263213
1170.0,0.010007733269590683
1169.0,0.010122900754485482
1168.0,0.01024003574001118
1167.0,0.010360063625464894
1166.0,0.010483957531421846
1165.0,0.010611442677480588
1164.0,0.010740261607929756
1163.0,0.010867476090222606
1162.0,0.010991090822361564
1161.0,0.011110185047951946
1160.0,0.0112252669619371
1159.0,0.01133998967294841
1158.0,0.011460619530048233
1157.0,0.011591234538342201
1156.0,0.011730384135999451
1155.0,0.011874131942485797
1154.0,0.012020425495747996
1153.0,0.012168109355855217
1152.0,0.012314245773979833
1151.0,0.012456506584832158
1150.0,0.012596642417790207
1149.0,0.012737264936302867
1148.0,0.01287662041241407
1147.0,0.013010975010137059
1146.0,0.01314054330711905
1145.0,0.013268037880585441
1144.0,0.013392936456116899
1143.0,0.013512861996717328
1142.0,0.013629423928427205
1141.0,0.013746496055834365
1140.0,0.01386346761874908
1139.0,0.013976323976760019
1138.0,0.01408462532428736
1137.0,0.014191334423305745
1136.0,0.01429731256681633
1135.0,0.01440289013470962
1134.0,0.014512855128510475
1133.0,0.014631655155414248
1132.0,0.014754999016915918
1131.0,0.014874863284830515
1130.0,0.014992401740302839
1129.0,0.015117150573063131
1128.0,0.015253378749814757
1127.0,0.01539564164560531
1126.0,0.015537196063078181
1125.0,0.01567301227726802
1124.0,0.01579455365762365
1123.0,0.015892885348481132
1122.0,0.015969315530555337
1121.0,0.01603406148487072
1120.0,0.01609454654957924
1119.0,0.016154474286865724
1118.0,0.016221762203728438
1117.0,0.016303865720664962
1116.0,0.016394242259402596
1115.0,0.016475706794924015
1114.0,0.01653950257732099
1113.0,0.016590618580861617
1112.0,0.016634060595089057
1111.0,0.016668820655318557
1110.0,0.01669663001652751
1109.0,0.01672310343262625
1108.0,0.016747172775236234
1107.0,0.016761479837787457
1106.0,0.016765405358895476
1105.0,0.016766602889950674
1104.0,0.016768190049000934
1103.0,0.016765728902042223
1102.0,0.01675793174336214
1101.0,0.016748846222588865
1100.0,0.016737833618547627
1099.0,0.016718263126290156
1098.0,0.01668771027125573
1097.0,0.016649280942839243
1096.0,0.016603381028630227
1095.0,0.01654857661286182
1094.0,0.016489299598738398
1093.0,0.016431585985276526
1092.0,0.01637366233062526
1091.0,0.01631274119396964
1090.0,0.01625776944425439
1089.0,0.016221389569973658
1088.0,0.01620181587192043
1087.0,0.01618788906666784
1086.0,0.016180266244544175
1085.0,0.01618934240825406
1084.0,0.01620952112451188
1083.0,0.016212926061066682
1082.0,0.016175403549219286
1081.0,0.01609669646945465
1080.0,0.01599138650602612
1079.0,0.015873503062889382
1078.0,0.01575368819131262
1077.0,0.015637598180337414
1076.0,0.015520543827021425
1075.0,0.01539238848728803
1074.0,0.015251485713165466
1073.0,0.015106192485901615
1072.0,0.014961677006999737
1071.0,0.014814420729404608
1070.0,0.01466107536843593
1069.0,0.014503997932195624
1068.0,0.014346480674151795
1067.0,0.014190027629011018
1066.0,0.014037027955093533
1065.0,0.01388916678390045
1064.0,0.013742892092640461
1063.0,0.013592634002411168
1062.0,0.013438439114075773
1061.0,0.01328521346165552
1060.0,0.013135929210811921
1059.0,0.012991460916666267
1058.0,0.012854962291365808
1057.0,0.012729270210845557
1056.0,0.012610798529680663
1055.0,0.012492441579871994
1054.0,0.012372637530830441
1053.0,0.01225662404260986
1052.0,0.012149134935776944
1051.0,0.0120509507103695
1050.0,0.011962042696841611
1049.0,0.011881724937830539
1048.0,0.01180490421205464
1047.0,0.011722968647289014
1046.0,0.0116281681399668
1045.0,0.011514263571648024
1044.0,0.01137610388383338
1043.0,0.01121359441368638
1042.0,0.011034268519462244
1041.0,0.010847993829494544
1040.0,0.01066088625505753
1039.0,0.01047670809790111
1038.0,0.010299992857554341
1037.0,0.010133483662663584
1036.0,0.009975182964483334
1035.0,0.00982163382793238
1034.0,0.009672224948033612
1033.0,0.009527774666836068
1032.0,0.009387628572070688
1031.0,0.009251135851803557
1030.0,0.009119612959744968
1029.0,0.008993938752854345
1028.0,0.008871891664457534
1027.0,0.008749771594780496
1026.0,0.008624853228741729
1025.0,0.00849514419888171
1024.0,0.008359568305852808
1023.0,0.008220271314592078
1022.0,0.008082355532916495
1021.0,0.007949402560624043
1020.0,0.007820739145179856
1019.0,0.007693564889681308
1018.0,0.007565413204105391
1017.0,0.00743447340104471
1016.0,0.007300751636802404
1015.0,0.007167563230700688
1014.0,0.007038814270423783
1013.0,0.006914358938076405
1012.0,0.006791163299001991
1011.0,0.006669139241323034
1010.0,0.006552271205074156
1009.0,0.0064436219219387355
1008.0,0.006342809445843865
1007.0,0.006248858085604905
1006.0,0.00616159073775532
1005.0,0.006078774631823339
1004.0,0.005995026423771659
1003.0,0.0059055291707137605
1002.0,0.005809578517578169
1001.0,0.005710179457187818
1000.0,0.005611700299567354
999.0,0.00551735157653354
998.0,0.005426736709829405
997.0,0.005336435261940215
996.0,0.00524491207252808
995.0,0.0051552939867558
994.0,0.005070636722235438
993.0,0.0049885319777708634
992.0,0.004904393056305974
991.0,0.004818665365018019
990.0,0.004736777872693729
989.0,0.004664028703268637
988.0,0.0046057635425756135
987.0,0.004570049991778938
986.0,0.00456096581044165
985.0,0.004566186006629622
984.0,0.004557451884023492
983.0,0.00450918307176074
982.0,0.004416909481464521
981.0,0.004296969883898142
980.0,0.004171412817768935
979.0,0.00405512074313189
978.0,0.003952905621750108
977.0,0.0038630434543672817
976.0,0.0037821974205664317
975.0,0.003708320914582586
974.0,0.003640228774366115
973.0,0.003576041548794111
972.0,0.003513485750263749
971.0,0.003451381941418221
970.0,0.0033900087666958387
969.0,0.003330665524175446
968.0,0.0032753153417249426
967.0,0.0032249576028078077
966.0,0.003177303285430609
965.0,0.0031281233609448574
964.0,0.003076199279107362
963.0,0.0030243436254056063
962.0,0.00297384252047596
961.0,0.002921356283131782
960.0,0.002864448502849422
959.0,0.002806918294534314
958.0,0.0027541590350872404
957.0,0.00270532752489427
956.0,0.002655033467848447
955.0,0.0026017636631368536
954.0,0.0025499224523403514
953.0,0.0025037517959375115
952.0,0.002463506993110263
951.0,0.0024277739474909505
950.0,0.0023954188942033883
949.0,0.0023645464425462517
948.0,0.0023329289323212477
947.0,0.002300498148805551
946.0,0.002269279450720866
945.0,0.0022407781293779724
944.0,0.002215577911902882
943.0,0.002194947598436083
942.0,0.0021800185320865863
941.0,0.0021694531705193426
940.0,0.0021605526886932383
939.0,0.0021528053899984665
938.0,0.002148010411002466
937.0,0.0021468051064757196
936.0,0.00214725337248002
935.0,0.002146839186297457
934.0,0.002143606100391381
933.0,0.0021351712321745096
932.0,0.0021189281049720874
931.0,0.002094303963794302
930.0,0.002063951382353376
929.0,0.0020325980043224678
928.0,0.0020052966505260516
927.0,0.0019854296138615357
926.0,0.0019722419466929146
925.0,0.0019608642055351042
924.0,0.0019467681469366466
923.0,0.0019300024459541444
922.0,0.0019138648655444498
921.0,0.0019006104910522306
920.0,0.0018903635431860178
919.0,0.0018829417282164671
918.0,0.00187811221049716
917.0,0.0018747457161472428
916.0,0.0018723159300429492
915.0,0.0018729103165924556
914.0,0.0018793027577553092
913.0,0.0018909646341118344
912.0,0.0019038618712429387
911.0,0.0019139267863095763
910.0,0.0019190477112949545
909.0,0.0019186835723324497
908.0,0.0019142569577292583
907.0,0.0019095703302662364
906.0,0.0019078477179495321
905.0,0.001907996977168874
904.0,0.0019061459681680585
903.0,0.0019008807002013628
902.0,0.0018945874990564573
901.0,0.0018897896326767498
900.0,0.0018869897380075027
899.0,0.001886140975472233
898.0,0.0018869633341849152
897.0,0.0018871454064875327
896.0,0.0018834832027864535
895.0,0.0018762628717880177
894.0,0.0018699957919066281
893.0,0.0018685100537998572
892.0,0.0018717472162162376
891.0,0.001878774051867804
890.0,0.0018914461647787885
889.0,0.0019131662453358792
888.0,0.0019459367241492793
887.0,0.0019907746772976857
886.0,0.002049852080478555
885.0,0.0021263759411165985
884.0,0.002223054026878994
883.0,0.002341963632913011
882.0,0.0024848218766394745
881.0,0.0026510176244757024
880.0,0.00283463077426511
879.0,0.00302436782938181
878.0,0.003207510027150128
877.0,0.0033746452229191613
876.0,0.0035215916124121775
875.0,0.003646913689900992
874.0,0.0037447294868906116
873.0,0.003798044118799873
872.0,0.003784556980110992
871.0,0.0036972151751912524
870.0,0.003559435236123473
869.0,0.0034148490733436707
868.0,0.003301803759016342
867.0,0.0032390497278888732
866.0,0.003229232484180864
865.0,0.0032673731472471906
864.0,0.0033453357427143202
863.0,0.0034541446380707674
862.0,0.003586487349680546
861.0,0.0037367880406528695
860.0,0.003898892952370817
859.0,0.004066365261934112
858.0,0.00423524459065067
857.0,0.004401875866259276
856.0,0.004554966315758711
855.0,0.004672487307788695
854.0,0.004729966906061105
853.0,0.004712398715367952
852.0,0.004620363636229356
851.0,0.004469975207740642
850.0,0.004288002130856778
849.0,0.00410321905466623
848.0,0.003940466628888665
847.0,0.0038201814809464933
846.0,0.0037546080764069515
845.0,0.0037372893261517406
844.0,0.0037403147725829713
843.0,0.0037316657149621454
842.0,0.003699344429815928
841.0,0.003656057376424696
840.0,0.003621182622568676
839.0,0.0036035358730160012
838.0,0.0036006737997359393
837.0,0.0036069964931612335
836.0,0.0036185200558794713
835.0,0.003633420203568799
834.0,0.0036513618777175173
833.0,0.003671099489097468
832.0,0.0036886739409642405
831.0,0.0037013042784042605
830.0,0.003713189749075871
829.0,0.003732623829733722
828.0,0.0037617856886759966
827.0,0.003793966566023193
826.0,0.0038227261045500095
825.0,0.0038487400595022866
824.0,0.003875723118191227
823.0,0.0039057956040095213
822.0,0.0039407557611756475
821.0,0.003981176660743796
820.0,0.004022677123633274
819.0,0.004059105461649578
818.0,0.004090253701806367
817.0,0.004121499585414313
816.0,0.0041561899688506414
815.0,0.004193798047820465
814.0,0.0042350321121890685
813.0,0.004281946082689824
812.0,0.004332093695006303
811.0,0.004379251691227002
810.0,0.004421508396451354
809.0,0.004462309083196999
808.0,0.004502344300909395
807.0,0.004537850128425927
806.0,0.0045689129604838796
805.0,0.004601665506462561
804.0,0.004639446285784457
803.0,0.004679167623411721
802.0,0.004719203882550918
801.0,0.004762863959652055
800.0,0.004810228838381387
799.0,0.004854617371478673
798.0,0.004892502744390188
797.0,0.004930125811934171
796.0,0.004974735818839851
795.0,0.0050250512083844494
794.0,0.0050754036555476605
793.0,0.005123750937750882
792.0,0.005170421698394307
791.0,0.0052142691949847025
790.0,0.005255512182169315
789.0,0.005298179634960607
788.0,0.005345266369405204
787.0,0.005394946529717587
786.0,0.005444585643736429
785.0,0.00549437682756887
784.0,0.0055445864480726005
783.0,0.005594112583455707
782.0,0.005643929492239602
781.0,0.005696285027892165
780.0,0.005748367987655122
779.0,0.00579332311894579
778.0,0.005830413210428209
777.0,0.0058676666627547076
776.0,0.005911496004856527
775.0,0.005960199841413393
774.0,0.006010341865725492
773.0,0.006062145380163357
772.0,0.006114787671381431
771.0,0.0061635010867336065
770.0,0.006206079993543922
769.0,0.006246447417656099
768.0,0.006287901527744253
767.0,0.006328644075487369
766.0,0.006367241357493791
765.0,0.006406142431635637
764.0,0.006446402992068138
763.0,0.006485033710196115
762.0,0.006520756940183014
761.0,0.00655673781848151
760.0,0.006595075597440613
759.0,0.006634251015217221
758.0,0.006673574969966015
757.0,0.006713776660132417
756.0,0.0067522293832725875
755.0,0.006785017256853064
754.0,0.006814899118624188
753.0,0.006849350590252025
752.0,0.006889844826608668
751.0,0.006931233787813979
750.0,0.006971527810441011
749.0,0.007012649468787897
748.0,0.007051623811437405
747.0,0.007082363277451355
746.0,0.007107443662721478
745.0,0.007136344520074693
744.0,0.007170029320502551
743.0,0.007199140585039692
742.0,0.007219905143071907
741.0,0.00723980254139879
740.0,0.0072651477108637424
739.0,0.007295933890007768
738.0,0.007335660672973225
737.0,0.007395840056979743
736.0,0.007496441867461633
735.0,0.007683168873290616
734.0,0.00803861169939849
733.0,0.008630715798816005
732.0,0.009411342123387182
731.0,0.010175224918358105
730.0,0.010663942831756167
729.0,0.010745992841418552
728.0,0.010502138342813095
727.0,0.010142539797524622
726.0,0.009858026457494114
725.0,0.009744474382746584
724.0,0.009836865198673085
723.0,0.0101785033065082
722.0,0.01082037289553359
721.0,0.011723566532120623
720.0,0.012671568498631085
719.0,0.013352680222048309
718.0,0.013580009978159287
717.0,0.013395250402315113
716.0,0.01296670053601071
715.0,0.01245147561995862
714.0,0.011943676774641147
713.0,0.011483785112534669
712.0,0.01107735218507435
711.0,0.01071551569242216
710.0,0.010398273291096077
709.0,0.010138332304914146
708.0,0.00994025223015001
707.0,0.009787721533090925
706.0,0.009660415155859029
705.0,0.009553875496657444
704.0,0.00947459294704657
703.0,0.009426280961153059
702.0,0.009407815160624954
701.0,0.009411664037489765
700.0,0.009415961262732052
699.0,0.009391492837230186
698.0,0.009329047352615659
697.0,0.00925005006245485
696.0,0.009181085691653646
695.0,0.009129769376450277
694.0,0.009091324487770319
693.0,0.009062650622465397
692.0,0.009039051634262718
691.0,0.009011045718775548
690.0,0.008978895461168264
689.0,0.008958680497993962
688.0,0.008959493491229608
687.0,0.008967106136038825
686.0,0.008964913765228462
685.0,0.008956191058771889
684.0,0.008951477880706438
683.0,0.008950891024468909
682.0,0.008952778496178284
681.0,0.008964067490636312
680.0,0.008987917244432129
679.0,0.009012834672097656
678.0,0.009026892812871765
677.0,0.009032527789961116
676.0,0.009036710893311165
675.0,0.009041139055613993
674.0,0.009052087851865554
673.0,0.009080296694968348
672.0,0.00912360746509016
671.0,0.009160674348579135
670.0,0.009170544772339233
669.0,0.009138793892134903
668.0,0.009087341830064474
667.0,0.009077634208037672
666.0,0.00910521368024491
665.0,0.009129868536937282
664.0,0.009144915696373941
663.0,0.009144162749906638
662.0,0.009129601189002776
661.0,0.009117627362612866
660.0,0.009115536573908272
659.0,0.009112290874945382
658.0,0.009103324776180914
657.0,0.009099022082651238
656.0,0.009096649294335249
655.0,0.009076583097470857
654.0,0.009040134915809402
653.0,0.00901714952729089
652.0,0.009021716567881803
651.0,0.009032379823093004
650.0,0.009028431778463516
649.0,0.009013205130980462
648.0,0.008986624679591975
647.0,0.008935072150077505
646.0,0.00886883541975304
645.0,0.008825815551165333
644.0,0.008817862280547203
643.0,0.008809925074661905
642.0,0.008772129898715238
641.0,0.008718161216148566
640.0,0.008667826334071507
639.0,0.00861218876204536
638.0,0.008546779306199667
637.0,0.008499370484605771
636.0,0.0084905570719607
635.0,0.008500131666971344
634.0,0.008502751788584093
633.0,0.008502342435093242
632.0,0.008501586774884468
631.0,0.00847767764688023
630.0,0.008421564211008349
629.0,0.008361948383943177
628.0,0.008317806513008369
627.0,0.008264611985508392
626.0,0.008179980988827256
625.0,0.008083682044288061
624.0,0.0079953039341749
623.0,0.007894150488654952
622.0,0.007763894602937048
621.0,0.0076324389547180755
620.0,0.007525056421883733
619.0,0.007422676412052395
618.0,0.007304918839674825
617.0,0.007191829900781065
616.0,0.007105352580010254
615.0,0.007037585925964249
614.0,0.006989442534932628
613.0,0.0069889744423828806
612.0,0.007042961398902765
611.0,0.00711333820261785
610.0,0.0071710972737381775
609.0,0.007230410296029811
608.0,0.007298248532303313
607.0,0.007343388728292958
606.0,0.007350924432617643
605.0,0.007352202680337471
604.0,0.007366768110287964
603.0,0.007373067770326241
602.0,0.007361664792976072
601.0,0.0073560637656739924
600.0,0.007357967554800166
599.0,0.007329630067710556
598.0,0.007254022579041123
597.0,0.007156410829391372
596.0,0.007046070198286299
595.0,0.006899263075241073
594.0,0.0067193104632759584
593.0,0.0065473617480114096
592.0,0.006392718139195973
591.0,0.006217636183954505
590.0,0.006011471621283203
589.0,0.005809286196812492
588.0,0.005623443116904582
587.0,0.00543247867642967
586.0,0.005243182515518122
585.0,0.005089288211442972
584.0,0.004957007646614045
583.0,0.004784291701397518
582.0,0.004557853992370391
581.0,0.004334336286423655
580.0,0.004141906287107351
579.0,0.003950319036328101
578.0,0.0037565464458339127
577.0,0.003609078645482551
576.0,0.003520151741709353
575.0,0.003430247814502378
574.0,0.003298182111315655
573.0,0.0031522598351325336
572.0,0.003019729442780006
571.0,0.0028939015038993154
570.0,0.002792037397997797
569.0,0.0027582279523865084
568.0,0.0027862591028022504
567.0,0.0028052188195791354
566.0,0.0027736078739183604
565.0,0.002729031594724622
564.0,0.0027026363234239643
563.0,0.0026604457919665384
562.0,0.002575158756722616
561.0,0.002480972698269114
560.0,0.002413181639660991
559.0,0.002360210045344967
558.0,0.0023128938362116658
557.0,0.0022983162435876153
556.0,0.002321396633564468
555.0,0.0023200335188852776
554.0,0.0022395884035510422
553.0,0.0021114554893792974
552.0,0.0019938822059754734
551.0,0.0018902986448321047
550.0,0.0017747937453965641
