cm-1,A
4000.0,0.002533836161288161
3999.0,0.002555014338996804
3998.0,0.002634450531793944
3997.0,0.0027264091196288077
3996.0,0.002806229556430716
3995.0,0.0028779036481392777
3994.0,0.002947280174211685
3993.0,0.002999230873586051
3992.0,0.00301454455981957
3991.0,0.0030043038066253393
3990.0,0.00300370778641027
3989.0,0.0030223314950256538
3988.0,0.0030267505782284893
3987.0,0.0029825738041420677
3986.0,0.0029033736750241103
3985.0,0.0028389480306479694
3984.0,0.002817071839965251
3983.0,0.0028248131012145513
3982.0,0.0028418084443730014
3981.0,0.0028733176279498295
3980.0,0.002930542625955719
3979.0,0.00299270500355096
3978.0,0.0030209839831392173
3977.0,0.0030129822030516996
3976.0,0.003020003639875521
3975.0,0.0030861982278606835
3974.0,0.0031913541611035285
3973.0,0.003266237099939312
3972.0,0.0032652707568059137
3971.0,0.003201446700431451
3970.0,0.0031135644115487006
3969.0,0.003027763981807102
3968.0,0.002951419798336309
3967.0,0.002902843509363184
3966.0,0.0029136710221281965
3965.0,0.0029870572379690936
3964.0,0.0030745021229385393
3963.0,0.0031112121142307866
3962.0,0.003086858853941424
3961.0,0.00305275889566067
3960.0,0.0030487286891461556
3959.0,0.0030511632448832916
3958.0,0.003011686391683763
3957.0,0.002935043142656536
3956.0,0.0028857072199740385
3955.0,0.0029302354257772553
3954.0,0.0030773008488438943
3953.0,0.0032680381934262186
3952.0,0.0034208036717338405
3951.0,0.003484170836245682
3950.0,0.0034660448873083775
3949.0,0.003423907734180805
3948.0,0.0034205239746272313
3947.0,0.0034905165038301
3946.0,0.0036094056285242444
3945.0,0.0036617736207004738
3944.0,0.0035528740125406622
3943.0,0.0033604029629241295
3942.0,0.003253546137146339
3941.0,0.003286771025619731
3940.0,0.0033635604208530206
3939.0,0.0033697018060398036
3938.0,0.003296362180365841
3937.0,0.0032390169748854024
3936.0,0.003262375842324238
3935.0,0.0033178292869326786
3934.0,0.0033330424005852347
3933.0,0.003330913916105691
3932.0,0.0034010316893789676
3931.0,0.003541052159669761
3930.0,0.0036781610375328042
3929.0,0.00381170247553478
3928.0,0.003961092938414635
3927.0,0.004042408237892762
3926.0,0.003944435613018842
3925.0,0.0037568314423260685
3924.0,0.003691316406250769
3923.0,0.0037743171443443517
3922.0,0.003854500524445425
3921.0,0.0038105860949630282
3920.0,0.0036670592647439527
3919.0,0.0035143280275207155
3918.0,0.0033809353938474163
3917.0,0.003265709346497713
3916.0,0.003199030812878834
3915.0,0.003182349068766464
3914.0,0.0031495467473576406
3913.0,0.0030254849897648935
3912.0,0.0028418656430618146
3911.0,0.0027256701013249653
3910.0,0.0027652073516393674
3909.0,0.0029699227651111566
3908.0,0.0032835143724463892
3907.0,0.0035989405660604434
3906.0,0.0037974685428007263
3905.0,0.003932529034493856
3904.0,0.004230301996403334
3903.0,0.004709191358497226
3902.0,0.005075306878310549
3901.0,0.005047166201263898
3900.0,0.004658247797046516
3899.0,0.004202778714514639
3898.0,0.003912345464061218
3897.0,0.0037942225063651615
3896.0,0.003778705045262931
3895.0,0.003823637786919607
3894.0,0.003855064824935882
3893.0,0.0037217893196400693
3892.0,0.003426465426308589
3891.0,0.003202263237059414
3890.0,0.003265379954083209
3889.0,0.003661929944885709
3888.0,0.004035236756999072
3887.0,0.0038825528559156084
3886.0,0.003412771668644902
3885.0,0.0033770437437841607
3884.0,0.003921418474855137
3883.0,0.004510020722884804
3882.0,0.00457067411154698
3881.0,0.004092730587162004
3880.0,0.003633392915931082
3879.0,0.003547230497693189
3878.0,0.0037586822755996604
3877.0,0.003955142149149649
3876.0,0.003755457450513035
3875.0,0.0032404028148732555
3874.0,0.0030777319174296724
3873.0,0.0036020244548870643
3872.0,0.004196351340224669
3871.0,0.004078273206193089
3870.0,0.003516513081351114
3869.0,0.0033893440544699345
3868.0,0.003858274874840348
3867.0,0.004323697133982009
3866.0,0.004204152722092874
3865.0,0.003685279447607867
3864.0,0.003493855900914439
3863.0,0.0037327218428468405
3862.0,0.0038988049855157997
3861.0,0.00376023876021586
3860.0,0.0034338097454348817
3859.0,0.0031204297577471715
3858.0,0.0030394006096626236
3857.0,0.0033627311580782283
3856.0,0.003879905419919255
3855.0,0.0038389267536376136
3854.0,0.003372088804812084
3853.0,0.0035427678992144013
3852.0,0.004042096935074546
3851.0,0.004232273875983069
3850.0,0.004070692787517474
3849.0,0.003696750790507238
3848.0,0.0033488512566913174
3847.0,0.0031699052749747
3846.0,0.003137430522914283
3845.0,0.003169629431485011
3844.0,0.003258526821727125
3843.0,0.003461181461296474
3842.0,0.003779372771216453
3841.0,0.004075268542532887
3840.0,0.004224656274680718
3839.0,0.0042981099131701415
3838.0,0.004341185310733265
3837.0,0.004264368880624217
3836.0,0.004092507916896294
3835.0,0.003951762456484707
3834.0,0.003828445706061681
3833.0,0.0036099072154921093
3832.0,0.003339597475506117
3831.0,0.003211509580007198
3830.0,0.0033241601423864477
3829.0,0.003518389514962134
3828.0,0.003500451670853038
3827.0,0.003229541332628507
3826.0,0.0030784376354402523
3825.0,0.003381504389658306
3824.0,0.003943250445284168
3823.0,0.004011980362476316
3822.0,0.0033003010475490153
3821.0,0.0028862605137302162
3820.0,0.0034005841603866518
3819.0,0.0042038275520457115
3818.0,0.004500305391262097
3817.0,0.00391150864902891
3816.0,0.0030571628230889047
3815.0,0.002796098947962941
3814.0,0.003037753394767922
3813.0,0.0032084346188095327
3812.0,0.0030737280784542634
3811.0,0.002871670245876975
3810.0,0.002892187258502269
3809.0,0.0029501531336796356
3808.0,0.0026819470574375327
3807.0,0.002319580297786405
3806.0,0.0024216339315773112
3805.0,0.0030841036174133005
3804.0,0.003781169184176189
3803.0,0.0037326649643826017
3802.0,0.003128468369853088
3801.0,0.003052948399684407
3800.0,0.0036122174431249994
3799.0,0.004129076364362397
3798.0,0.004139873180335088
3797.0,0.0036923102556988465
3796.0,0.003258403976083549
3795.0,0.003113187897685164
3794.0,0.003091566188302213
3793.0,0.0029586649763057166
3792.0,0.002708647064681458
3791.0,0.0025037763525807884
3790.0,0.0024507591917205113
3789.0,0.002510127577777188
3788.0,0.0025814968954075476
3787.0,0.002586173057058371
3786.0,0.0025142780392725557
3785.0,0.0024668314492015415
3784.0,0.0025877437088491374
3783.0,0.0028898677415896083
3782.0,0.0031963012094359464
3781.0,0.0032647981869910504
3780.0,0.003120775522029943
3779.0,0.0030657348652610023
3778.0,0.0031822080628250045
3777.0,0.003237071609091084
3776.0,0.003036079888096104
3775.0,0.0026778191030002417
3774.0,0.0025074343357618517
3773.0,0.0026972097169829425
3772.0,0.002974394378480528
3771.0,0.002984134593596345
3770.0,0.002828183291628969
3769.0,0.002861476424476506
3768.0,0.0031112405834367845
3767.0,0.003250950973243379
3766.0,0.0030711915553954684
3765.0,0.002796785123267304
3764.0,0.0027880651195151956
3763.0,0.00306430437007048
3762.0,0.0033041144891533328
3761.0,0.00327809490158883
3760.0,0.0031855717988868125
3759.0,0.003291377101296159
3758.0,0.0034688660608216387
3757.0,0.0035276431987694805
3756.0,0.003560791903940869
3755.0,0.0036495321949456365
3754.0,0.003632597592568206
3753.0,0.0033498543431201063
3752.0,0.003110620546466795
3751.0,0.0034509245253061937
3750.0,0.0040385161609588355
3749.0,0.004357126173022446
3748.0,0.004732800877094373
3747.0,0.005292399938056266
3746.0,0.005232050419919226
3745.0,0.004227736912904647
3744.0,0.0033756043081277914
3743.0,0.0033444620914092078
3742.0,0.003680063773959191
3741.0,0.003888109875893839
3740.0,0.0039783622091516275
3739.0,0.004255029592998316
3738.0,0.004689059965340062
3737.0,0.004921740614456023
3736.0,0.004969354249261548
3735.0,0.005124348347744941
3734.0,0.005226280276116555
3733.0,0.004976745859987076
3732.0,0.004502523547349311
3731.0,0.0041671982916834625
3730.0,0.004140004174131568
3729.0,0.0042153386931940515
3728.0,0.00404762637364167
3727.0,0.0036659935764029056
3726.0,0.0034957661430978313
3725.0,0.003688503373888539
3724.0,0.003939536333563172
3723.0,0.004007236749415312
3722.0,0.003984260701223459
3721.0,0.0040162267350014914
3720.0,0.004059533221356156
3719.0,0.003979129610796477
3718.0,0.0037681754335439684
3717.0,0.0036207703712372395
3716.0,0.0037068102622875836
3715.0,0.003933347103009334
3714.0,0.0040201189509482815
3713.0,0.0038692912260816763
3712.0,0.0038891538228271513
3711.0,0.0043652027657458264
3710.0,0.004821858713217714
3709.0,0.00486365689252021
3708.0,0.004610164677268781
3707.0,0.004335398641668783
3706.0,0.004252311513660357
3705.0,0.004402367165945945
3704.0,0.004634012420607583
3703.0,0.0047580608527786235
3702.0,0.004771373028373835
3701.0,0.004804337820952742
3700.0,0.004914629461782265
3699.0,0.005028918233086434
3698.0,0.00502270939613241
3697.0,0.0049228914578829455
3696.0,0.004937118007395524
3695.0,0.0051577605814539795
3694.0,0.005440663953950273
3693.0,0.005614593210840135
3692.0,0.005648182880884976
3691.0,0.005637758246330095
3690.0,0.0057604217834289
3689.0,0.006061015879070793
3688.0,0.006338297494313919
3687.0,0.006527918131421199
3686.0,0.0066518706109728876
3685.0,0.006619038407923706
3684.0,0.006424104932987179
3683.0,0.006246470491703897
3682.0,0.0062044710437919575
3681.0,0.006269460849091841
3680.0,0.006548033496542958
3679.0,0.007270876079142131
3678.0,0.008249473839369522
3677.0,0.008665073186093651
3676.0,0.008391425693920106
3675.0,0.008284048203704372
3674.0,0.008649883675686186
3673.0,0.009262802866817856
3672.0,0.009621149411808399
3671.0,0.009424005810989396
3670.0,0.009326061651836094
3669.0,0.009693176131389366
3668.0,0.009990737287049935
3667.0,0.009985391995604258
3666.0,0.009829078544848078
3665.0,0.009719857169222277
3664.0,0.009785166973688891
3663.0,0.009986105127466144
3662.0,0.010194983475437493
3661.0,0.01038365422439579
3660.0,0.010651766766089466
3659.0,0.011034229783673816
3658.0,0.011386272072509473
3657.0,0.011633827543276645
3656.0,0.01195172441538412
3655.0,0.012443618472762312
3654.0,0.013063505154806414
3653.0,0.013621042428004125
3652.0,0.013810147913555709
3651.0,0.013699219200603272
3650.0,0.014344166081454477
3649.0,0.016116680771878607
3648.0,0.01735497910182519
3647.0,0.01736232817904408
3646.0,0.016952710474991053
3645.0,0.016663484122208277
3644.0,0.016547779048055777
3643.0,0.016510501075382912
3642.0,0.01655122835364605
3641.0,0.016693117223263828
3640.0,0.016858174142693933
3639.0,0.016981415169405347
3638.0,0.017152001329342054
3637.0,0.017474942117849362
3636.0,0.017857483200787987
3635.0,0.018115279136937158
3634.0,0.018331283997154054
3633.0,0.018799727296562985
3632.0,0.01959525445770619
3631.0,0.020274024418612653
3630.0,0.020485981276629348
3629.0,0.020934475019896898
3628.0,0.021857494657214902
3627.0,0.02245007712389061
3626.0,0.022521404870188853
3625.0,0.022330294273870552
3624.0,0.022164093732881623
3623.0,0.022262066813944742
3622.0,0.022601607162564256
3621.0,0.02299897022244898
3620.0,0.023451707664020254
3619.0,0.024086541412121625
3618.0,0.024730967352898005
3617.0,0.025176292987414913
3616.0,0.025419110593203592
3615.0,0.025491968913657972
3614.0,0.025517333592744988
3613.0,0.025673295821068788
3612.0,0.025943715055889334
3611.0,0.02613687898603695
3610.0,0.02613374269246104
3609.0,0.026092353315390837
3608.0,0.026316838647713905
3607.0,0.026773735791749832
3606.0,0.027147375940373697
3605.0,0.02731803908748475
3604.0,0.027385737748597948
3603.0,0.027476537199253845
3602.0,0.027652522105756583
3601.0,0.027937271945973792
3600.0,0.028335801419939924
3599.0,0.028806830840527195
3598.0,0.029289564515163853
3597.0,0.029737262478703133
3596.0,0.030108959984550078
3595.0,0.030371899046730225
3594.0,0.03052130284890192
3593.0,0.03059122422304586
3592.0,0.030668351159475922
3591.0,0.030803158950560378
3590.0,0.030932641481532366
3589.0,0.03108565403043216
3588.0,0.031642533262454677
3587.0,0.032648644169926896
3586.0,0.03340524834380025
3585.0,0.03356027100470385
3584.0,0.033366748331185296
3583.0,0.03312390531253852
3582.0,0.033013930904192294
3581.0,0.033104129545544106
3580.0,0.03337639146180482
3579.0,0.033737520165717266
3578.0,0.03407491902002447
3577.0,0.03433215325174996
3576.0,0.03453940930839192
3575.0,0.0347664855473849
3574.0,0.03505165752015879
3573.0,0.035378940190375574
3572.0,0.0357353553914712
3571.0,0.03612737693216581
3570.0,0.03651826819318223
3569.0,0.03686898757560921
3568.0,0.03743280398654587
3567.0,0.03850321394258124
3566.0,0.039598095511023654
3565.0,0.04006039490650379
3564.0,0.0399619647204902
3563.0,0.039683799098554295
3562.0,0.03949867282425971
3561.0,0.039525187579910914
3560.0,0.03972808495995094
3559.0,0.039988219904755894
3558.0,0.04021577179368765
3557.0,0.04040000575061214
3556.0,0.04056147439956274
3555.0,0.04071207685358255
3554.0,0.04088076250580654
3553.0,0.041150711308759746
3552.0,0.04155951024519903
3551.0,0.04201164595417482
3550.0,0.04238343258150234
3549.0,0.04263596081576544
3548.0,0.04284164827366347
3547.0,0.04316214813232779
3546.0,0.04370428593623443
3545.0,0.04435675556513526
3544.0,0.044887763896393325
3543.0,0.04517205524825219
3542.0,0.04523486383755891
3541.0,0.045193874129699885
3540.0,0.0451933959046448
3539.0,0.04533509916399976
3538.0,0.045644892367210144
3537.0,0.046086363381254186
3536.0,0.046566459440216174
3535.0,0.046952114880432584
3534.0,0.047146630592972735
3533.0,0.04716702207025959
3532.0,0.04715114505938169
3531.0,0.047268994317997234
3530.0,0.04759735044051149
3529.0,0.04806852695929154
3528.0,0.04855116412294063
3527.0,0.048963716435956275
3526.0,0.04929985440228935
3525.0,0.049603237648736885
3524.0,0.04993805351144596
3523.0,0.05031433399825863
3522.0,0.05063631519036558
3521.0,0.050799357986499864
3520.0,0.05082113954468627
3519.0,0.050846468195091386
3518.0,0.05102114513087599
3517.0,0.05134433643625229
3516.0,0.05167189303817331
3515.0,0.051881425926127774
3514.0,0.05199368996393776
3513.0,0.052119174296563806
3512.0,0.05234331235873338
3511.0,0.052691298909273494
3510.0,0.05315030113508599
3509.0,0.053656283212485695
3508.0,0.054092815063409835
3507.0,0.05437283862254419
3506.0,0.054510875118577926
3505.0,0.054634908117221825
3504.0,0.05493918003480209
3503.0,0.055494503232983494
3502.0,0.05610877803492652
3501.0,0.056530795977106134
3500.0,0.05669986862275625
3499.0,0.05672946852042873
3498.0,0.05678537528486635
3497.0,0.056983497689333425
3496.0,0.05731719272044401
3495.0,0.05766690475890726
3494.0,0.05791862008435965
3493.0,0.05807523670850995
3492.0,0.058228202911057084
3491.0,0.05844763393712918
3490.0,0.05873142935239338
3489.0,0.059048135766557375
3488.0,0.05938711231927152
3487.0,0.05974087613222484
3486.0,0.0600704873331466
3485.0,0.06033912757124971
3484.0,0.0605738112513744
3483.0,0.06086019370355254
3482.0,0.06125473151307505
3481.0,0.061706602899108676
3480.0,0.06210627866019694
3479.0,0.062399504342569356
3478.0,0.06260970952453128
3477.0,0.06278011511370699
3476.0,0.06294075388011232
3475.0,0.06311343405916602
3474.0,0.06331532886171229
3473.0,0.06355368218005081
3472.0,0.06382267911791314
3471.0,0.0641102345243047
3470.0,0.06441268280652684
3469.0,0.0647430566539327
3468.0,0.06512210749806548
3467.0,0.0655533827166316
3466.0,0.06599954209962808
3465.0,0.06639347252857929
3464.0,0.0666898990506469
3463.0,0.06691489663445532
3462.0,0.06715519126001077
3461.0,0.06748428055050384
3460.0,0.06789994820392582
3459.0,0.06833852919303454
3458.0,0.06873171597143676
3457.0,0.06904100560677633
3456.0,0.06926281707851023
3455.0,0.06943207303485292
3454.0,0.06961708476693512
3453.0,0.0698786103299173
3452.0,0.07021472978860295
3451.0,0.07055135292855928
3450.0,0.07081312649388141
3449.0,0.07102280618919188
3448.0,0.07132445315195186
3447.0,0.07183256309342445
3446.0,0.07245015184026139
3445.0,0.0729577664715162
3444.0,0.0732498349527601
3443.0,0.07339706380230207
3442.0,0.07352373024616796
3441.0,0.07366980654536744
3440.0,0.07379861191956805
3439.0,0.07391182408743505
3438.0,0.07407638720817311
3437.0,0.07433210005781586
3436.0,0.074628610694233
3435.0,0.07488633884684505
3434.0,0.07508884370426161
3433.0,0.0752766734287603
3432.0,0.07547624312832175
3431.0,0.07567487209988669
3430.0,0.07586592201351304
3429.0,0.07607898092816512
3428.0,0.07634202771595332
3427.0,0.07663759060518946
3426.0,0.07692334569098734
3425.0,0.07718322079461593
3424.0,0.07742840720251788
3423.0,0.07765712768135724
3422.0,0.07784689094218972
3421.0,0.07798992585761025
3420.0,0.07810109131370291
3419.0,0.07817880576199666
3418.0,0.07819682091272397
3417.0,0.07815548544397956
3416.0,0.07811296029024063
3415.0,0.07813629805063158
3414.0,0.07823245636898413
3413.0,0.07835492176644993
3412.0,0.07847021777378428
3411.0,0.07858621878639806
3410.0,0.07871933882410093
3409.0,0.07886627200666778
3408.0,0.0790073567134126
3407.0,0.07911203585928805
3406.0,0.07914619090413846
3405.0,0.07910920361389764
3404.0,0.0790642192307369
3403.0,0.07909283084860409
3402.0,0.07920505588872453
3401.0,0.07932628958188517
3400.0,0.07939007545735556
3399.0,0.07941215376529512
3398.0,0.07945682750034867
3397.0,0.0795546272094813
3396.0,0.07968129842062428
3395.0,0.07980704231551045
3394.0,0.07992903330504875
3393.0,0.08005147583460372
3392.0,0.08016332659157982
3391.0,0.08024923919404453
3390.0,0.0803034891640487
3389.0,0.08032525108474216
3388.0,0.08032060605899106
3387.0,0.08031701362453017
3386.0,0.08035124762759714
3385.0,0.0804240707650585
3384.0,0.08048541484742994
3383.0,0.08049052662881467
3382.0,0.08045628769799483
3381.0,0.08043354645612975
3380.0,0.08043805546906538
3379.0,0.08044073926965549
3378.0,0.08042500806004009
3377.0,0.08041213071249245
3376.0,0.08041270869470539
3375.0,0.0803936820532374
3374.0,0.08032584766599586
3373.0,0.08024147207607296
3372.0,0.08020955001488886
3371.0,0.08025970152263998
3370.0,0.08035384241764373
3369.0,0.08043015227013743
3368.0,0.08045679462130474
3367.0,0.0804462047711682
3366.0,0.08043515513118443
3365.0,0.08044979657644837
3364.0,0.08047760051962863
3363.0,0.08047852246238923
3362.0,0.08043519265207477
3361.0,0.08038073695332262
3360.0,0.08035829135583937
3359.0,0.08036587270685536
3358.0,0.08036911563667616
3357.0,0.08035637203158551
3356.0,0.08034242268103857
3355.0,0.08031751208690328
3354.0,0.08023912457747236
3353.0,0.08009611851841598
3352.0,0.07994770591744771
3351.0,0.07987005037170647
3350.0,0.07987532873456417
3349.0,0.07990552332042715
3348.0,0.07989687669632438
3347.0,0.0798268019996956
3346.0,0.07970469525414815
3345.0,0.07954587130612828
3344.0,0.079364830114114
3343.0,0.0791819195152078
3342.0,0.07902525253851395
3341.0,0.07891866954206711
3340.0,0.0788630873897905
3339.0,0.07883231969118018
3338.0,0.07879561217024213
3337.0,0.07874540492731677
3336.0,0.07869414386607418
3335.0,0.0786440574918018
3334.0,0.07857480067293902
3333.0,0.07846553082981002
3332.0,0.07831491074942638
3331.0,0.07813345784854281
3330.0,0.07792991693724151
3329.0,0.07771682871028704
3328.0,0.07751948981442082
3327.0,0.07736202964436002
3326.0,0.07724201963020383
3325.0,0.07712662073069736
3324.0,0.07697714824647901
3323.0,0.07677962092771906
3322.0,0.07655964230293569
3321.0,0.07636966403966543
3320.0,0.07625057927716507
3319.0,0.07619457801402099
3318.0,0.07614639606202149
3317.0,0.0760478712817278
3316.0,0.07588413897417404
3315.0,0.07568767585524296
3314.0,0.07550239935155693
3313.0,0.07534539443094798
3312.0,0.07520193239594994
3311.0,0.07505767250522952
3310.0,0.0749282697990901
3309.0,0.07484143718641319
3308.0,0.0747866187621253
3307.0,0.07470764377712555
3306.0,0.07456432621892238
3305.0,0.07438154325480628
3304.0,0.0742137281598372
3303.0,0.07407369798185653
3302.0,0.07392528575568146
3301.0,0.07374409021546798
3300.0,0.07355259313332745
3299.0,0.07338649279614924
3298.0,0.07325449751606203
3297.0,0.07314247391795668
3296.0,0.07303275893579134
3295.0,0.07290657238035553
3294.0,0.07275250806965988
3293.0,0.0725908542109767
3292.0,0.07246711424947647
3291.0,0.07239753255397359
3290.0,0.07233686575411746
3289.0,0.07222351639242094
3288.0,0.07204622387626353
3287.0,0.07184872901031007
3286.0,0.07168140809220763
3285.0,0.07156623267281417
3284.0,0.07149485586336639
3283.0,0.071436849967474
3282.0,0.07135357683055947
3281.0,0.07122160900677658
3280.0,0.07104457720417101
3279.0,0.07084058784373048
3278.0,0.07062961804035651
3277.0,0.07043948234333718
3276.0,0.07030409753518409
3275.0,0.07023198643390635
3274.0,0.07018256457225311
3273.0,0.0700946085970678
3272.0,0.06994017359984739
3271.0,0.06974158374545496
3270.0,0.06954392932582909
3269.0,0.06938295429425644
3268.0,0.06926831001910196
3267.0,0.06917899848881634
3266.0,0.06907983568605397
3265.0,0.06895659713413399
3264.0,0.06883045618111511
3263.0,0.0687277700183509
3262.0,0.0686421603686676
3261.0,0.06853571656543794
3260.0,0.06837265714810481
3259.0,0.06814701874023389
3258.0,0.06788563241394255
3257.0,0.06763686053085174
3256.0,0.06745061302572115
3255.0,0.06734830745217169
3254.0,0.06730275293159146
3253.0,0.0672552018528668
3252.0,0.06716019328728122
3251.0,0.06701570522850979
3250.0,0.06685513885950992
3249.0,0.06671177500263348
3248.0,0.06658529153618725
3247.0,0.06644343872072493
3246.0,0.06626559274685963
3245.0,0.06608033810172259
3244.0,0.06593727994831783
3243.0,0.06583857366425112
3242.0,0.06572453557753992
3241.0,0.06553775869404091
3240.0,0.06528519412556175
3239.0,0.06502457916966202
3238.0,0.0647987627864876
3237.0,0.06460251053738472
3236.0,0.06441234596570744
3235.0,0.06422672526886239
3234.0,0.06406449489357419
3233.0,0.06393319497453663
3232.0,0.06381361919785039
3231.0,0.06368071903743608
3230.0,0.06353220892033533
3229.0,0.0633823868278024
3228.0,0.0632270637235762
3227.0,0.06303259623489374
3226.0,0.06277514510516154
3225.0,0.062481125010079325
3224.0,0.062207265494216
3223.0,0.0619836568940985
3222.0,0.061798095507364315
3221.0,0.06163463282440737
3220.0,0.06149786645004032
3219.0,0.061385195830027564
3218.0,0.06125994758098435
3217.0,0.061078099105353195
3216.0,0.060834421156487684
3215.0,0.060566765042202875
3214.0,0.06031440021645852
3213.0,0.06008167734635669
3212.0,0.05984702628028073
3211.0,0.05959728651150177
3210.0,0.059344148879657554
3209.0,0.05910743727153947
3208.0,0.05888670028674228
3207.0,0.05865546417942906
3206.0,0.05838624784811498
3205.0,0.05807831850416695
3204.0,0.057760432375068484
3203.0,0.057473238430717916
3202.0,0.057251824979903755
3201.0,0.057110473502888615
3200.0,0.05702455034374711
3199.0,0.05692987339151252
3198.0,0.056760857160390615
3197.0,0.056500083073539556
3196.0,0.05618130671433842
3195.0,0.055843502600347907
3194.0,0.055500969705897935
3193.0,0.05516184006370519
3192.0,0.05485196523809107
3191.0,0.054600636431766804
3190.0,0.05440833043343405
3189.0,0.054241785740158005
3188.0,0.054062198539745705
3187.0,0.05385472181896925
3186.0,0.05363168357517572
3185.0,0.05340858098516852
3184.0,0.053178336194601154
3183.0,0.0529152445351964
3182.0,0.05260703505778438
3181.0,0.05227720928810104
3180.0,0.05196938431831985
3179.0,0.051710198255879025
3178.0,0.05149002570302189
3177.0,0.051277121874213565
3176.0,0.051044575974054186
3175.0,0.05078473866868074
3174.0,0.05050916262943157
3173.0,0.05024092282281766
3172.0,0.05000030811056819
3171.0,0.049792213638792285
3170.0,0.04960664611712504
3169.0,0.04942603940599355
3168.0,0.04923011685915129
3167.0,0.04900518607828209
3166.0,0.04875696284657985
3165.0,0.0485038330388488
3164.0,0.048249507220162954
3163.0,0.04797686867763
3162.0,0.04768206923198286
3161.0,0.04739907463802554
3160.0,0.04716483198000743
3159.0,0.046965766137239975
3158.0,0.04674583576066329
3157.0,0.046470023099113404
3156.0,0.04615702636976547
3155.0,0.04584522602119712
3154.0,0.045554165394676015
3153.0,0.04529104072015248
3152.0,0.04506685399125096
3151.0,0.044882168889752945
3150.0,0.04470934244763559
3149.0,0.04451113272882857
3148.0,0.04427566576118312
3147.0,0.04402153361410617
3146.0,0.0437724485565148
3145.0,0.043537294362537206
3144.0,0.04331095751925267
3143.0,0.043084242996738444
3142.0,0.042853460244319415
3141.0,0.04262487785143929
3140.0,0.04240835316665766
3139.0,0.04220745943641898
3138.0,0.04202020491182605
3137.0,0.04184421165566305
3136.0,0.041671065071933557
3135.0,0.04148132671697854
3134.0,0.04126310387716314
3133.0,0.041036372886588526
3132.0,0.04083924525519912
3131.0,0.04068425864622432
3130.0,0.04054436822591731
3129.0,0.040387665109245255
3128.0,0.04021310651217816
3127.0,0.04004121354588828
3126.0,0.039877092666405586
3125.0,0.039698761646091534
3124.0,0.039482691894163126
3123.0,0.03923071284768192
3122.0,0.03896966355642734
3121.0,0.03872941239549598
3120.0,0.03852078270945464
3119.0,0.038332716287676344
3118.0,0.03815172369523625
3117.0,0.0379806227091649
3116.0,0.03783233515112288
3115.0,0.03770880255856247
3114.0,0.03759572245135897
3113.0,0.03747920484345572
3112.0,0.03735814357760619
3111.0,0.037237280587461626
3110.0,0.03711716423168701
3109.0,0.03699323961342067
3108.0,0.03685824643793561
3107.0,0.03670416191699709
3106.0,0.0365300807989309
3105.0,0.036351918748878144
3104.0,0.03619062947857891
3103.0,0.0360407216511595
3102.0,0.03586674847724776
3101.0,0.03564672964482693
3100.0,0.03540570398499912
3099.0,0.03518739346447686
3098.0,0.035004810397896075
3097.0,0.03483943990049919
3096.0,0.03467274868742802
3095.0,0.03449454905356653
3094.0,0.03429440866597368
3093.0,0.03407659686315089
3092.0,0.033882042037215954
3091.0,0.03375881841347442
3090.0,0.03369812537120789
3089.0,0.033628895356622314
3088.0,0.033493165590537805
3087.0,0.03330941278066246
3086.0,0.03314252220928808
3085.0,0.03302711682361588
3084.0,0.032946388772097004
3083.0,0.032871129387688935
3082.0,0.032790573956597076
3081.0,0.03270477704063037
3080.0,0.03260783721964025
3079.0,0.03248969920901208
3078.0,0.03234418467098332
3077.0,0.032170523390300604
3076.0,0.031975851417022284
3075.0,0.03177807212187634
3074.0,0.031595564248265456
3073.0,0.031431802292800966
3072.0,0.031280058902725845
3071.0,0.031140605613002074
3070.0,0.031019622774046456
3069.0,0.03090785213884366
3068.0,0.030776340717421274
3067.0,0.030605927821904653
3066.0,0.03041013642562989
3065.0,0.03021849763720423
3064.0,0.030044946119877076
3063.0,0.02988509912769393
3062.0,0.029735423997126698
3061.0,0.029596293391154382
3060.0,0.029461963287135948
3059.0,0.02932602920106442
3058.0,0.029198401861956463
3057.0,0.02909669670325194
3056.0,0.029013614838240102
3055.0,0.028913376915700402
3054.0,0.028772277852043338
3053.0,0.028606824557612417
3052.0,0.028443945349623294
3051.0,0.028273671872498976
3050.0,0.02804966579853803
3049.0,0.02773613546460267
3048.0,0.02734639375207831
3047.0,0.026935406772681577
3046.0,0.02656385448166985
3045.0,0.026268482971116728
3044.0,0.02604962419372295
3043.0,0.025879096094516784
3042.0,0.025725189360832013
3041.0,0.0255702883538244
3040.0,0.025406757097315127
3039.0,0.02522733192575258
3038.0,0.025032950664479702
3037.0,0.024844969541013024
3036.0,0.024693104037451574
3035.0,0.02458982166869819
3034.0,0.02452400593144541
3033.0,0.024475088118444736
3032.0,0.02442037183294643
3031.0,0.024336374988448418
3030.0,0.02421497718478935
3029.0,0.024080644128906904
3028.0,0.02397307094616607
3027.0,0.02390949570768753
3026.0,0.02387318607340117
3025.0,0.02383738107636893
3024.0,0.023789821827839563
3023.0,0.023731250824475515
3022.0,0.023666480994543476
3021.0,0.023607119441093706
3020.0,0.023569501934372617
3019.0,0.02355676024887847
3018.0,0.023550319477883233
3017.0,0.023529654278771458
3016.0,0.02349478059079779
3015.0,0.023459800994901504
3014.0,0.023433538724162095
3013.0,0.02341884063692741
3012.0,0.023423446770503877
3011.0,0.023453528642182666
3010.0,0.023495995842817138
3009.0,0.023520424017740012
3008.0,0.02350652710847824
3007.0,0.023465716168246005
3006.0,0.02343031954534877
3005.0,0.02342120437106875
3004.0,0.023423174616059125
3003.0,0.02339806157163344
3002.0,0.02332636743912857
3001.0,0.023235994171426827
3000.0,0.02318228738063971
2999.0,0.02319409635540511
2998.0,0.02324641371481451
2997.0,0.023288605954136714
2996.0,0.02329710870707459
2995.0,0.023292751912355147
2994.0,0.023310126082136444
2993.0,0.023358788121822797
2992.0,0.023417500976473445
2991.0,0.02346388986156497
2990.0,0.023502612436105852
2989.0,0.023561381788448556
2988.0,0.02365581095688148
2987.0,0.023765011953402138
2986.0,0.023851769248789016
2985.0,0.02390903720226979
2984.0,0.023974866891283565
2983.0,0.024095555527361458
2982.0,0.024280195358313203
2981.0,0.024495132757236967
2980.0,0.02469908891752167
2979.0,0.02487390624462709
2978.0,0.02502820201259002
2977.0,0.025182921782050772
2976.0,0.02535676283043738
2975.0,0.025557451255918337
2974.0,0.025781758677504964
2973.0,0.02602682721958
2972.0,0.02629967745046724
2971.0,0.026609401090941
2970.0,0.02694807972980218
2969.0,0.02728630673590804
2968.0,0.027590763883868167
2967.0,0.027844937331250805
2966.0,0.02805181279530814
2965.0,0.02822412219912085
2964.0,0.02837836535274979
2963.0,0.02853220404985001
2962.0,0.028693855114747542
2961.0,0.028845558302797822
2960.0,0.02894449367213304
2959.0,0.0289497720559537
2958.0,0.02885110319002568
2957.0,0.02866707670092168
2956.0,0.02841647528349614
2955.0,0.02810288722649524
2954.0,0.027730974239031418
2953.0,0.027325435562609045
2952.0,0.026917673795676285
2951.0,0.026514493626596827
2950.0,0.026092729846696385
2949.0,0.025628958509586644
2948.0,0.02512954807523551
2947.0,0.02462896976405535
2946.0,0.02416518610820257
2945.0,0.023757850311136128
2944.0,0.023403209288032637
2943.0,0.023084605747198447
2942.0,0.02279003711016514
2941.0,0.02252287928146232
2940.0,0.022295099384718964
2939.0,0.022112360339638953
2938.0,0.021967925340168226
2937.0,0.021850807817633437
2936.0,0.0217553520762834
2935.0,0.021682159460582478
2934.0,0.02163319708042736
2933.0,0.021608543282282344
2932.0,0.02160649869394324
2931.0,0.021624745310246885
2930.0,0.021659957126775722
2929.0,0.021704366801302014
2928.0,0.02174333154251982
2927.0,0.021760078324482054
2926.0,0.021746526813356776
2925.0,0.021708879441378007
2924.0,0.02166058900028266
2923.0,0.021609251878125648
2922.0,0.02154862784005397
2921.0,0.021457238811824465
2920.0,0.021306004482950995
2919.0,0.021080556332466284
2918.0,0.020804497654502832
2917.0,0.02053220645121122
2916.0,0.020305217721636928
2915.0,0.020118053705383797
2914.0,0.019935075621319468
2913.0,0.019735295116579375
2912.0,0.019531119424890452
2911.0,0.0193460209954067
2910.0,0.019191042974566197
2909.0,0.019063836526728703
2908.0,0.018955387056733452
2907.0,0.018851499099074718
2906.0,0.018738046587902665
2905.0,0.018615632670099982
2904.0,0.018499983698936885
2903.0,0.018403953948153525
2902.0,0.018321322991897322
2901.0,0.01823448582273926
2900.0,0.018139139290427896
2899.0,0.01804620067177277
2898.0,0.01796791081752993
2897.0,0.017908460512455347
2896.0,0.017866893711001572
2895.0,0.017839521972673213
2894.0,0.017818222040427843
2893.0,0.01779495989061519
2892.0,0.017770548432061262
2891.0,0.017749527647978054
2890.0,0.017722176328673303
2889.0,0.017661865159650413
2888.0,0.017549337688400078
2887.0,0.017397890974301358
2886.0,0.0172443138042715
2885.0,0.01711565780775945
2884.0,0.017010376232125684
2883.0,0.016908564582218285
2882.0,0.016792921149139894
2881.0,0.016658960923198126
2880.0,0.016517744300991167
2879.0,0.016391715840628145
2878.0,0.016297458943457153
2877.0,0.016225981696068845
2876.0,0.016150158143814007
2875.0,0.0160592047114992
2874.0,0.015974940929001966
2873.0,0.015922096756158684
2872.0,0.0158888694169764
2871.0,0.015837746439437233
2870.0,0.015750968428448982
2869.0,0.01564651446037217
2868.0,0.01554976431808145
2867.0,0.015468163097703234
2866.0,0.015402937256803053
2865.0,0.015361910610294769
2864.0,0.015343081384413763
2863.0,0.015323450331936724
2862.0,0.015288599374111835
2861.0,0.015263931771757517
2860.0,0.015291993371283185
2859.0,0.01537782540406267
2858.0,0.015476908285912125
2857.0,0.015543014418906927
2856.0,0.015565845175189271
2855.0,0.015560032083112844
2854.0,0.015536454946273103
2853.0,0.01549314050986416
2852.0,0.015421678953194209
2851.0,0.015305967969342731
2850.0,0.0151257955539386
2849.0,0.014878802531567328
2848.0,0.014594680874779727
2847.0,0.014312731465768162
2846.0,0.014043454661026043
2845.0,0.01376775771449108
2844.0,0.01347469921923736
2843.0,0.013186082701939661
2842.0,0.012936116100086444
2841.0,0.01273433714129334
2840.0,0.012561906853298225
2839.0,0.01239976814745616
2838.0,0.012247025434882026
2837.0,0.012112875510209132
2836.0,0.012000578897322298
2835.0,0.011904058433106839
2834.0,0.01181329352965633
2833.0,0.011717026857299096
2832.0,0.011609753208009789
2831.0,0.011502930878029208
2830.0,0.011421550265413093
2829.0,0.011380820229702214
2828.0,0.011366864660284531
2827.0,0.011349742574844801
2826.0,0.011313988036558588
2825.0,0.011266129707100354
2824.0,0.01121635583211632
2823.0,0.011164852112338232
2822.0,0.011109456584381875
2821.0,0.01105481061162465
2820.0,0.011003660158552508
2819.0,0.010947022192435865
2818.0,0.0108751860602554
2817.0,0.010798021021362776
2816.0,0.010742106495837643
2815.0,0.010719569067002192
2814.0,0.010707088211590972
2813.0,0.01066652792821608
2812.0,0.01058807023686844
2811.0,0.010506397390263118
2810.0,0.010465734350463999
2809.0,0.01047163046636475
2808.0,0.01048779355169292
2807.0,0.01047770239770159
2806.0,0.010437199784829362
2805.0,0.010383515404272976
2804.0,0.01032502768472614
2803.0,0.010256110955672318
2802.0,0.010175822515380765
2801.0,0.010095854640377043
2800.0,0.010028710973572464
2799.0,0.009977935880743362
2798.0,0.009941365666092364
2797.0,0.0099147400281986
2796.0,0.009890190507874291
2795.0,0.009858566568490715
2794.0,0.009816730401944508
2793.0,0.00976851052972321
2792.0,0.009718308530246928
2791.0,0.009671043666149537
2790.0,0.00963769100373205
2789.0,0.00962965382156796
2788.0,0.009642905164519868
2787.0,0.009654778411729367
2786.0,0.009642838781097176
2785.0,0.009604085077782135
2784.0,0.009552123683473664
2783.0,0.009501706351200415
2782.0,0.009460661310112499
2781.0,0.009430651237147931
2780.0,0.009408325754940524
2779.0,0.009386520169476392
2778.0,0.009359693542916958
2777.0,0.00933021225457046
2776.0,0.009306265922395479
2775.0,0.00929184079607342
2774.0,0.009280646741963853
2773.0,0.009261111812701285
2772.0,0.009227934009066494
2771.0,0.009188148288320812
2770.0,0.009153188611391166
2769.0,0.009124733543480484
2768.0,0.009093683399872038
2767.0,0.009055960541007331
2766.0,0.009022557695713316
2765.0,0.009006913527069714
2764.0,0.009005018549017033
2763.0,0.008996930051671818
2762.0,0.008969173781379436
2761.0,0.008928020973302829
2760.0,0.00889031027770391
2759.0,0.008867661479125934
2758.0,0.008860555591140507
2757.0,0.008861759920395293
2756.0,0.008861870643042693
2755.0,0.008853832048200769
2754.0,0.008834574750369141
2753.0,0.008802443755813481
2752.0,0.008755970797697663
2751.0,0.008699932887564163
2750.0,0.008650065745940905
2749.0,0.008623307580319355
2748.0,0.00862136504672094
2747.0,0.008628770117220037
2746.0,0.00862831217857198
2745.0,0.008614005190935907
2744.0,0.008589599203345188
2743.0,0.008560210345398793
2742.0,0.008527153900917819
2741.0,0.008488003777490632
2740.0,0.008440423493829974
2739.0,0.008388814869877187
2738.0,0.0083466915383992
2737.0,0.008326879643826918
2736.0,0.00832895865178425
2735.0,0.008338886379408128
2734.0,0.008340116924637321
2733.0,0.008322585807066431
2732.0,0.008284626670874496
2731.0,0.008233047448757353
2730.0,0.008181310782315114
2729.0,0.008141902295987295
2728.0,0.008118212846078457
2727.0,0.008105104938207661
2726.0,0.008095343002855446
2725.0,0.008082469785335685
2724.0,0.00806298469234063
2723.0,0.008042253571177218
2722.0,0.0080322468821481
2721.0,0.008034128085859423
2720.0,0.008028130469771504
2719.0,0.007993264323399394
2718.0,0.007935599222575057
2717.0,0.007883365821681178
2716.0,0.00785339706862747
2715.0,0.007836097626881786
2714.0,0.007816622080749217
2713.0,0.007797471248759274
2712.0,0.007791120640521891
2711.0,0.007799976322411566
2710.0,0.007812411070578396
2709.0,0.007813870257221932
2708.0,0.007797241876664009
2707.0,0.007766998295139896
2706.0,0.007737594475637001
2705.0,0.007722302987095675
2704.0,0.007719301300979423
2703.0,0.0077129624981828945
2702.0,0.007692027041146521
2701.0,0.007661958289926168
2700.0,0.0076359024142133025
2699.0,0.007619006464335767
2698.0,0.007605920405753107
2697.0,0.007590094434830403
2696.0,0.007570358997068618
2695.0,0.007550225673370886
2694.0,0.0075342287418138625
2693.0,0.00752506890342592
2692.0,0.007523213732976064
2691.0,0.007528027959733261
2690.0,0.0075363806490348975
2689.0,0.007539424868602554
2688.0,0.007527641206925452
2687.0,0.007504090357694167
2686.0,0.007486160451782707
2685.0,0.007485041549276645
2684.0,0.007488251260634224
2683.0,0.0074743019648850165
2682.0,0.007442278505017162
2681.0,0.007414842282760306
2680.0,0.007410245390874261
2679.0,0.007423270780143806
2678.0,0.0074355096390016084
2677.0,0.0074340560737204495
2676.0,0.007417619999119565
2675.0,0.007394229840630314
2674.0,0.007377318146319284
2673.0,0.007374274980693967
2672.0,0.007375399711203797
2671.0,0.007363014260648948
2670.0,0.007335672210666208
2669.0,0.007314946031525141
2668.0,0.007322741172571267
2667.0,0.007359434613935626
2666.0,0.007406792474321203
2665.0,0.007444656454922968
2664.0,0.007462112131809478
2663.0,0.007462546969140222
2662.0,0.007464159851435118
2661.0,0.007486210442714015
2660.0,0.0075269272289653025
2659.0,0.007559767220803893
2658.0,0.007557268453387694
2657.0,0.007515186207027029
2656.0,0.007452849613353527
2655.0,0.007397822981946783
2654.0,0.0073724780138062634
2653.0,0.007381544880431671
2652.0,0.0074030613684391445
2651.0,0.0074002571207880345
2650.0,0.007353174989425362
2649.0,0.007277433068524993
2648.0,0.007207219639995986
2647.0,0.0071654423396189555
2646.0,0.007153477614849531
2645.0,0.007159260491801463
2644.0,0.007166680560243513
2643.0,0.007163552411564968
2642.0,0.007149772094664069
2641.0,0.007134577921664961
2640.0,0.007122438508683387
2639.0,0.007108901861051276
2638.0,0.007093761073314534
2637.0,0.007085926512710913
2636.0,0.007085793275327719
2635.0,0.007075043143687147
2634.0,0.0070391608858390384
2633.0,0.006993918445109293
2632.0,0.006972917107251439
2631.0,0.006987764789919804
2630.0,0.007011977461556651
2629.0,0.007007006071414978
2628.0,0.006958688625604604
2627.0,0.006887226463544354
2626.0,0.006826871572500474
2625.0,0.006795911509800655
2624.0,0.006783338135170675
2623.0,0.00676545443823969
2622.0,0.006732432450137403
2621.0,0.006692110966024494
2620.0,0.0066496261419031165
2619.0,0.006597487942806277
2618.0,0.006532697267708731
2617.0,0.006470568560524416
2616.0,0.006429747609406487
2615.0,0.006411056986149757
2614.0,0.006401840033187797
2613.0,0.006395724976265785
2612.0,0.006396921254247449
2611.0,0.006408108415814748
2610.0,0.006423236740490284
2609.0,0.0064308702391834525
2608.0,0.0064198093392735175
2607.0,0.006386040209387253
2606.0,0.006340761082413835
2605.0,0.0063063249902561794
2604.0,0.006295336234334009
2603.0,0.006295857009630193
2602.0,0.006282791741137285
2601.0,0.006243237212763224
2600.0,0.006188987093598736
2599.0,0.006148991568369873
2598.0,0.006150770870673868
2597.0,0.006198353102368114
2596.0,0.006261068099516156
2595.0,0.006292900193081298
2594.0,0.00627229033627532
2593.0,0.006221972751185481
2592.0,0.006186976847110096
2591.0,0.006194813362967533
2590.0,0.006236338850066407
2589.0,0.006274776679392977
2588.0,0.006271262946897272
2587.0,0.006215637451204641
2586.0,0.00614048574322032
2585.0,0.00609750051479741
2584.0,0.006112485435796851
2583.0,0.0061671825658724585
2582.0,0.00622555580784594
2581.0,0.006265523728106468
2580.0,0.006280608392699448
2579.0,0.006268597745086852
2578.0,0.006233147606218889
2577.0,0.006187346128594855
2576.0,0.006142875692715488
2575.0,0.006101141222760902
2574.0,0.006063961584110964
2573.0,0.006044290723789879
2572.0,0.0060535048611766885
2571.0,0.006083273438321698
2570.0,0.0061116714753016626
2569.0,0.006124629485039603
2568.0,0.006123288537542359
2567.0,0.006114029394527862
2566.0,0.00609989645683955
2565.0,0.00608067113073743
2564.0,0.006055224296336142
2563.0,0.006025157281420096
2562.0,0.005999001859738511
2561.0,0.005987958828675098
2560.0,0.005993983053823842
2559.0,0.0060070431078819535
2558.0,0.006015709000060911
2557.0,0.0060133026488165976
2556.0,0.005993330990014103
2555.0,0.005951858405248301
2554.0,0.005900741576290182
2553.0,0.005866645271504229
2552.0,0.005867207369894913
2551.0,0.005896267793063709
2550.0,0.005939060247851619
2549.0,0.005989640246081326
2548.0,0.006041334713461259
2547.0,0.006071810344861059
2546.0,0.00605753050759126
2545.0,0.006003473291800652
2544.0,0.005945285484352634
2543.0,0.005918962565717326
2542.0,0.0059357763504967066
2541.0,0.005984613695419112
2540.0,0.006044677001368327
2539.0,0.006091164310471782
2538.0,0.006101460410986827
2537.0,0.00607058754152849
2536.0,0.006021526813536402
2535.0,0.0059906493592249066
2534.0,0.005997218439842113
2533.0,0.0060293569889537865
2532.0,0.006061140987550609
2531.0,0.00607740725592261
2530.0,0.00607816008443527
2529.0,0.006069087082022577
2528.0,0.006061673303126754
2527.0,0.006076708258365709
2526.0,0.006126029986310923
2525.0,0.006186395437928975
2524.0,0.006213617464680481
2523.0,0.006195095058474069
2522.0,0.006169828709792268
2521.0,0.006180144353443658
2520.0,0.006219293100466638
2519.0,0.006248239010176469
2518.0,0.006251188068287872
2517.0,0.00624739866723053
2516.0,0.006252634271657586
2515.0,0.006256235680922916
2514.0,0.006240531919010011
2513.0,0.0062046830013073205
2512.0,0.0061657267420506525
2511.0,0.006147223119859809
2510.0,0.00616273150085995
2509.0,0.00619588920157089
2508.0,0.006203716344748373
2507.0,0.00615896527094892
2506.0,0.006083746281782875
2505.0,0.006021419058642593
2504.0,0.0059829568559173684
2503.0,0.005946270305216508
2502.0,0.005901390496229954
2501.0,0.005862947285623274
2500.0,0.005836460714382097
2499.0,0.005806871066878081
2498.0,0.005771386277533236
2497.0,0.005753868246507629
2496.0,0.005770252719811475
2495.0,0.005801497335943093
2494.0,0.005815551943456158
2493.0,0.00579867138987558
2492.0,0.00575485070179658
2491.0,0.005694025851488108
2490.0,0.005632951936304009
2489.0,0.005589258759489698
2488.0,0.005560921962164702
2487.0,0.005526200300059167
2486.0,0.005474153551096863
2485.0,0.005420910470645466
2484.0,0.005388689428161456
2483.0,0.005385749690833651
2482.0,0.0054130866842639165
2481.0,0.005467910564918458
2480.0,0.0055273865225350235
2479.0,0.005549557013270215
2478.0,0.00550902193122519
2477.0,0.005422515696550569
2476.0,0.005330234428708213
2475.0,0.00526378593111806
2474.0,0.005236102214785355
2473.0,0.005240000477021978
2472.0,0.005244682443840174
2471.0,0.0052158594964414095
2470.0,0.005156636982582087
2469.0,0.005111923257919259
2468.0,0.00511618327367157
2467.0,0.005152917323265317
2466.0,0.005183132299178209
2465.0,0.005198047067004231
2464.0,0.005222155379906199
2463.0,0.005272926907676405
2462.0,0.0053372230717730375
2461.0,0.005384707282489703
2460.0,0.005392527844614406
2459.0,0.005361748515997501
2458.0,0.005319167382421808
2457.0,0.005297079373097454
2456.0,0.005302953018296251
2455.0,0.005315128841217059
2454.0,0.005311849035029534
2453.0,0.0052920992828382595
2452.0,0.005264047523514475
2451.0,0.005232473488744912
2450.0,0.005209034902892443
2449.0,0.005214469337847075
2448.0,0.005250489535621127
2447.0,0.0052831379631445114
2446.0,0.005275849761650255
2445.0,0.0052329117636400364
2444.0,0.005192555696588813
2443.0,0.005181084651485765
2442.0,0.005189754169378367
2441.0,0.00519505178422617
2440.0,0.005187904532655878
2439.0,0.005180883946240992
2438.0,0.005192825016099861
2437.0,0.005224621868160349
2436.0,0.005247132691177178
2435.0,0.0052207226098505985
2434.0,0.005134357815514826
2433.0,0.005022288990484209
2432.0,0.004939066070212809
2431.0,0.00492225026591432
2430.0,0.004976087891561187
2429.0,0.005074652945547092
2428.0,0.0051753247396040414
2427.0,0.00524495553869128
2426.0,0.005283323049629632
2425.0,0.005313205775779047
2424.0,0.005344773628213114
2423.0,0.005363775927539584
2422.0,0.005358914993587625
2421.0,0.005341539884033282
2420.0,0.005327628359142821
2419.0,0.005318273012889759
2418.0,0.0053122629684836725
2417.0,0.005320741312273686
2416.0,0.005349136931328269
2415.0,0.005375455296917365
2414.0,0.005369938246563659
2413.0,0.005335266782143505
2412.0,0.005308363633915046
2411.0,0.005318032747983207
2410.0,0.005353734986711533
2409.0,0.0053813540290689995
2408.0,0.005381346386129321
2407.0,0.005364944650896661
2406.0,0.005355912070568284
2405.0,0.005363402191504987
2404.0,0.005377115461081664
2403.0,0.005386667962776827
2402.0,0.005396464550507608
2401.0,0.005415561147884974
2400.0,0.005440671911143757
2399.0,0.005461169221218736
2398.0,0.005477303738324818
2397.0,0.005500083591243865
2396.0,0.0055332287944011285
2395.0,0.005566713785500307
2394.0,0.0055880171686347214
2393.0,0.005589684533005192
2392.0,0.005569695542218712
2391.0,0.005538256950049517
2390.0,0.005521236599197057
2389.0,0.005539415262012989
2388.0,0.0055829083143703025
2387.0,0.005621987063444031
2386.0,0.005642880385329273
2385.0,0.005655265218391625
2384.0,0.0056653123853803574
2383.0,0.0056645030548125655
2382.0,0.005652121297694851
2381.0,0.005645188122170407
2380.0,0.005651100671578229
2379.0,0.005650850938830786
2378.0,0.005630636727880652
2377.0,0.005609959042964782
2376.0,0.0056080343847918195
2375.0,0.005605348055946868
2374.0,0.005579200773036076
2373.0,0.005564411819479174
2372.0,0.005622691836562381
2371.0,0.005746962781325752
2370.0,0.005854866714118109
2369.0,0.005894227889237246
2368.0,0.00589963266288223
2367.0,0.005916932514472505
2366.0,0.005922724270948157
2365.0,0.005875951334815413
2364.0,0.005808606994487997
2363.0,0.0058069222211468196
2362.0,0.005942671305585853
2361.0,0.006211435487424302
2360.0,0.006520124115746103
2359.0,0.006764209465828379
2358.0,0.006893402194901068
2357.0,0.006919483990541321
2356.0,0.006853725535345799
2355.0,0.006700559551168623
2354.0,0.006512723703963293
2353.0,0.006362179928496405
2352.0,0.006275521057838204
2351.0,0.006202362690653221
2350.0,0.0060973372263859234
2349.0,0.005976914694099806
2348.0,0.005879597730468584
2347.0,0.005870789981919115
2346.0,0.00600136419798483
2345.0,0.006247709911060751
2344.0,0.006468657078784007
2343.0,0.00653516354818966
2342.0,0.006491976963083629
2341.0,0.006467373615911654
2340.0,0.006528426945577736
2339.0,0.0066215427129808465
2338.0,0.0066785664466660856
2337.0,0.006698802458999731
2336.0,0.006724144801032436
2335.0,0.0067518006407342596
2334.0,0.006748496421271858
2333.0,0.006692808513400792
2332.0,0.006615463146806392
2331.0,0.006551124245606953
2330.0,0.0065395705806787705
2329.0,0.006660997572963452
2328.0,0.006965103544049728
2327.0,0.007407266422331244
2326.0,0.00781875593690422
2325.0,0.008042325687571803
2324.0,0.008035723041865707
2323.0,0.007874026913799695
2322.0,0.007659693906230017
2321.0,0.007439246990348484
2320.0,0.007242713606646134
2319.0,0.007095265488289559
2318.0,0.0070110756175787246
2317.0,0.006957683579904415
2316.0,0.006890388437856468
2315.0,0.006794513438794667
2314.0,0.0067025488703202464
2313.0,0.006657298609723438
2312.0,0.006663455918157732
2311.0,0.006681314364702474
2310.0,0.006659001456653708
2309.0,0.006583605457892381
2308.0,0.006486434878236058
2307.0,0.006413150897891492
2306.0,0.006373720273482259
2305.0,0.006340517285825309
2304.0,0.006292132185430143
2303.0,0.006248786103852412
2302.0,0.006247079608278891
2301.0,0.0062861917983588
2300.0,0.006325116118132096
2299.0,0.006342108986178762
2298.0,0.006365616186853126
2297.0,0.00643264442919542
2296.0,0.006530950190694269
2295.0,0.006618309086996298
2294.0,0.006676201968392672
2293.0,0.006724787586853894
2292.0,0.00677894387454058
2291.0,0.006826177935630132
2290.0,0.006848560425822752
2289.0,0.006851729009448509
2288.0,0.0068563684202219135
2287.0,0.006871639164326954
2286.0,0.006879978064101794
2285.0,0.006842845837827667
2284.0,0.006730594446852379
2283.0,0.0065594047655155065
2282.0,0.006397618981476122
2281.0,0.0063119914902744325
2280.0,0.0063087823911084
2279.0,0.006337155837229094
2278.0,0.006344658996966896
2277.0,0.006303914988283883
2276.0,0.006201722026649872
2275.0,0.00604829007364128
2274.0,0.005901888915328208
2273.0,0.0058401426832791915
2272.0,0.005878478325784107
2271.0,0.005944042950132531
2270.0,0.0059478986599627
2269.0,0.005867413407677507
2268.0,0.0057547040583158056
2267.0,0.005686986564122476
2266.0,0.005715167938521081
2265.0,0.005826130064802597
2264.0,0.005939271799090082
2263.0,0.005967820707692828
2262.0,0.005901519660917772
2261.0,0.005813029561302427
2260.0,0.005777572431967653
2259.0,0.0057995666109128315
2258.0,0.005824300313634601
2257.0,0.005793425818366909
2256.0,0.0056894326838359075
2255.0,0.005545823474592744
2254.0,0.0054210978432828565
2253.0,0.005343790555769744
2252.0,0.005290089786886947
2251.0,0.005237930156395098
2250.0,0.005219408301437231
2249.0,0.005272649060518328
2248.0,0.005358988855584812
2247.0,0.00539820184079618
2246.0,0.005384863709430417
2245.0,0.005396362553368571
2244.0,0.005467756589743895
2243.0,0.005528759751059196
2242.0,0.005502387098964567
2241.0,0.005407016379354074
2240.0,0.005321745492449181
2239.0,0.005298162940014743
2238.0,0.005343943596498855
2237.0,0.005442674717458902
2236.0,0.005540711985227228
2235.0,0.005563098795083902
2234.0,0.005492474547182849
2233.0,0.005404813620380221
2232.0,0.005378049326712114
2231.0,0.005397999105285885
2230.0,0.0053999947763472824
2229.0,0.005373458756103542
2228.0,0.0053689028261258015
2227.0,0.005411146145783891
2226.0,0.0054517064868576555
2225.0,0.005410822261378739
2224.0,0.005250966221318813
2223.0,0.005023987023302956
2222.0,0.004850087067403048
2221.0,0.004817746304111206
2220.0,0.004887619311725072
2219.0,0.0049404508747300895
2218.0,0.004937011617238916
2217.0,0.004964402552180065
2216.0,0.0050925643503558216
2215.0,0.005252327913067008
2214.0,0.005317770786694685
2213.0,0.0052588428184162355
2212.0,0.005148343798748834
2211.0,0.005054915993309273
2210.0,0.005002728581048091
2209.0,0.0050079907570187415
2208.0,0.005073479647241839
2207.0,0.005149395378755785
2206.0,0.005168758838301655
2205.0,0.005128152762494301
2204.0,0.005083141376494703
2203.0,0.00505780711544378
2202.0,0.005008714478717097
2201.0,0.004896238518543403
2200.0,0.004756400615009154
2199.0,0.0046839457694557805
2198.0,0.00475766805350024
2197.0,0.00497497315102196
2196.0,0.005230781854772728
2195.0,0.005372565369570017
2194.0,0.005313467858239297
2193.0,0.0051086859094961285
2192.0,0.004918101016008579
2191.0,0.004870483667564365
2190.0,0.004966071272964399
2189.0,0.005099961205629281
2188.0,0.005160741974434296
2187.0,0.005105719641814042
2186.0,0.0049455101458938285
2185.0,0.004686638262969666
2184.0,0.004343500108306719
2183.0,0.0040197443529016415
2182.0,0.003907038230551636
2181.0,0.004114706538475644
2180.0,0.0044999195338453
2179.0,0.004769721167231899
2178.0,0.004750734092325039
2177.0,0.004516273828128776
2176.0,0.004273700625610975
2175.0,0.004176316222204546
2174.0,0.004267732946746298
2173.0,0.004522189082970927
2172.0,0.004861993820242511
2171.0,0.00518750394115867
2170.0,0.0054407981136277575
2169.0,0.005634520894914836
2168.0,0.005806060036957559
2167.0,0.005958463746009719
2166.0,0.00606766711778264
2165.0,0.006130277521956518
2164.0,0.006170841801924014
2163.0,0.006173747263006324
2162.0,0.005998934413936346
2161.0,0.005414581294098622
2160.0,0.0043313618568465
2159.0,0.003046426006179806
2158.0,0.002094008844346906
2157.0,0.0017691888773020946
2156.0,0.0019089669774915803
2155.0,0.0021841384517523855
2154.0,0.00245468838371555
2153.0,0.00275849720480972
2152.0,0.00308936306569645
2151.0,0.0033212581114891284
2150.0,0.0033558192832760874
2149.0,0.003238837019886239
2148.0,0.0031142863226975735
2147.0,0.003102925887199906
2146.0,0.0032328853620820336
2145.0,0.0034287164368833924
2144.0,0.003576144507068671
2143.0,0.003641794387218947
2142.0,0.003710487165169066
2141.0,0.003864198562734506
2140.0,0.004057023249088488
2139.0,0.0041708442045523654
2138.0,0.004157877900368883
2137.0,0.004058161269792537
2136.0,0.003907627027750255
2135.0,0.003716026974115827
2134.0,0.0035272409969505083
2133.0,0.0034107782067236904
2132.0,0.0033838621819019376
2131.0,0.0034115930621301397
2130.0,0.0034871140602031063
2129.0,0.0036403648070955346
2128.0,0.003856937004700422
2127.0,0.0040552184605926744
2126.0,0.004170493864973241
2125.0,0.004226273153532037
2124.0,0.004302689951057836
2123.0,0.004458965706591844
2122.0,0.004687111277451017
2121.0,0.004912752101818553
2120.0,0.005042548686374504
2119.0,0.005051580623425403
2118.0,0.005016941281368488
2117.0,0.0050360908494031425
2116.0,0.005116237682559387
2115.0,0.005191173162112178
2114.0,0.005230955387626257
2113.0,0.00526964378079175
2112.0,0.005315322489775532
2111.0,0.005311449058985783
2110.0,0.005221086269034134
2109.0,0.005095428457807127
2108.0,0.005017143494742866
2107.0,0.005010888695263735
2106.0,0.005039309893175776
2105.0,0.005047803118740309
2104.0,0.004992175504158216
2103.0,0.00486508497854681
2102.0,0.00472631493169494
2101.0,0.00466409454154437
2100.0,0.004700415931863433
2099.0,0.004765762144277735
2098.0,0.004793537607286919
2097.0,0.004791190979406114
2096.0,0.004798006823258903
2095.0,0.004818281876054983
2094.0,0.004833621836056074
2093.0,0.004841118875616702
2092.0,0.0048459695554982545
2091.0,0.004843693616243589
2090.0,0.004834625789372164
2089.0,0.004831494578853902
2088.0,0.004838815123860055
2087.0,0.004854288346139031
2086.0,0.004895306468740757
2085.0,0.0049819068616408935
2084.0,0.0050862958854223424
2083.0,0.005148247468029306
2082.0,0.005152183462433842
2081.0,0.005134830714424651
2080.0,0.005103753501353416
2079.0,0.005014249142775347
2078.0,0.0048618169848466675
2077.0,0.004727246953658272
2076.0,0.00467434161911777
2075.0,0.0046598057501914605
2074.0,0.004601288772754374
2073.0,0.004487979378163085
2072.0,0.00436742831439242
2071.0,0.004271842336442556
2070.0,0.004216361185705339
2069.0,0.004222857738607439
2068.0,0.004275634900369348
2067.0,0.004292683209710041
2066.0,0.0042087698050582495
2065.0,0.0040718758457616985
2064.0,0.003997000932726583
2063.0,0.004028521361004678
2062.0,0.00410828941876709
2061.0,0.0041610305510893396
2060.0,0.004166305573661515
2059.0,0.004169659558347772
2058.0,0.004236230628995782
2057.0,0.0043683921234261265
2056.0,0.004475997176795348
2055.0,0.004482331054919019
2054.0,0.0044527634127471405
2053.0,0.004523422060257192
2052.0,0.004675893591025343
2051.0,0.004694499123936742
2050.0,0.004420607981092112
2049.0,0.00399024366259717
2048.0,0.003686166621653885
2047.0,0.003595874221634081
2046.0,0.0035981325325594136
2045.0,0.0035961983954347024
2044.0,0.003594319684766956
2043.0,0.0035892749772493474
2042.0,0.00354956855454799
2041.0,0.003511456144575307
2040.0,0.0035619538314093204
2039.0,0.0037028978874110415
2038.0,0.0038271992451745273
2037.0,0.003836163377581506
2036.0,0.003724951556117296
2035.0,0.0035643151122066114
2034.0,0.0034491550891518436
2033.0,0.0034371559615182135
2032.0,0.003472386405427956
2031.0,0.0034152015104263124
2030.0,0.0032012082892590183
2029.0,0.0029244147149731533
2028.0,0.002716304241752368
2027.0,0.0026130369300398333
2026.0,0.0026060533739619067
2025.0,0.0027185339789608464
2024.0,0.002918096037655449
2023.0,0.0030457595986021174
2022.0,0.002968588942667919
2021.0,0.002759683306287036
2020.0,0.002622660826692573
2019.0,0.0026570388755484493
2018.0,0.0027892281251705934
2017.0,0.002906035090931387
2016.0,0.0029782653582667053
2015.0,0.00304132061529243
2014.0,0.003112065114435928
2013.0,0.0031536469115531745
2012.0,0.00309590465270858
2011.0,0.0029005475148270936
2010.0,0.002625263840900721
2009.0,0.0024023322945385213
2008.0,0.0023197681603430286
2007.0,0.0023590472750719313
2006.0,0.0024714190731126183
2005.0,0.0026364468679585507
2004.0,0.002816647214501752
2003.0,0.0029343518403593164
2002.0,0.0029452943738890553
2001.0,0.0028882588285599046
2000.0,0.0028449058818053596
1999.0,0.002862812777010528
1998.0,0.0029283531250946064
1997.0,0.0029888463511265418
1996.0,0.002992008009868459
1995.0,0.00294438716818529
1994.0,0.002934093350275566
1993.0,0.0030452296844467167
1992.0,0.0032090415662619537
1991.0,0.00325774488081307
1990.0,0.003187925374556601
1989.0,0.0031886438216944943
1988.0,0.0033895910646643914
1987.0,0.003707214336251744
1986.0,0.003974886634353812
1985.0,0.004135486160742519
1984.0,0.004230923389738098
1983.0,0.004273719594673798
1982.0,0.004226398147952444
1981.0,0.004070814197349832
1980.0,0.0038409525928125255
1979.0,0.0035947734100070005
1978.0,0.003387501401325113
1977.0,0.003237828404011711
1976.0,0.0030947939886124226
1975.0,0.0029183381480874988
1974.0,0.002798430981918143
1973.0,0.00288112404990467
1972.0,0.0031444580568402115
1971.0,0.003373964142784778
1970.0,0.0034052102971736256
1969.0,0.0032823479773380435
1968.0,0.0031475145650566435
1967.0,0.003066569135711706
1966.0,0.003028874036136139
1965.0,0.0030256595011508665
1964.0,0.0030209990443175365
1963.0,0.002942440918123587
1962.0,0.0027907884977648543
1961.0,0.002686404978138889
1960.0,0.0027298649672745333
1959.0,0.002892040216660442
1958.0,0.0031007114300062233
1957.0,0.003320156414717777
1956.0,0.0034900725212837023
1955.0,0.003517270446739729
1954.0,0.0034185218465475646
1953.0,0.003373056462402107
1952.0,0.0035139081812698945
1951.0,0.0037624236715608113
1950.0,0.003956649641819246
1949.0,0.004041174045680813
1948.0,0.004049890262677129
1947.0,0.003985874905906156
1946.0,0.0038413871557026564
1945.0,0.0036905480155952153
1944.0,0.0036343824776166114
1943.0,0.0036656298746082575
1942.0,0.003685928774941459
1941.0,0.003677545841442559
1940.0,0.003706833432790637
1939.0,0.0037545141416002858
1938.0,0.003723378759529856
1937.0,0.0035941380359352237
1936.0,0.0034577264348880947
1935.0,0.003381045447751304
1934.0,0.003335977943783125
1933.0,0.003285475058438253
1932.0,0.0032377298944504546
1931.0,0.003200430683782721
1930.0,0.0031589244289834135
1929.0,0.0031093504962734207
1928.0,0.003085097188715419
1927.0,0.0030935670771742607
1926.0,0.0030924254744392463
1925.0,0.0030415321877673403
1924.0,0.0029556203800939923
1923.0,0.0029021182328575184
1922.0,0.002910145153303851
1921.0,0.002938895599549323
1920.0,0.0029398171699191265
1919.0,0.002905227533244771
1918.0,0.002894206408960445
1917.0,0.002942479070172068
1916.0,0.003005396859934666
1915.0,0.0030416819181904565
1914.0,0.003053061758635584
1913.0,0.003068899777083937
1912.0,0.003090328731795303
1911.0,0.0030759273230635408
1910.0,0.003012418446473645
1909.0,0.0029481946496664633
1908.0,0.002928553167570249
1907.0,0.002922804364744071
1906.0,0.002891075820920392
1905.0,0.0028508891027113114
1904.0,0.0028319186062528744
1903.0,0.0028306087424221273
1902.0,0.002828557658698908
1901.0,0.0028271462305089275
1900.0,0.0028361973509221485
1899.0,0.002832315668621465
1898.0,0.0027908883586541425
1897.0,0.002740801047665615
1896.0,0.0027355145766713254
1895.0,0.002779356316797951
1894.0,0.0028205202174214714
1893.0,0.0028282876677039053
1892.0,0.0028121448978710383
1891.0,0.0027779338352754463
1890.0,0.002736058797550155
1889.0,0.0027091052439880614
1888.0,0.002701911254279509
1887.0,0.0026976237277853876
1886.0,0.0026725673806820365
1885.0,0.0026319706101893634
1884.0,0.002607343843305264
1883.0,0.0026079920378569337
1882.0,0.002611843499650301
1881.0,0.0026043712063045666
1880.0,0.002598877832705688
1879.0,0.0025991499776303103
1878.0,0.002586127261162461
1877.0,0.002560924952446489
1876.0,0.0025462666309154064
1875.0,0.002550863125276935
1874.0,0.002572849959969408
1873.0,0.002614550346365113
1872.0,0.0026598227049833634
1871.0,0.002651599924152698
1870.0,0.0025602403244592044
1869.0,0.002483220914888814
1868.0,0.002520461316605752
1867.0,0.002615192331960708
1866.0,0.0026826812954492945
1865.0,0.0027085307515662283
1864.0,0.002719555596481971
1863.0,0.002737049596767677
1862.0,0.0027529669375260975
1861.0,0.002752708355789885
1860.0,0.0027443455530947528
1859.0,0.002742447758209563
1858.0,0.0027428005495639804
1857.0,0.0027368206894644994
1856.0,0.002733218329090973
1855.0,0.0027408509668457376
1854.0,0.002758446098838389
1853.0,0.002771479171709469
1852.0,0.0027787837175657776
1851.0,0.0027738371915715307
1850.0,0.002735956927963412
1849.0,0.002697638499006094
1848.0,0.002738964913530547
1847.0,0.002873653233361982
1846.0,0.0029865279508771245
1845.0,0.0029653597850835154
1844.0,0.0028668480291580397
1843.0,0.0028147566719782064
1842.0,0.0028488710901511515
1841.0,0.0029273947945097174
1840.0,0.002991405886739876
1839.0,0.0030215699864859996
1838.0,0.0030531263917407533
1837.0,0.003117030819227579
1836.0,0.003201819179844422
1835.0,0.003284100395357756
1834.0,0.0033528068722775634
1833.0,0.0034000875465503783
1832.0,0.0034157186491868084
1831.0,0.003396559775257036
1830.0,0.003390110222919466
1829.0,0.0034276600037751754
1828.0,0.003493265720682006
1827.0,0.003553678157772572
1826.0,0.0035429208375640925
1825.0,0.003484788353579328
1824.0,0.0034881605371507567
1823.0,0.003576852211595122
1822.0,0.003670704606416493
1821.0,0.003694595332122911
1820.0,0.003653740790107463
1819.0,0.0035881977143628957
1818.0,0.003522581345149548
1817.0,0.003476323528393866
1816.0,0.0034685913216257486
1815.0,0.003501954158175261
1814.0,0.0035441366660061025
1813.0,0.0035751458718044343
1812.0,0.003613013546821432
1811.0,0.0036640180255324917
1810.0,0.0037014596966672367
1809.0,0.0037103875587702357
1808.0,0.0037177223380121987
1807.0,0.0037512547583933836
1806.0,0.003803732961988428
1805.0,0.0038624085541657267
1804.0,0.003933760169323578
1803.0,0.0040369699233566555
1802.0,0.004151728713190608
1801.0,0.004235481433704378
1800.0,0.0042710109432541835
1799.0,0.004279166099585722
1798.0,0.004297094626613584
1797.0,0.004358161603345953
1796.0,0.004481328651224853
1795.0,0.00462496243918417
1794.0,0.004654963941496838
1793.0,0.004498362088579969
1792.0,0.00430988463799279
1791.0,0.00425743046586292
1790.0,0.004312021249751627
1789.0,0.0043921534351371245
1788.0,0.004456439504950337
1787.0,0.004481047307544735
1786.0,0.00444216619686929
1785.0,0.004351809513179542
1784.0,0.00428320263219528
1783.0,0.004310191644624592
1782.0,0.004379882512101267
1781.0,0.0044091400808982115
1780.0,0.004419508330305145
1779.0,0.00445680726210063
1778.0,0.004500910164257462
1777.0,0.004518131849798573
1776.0,0.0045657594043773
1775.0,0.004701913604771406
1774.0,0.004815479469193562
1773.0,0.004779896167240619
1772.0,0.00474432814575571
1771.0,0.004857581958733628
1770.0,0.005029516737327528
1769.0,0.005148347146621011
1768.0,0.005214821965645068
1767.0,0.005312967074556484
1766.0,0.005460822978786705
1765.0,0.005617726965780539
1764.0,0.005762106675898585
1763.0,0.0059342179448678405
1762.0,0.006164730294153761
1761.0,0.006394015293304904
1760.0,0.006625157514839105
1759.0,0.006941394108610785
1758.0,0.007312715629562197
1757.0,0.007652402660594181
1756.0,0.008003910911393236
1755.0,0.008453777857339037
1754.0,0.008970967014875559
1753.0,0.009457352690200366
1752.0,0.00999003245456351
1751.0,0.010850166681400156
1750.0,0.01211055513389478
1749.0,0.01357231441971848
1748.0,0.015186042563049739
1747.0,0.01697207552447944
1746.0,0.0188780060349429
1745.0,0.021027972846934664
1744.0,0.023662656732696553
1743.0,0.02671186214715639
1742.0,0.029872202262303867
1741.0,0.03331793051202794
1740.0,0.03761816644215819
1739.0,0.04244304800600385
1738.0,0.046474582085175666
1737.0,0.04941492107367797
1736.0,0.052239069412073603
1735.0,0.05693894789087766
1734.0,0.0646403346781621
1733.0,0.07166094983010242
1732.0,0.07608440607055204
1731.0,0.0801517183313431
1730.0,0.08493275372264206
1729.0,0.0899049934424713
1728.0,0.09443915383627229
1727.0,0.0985960290194697
1726.0,0.10275740752661465
1725.0,0.10724589426209395
1724.0,0.11217104288884942
1723.0,0.1171241240112532
1722.0,0.12134740019856954
1721.0,0.12449365925229919
1720.0,0.12705525449906127
1719.0,0.13031704678833683
1718.0,0.13568452532185984
1717.0,0.1416289423801626
1716.0,0.1450879217939499
1715.0,0.14673401635047717
1714.0,0.14755693721909477
1713.0,0.14719146184062623
1712.0,0.14566618289258143
1711.0,0.14342150309795546
1710.0,0.1406171389329452
1709.0,0.13702619066829208
1708.0,0.13246009250358765
1707.0,0.12663008818831104
1706.0,0.11909494369792988
1705.0,0.11076397520951847
1704.0,0.10386125729122817
1703.0,0.09893111647802069
1702.0,0.09443685028336557
1701.0,0.0877223979811328
1700.0,0.07860867121682653
1699.0,0.07133770821487083
1698.0,0.06717084856999284
1697.0,0.06366859076843025
1696.0,0.059244890561883354
1695.0,0.05490725483481197
1694.0,0.05195790894867269
1693.0,0.05011896833829156
1692.0,0.04860326911576743
1691.0,0.046938935173001003
1690.0,0.045168980515060055
1689.0,0.04367538963940715
1688.0,0.042623707622725784
1687.0,0.04178470039371856
1686.0,0.04079641251176241
1685.0,0.039607644175468845
1684.0,0.038658823119811225
1683.0,0.037899795794139254
1682.0,0.037226283544709735
1681.0,0.036717517137606265
1680.0,0.03624713170263466
1679.0,0.03571872673597233
1678.0,0.03516852522294332
1677.0,0.03461293259750989
1676.0,0.033969330139967314
1675.0,0.03323262164179809
1674.0,0.03255202239789053
1673.0,0.03208846041675621
1672.0,0.031771531120458496
1671.0,0.031388688198155414
1670.0,0.030940409580884058
1669.0,0.030573920197205506
1668.0,0.030253046132529576
1667.0,0.029927611797438573
1666.0,0.029627457313031805
1665.0,0.02934932746709623
1664.0,0.029029132512372706
1663.0,0.028672532599819577
1662.0,0.02836667902629615
1661.0,0.028144324419262
1660.0,0.027981522726438064
1659.0,0.02780116520259389
1658.0,0.027613717007034723
1657.0,0.02749126812913527
1656.0,0.02747847363982065
1655.0,0.027296019515741496
1654.0,0.026875401590762227
1653.0,0.026890600161908165
1652.0,0.026882653499262055
1651.0,0.02672156511196018
1650.0,0.026713571050876926
1649.0,0.026721214649872833
1648.0,0.02666375029717773
1647.0,0.026667831273568865
1646.0,0.026673262239530954
1645.0,0.02657774747219361
1644.0,0.02649441143526883
1643.0,0.0264307773619938
1642.0,0.026342375700033543
1641.0,0.02624236373177152
1640.0,0.0261608685226242
1639.0,0.026074341137958645
1638.0,0.02592403520187282
1637.0,0.025726610431963417
1636.0,0.025640383848758004
1635.0,0.025534001258877965
1634.0,0.025300976300731137
1633.0,0.025160946504144716
1632.0,0.02510611285752007
1631.0,0.02499695076666811
1630.0,0.02478389184077054
1629.0,0.02451794692624397
1628.0,0.024257912943893945
1627.0,0.0239941147158814
1626.0,0.02370983270380825
1625.0,0.023404315465333003
1624.0,0.023077914182192037
1623.0,0.02278136235339228
1622.0,0.02257297785270917
1621.0,0.022475713852345373
1620.0,0.02246136586411946
1619.0,0.022423041804127845
1618.0,0.02231584179330414
1617.0,0.022302057768978232
1616.0,0.022388833430826142
1615.0,0.022340661239515325
1614.0,0.02216166149944067
1613.0,0.021911482647729217
1612.0,0.021542074655024758
1611.0,0.021034775576463004
1610.0,0.020445156694846353
1609.0,0.019854782283822394
1608.0,0.01928971360122495
1607.0,0.018747719301685735
1606.0,0.01823934988030561
1605.0,0.01777084182515932
1604.0,0.017324916396911336
1603.0,0.016877759248199065
1602.0,0.016449428806846945
1601.0,0.016077634572517055
1600.0,0.01575338775097342
1599.0,0.015446354941659395
1598.0,0.015160352567132898
1597.0,0.014919570292651573
1596.0,0.014713896522320843
1595.0,0.014516124296430098
1594.0,0.014337128891996336
1593.0,0.014203774942497697
1592.0,0.014105569477571352
1591.0,0.014020577668963516
1590.0,0.013964569259027698
1589.0,0.013967834770889934
1588.0,0.014036860383268263
1587.0,0.014181126240299973
1586.0,0.014453426434981747
1585.0,0.014896909505914685
1584.0,0.01552360833484354
1583.0,0.016317336942501235
1582.0,0.017209450953097595
1581.0,0.018081301554699104
1580.0,0.01882265869404323
1579.0,0.019327350145121335
1578.0,0.019425374294678204
1577.0,0.018929274228496534
1576.0,0.017915633276224988
1575.0,0.016858751903282555
1574.0,0.016132826889622132
1573.0,0.01569904378634266
1572.0,0.015327456079096888
1571.0,0.014797957542591316
1570.0,0.014134342270425735
1569.0,0.013575669219641952
1568.0,0.013225761392609808
1567.0,0.013005327770331549
1566.0,0.012826387276943931
1565.0,0.012654545780262844
1564.0,0.012552226116761513
1563.0,0.012558265002833378
1562.0,0.012647288733991603
1561.0,0.012600670940010498
1560.0,0.012155409596236351
1559.0,0.011924125351493137
1558.0,0.012005089570814864
1557.0,0.011946554577622035
1556.0,0.011995123548279508
1555.0,0.012096334065863745
1554.0,0.012128503407405115
1553.0,0.012139807819892226
1552.0,0.012173811438836439
1551.0,0.012235804656127499
1550.0,0.012339544910791502
1549.0,0.012488323252028387
1548.0,0.012603647471342305
1547.0,0.012636763895376112
1546.0,0.012592301631997784
1545.0,0.012606583521097042
1544.0,0.012790122383112775
1543.0,0.013002332424740144
1542.0,0.013060813621475913
1541.0,0.013249716911264552
1540.0,0.013757518992837153
1539.0,0.013965628962752198
1538.0,0.01395786930105063
1537.0,0.014134859222956039
1536.0,0.014416228580134714
1535.0,0.014654219140748333
1534.0,0.014910172421862645
1533.0,0.015311093177855742
1532.0,0.015647260184307916
1531.0,0.015829834317192825
1530.0,0.015979365240348386
1529.0,0.01615430736520464
1528.0,0.016353470698140703
1527.0,0.016553774044508487
1526.0,0.016767413497445326
1525.0,0.01700059468515722
1524.0,0.017197544575851948
1523.0,0.017258888079464574
1522.0,0.01730100344222569
1521.0,0.017496935903601272
1520.0,0.017661299002332747
1519.0,0.017741638145523944
1518.0,0.017874654556375692
1517.0,0.01816947006442114
1516.0,0.01854047157091613
1515.0,0.018808426942257466
1514.0,0.019062521061663035
1513.0,0.01938091622861087
1512.0,0.01979614973988946
1511.0,0.02022892129746542
1510.0,0.020746076167779473
1509.0,0.021383254872555282
1508.0,0.022965421711071122
1507.0,0.026458624564839738
1506.0,0.029114398873166247
1505.0,0.029469803632063196
1504.0,0.02899113353337468
1503.0,0.028166438710683868
1502.0,0.027097030927657348
1501.0,0.025910009967772984
1500.0,0.02475147476588363
1499.0,0.02370669961937793
1498.0,0.022815586226170706
1497.0,0.022233311713837273
1496.0,0.021943954645899617
1495.0,0.021760503802005143
1494.0,0.021670019175018887
1493.0,0.021717468571382806
1492.0,0.021814047148631947
1491.0,0.02186897857465331
1490.0,0.02201729927515976
1489.0,0.02239241286793557
1488.0,0.0227832203032309
1487.0,0.02301951304078309
1486.0,0.023202555508837777
1485.0,0.023428383645004075
1484.0,0.023686270827061817
1483.0,0.02393346377788673
1482.0,0.02420293876010034
1481.0,0.024555533725295738
1480.0,0.02492642088606878
1479.0,0.02521225159668112
1478.0,0.025432529671399758
1477.0,0.025705792897555806
1476.0,0.026062546377717058
1475.0,0.026391392990104456
1474.0,0.026687514932795746
1473.0,0.027187048219651642
1472.0,0.02779326482179524
1471.0,0.028165752292845264
1470.0,0.0284471478347312
1469.0,0.028845796659162995
1468.0,0.029334758173118772
1467.0,0.029856576408470906
1466.0,0.030507504890999432
1465.0,0.031474889293064946
1464.0,0.03257912922033355
1463.0,0.03344377588271199
1462.0,0.03412002361948095
1461.0,0.03477596906910133
1460.0,0.03547036304179499
1459.0,0.03614737378601699
1458.0,0.037172051612464604
1457.0,0.03887384866474206
1456.0,0.0401119425071506
1455.0,0.0404835575789472
1454.0,0.040701358371789016
1453.0,0.040956178296150086
1452.0,0.0411367519892244
1451.0,0.041157173353850454
1450.0,0.04110266973685767
1449.0,0.041087441416695666
1448.0,0.04108064252832523
1447.0,0.04103375280948832
1446.0,0.04100426407844215
1445.0,0.041048684911677895
1444.0,0.04111434496571805
1443.0,0.04112101265998218
1442.0,0.04108418139613294
1441.0,0.04105806612430123
1440.0,0.041019692219496556
1439.0,0.04085675273826561
1438.0,0.04045110948837131
1437.0,0.03977245272121687
1436.0,0.038940505582808746
1435.0,0.03816836739284009
1434.0,0.03756951541053723
1433.0,0.03706358965610766
1432.0,0.0365149921717653
1431.0,0.03589243342813825
1430.0,0.035303397516918265
1429.0,0.03487093915985479
1428.0,0.03459157788181663
1427.0,0.03441376355458834
1426.0,0.03431889529631909
1425.0,0.03434038690612827
1424.0,0.034534565390679686
1423.0,0.03484499838161066
1422.0,0.03519582158904475
1421.0,0.0356212234641651
1420.0,0.03631737230700689
1419.0,0.037612244781354505
1418.0,0.03949002042876103
1417.0,0.04167641223134925
1416.0,0.044152930145330546
1415.0,0.04703318952978636
1414.0,0.05049543767729283
1413.0,0.05473919455957041
1412.0,0.059587283220460016
1411.0,0.06420039656110024
1410.0,0.06758747834027418
1409.0,0.0693062204941713
1408.0,0.06924228727063382
1407.0,0.06731850613039653
1406.0,0.0637315152040739
1405.0,0.05918880488452219
1404.0,0.05476239329466264
1403.0,0.05121855323103317
1402.0,0.04857099225776072
1401.0,0.04636427729342468
1400.0,0.04411689833096124
1399.0,0.0417820477450231
1398.0,0.03977851122466746
1397.0,0.038246162491256036
1396.0,0.03678795368638921
1395.0,0.0351162482704735
1394.0,0.03347340857010855
1393.0,0.03216583787504751
1392.0,0.03114460476354542
1391.0,0.030241254142065924
1390.0,0.029365762736637567
1389.0,0.02846345924025971
1388.0,0.027495429512990062
1387.0,0.02656653982569486
1386.0,0.02588828309165736
1385.0,0.0255009637511647
1384.0,0.02528097075792303
1383.0,0.02514064109211299
1382.0,0.025090991233502308
1381.0,0.025169186679512442
1380.0,0.02537462379989182
1379.0,0.025688860395568718
1378.0,0.026084818422837823
1377.0,0.02652540003120795
1376.0,0.026992673700596367
1375.0,0.02751181565342002
1374.0,0.02804838678524932
1373.0,0.028446725265641314
1372.0,0.028601969477524893
1371.0,0.028511296539243544
1370.0,0.028133828601516038
1369.0,0.027377395505931233
1368.0,0.02623676195017457
1367.0,0.02487119015550001
1366.0,0.023447382435893907
1365.0,0.02196460427214211
1364.0,0.020302338668718098
1363.0,0.018478651377254518
1362.0,0.01682838841352249
1361.0,0.015642821465996846
1360.0,0.014847830179595265
1359.0,0.01425696865644225
1358.0,0.013785021957546204
1357.0,0.013407826443765904
1356.0,0.0131041128576424
1355.0,0.012864692118040973
1354.0,0.012713145569492185
1353.0,0.012671040759311272
1352.0,0.0127270822398967
1351.0,0.012875604563790853
1350.0,0.013134753570588319
1349.0,0.013509521744791985
1348.0,0.013978949194634788
1347.0,0.014529948842689253
1346.0,0.015171350490135866
1345.0,0.015884774990599124
1344.0,0.01659623402770427
1343.0,0.01722635328032861
1342.0,0.017735763108524875
1341.0,0.01809470972427147
1340.0,0.018217020825779712
1339.0,0.017986382964951152
1338.0,0.01739951598223901
1337.0,0.016570487973471826
1336.0,0.015608028921284559
1335.0,0.014602815684456826
1334.0,0.01365095140911073
1333.0,0.012829646757332124
1332.0,0.012183316596791335
1331.0,0.011737898228746088
1330.0,0.011498787442397601
1329.0,0.011438112657189279
1328.0,0.011514637018983406
1327.0,0.011706655434182058
1326.0,0.012007856220335067
1325.0,0.012402101113745692
1324.0,0.012860562020490924
1323.0,0.01335612226422898
1322.0,0.013874162840548914
1321.0,0.014412554764312066
1320.0,0.014975624750149755
1319.0,0.015562480560525352
1318.0,0.016157336691678383
1317.0,0.016739675814897693
1316.0,0.017308300835249694
1315.0,0.017892507680886096
1314.0,0.018538006053321683
1313.0,0.01926789704506593
1312.0,0.02005622788620701
1311.0,0.020865192219128473
1310.0,0.021696684394384803
1309.0,0.022577904896642617
1308.0,0.02350190212931185
1307.0,0.024416729327950276
1306.0,0.02528682887421936
1305.0,0.026139399810845218
1304.0,0.027038542822577318
1303.0,0.0280498875447817
1302.0,0.02924312199202274
1301.0,0.03068108288172334
1300.0,0.03237502041085731
1299.0,0.034275408533047357
1298.0,0.036329103747014466
1297.0,0.03851013023090326
1296.0,0.04077261040297416
1295.0,0.04303407699390751
1294.0,0.04524945157402781
1293.0,0.04743843907069169
1292.0,0.04959695105940808
1291.0,0.05165821789122536
1290.0,0.05359208491802318
1289.0,0.05545492757623689
1288.0,0.05727090336832186
1287.0,0.05895504984099954
1286.0,0.0604340781868809
1285.0,0.06174260385696073
1284.0,0.06292508926627356
1283.0,0.06395195700720988
1282.0,0.06480132018501172
1281.0,0.06552352879146038
1280.0,0.06616032163319674
1279.0,0.06669700451290944
1278.0,0.06715655693008114
1277.0,0.06764178905024784
1276.0,0.06823375627972691
1275.0,0.06895477201730855
1274.0,0.06987895086391863
1273.0,0.07116622618918728
1272.0,0.07291259544576899
1271.0,0.07505062050228306
1270.0,0.07747353097496447
1269.0,0.08015892480277254
1268.0,0.08307678833890633
1267.0,0.08610240622977036
1266.0,0.08913645543568151
1265.0,0.09218718472978978
1264.0,0.09521784847218415
1263.0,0.09805468982724155
1262.0,0.10056861383354185
1261.0,0.10278827337620043
1260.0,0.10470713482225932
1259.0,0.10617879075634302
1258.0,0.10716329522339926
1257.0,0.10786148381596401
1256.0,0.10847191674548778
1255.0,0.10903670562820306
1254.0,0.10962041228486961
1253.0,0.11040914738430921
1252.0,0.11150304971506811
1251.0,0.1128104824514334
1250.0,0.11427041583552956
1249.0,0.11597741802844125
1248.0,0.11796361927687621
1247.0,0.12007545862409932
1246.0,0.12221290672397178
1245.0,0.12446808169565302
1244.0,0.12686248684034193
1243.0,0.12918753172613814
1242.0,0.13128486863182875
1241.0,0.1332188425365629
1240.0,0.13498119371735454
1239.0,0.13631100917904337
1238.0,0.13700416692378772
1237.0,0.13710732439443227
1236.0,0.1366217102093453
1235.0,0.13535808820201226
1234.0,0.13327455010583666
1233.0,0.13061176560853544
1232.0,0.12753183131190532
1231.0,0.12395920468523544
1230.0,0.1198917769945998
1229.0,0.11553406696135057
1228.0,0.11102491041576257
1227.0,0.10632842447651857
1226.0,0.10146222545036987
1225.0,0.09658008379337134
1224.0,0.09177789536202711
1223.0,0.08703257071696982
1222.0,0.08236232274134278
1221.0,0.077866350255437
1220.0,0.07359219394945608
1219.0,0.06951291803633766
1218.0,0.06564368716964926
1217.0,0.06205562623149437
1216.0,0.05876634751964352
1215.0,0.05571850772341001
1214.0,0.05287110941575561
1213.0,0.050233696899670215
1212.0,0.04780962257703682
1211.0,0.04557285161982768
1210.0,0.04350510183460766
1209.0,0.04160303835242563
1208.0,0.039847814641411294
1207.0,0.038207917357654456
1206.0,0.036669458760230665
1205.0,0.03523181389030526
1204.0,0.033881406148415234
1203.0,0.03259985881660931
1202.0,0.03138787344389176
1201.0,0.03025243629753195
1200.0,0.029179505999105924
1199.0,0.02814445985491898
1198.0,0.027142336519397063
1197.0,0.026187143327666577
1196.0,0.025289072115724655
1195.0,0.02445134012630369
1194.0,0.023682089056790603
1193.0,0.022993307442638604
1192.0,0.02239237323033102
1191.0,0.021883648087701428
1190.0,0.021473192674985105
1189.0,0.021166556445665723
1188.0,0.020968231271660726
1187.0,0.020887405580500062
1186.0,0.020939112649245965
1185.0,0.021135960593995896
1184.0,0.021479847724724485
1183.0,0.021960638682443634
1182.0,0.02256071783355247
1181.0,0.023258614459618236
1180.0,0.024022659263070498
1179.0,0.02480259689063874
1178.0,0.025538555691725598
1177.0,0.026179287637980067
1176.0,0.026681774936321956
1175.0,0.027000751329381338
1174.0,0.027095015159281866
1173.0,0.026938543959353356
1172.0,0.02652051928067263
1171.0,0.025856276712171625
1170.0,0.025011619959411827
1169.0,0.0240970451294166
1168.0,0.02322386734947144
1167.0,0.022467249713163696
1166.0,0.02185821983923998
1165.0,0.0213944147310713
1164.0,0.021061850129308113
1163.0,0.020853523137952704
1162.0,0.020766215064000226
1161.0,0.020784006564287805
1160.0,0.02087918775914531
1159.0,0.021036053875788767
1158.0,0.02126729158869394
1157.0,0.021601559722992596
1156.0,0.022060745078209043
1155.0,0.022654805177031806
1154.0,0.023389601851003153
1153.0,0.024266914114993772
1152.0,0.02527645001009747
1151.0,0.026400888213741466
1150.0,0.027636262608834408
1149.0,0.028994409548899272
1148.0,0.030475373767627684
1147.0,0.032054231173310334
1146.0,0.03370904611006827
1145.0,0.035438299317971496
1144.0,0.03722870997285843
1143.0,0.039033248412933805
1142.0,0.040809832230860606
1141.0,0.04255087121454487
1140.0,0.044242693083272756
1139.0,0.04583869508374117
1138.0,0.047313985601570324
1137.0,0.048699687867186
1136.0,0.050021717077070676
1135.0,0.051261988931318725
1134.0,0.05242422046885484
1133.0,0.05357304746654154
1132.0,0.05476298376071827
1131.0,0.05600006902701918
1130.0,0.05731925791798717
1129.0,0.05882183931847289
1128.0,0.06058019679705971
1127.0,0.06257522029538728
1126.0,0.06477755717800818
1125.0,0.06720410176817151
1124.0,0.06982238315697731
1123.0,0.07248909916594687
1122.0,0.07507102312947789
1121.0,0.07752913487661206
1120.0,0.07978965661805627
1119.0,0.08166007417484894
1118.0,0.08299004248181985
1117.0,0.08378376299823477
1116.0,0.08405811897654147
1115.0,0.08377318567012007
1114.0,0.0830240850030069
1113.0,0.08212728296838309
1112.0,0.08141265252660503
1111.0,0.08108127974700405
1110.0,0.08130907688904804
1109.0,0.08229353267412359
1108.0,0.08409307699118786
1107.0,0.0865518447655586
1106.0,0.08948751646308144
1105.0,0.0928443109005892
1104.0,0.09657059343944144
1103.0,0.10050994042978785
1102.0,0.1045583658538551
1101.0,0.10875605466194486
1100.0,0.11305417987023844
1099.0,0.11718682366963368
1098.0,0.12097442318629978
1097.0,0.1245192730175432
1096.0,0.12787132923494213
1095.0,0.13079606889157896
1094.0,0.13312909572264045
1093.0,0.1350204918051658
1092.0,0.1365539834473909
1091.0,0.13750850667288297
1090.0,0.13777721761161693
1089.0,0.1376216632503506
1088.0,0.13725010890109887
1087.0,0.13655258997505793
1086.0,0.1354686186945452
1085.0,0.1341869400855406
1084.0,0.13275906861729178
1083.0,0.13093245111344726
1082.0,0.12856528712079274
1081.0,0.1258019624678331
1080.0,0.12268957281593246
1079.0,0.11905563251944601
1078.0,0.11490616897789924
1077.0,0.11053345065270691
1076.0,0.10611900399972228
1075.0,0.10159796318737012
1074.0,0.09698068559113851
1073.0,0.09247945885985276
1072.0,0.08825376859842805
1071.0,0.08429367692679643
1070.0,0.08059318047217126
1069.0,0.07721580192406796
1068.0,0.0741577359376317
1067.0,0.07133280745904388
1066.0,0.06872027861858292
1065.0,0.06637523476136004
1064.0,0.06428562500327242
1063.0,0.06236877094243798
1062.0,0.06062171457954779
1061.0,0.059139547716104385
1060.0,0.05796727827948091
1059.0,0.057056110772590374
1058.0,0.056387579761240036
1057.0,0.056022417155021445
1056.0,0.05598947156726612
1055.0,0.05623041895010136
1054.0,0.05670116256728387
1053.0,0.05743441465327777
1052.0,0.05843790967640555
1051.0,0.05961665347690773
1050.0,0.06087548098235389
1049.0,0.06220264285490783
1048.0,0.06356750324415128
1047.0,0.06485718538803283
1046.0,0.06599798080767397
1045.0,0.06701422448898647
1044.0,0.06790026174454158
1043.0,0.06855842268244344
1042.0,0.06892459299513416
1041.0,0.06903518632183331
1040.0,0.06891590321948889
1039.0,0.06853681694755219
1038.0,0.06793294103670496
1037.0,0.0672331706986385
1036.0,0.06651627986696115
1035.0,0.06575904379120108
1034.0,0.06495771968504979
1033.0,0.06417403924858264
1032.0,0.06342257103244535
1031.0,0.06263588866472505
1030.0,0.061791127676245505
1029.0,0.060966346065723806
1028.0,0.06024006561753234
1027.0,0.05965755339200174
1026.0,0.059352827882254725
1025.0,0.05961536419912654
1024.0,0.060794037651454275
1023.0,0.06319368517323724
1022.0,0.06705578190983862
1021.0,0.07250347429934674
1020.0,0.07936282752558198
1019.0,0.08699707226737166
1018.0,0.09434674291934236
1017.0,0.10010882417787634
1016.0,0.10292484637186043
1015.0,0.10186214225305716
1014.0,0.09715329015872803
1013.0,0.09019168643257162
1012.0,0.08259796552440891
1011.0,0.07547820949972706
1010.0,0.06933563710532087
1009.0,0.06423697126821883
1008.0,0.05999748360658583
1007.0,0.05639773246085408
1006.0,0.053335933528249696
1005.0,0.0507887666036316
1004.0,0.048681403206922096
1003.0,0.046874140792414656
1002.0,0.04526145095168432
1001.0,0.04380809236116577
1000.0,0.042487432703568195
999.0,0.04125497254675706
998.0,0.04009316090597093
997.0,0.039021314803847844
996.0,0.038045284147902855
995.0,0.037141830951120475
994.0,0.0362991918102342
993.0,0.03552910829249724
992.0,0.03483133406892077
991.0,0.034186885418715694
990.0,0.033594282899757924
989.0,0.03307307971473135
988.0,0.032622545661857016
987.0,0.03221319500132907
986.0,0.031826890193379795
985.0,0.03147126521670085
984.0,0.031148526156876237
983.0,0.030844490745925254
982.0,0.030555535010799786
981.0,0.030293486417897718
980.0,0.030056425380368956
979.0,0.02982511005936255
978.0,0.029593749948461465
977.0,0.029372028834745878
976.0,0.029150081402429556
975.0,0.028894216911103984
974.0,0.028584567748759428
973.0,0.028224576124188876
972.0,0.027807705564993616
971.0,0.02731003142476117
970.0,0.02672423960807726
969.0,0.026069529034018254
968.0,0.025362040969585463
967.0,0.024606237904646694
966.0,0.023819956035301834
965.0,0.023037478467063735
964.0,0.02228055707162225
963.0,0.021548698391523124
962.0,0.020839401156876533
961.0,0.02015728940591903
960.0,0.019504768518996775
959.0,0.018883417412776694
958.0,0.01830242259781322
957.0,0.017769119070728964
956.0,0.017276405436121432
955.0,0.01681404193144083
954.0,0.016383404905446673
953.0,0.01598503005265332
952.0,0.015602504205308527
951.0,0.015219583802684442
950.0,0.014845343644993285
949.0,0.014500796691741587
948.0,0.01418762006293435
947.0,0.01389157847215182
946.0,0.013609902367627331
945.0,0.013351877927680438
944.0,0.013115588840008238
943.0,0.012886844531752983
942.0,0.012661620564017893
941.0,0.012449622950956842
940.0,0.01225335612690619
939.0,0.012061102646556979
938.0,0.011864564243297387
937.0,0.011668900085547333
936.0,0.011481115761503239
935.0,0.011300480644358207
934.0,0.011123449571036798
933.0,0.010948234550063513
932.0,0.0107730076976531
931.0,0.01059784419582032
930.0,0.010428062713764171
929.0,0.010267531418480833
928.0,0.010109689736384844
927.0,0.009942665535824735
926.0,0.009762772569582332
925.0,0.00957853087389875
924.0,0.00940516274886909
923.0,0.009258941805812312
922.0,0.009148466362172269
921.0,0.009065093779423918
920.0,0.008991215478670503
919.0,0.008925645979264245
918.0,0.008891814839760898
917.0,0.008913011199407704
916.0,0.008990534789741132
915.0,0.009116871031914213
914.0,0.009299045534702628
913.0,0.009553097388348065
912.0,0.009882061040504566
911.0,0.010276974630275257
910.0,0.010738209867038929
909.0,0.011278416895470555
908.0,0.011900313230651438
907.0,0.012584839559983161
906.0,0.013304107169175919
905.0,0.014030900386854957
904.0,0.014731879556674578
903.0,0.01537278600799227
902.0,0.01594144379619255
901.0,0.01644522513967145
900.0,0.016874445122545198
899.0,0.017192471194858595
898.0,0.017377275496198837
897.0,0.017450287364675722
896.0,0.017450457427385865
895.0,0.01740212546206968
894.0,0.017319655094672842
893.0,0.017221545342137642
892.0,0.0171294822071524
891.0,0.017070562519540464
890.0,0.017084721928238705
889.0,0.01721376071685681
888.0,0.017482633507891893
887.0,0.01790694861182645
886.0,0.01851508409880303
885.0,0.019343300679553678
884.0,0.02041213173601427
883.0,0.02173275332357176
882.0,0.0233386409048953
881.0,0.025277152595004536
880.0,0.027548395822038496
879.0,0.030072466849373605
878.0,0.03273361914721998
877.0,0.035424218512228677
876.0,0.03801346920614811
875.0,0.04030653847955622
874.0,0.04205315995936039
873.0,0.04293718672602112
872.0,0.04258988765798196
871.0,0.0408165063351097
870.0,0.03788263511154258
869.0,0.034411952011460106
868.0,0.03097073364595084
867.0,0.027848488719985347
866.0,0.02514293294757465
865.0,0.022878198717788324
864.0,0.021028973081944416
863.0,0.01953585284885545
862.0,0.018350569693419354
861.0,0.01744634564265104
860.0,0.016783085038031366
859.0,0.016300402507426377
858.0,0.015954281300824727
857.0,0.015724787145948143
856.0,0.015573839893204471
855.0,0.015429440546445187
854.0,0.015236097500755677
853.0,0.015000468749936793
852.0,0.014770271642080876
851.0,0.014587168208296815
850.0,0.014465068100411146
849.0,0.014385545211310635
848.0,0.014303933290085235
847.0,0.014184539708738182
846.0,0.014039501158706093
845.0,0.013910988212216598
844.0,0.013814614156112903
843.0,0.013728910645279022
842.0,0.013637278778033439
841.0,0.01354082248047539
840.0,0.013424631854634796
839.0,0.01325492029222244
838.0,0.013025205155136374
837.0,0.01276631145062903
836.0,0.012494369745670374
835.0,0.012187947412455831
834.0,0.011836571462394134
833.0,0.011476134953555563
832.0,0.011150250468759539
831.0,0.01086353222841729
830.0,0.010596696140592402
829.0,0.010345242206117395
828.0,0.010119946738061845
827.0,0.009927081144783672
826.0,0.009770896525698583
825.0,0.009658986803949637
824.0,0.009584645467945685
823.0,0.00952309131406976
822.0,0.00946366025735159
821.0,0.009424073012361568
820.0,0.00941864798785488
819.0,0.009436653438195882
818.0,0.009463793522263592
817.0,0.009502612657862432
816.0,0.009559062277766327
815.0,0.009626256791657548
814.0,0.009694226994326798
813.0,0.0097623794480808
812.0,0.009831834952969909
811.0,0.00989894834639981
810.0,0.009964585628395799
809.0,0.010033025362658782
808.0,0.010091989327874161
807.0,0.010111328257342116
806.0,0.010074186750043335
805.0,0.009994836676355156
804.0,0.00989588696039419
803.0,0.009783648294123096
802.0,0.009658883656751882
801.0,0.009549042830921933
800.0,0.00953219181332966
799.0,0.009732942698278901
798.0,0.010266970080582617
797.0,0.011145589120432817
796.0,0.012217947494210978
795.0,0.01321889941971624
794.0,0.013898846134364633
793.0,0.014124941151512933
792.0,0.013885021149195296
791.0,0.013254256688470238
790.0,0.012375121407244172
789.0,0.01140874065583248
788.0,0.010464719047416669
787.0,0.009586143805793632
786.0,0.008790261169197747
785.0,0.008093282811028852
784.0,0.007501064449715048
783.0,0.0070066253921050765
782.0,0.006600105464624105
781.0,0.006263328836198134
780.0,0.005962032086356584
779.0,0.005668198894191956
778.0,0.0053880813241794084
777.0,0.005146098321756283
776.0,0.00494512240823182
775.0,0.004765592741782825
774.0,0.004596988289438761
773.0,0.004441643734847837
772.0,0.004289903160620508
771.0,0.004122577000892653
770.0,0.003942569845703785
769.0,0.003776588299124608
768.0,0.00363881453762719
767.0,0.003515549983428321
766.0,0.003390341403914178
765.0,0.0032626678741619654
764.0,0.003138963398595391
763.0,0.003027961056033597
762.0,0.0029453641461376703
761.0,0.0028969142175614866
760.0,0.002854102017891637
759.0,0.0027749069961140183
758.0,0.002657793362908629
757.0,0.0025505646297694015
756.0,0.0024979045323204434
755.0,0.0025017770957578497
754.0,0.002535776336247405
753.0,0.0025721937695291214
752.0,0.0025887717696931566
751.0,0.0025813833539082114
750.0,0.0025877965581609097
749.0,0.0026742745325662037
748.0,0.0028805590785029346
747.0,0.0031941705974408846
746.0,0.0035922698842242064
745.0,0.004095613433369994
744.0,0.004779329561388535
743.0,0.005757905539764602
742.0,0.0071677891660446025
741.0,0.00912930824531872
740.0,0.011689837141066698
739.0,0.014806180355047084
738.0,0.01839261565871053
737.0,0.022358317086491775
736.0,0.026576017315000727
735.0,0.030881546091003083
734.0,0.035196610430312913
733.0,0.039623006515812326
732.0,0.04434315288833084
731.0,0.04948077572280801
730.0,0.05512970298345522
729.0,0.061424240864868085
728.0,0.0684275352731137
727.0,0.07593356863463466
726.0,0.08338853816491097
725.0,0.08986751853081598
724.0,0.09410136911814554
723.0,0.09494153528487519
722.0,0.09216373685871256
721.0,0.0866171694733327
720.0,0.07953758787726511
719.0,0.07197765394545812
718.0,0.06469347129236326
717.0,0.05815732642231962
716.0,0.0525898228096042
715.0,0.048043662855620534
714.0,0.0444610901589731
713.0,0.0416659276670654
712.0,0.03938158656464491
711.0,0.037348341363082294
710.0,0.0354493611404634
709.0,0.033699485159581384
708.0,0.03212609489430984
707.0,0.030705161761877722
706.0,0.02939754621411235
705.0,0.02817996043692858
704.0,0.027020152935450653
703.0,0.025866980600089365
702.0,0.02468246409197438
701.0,0.023451639941350667
700.0,0.022163117555627256
699.0,0.020824947876498454
698.0,0.019503576680172607
697.0,0.018299276800484515
696.0,0.01726670342107694
695.0,0.016388894741907967
694.0,0.01562697483884859
693.0,0.014957123116018031
692.0,0.014358475410038554
691.0,0.013807862854087069
690.0,0.01330521800931176
689.0,0.012879069254039234
688.0,0.012549511353575488
687.0,0.012306274370832499
686.0,0.012133178763965309
685.0,0.012022434384904915
684.0,0.011959504883699533
683.0,0.011925947419527367
682.0,0.011911168135438167
681.0,0.011888777989044585
680.0,0.0117968971711911
679.0,0.01158699557664699
678.0,0.011282633510865132
677.0,0.010943057806860265
676.0,0.01058240046958659
675.0,0.010179165788532396
674.0,0.00975529256518029
673.0,0.009381306428936285
672.0,0.009089846606405085
671.0,0.00884106590904592
670.0,0.00858178246019347
669.0,0.008290051167917645
668.0,0.007991173582058118
667.0,0.007737884344099374
666.0,0.007528370075541468
665.0,0.007320810811732421
664.0,0.0070957105742955225
663.0,0.006854819869485697
662.0,0.0066338838471187885
661.0,0.006473940719532591
660.0,0.006374423288454632
659.0,0.006296652711436302
658.0,0.0062203098730329864
657.0,0.006158980160636294
656.0,0.0061099263588059345
655.0,0.006033735642637688
654.0,0.005908238810758259
653.0,0.0057595139974818965
652.0,0.005611285225441926
651.0,0.005451958381017568
650.0,0.005281311003068702
649.0,0.005138988718485671
648.0,0.005049169929249843
647.0,0.004977890368767897
646.0,0.004885311314713939
645.0,0.004783524881189528
644.0,0.004700046222280201
643.0,0.00462163728937624
642.0,0.0045194251914982
641.0,0.004402502081155609
640.0,0.004304126082776156
639.0,0.004234625928319042
638.0,0.004190035768214924
637.0,0.004204393547621501
636.0,0.004361892639955907
635.0,0.00473668309015815
634.0,0.005301373997710721
633.0,0.005883945239361529
632.0,0.006224468183590601
631.0,0.006131542063663051
630.0,0.005656891101021043
629.0,0.005063954632722998
628.0,0.004577025934506006
627.0,0.004228573759781508
626.0,0.003951241935723614
625.0,0.00373109942836692
624.0,0.003606649321627641
623.0,0.0035569868436484513
622.0,0.0034858754065627134
621.0,0.0033281553371957914
620.0,0.003118030229493942
619.0,0.002945036938562174
618.0,0.002864658211738081
617.0,0.002848403549667148
616.0,0.0028124496952571312
615.0,0.002703710673954078
614.0,0.002560022091808379
613.0,0.002467558002419625
612.0,0.0024695864690316253
611.0,0.002534615309497494
610.0,0.0026033382416051423
609.0,0.002641585534929578
608.0,0.0026395083358592766
607.0,0.0026020065557412243
606.0,0.002563270348219772
605.0,0.0025642451552152085
604.0,0.0025957045410121976
603.0,0.002611143024549876
602.0,0.002604571384555606
601.0,0.0026151359605573257
600.0,0.0026399894296680257
