cm-1,A
4000.0,0.00356909247333545
3999.0,0.0035821607464667834
3998.0,0.0036055678639415195
3997.0,0.00363182868651463
3996.0,0.0036412508339220308
3995.0,0.003625696878696098
3994.0,0.0036061413903330578
3993.0,0.0036122594344690506
3992.0,0.0036431172460028027
3991.0,0.0036654029875713284
3990.0,0.0036576797574705954
3989.0,0.003640373788163861
3988.0,0.0036477856192665067
3987.0,0.003678038298439327
3986.0,0.0036915046706287383
3985.0,0.0036580692571919673
3984.0,0.003591395364365998
3983.0,0.0035331673872745113
3982.0,0.0035110189304704883
3981.0,0.0035189249046638973
3980.0,0.0035335291047691748
3979.0,0.003542817847215827
3978.0,0.003552373579622004
3977.0,0.0035732657859839038
3976.0,0.0036129598447297052
3975.0,0.0036634344139133117
3974.0,0.003705618789158772
3973.0,0.003727290632035333
3972.0,0.003738125361567734
3971.0,0.0037577174845404657
3970.0,0.0037942337671809934
3969.0,0.0038473127258523074
3968.0,0.003911380398662316
3967.0,0.003977781985179335
3966.0,0.004028950849673807
3965.0,0.004045066629475952
3964.0,0.004021477618154154
3963.0,0.003973498594012845
3962.0,0.00392488637800399
3961.0,0.0038882530208978663
3960.0,0.0038670991237088562
3959.0,0.0038624316603888993
3958.0,0.0038612397860628735
3957.0,0.0038486655629012163
3956.0,0.0038143536543932544
3955.0,0.0037506660508972098
3954.0,0.0036537970131343585
3953.0,0.0035421406114967257
3952.0,0.0034553293854811575
3951.0,0.0034400449500751815
3950.0,0.003522509866670128
3949.0,0.0036608053374553393
3948.0,0.003757385736323924
3947.0,0.0037612110647895804
3946.0,0.0037359106535901215
3945.0,0.0037510349331759934
3944.0,0.00380124596729128
3943.0,0.0038449383930056515
3942.0,0.0038362496004011263
3941.0,0.0038090992847023223
3940.0,0.003862080575797386
3939.0,0.003981995019361225
3938.0,0.0040404558134389396
3937.0,0.0039742309541616234
3936.0,0.003851377149331944
3935.0,0.003765361104647872
3934.0,0.003731667725225433
3933.0,0.003724029623544794
3932.0,0.003727228417380747
3931.0,0.003723424130049559
3930.0,0.0037142520247822174
3929.0,0.003720215359030164
3928.0,0.0037298785409825633
3927.0,0.0037113037533783345
3926.0,0.0036416162190685535
3925.0,0.0035567204831909918
3924.0,0.0035237374419911822
3923.0,0.0035843468822311774
3922.0,0.003739145056370418
3921.0,0.0038633324353177026
3920.0,0.00384957780379642
3919.0,0.0038136689112174774
3918.0,0.003921513911837853
3917.0,0.004147561025609713
3916.0,0.004332233583478088
3915.0,0.004437153702883549
3914.0,0.00454495016338227
3913.0,0.004647868386280757
3912.0,0.0046824114926180115
3911.0,0.0046609067851915015
3910.0,0.00460229536200857
3909.0,0.0044869896452127515
3908.0,0.0042616016957757845
3907.0,0.003938313002163593
3906.0,0.003607116824088357
3905.0,0.003404303142813479
3904.0,0.003352985237639109
3903.0,0.0033453598855435612
3902.0,0.003429670351126169
3901.0,0.0037360175552540367
3900.0,0.004118823405778516
3899.0,0.004290613267430033
3898.0,0.004222622453899523
3897.0,0.004133184512181528
3896.0,0.004108799976566433
3895.0,0.004034513210154033
3894.0,0.0039263479395102215
3893.0,0.004024137737304959
3892.0,0.004407838779231989
3891.0,0.004625851251438004
3890.0,0.004365275236413203
3889.0,0.004148131248345814
3888.0,0.004329930533540563
3887.0,0.004630838774980436
3886.0,0.004796057659716815
3885.0,0.004721526048705746
3884.0,0.004421567022122156
3883.0,0.0042611322635278705
3882.0,0.004339539097708777
3881.0,0.004439082979105394
3880.0,0.004392790351081298
3879.0,0.004158276035366691
3878.0,0.00407077002710509
3877.0,0.004293479418340412
3876.0,0.004417596413227627
3875.0,0.004135445046011876
3874.0,0.0035875711499061495
3873.0,0.0031380471846596033
3872.0,0.0031003351283681244
3871.0,0.003440781114051425
3870.0,0.0037500777907467434
3869.0,0.0036257060684808332
3868.0,0.0033673610298688497
3867.0,0.0035496451115394918
3866.0,0.0038589866321680263
3865.0,0.003880326323698431
3864.0,0.003887021775706965
3863.0,0.004045512715222322
3862.0,0.004207411133179344
3861.0,0.004281380382499367
3860.0,0.004214543001417553
3859.0,0.0040423083542854375
3858.0,0.0038411875397467137
3857.0,0.0037096813685291597
3856.0,0.003705634327870782
3855.0,0.003937623163230096
3854.0,0.004704701097349011
3853.0,0.005259412848018244
3852.0,0.0043979349352537295
3851.0,0.0036042764510841752
3850.0,0.003950806014213826
3849.0,0.004534192121100542
3848.0,0.0047714193018599214
3847.0,0.004764954909001237
3846.0,0.004686997102255721
3845.0,0.004583037929503549
3844.0,0.00445631651038356
3843.0,0.004223113967007525
3842.0,0.0038496141265392785
3841.0,0.00349172126076017
3840.0,0.0033324482563841396
3839.0,0.003434023038583712
3838.0,0.003570755469773963
3837.0,0.003512123381106987
3836.0,0.0034268756127923163
3835.0,0.0036235910346899113
3834.0,0.004077534338022187
3833.0,0.004537923988419604
3832.0,0.004790729791663208
3831.0,0.004793752389178278
3830.0,0.004686326701571115
3829.0,0.004629173363544526
3828.0,0.004616487408851034
3827.0,0.004509724274631321
3826.0,0.004234987158840544
3825.0,0.003951721796814609
3824.0,0.003882566753187301
3823.0,0.003930450347941674
3822.0,0.003949431638828058
3821.0,0.003967121183909723
3820.0,0.003660980247912702
3819.0,0.0034622510981758055
3818.0,0.00404746742176303
3817.0,0.004916960883221523
3816.0,0.005360991232319558
3815.0,0.005164389928156463
3814.0,0.004880327640725036
3813.0,0.005088889793512821
3812.0,0.005429182553362565
3811.0,0.005405269877042073
3810.0,0.005174000213287714
3809.0,0.005099058068640005
3808.0,0.005239953393747511
3807.0,0.005241020571437308
3806.0,0.004736673946247211
3805.0,0.0041058456200251826
3804.0,0.003933477681537576
3803.0,0.004103232327139281
3802.0,0.00445663794560151
3801.0,0.004639444791862828
3800.0,0.004260811220590872
3799.0,0.0041169566010965716
3798.0,0.004625110029934381
3797.0,0.005239203172631431
3796.0,0.005573061749481566
3795.0,0.005656551864903034
3794.0,0.005762640831933518
3793.0,0.005963422433025065
3792.0,0.006079244477753707
3791.0,0.006042942045619663
3790.0,0.005959995643554485
3789.0,0.005880909371838066
3788.0,0.005780237932215462
3787.0,0.005670652730884731
3786.0,0.005616030004350396
3785.0,0.005602720291316346
3784.0,0.005539719499203547
3783.0,0.005436590132027531
3782.0,0.005400514310930348
3781.0,0.005423088954592693
3780.0,0.0054491834159090275
3779.0,0.005458869747640992
3778.0,0.00544500879409782
3777.0,0.005550055676137231
3776.0,0.00581478139467345
3775.0,0.006005109159662845
3774.0,0.005984133825829097
3773.0,0.005905369023745055
3772.0,0.005938403394499938
3771.0,0.006044961248604782
3770.0,0.0060494305414307194
3769.0,0.00585597446952419
3768.0,0.005645890174032204
3767.0,0.005636964327409703
3766.0,0.005710744390155037
3765.0,0.005651418361048217
3764.0,0.005473405214659497
3763.0,0.005380173192460924
3762.0,0.005368274019172701
3761.0,0.005183161360180731
3760.0,0.00486359317133256
3759.0,0.004689167896993843
3758.0,0.004622924852438041
3757.0,0.004478418880302017
3756.0,0.004303061865657898
3755.0,0.00418248347061073
3754.0,0.003985206054272564
3753.0,0.00358278299139461
3752.0,0.0033942115175435387
3751.0,0.0039002960000727605
3750.0,0.004273245256678257
3749.0,0.003839869205250781
3748.0,0.0034351146627639943
3747.0,0.003782497318041778
3746.0,0.00464904706605875
3745.0,0.005468870427196711
3744.0,0.005474339913433221
3743.0,0.004575385951793508
3742.0,0.004110087256116383
3741.0,0.004418469802637014
3740.0,0.004539326130113486
3739.0,0.0041544331834721705
3738.0,0.003540260292614502
3737.0,0.0029504840911495356
3736.0,0.002650944699401527
3735.0,0.002833446516417962
3734.0,0.003321227765560722
3733.0,0.00396378755883867
3732.0,0.004582252071091721
3731.0,0.004949566753501791
3730.0,0.005164169131538776
3729.0,0.005364989924749096
3728.0,0.005419761473003569
3727.0,0.005214831811864129
3726.0,0.004907795190074105
3725.0,0.004733269033812959
3724.0,0.004787519708903459
3723.0,0.004969632927009008
3722.0,0.005152787743776678
3721.0,0.005297960361533981
3720.0,0.005438847596795287
3719.0,0.005593836369404042
3718.0,0.005668340809176865
3717.0,0.005584329312064521
3716.0,0.005411091882946705
3715.0,0.005232778192781725
3714.0,0.004991736824457214
3713.0,0.004699438352626538
3712.0,0.004658602206694519
3711.0,0.004879240845928208
3710.0,0.004972150239052309
3709.0,0.0050686228017450315
3708.0,0.005416645498169004
3707.0,0.005853983755091545
3706.0,0.006168600587654798
3705.0,0.006343366787863073
3704.0,0.006467878399273003
3703.0,0.006633433784323812
3702.0,0.006862300006119619
3701.0,0.007002558605170128
3700.0,0.006982450468201645
3699.0,0.006993365006439224
3698.0,0.00710231460585805
3697.0,0.00714175225593236
3696.0,0.00702610312182283
3695.0,0.0068365707344587995
3694.0,0.006615222092937323
3693.0,0.006278725116967044
3692.0,0.005852908776294732
3691.0,0.0056950484087008695
3690.0,0.006156235510098588
3689.0,0.006802845829025466
3688.0,0.006896167351066868
3687.0,0.006703225947834342
3686.0,0.00685946744036333
3685.0,0.007307140549094364
3684.0,0.0076260356277436814
3683.0,0.007678636533007542
3682.0,0.007613684549552798
3681.0,0.007518524114931317
3680.0,0.007267237632168367
3679.0,0.006819378748075488
3678.0,0.006442442052701105
3677.0,0.00648442003450227
3676.0,0.007135692753426872
3675.0,0.007537457437139124
3674.0,0.007064798295529718
3673.0,0.006922224024251432
3672.0,0.007436185065024288
3671.0,0.00792260565950289
3670.0,0.008408436007079306
3669.0,0.008710919026660808
3668.0,0.008768207257150547
3667.0,0.009107082747299875
3666.0,0.009640299645937486
3665.0,0.00999572666972329
3664.0,0.010154148077645489
3663.0,0.010248415795750778
3662.0,0.010310684933858678
3661.0,0.010288775110698305
3660.0,0.010204805836606705
3659.0,0.010186060760788387
3658.0,0.010344011823298697
3657.0,0.010649873553094786
3656.0,0.01084965539761281
3655.0,0.01072349198119995
3654.0,0.01052877360611295
3653.0,0.010390426262195704
3652.0,0.009949182177196043
3651.0,0.009180116443307322
3650.0,0.009051001544431087
3649.0,0.009800012013332554
3648.0,0.010122443310597352
3647.0,0.010012752033428957
3646.0,0.010297084213914173
3645.0,0.01099310517714238
3644.0,0.011742820905296082
3643.0,0.012283051113395244
3642.0,0.012608668978322343
3641.0,0.012851574736019455
3640.0,0.01310689971362499
3639.0,0.013363701794788168
3638.0,0.013551060759754568
3637.0,0.013677563473180037
3636.0,0.01381331056726667
3635.0,0.013916674892557157
3634.0,0.013886779485973683
3633.0,0.013768073937834222
3632.0,0.013788086513021769
3631.0,0.014040130322697148
3630.0,0.014579140526708258
3629.0,0.015407082342333015
3628.0,0.015675474765239377
3627.0,0.015321799205475242
3626.0,0.015445292827196793
3625.0,0.01595773598877675
3624.0,0.016219786252821427
3623.0,0.016141498397457262
3622.0,0.01593983435211883
3621.0,0.01582967368925568
3620.0,0.01596748158032523
3619.0,0.016273470277107693
3618.0,0.016388519044606066
3617.0,0.016348099126748956
3616.0,0.01644750849709327
3615.0,0.01668494950121444
3614.0,0.01694541040543844
3613.0,0.017176588057178928
3612.0,0.01737138663470331
3611.0,0.01759854831336829
3610.0,0.01789984918081674
3609.0,0.01824923453242639
3608.0,0.018617222122102345
3607.0,0.018909762974502052
3606.0,0.01912396577328205
3605.0,0.019346333884776627
3604.0,0.01951460664777065
3603.0,0.019542593286896757
3602.0,0.01950051120040521
3601.0,0.01953210481016105
3600.0,0.019695006329753677
3599.0,0.019950071348784647
3598.0,0.02022820020560362
3597.0,0.020466403506485743
3596.0,0.020664785362489158
3595.0,0.020854937064041495
3594.0,0.021027111091932008
3593.0,0.021156792969687116
3592.0,0.021283846107952354
3591.0,0.021417106884743544
3590.0,0.02152034837728032
3589.0,0.021689140057761756
3588.0,0.022159704992970927
3587.0,0.02269099764176686
3586.0,0.022844275837713507
3585.0,0.02290185377772263
3584.0,0.023200180519050262
3583.0,0.023609734723320945
3582.0,0.023957651374202776
3581.0,0.024211437277443515
3580.0,0.024406460238102428
3579.0,0.02457889944678259
3578.0,0.024773225220373916
3577.0,0.025020502194197897
3576.0,0.025320316769008876
3575.0,0.025621979221967253
3574.0,0.025856604280745044
3573.0,0.025978766689093172
3572.0,0.025982683550370818
3571.0,0.025873202577324624
3570.0,0.02564590712882204
3569.0,0.025331857271576684
3568.0,0.025144846188372857
3567.0,0.02527113189374726
3566.0,0.025472779895465973
3565.0,0.025643076181457274
3564.0,0.026000905039579227
3563.0,0.026522514320904148
3562.0,0.027045033540068285
3561.0,0.027533459749369202
3560.0,0.02800824309839981
3559.0,0.028455615378724472
3558.0,0.02885276902080952
3557.0,0.0291789945506239
3556.0,0.029395797988349202
3555.0,0.02949591376249809
3554.0,0.029559468752235342
3553.0,0.029717550238164213
3552.0,0.029984500226294994
3551.0,0.030242653658582627
3550.0,0.03041387078889904
3549.0,0.030492007005080514
3548.0,0.03050240852562712
3547.0,0.030540473814329706
3546.0,0.030697607802068726
3545.0,0.030944370972124963
3544.0,0.031222676477127113
3543.0,0.03155140012258819
3542.0,0.031946975204555264
3541.0,0.032360939652775894
3540.0,0.032720370194308325
3539.0,0.03299488708411829
3538.0,0.03322396990520554
3537.0,0.03348329095922031
3536.0,0.033792614669934794
3535.0,0.03409602397985168
3534.0,0.034344575348904276
3533.0,0.034538200705714124
3532.0,0.03470178716667268
3531.0,0.034860652335085264
3530.0,0.03502272422158175
3529.0,0.0351499883189641
3528.0,0.03518766815556386
3527.0,0.03514597455483668
3526.0,0.03513944567218402
3525.0,0.0353119799915363
3524.0,0.03572499657454493
3523.0,0.036292391304234714
3522.0,0.03684611648425946
3521.0,0.03728872166411778
3520.0,0.03763271611841031
3519.0,0.03792740559001815
3518.0,0.03820558478909628
3517.0,0.038465840588738906
3516.0,0.03867408420114598
3515.0,0.03879611061898602
3514.0,0.03884662448286758
3513.0,0.038898270140976174
3512.0,0.039028749713807945
3511.0,0.039256655653950395
3510.0,0.03953451489081019
3509.0,0.039784544111321936
3508.0,0.03996222524274597
3507.0,0.040084520581564545
3506.0,0.040186148836895176
3505.0,0.040302921739659915
3504.0,0.04050492914549253
3503.0,0.04083388696231071
3502.0,0.04122840206788172
3501.0,0.04159653971294072
3500.0,0.04188247999299785
3499.0,0.042063504828193994
3498.0,0.042184573867607635
3497.0,0.0423532491279549
3496.0,0.042639909927671235
3495.0,0.042999322353611674
3494.0,0.043325969805294066
3493.0,0.04356222804116253
3492.0,0.04371238376273247
3491.0,0.04379403800106163
3490.0,0.04383062444518015
3489.0,0.04387540029877971
3488.0,0.04399832717755
3487.0,0.04423199842265905
3486.0,0.04454165849486552
3485.0,0.04484889341153186
3484.0,0.04507558945608801
3483.0,0.04519133206331523
3482.0,0.04524542564563368
3481.0,0.04533827583686778
3480.0,0.04554115268859779
3479.0,0.04584197070322463
3478.0,0.04617093669944257
3477.0,0.046463417990265155
3476.0,0.04669579520492364
3475.0,0.04687170938498473
3474.0,0.04700069509562114
3473.0,0.047103250107084736
3472.0,0.04720998388252257
3471.0,0.047339145355430025
3470.0,0.04748914113347457
3469.0,0.04765368027228931
3468.0,0.04783031234723142
3467.0,0.04801802981388174
3466.0,0.048216648264802826
3465.0,0.04842488456915921
3464.0,0.04862891092284964
3463.0,0.04880745352612532
3462.0,0.04896171870000187
3461.0,0.04912742726470057
3460.0,0.04933973485986534
3459.0,0.04959490260575343
3458.0,0.049864210582864645
3457.0,0.05013439691138809
3456.0,0.0504065216270987
3455.0,0.05066737188453833
3454.0,0.05088661495736132
3453.0,0.051042540422897964
3452.0,0.05114286614246894
3451.0,0.051217739326230236
3450.0,0.051299964257457226
3449.0,0.05140416645849546
3448.0,0.051523766941886824
3447.0,0.05163495426063442
3446.0,0.05172491598209516
3445.0,0.05182689309148462
3444.0,0.051987299996494436
3443.0,0.05221484590989372
3442.0,0.05248275883916042
3441.0,0.052742609762716906
3440.0,0.052948575310482686
3439.0,0.05309479946849918
3438.0,0.053224301934194716
3437.0,0.053392106759033796
3436.0,0.05360291851025562
3435.0,0.05380369979929056
3434.0,0.053950348578582406
3433.0,0.054057419831298616
3432.0,0.05417593953604367
3431.0,0.05433738306594177
3430.0,0.054531741434929656
3429.0,0.05472810777306253
3428.0,0.05490760961259372
3427.0,0.05506680756681389
3426.0,0.05519791961293936
3425.0,0.055281107780107336
3424.0,0.055306304880554526
3423.0,0.05530388094850606
3422.0,0.05534146281807892
3421.0,0.05547330277149266
3420.0,0.05569117674206824
3419.0,0.05594192208912677
3418.0,0.0561806296485795
3417.0,0.056389653421019835
3416.0,0.05656813115255169
3415.0,0.05672342818071726
3414.0,0.05686876506382087
3413.0,0.05701750500350741
3412.0,0.05717668458282773
3411.0,0.05734558197349774
3410.0,0.057515462165225906
3409.0,0.0576688030366678
3408.0,0.05778755830536779
3407.0,0.057869727039764354
3406.0,0.057935525830238144
3405.0,0.058015143611530304
3404.0,0.058124908996655775
3403.0,0.05825145723779811
3402.0,0.0583611456865831
3401.0,0.058434186525528425
3400.0,0.05848861867558722
3399.0,0.05856088050202837
3398.0,0.058661568041860956
3397.0,0.05875604224523649
3396.0,0.058801393470912386
3395.0,0.058800994050459895
3394.0,0.0588104689092383
3393.0,0.058884177466074245
3392.0,0.059019145004857027
3391.0,0.05916216508933925
3390.0,0.05926806251614501
3389.0,0.059331314935148025
3388.0,0.05937101635586588
3387.0,0.05940857609883493
3386.0,0.059459041857577916
3385.0,0.059532082371715575
3384.0,0.05962953568515525
3383.0,0.05974412410303351
3382.0,0.05986379479474932
3381.0,0.05997151625813513
3380.0,0.060042907006467694
3379.0,0.060058799027404075
3378.0,0.0600337668953716
3377.0,0.06001747077769752
3376.0,0.060047105260320005
3375.0,0.06010253728414078
3374.0,0.06012981907621828
3373.0,0.060108083310930954
3372.0,0.06007218099599493
3371.0,0.06006432253354804
3370.0,0.06008284273887604
3369.0,0.06009072956773981
3368.0,0.06006265015540717
3367.0,0.06001059964315908
3366.0,0.05996674464061935
3365.0,0.05995291470958816
3364.0,0.0599685450046073
3363.0,0.06000070140878769
3362.0,0.060036283116459074
3361.0,0.06006169556415625
3360.0,0.06005986653841014
3359.0,0.06002489162158338
3358.0,0.0599833141220812
3357.0,0.059982177322420865
3356.0,0.06003726940388586
3355.0,0.060099103557419875
3354.0,0.06009402232730901
3353.0,0.06000156342647342
3352.0,0.05987352112323675
3351.0,0.05977354524711012
3350.0,0.05971410075924159
3349.0,0.05966325186896794
3348.0,0.05959644274840857
3347.0,0.05951909760856579
3346.0,0.05944138322728666
3345.0,0.05935789541711009
3344.0,0.059264448771676206
3343.0,0.05917872604826363
3342.0,0.05912545993021322
3341.0,0.059104214002820774
3340.0,0.059087404370283564
3339.0,0.05905086257884573
3338.0,0.05899327847274555
3337.0,0.058920674720111796
3336.0,0.05882971822633111
3335.0,0.058722171873588594
3334.0,0.05862112941963807
3333.0,0.058548017082977966
3332.0,0.05848699915619614
3331.0,0.058393404574180935
3330.0,0.05824229440150322
3329.0,0.05805729714649288
3328.0,0.0578881008843099
3327.0,0.05776928050233929
3326.0,0.057701401547382625
3325.0,0.05765898279909024
3324.0,0.05760745890839905
3323.0,0.057520386973534
3322.0,0.05739543145744857
3321.0,0.0572576438346841
3320.0,0.057141901173846064
3319.0,0.05706698083861737
3318.0,0.0570220868234354
3317.0,0.05697554565012189
3316.0,0.05690232491379859
3315.0,0.05680797275794145
3314.0,0.05671905715908837
3313.0,0.05664036969281467
3312.0,0.0565308754622341
3311.0,0.05634367858111203
3310.0,0.05609216694052605
3309.0,0.055855888221669155
3308.0,0.05570913052423768
3307.0,0.05565633522253269
3306.0,0.055646492219238605
3305.0,0.0556311581871653
3304.0,0.05559433289448497
3303.0,0.05554024046556599
3302.0,0.05546803433167485
3301.0,0.05536129572865057
3300.0,0.0552014598437797
3299.0,0.054995306712900614
3298.0,0.05478334736028922
3297.0,0.05460694872442133
3296.0,0.054470012286666446
3295.0,0.054347679772444805
3294.0,0.0542287186659504
3293.0,0.05412723491303551
3292.0,0.054051858839667295
3291.0,0.053990847120268685
3290.0,0.05393651112965405
3289.0,0.053892908608910405
3288.0,0.053846212226130945
3287.0,0.05376160506059761
3286.0,0.05363384027973494
3285.0,0.053514784211555096
3284.0,0.05345850942921636
3283.0,0.05345021255765044
3282.0,0.05342264055903937
3281.0,0.053336715368109563
3280.0,0.05320898493646244
3279.0,0.05306310016582477
3278.0,0.05289600120493973
3277.0,0.052705775639443335
3276.0,0.05252252950897302
3275.0,0.052386780394132734
3274.0,0.05230655333758508
3273.0,0.05225366799445484
3272.0,0.05219905146859656
3271.0,0.05213950456612019
3270.0,0.052089389991758404
3269.0,0.05205198601415871
3268.0,0.05200402987271561
3267.0,0.05191352897965249
3266.0,0.05177445475612424
3265.0,0.051617342180422396
3264.0,0.05148181220757845
3263.0,0.05138331840262241
3262.0,0.05131187297362128
3261.0,0.051249228457662305
3260.0,0.05117136364735299
3259.0,0.05105061402196069
3258.0,0.05088291095695378
3257.0,0.0507082127894528
3256.0,0.05057754594238906
3255.0,0.05049840910668937
3254.0,0.050429662901760236
3253.0,0.05033343361082173
3252.0,0.05021249661977311
3251.0,0.05009085505900523
3250.0,0.049978990941396934
3249.0,0.04986741221598833
3248.0,0.049741968483052776
3247.0,0.04959909278799431
3246.0,0.049453175873166694
3245.0,0.049326763841104425
3244.0,0.049223669344638545
3243.0,0.049118242530259225
3242.0,0.04898594919991481
3241.0,0.04883873244561554
3240.0,0.048713900027243025
3239.0,0.04862810682154469
3238.0,0.04855859872508171
3237.0,0.04847083857980071
3236.0,0.04834693078729923
3235.0,0.04818770011191353
3234.0,0.04800487167110778
3233.0,0.04781717399491005
3232.0,0.04764098837550018
3231.0,0.04748057569919027
3230.0,0.04733861687276748
3229.0,0.04723005763735942
3228.0,0.047163136846300094
3227.0,0.0471083079066255
3226.0,0.04701309573527546
3225.0,0.04685618748257763
3224.0,0.046667980057304825
3223.0,0.04649027602672099
3222.0,0.04633546036792388
3221.0,0.04619307059685771
3220.0,0.046053829944954695
3219.0,0.045911260854461636
3218.0,0.04575907637015093
3217.0,0.045602875984775505
3216.0,0.045458643284586896
3215.0,0.045327714703573205
3214.0,0.045186160309415274
3213.0,0.04501567069198747
3212.0,0.04483438091803726
3211.0,0.04467609579514585
3210.0,0.044544910718469055
3209.0,0.04440822785508868
3208.0,0.04423564795334248
3207.0,0.044031108474924294
3206.0,0.043823633219640674
3205.0,0.043640804341671134
3204.0,0.043496062250969546
3203.0,0.04338605853469736
3202.0,0.04328860894655785
3201.0,0.04316830247288701
3200.0,0.04299704858002144
3199.0,0.04277726116752539
3198.0,0.04254295970546324
3197.0,0.04233216814864652
3196.0,0.042156604324796586
3195.0,0.042000385260853555
3194.0,0.04184081549781998
3193.0,0.041663935704880264
3192.0,0.0414657842516491
3191.0,0.041250548281650715
3190.0,0.04103108098104598
3189.0,0.040823126524918596
3188.0,0.04063384343989017
3187.0,0.04045845554592223
3186.0,0.04029197930186334
3185.0,0.0401374109978348
3184.0,0.03999581297519513
3183.0,0.03985567677696523
3182.0,0.03969946610003546
3181.0,0.03951735140498693
3180.0,0.039312398524206385
3179.0,0.03909823052383551
3178.0,0.03889111579034071
3177.0,0.03869831953980386
3176.0,0.03851476868289431
3175.0,0.03833617903684128
3174.0,0.03817068025840095
3173.0,0.0380272798413234
3172.0,0.037894187561734675
3171.0,0.0377443926274044
3170.0,0.03756847634871909
3169.0,0.037385426500416916
3168.0,0.037210883622815556
3167.0,0.037030425622020136
3166.0,0.036821452134657866
3165.0,0.03658902452745801
3164.0,0.03636214483765981
3163.0,0.03616269313533945
3162.0,0.03599203352450223
3161.0,0.035839922912960426
3160.0,0.03568974690772274
3159.0,0.035520268521630725
3158.0,0.035321190626284776
3157.0,0.03511084853948844
3156.0,0.03492421134107689
3155.0,0.03477494135065498
3154.0,0.034637412468674515
3153.0,0.034474475481964556
3152.0,0.03427969413593383
3151.0,0.034085443831307564
3150.0,0.03392840461595993
3149.0,0.033811453223577724
3148.0,0.03370156705714068
3147.0,0.033560713580815686
3146.0,0.033374756044091375
3145.0,0.03315805695144231
3144.0,0.0329408649428401
3143.0,0.0327518347281338
3142.0,0.03259850753064661
3141.0,0.03246025987589515
3140.0,0.03231132220374472
3139.0,0.032155985354323305
3138.0,0.03202776021256825
3137.0,0.03194132131077804
3136.0,0.031858649664303476
3135.0,0.031724910809900336
3134.0,0.03153397268401659
3133.0,0.03133496876780856
3132.0,0.031170233658121396
3131.0,0.03103297054324463
3130.0,0.030895444635791004
3129.0,0.03075069033290198
3128.0,0.030609351391621624
3127.0,0.03047205079201009
3126.0,0.03032493417999462
3125.0,0.030157848175482255
3124.0,0.029978202501507338
3123.0,0.029810747395810973
3122.0,0.029679738098385568
3121.0,0.029582524168041774
3120.0,0.029484415383564812
3119.0,0.029350168498255384
3118.0,0.029180551544612368
3117.0,0.029006241767327738
3116.0,0.028846865919721937
3115.0,0.028694494999596976
3114.0,0.028539440960398343
3113.0,0.02838919128886689
3112.0,0.02825101095792719
3111.0,0.0281171855461632
3110.0,0.027980339919088437
3109.0,0.027847980148674747
3108.0,0.027731644863028634
3107.0,0.027632028205380577
3106.0,0.027542316039021346
3105.0,0.02745426360279989
3104.0,0.027358055642772924
3103.0,0.02724684611014436
3102.0,0.02712319620287677
3101.0,0.026995444503851197
3100.0,0.02687042739469051
3099.0,0.02675569744401727
3098.0,0.026661514757496927
3097.0,0.0265889832275575
3096.0,0.026520412727849694
3095.0,0.026434719436947494
3094.0,0.026331287189722524
3093.0,0.02622552317327497
3092.0,0.026122935520153698
3091.0,0.02601642172346425
3090.0,0.0259060458850008
3089.0,0.02579926116587338
3088.0,0.025690444742085164
3087.0,0.025559803296632093
3086.0,0.025401312725549807
3085.0,0.02523580007988436
3084.0,0.025088880295972546
3083.0,0.02496902706548533
3082.0,0.024869481227393166
3081.0,0.024779468731085528
3080.0,0.02469056753899821
3079.0,0.024606342562621022
3078.0,0.02454767812150951
3077.0,0.024529960195454982
3076.0,0.024530626514956088
3075.0,0.024499194397462107
3074.0,0.024411425984912173
3073.0,0.024296225013133364
3072.0,0.02419626366775531
3071.0,0.02411662867710775
3070.0,0.0240247605305938
3069.0,0.02389351963346665
3068.0,0.023729683824408078
3067.0,0.02356116295955397
3066.0,0.02340912669055121
3065.0,0.023276713028712266
3064.0,0.02316048846083301
3063.0,0.023064874242023744
3062.0,0.022997781255863117
3061.0,0.02295338050525453
3060.0,0.02290811146304628
3059.0,0.022838746988002846
3058.0,0.022741664993336616
3057.0,0.02263031545668029
3056.0,0.02251729262224291
3055.0,0.022404894437952266
3054.0,0.022288055679230742
3053.0,0.022159423462370167
3052.0,0.022020209918553763
3051.0,0.02189307266885926
3050.0,0.021810396552209288
3049.0,0.021775760832738272
3048.0,0.021747653630073627
3047.0,0.02168307316403706
3046.0,0.021586188356306116
3045.0,0.0214933678791498
3044.0,0.021421281374186956
3043.0,0.021351703620136955
3042.0,0.021267154684430366
3041.0,0.021173669497600793
3040.0,0.021083901218126762
3039.0,0.021001804922792053
3038.0,0.0209306895879439
3037.0,0.020874261759451684
3036.0,0.02082168335535617
3035.0,0.020752444428590745
3034.0,0.020669507188365015
3033.0,0.020610754413583225
3032.0,0.020608839004722438
3031.0,0.020651733469973142
3030.0,0.020695673761854813
3029.0,0.02070809956136921
3028.0,0.020685056478816268
3027.0,0.02064308814330119
3026.0,0.020611212320411743
3025.0,0.020613896774122162
3024.0,0.020651227933049385
3023.0,0.020704130376416958
3022.0,0.02076005364566995
3021.0,0.020821366493866945
3020.0,0.020890358277853106
3019.0,0.02096749782296496
3018.0,0.021068052356881927
3017.0,0.021218861232987694
3016.0,0.02142722202598277
3015.0,0.021668570420156
3014.0,0.02191271763668788
3013.0,0.022148088430159574
3012.0,0.022377316444699678
3011.0,0.022610924040920785
3010.0,0.02287405587337287
3009.0,0.02319621782217275
3008.0,0.023578618450986178
3007.0,0.023987891031165765
3006.0,0.024393691314996323
3005.0,0.024796473535364294
3004.0,0.025206737058973614
3003.0,0.025613359816664995
3002.0,0.025991551426000892
3001.0,0.0263297757983479
3000.0,0.026631625520071756
2999.0,0.02689724289093219
2998.0,0.027116380313261197
2997.0,0.027273248294734164
2996.0,0.027347471309887024
2995.0,0.027318057586237503
2994.0,0.027176434316099004
2993.0,0.026927949606846358
2992.0,0.02657572896567207
2991.0,0.02611826930435784
2990.0,0.025573347630864576
2989.0,0.024989064813667094
2988.0,0.024415116847411263
2987.0,0.023873988758313477
2986.0,0.02337062908869905
2985.0,0.022912487308261512
2984.0,0.02250093872899462
2983.0,0.022120529410861022
2982.0,0.021763747669419093
2981.0,0.02145524794245219
2980.0,0.021224713944361557
2979.0,0.02106181968915063
2978.0,0.020922056242012564
2977.0,0.02077848122530269
2976.0,0.02064513647175553
2975.0,0.020549760090596343
2974.0,0.020501377481453704
2973.0,0.02048883162026332
2972.0,0.020494926476034816
2971.0,0.020504575497893366
2970.0,0.020509658678288783
2969.0,0.020511804204266442
2968.0,0.020518823544265628
2967.0,0.02053788718098439
2966.0,0.020575765413187744
2965.0,0.0206373530399479
2964.0,0.020715555074985407
2963.0,0.020791107004354253
2962.0,0.02085557879237823
2961.0,0.02092851839966415
2960.0,0.021036540457407073
2959.0,0.021179760582745597
2958.0,0.021332424402801
2957.0,0.021475641057835407
2956.0,0.021616228233715153
2955.0,0.02177668492292469
2954.0,0.021979315758800345
2953.0,0.022237523735964763
2952.0,0.022545921540186784
2951.0,0.022874905367166198
2950.0,0.023187168124320142
2949.0,0.023461275157683543
2948.0,0.023691234029888895
2947.0,0.02386431091687044
2946.0,0.02395452276788827
2945.0,0.023940878220324795
2944.0,0.023819816444904444
2943.0,0.02359376889203767
2942.0,0.023261293400298505
2941.0,0.022830146539912128
2940.0,0.02233392679652359
2939.0,0.021825527130660334
2938.0,0.021350659353038915
2937.0,0.02093051458183392
2936.0,0.020564835945410184
2935.0,0.020245433047957975
2934.0,0.01996494628230357
2933.0,0.019716682792451066
2932.0,0.01949520759512707
2931.0,0.01930280242081261
2930.0,0.019150058798793498
2929.0,0.01903989537754398
2928.0,0.018949078777435575
2927.0,0.01883749689591894
2926.0,0.018684540661859844
2925.0,0.018510291403257266
2924.0,0.01835232241444654
2923.0,0.018222587044934374
2922.0,0.018095963696959042
2921.0,0.01794014656583149
2920.0,0.0177517072472813
2919.0,0.017559113825687846
2918.0,0.017392192930924727
2917.0,0.017251783254918142
2916.0,0.017113847715033482
2915.0,0.016962140235281697
2914.0,0.016808878581405475
2913.0,0.01667833969564821
2912.0,0.01657954270285754
2911.0,0.016505812644498925
2910.0,0.016451242033661908
2909.0,0.016413393105103376
2908.0,0.016380376931835375
2907.0,0.01633269608777849
2906.0,0.016264160715957682
2905.0,0.016188046094343607
2904.0,0.016116509687462827
2903.0,0.016043915197263902
2902.0,0.015957798854054506
2901.0,0.015860038940843993
2900.0,0.015761901663864254
2899.0,0.015673530538629063
2898.0,0.015599112757317516
2897.0,0.01554082071844088
2896.0,0.015503419700601328
2895.0,0.01548893790771742
2894.0,0.01549261228510302
2893.0,0.015503417595549213
2892.0,0.015510449172854612
2891.0,0.015508668879402391
2890.0,0.015498186506582887
2889.0,0.01548079761598797
2888.0,0.015462811758713009
2887.0,0.015460332043079738
2886.0,0.015489076502057185
2885.0,0.015542273555046976
2884.0,0.01558957003598966
2883.0,0.015605784938594922
2882.0,0.015593094733127262
2881.0,0.015562449808874147
2880.0,0.015505591878745853
2879.0,0.015404951182363628
2878.0,0.015263469934135576
2877.0,0.015105965392607525
2876.0,0.014951153848489527
2875.0,0.01480083563816726
2874.0,0.014658397048794836
2873.0,0.01453659401370773
2872.0,0.014440713694398779
2871.0,0.014357947085971663
2870.0,0.014269094498676135
2869.0,0.014162830203725236
2868.0,0.014037052821252564
2867.0,0.013899981281872621
2866.0,0.013771705595551686
2865.0,0.0136704771029257
2864.0,0.013597020780756787
2863.0,0.013544353594102776
2862.0,0.013519525281742068
2861.0,0.013533358640750903
2860.0,0.013570535902388114
2859.0,0.013599122295914427
2858.0,0.013613953525388175
2857.0,0.013640797012848524
2856.0,0.013686063264224467
2855.0,0.01370960885854465
2854.0,0.013670094030690319
2853.0,0.013578483538920848
2852.0,0.013479515619070903
2851.0,0.013395670572492208
2850.0,0.013314400612565159
2849.0,0.013224248245502689
2848.0,0.013138419540187449
2847.0,0.01307226369973774
2846.0,0.013015553187201802
2845.0,0.01294017882608467
2844.0,0.012828196502772504
2843.0,0.012687865771962514
2842.0,0.01254644086765164
2841.0,0.012430992932224407
2840.0,0.012355800568005077
2839.0,0.012318201332741084
2838.0,0.012300528471824848
2837.0,0.012279931920291892
2836.0,0.012244443497989387
2835.0,0.012204535937903735
2834.0,0.012180754324727067
2833.0,0.012176249824229168
2832.0,0.012168274074758725
2831.0,0.012133191012933727
2830.0,0.012075217097680788
2829.0,0.012019391884874081
2828.0,0.01198152086220121
2827.0,0.011957240649960626
2826.0,0.011935728679019177
2825.0,0.011912659918902259
2824.0,0.011888983950513089
2823.0,0.011864124284979611
2822.0,0.011832455165638921
2821.0,0.011784296355188706
2820.0,0.011715276913246107
2819.0,0.011639035088860971
2818.0,0.011580937912067631
2817.0,0.011548853226583616
2816.0,0.011521725261514222
2815.0,0.011478275385450354
2814.0,0.011423834138007415
2813.0,0.01137490700010528
2812.0,0.011328908885966226
2811.0,0.01127094909249597
2810.0,0.011205091850923181
2809.0,0.011154175877720976
2808.0,0.011128539097665393
2807.0,0.01111655698675612
2806.0,0.011107577494478483
2805.0,0.01110291996538084
2804.0,0.011101162145385753
2803.0,0.011092571977299978
2802.0,0.011072796876002338
2801.0,0.011045337138305106
2800.0,0.011007707604736017
2799.0,0.010954596459002765
2798.0,0.010898855120082679
2797.0,0.010868487243356966
2796.0,0.0108729198966813
2795.0,0.010888284372546483
2794.0,0.010886382343125047
2793.0,0.010863177433292435
2792.0,0.0108313917190541
2791.0,0.010800928127033234
2790.0,0.010775869524180255
2789.0,0.010757745540476813
2788.0,0.010740783471681463
2787.0,0.010714201900594475
2786.0,0.010678662733194415
2785.0,0.01065078305069546
2784.0,0.01064196719262656
2783.0,0.010641909162293494
2782.0,0.010633361060740113
2781.0,0.010614645456617494
2780.0,0.01059544956663218
2779.0,0.010575048275425904
2778.0,0.010537250081673515
2777.0,0.01047146273438405
2776.0,0.010393960743194302
2775.0,0.010342851653396235
2774.0,0.010347366706988432
2773.0,0.010397608633901259
2772.0,0.0104490896387874
2771.0,0.010463144019159501
2770.0,0.010438256336485034
2769.0,0.01039992813513655
2768.0,0.010371423813397453
2767.0,0.010360817077505876
2766.0,0.010365949160580687
2765.0,0.0103770655939486
2764.0,0.010380512920109544
2763.0,0.01037441679157623
2762.0,0.010374985918936798
2761.0,0.010392469871745429
2760.0,0.010407436919556532
2759.0,0.010391247449369753
2758.0,0.010346055249812774
2757.0,0.010302796246454948
2756.0,0.010279861916739552
2755.0,0.010265021049294375
2754.0,0.010240378150053315
2753.0,0.010204748292531075
2752.0,0.01016590580317375
2751.0,0.010128349135492204
2750.0,0.010096129076565902
2749.0,0.010073592483025817
2748.0,0.010058873018152507
2747.0,0.010048536419469196
2746.0,0.010049095746643292
2745.0,0.010069098464064046
2744.0,0.010098758860775959
2743.0,0.010114432186632492
2742.0,0.010107240307844002
2741.0,0.010091991832542564
2740.0,0.010084664046758918
2739.0,0.010086588170431362
2738.0,0.01009241763512828
2737.0,0.010096363601968575
2736.0,0.010086770814135747
2735.0,0.010053103973788637
2734.0,0.010004686416524381
2733.0,0.009966385099454042
2732.0,0.009948357897586533
2731.0,0.009934620006262005
2730.0,0.009908049081680683
2729.0,0.009872412424207049
2728.0,0.0098432327342526
2727.0,0.009829639073671957
2726.0,0.00983171213832525
2725.0,0.009843967732403626
2724.0,0.009854733598791032
2723.0,0.009852673913269284
2722.0,0.009838280030020536
2721.0,0.009820337357174304
2720.0,0.009801623036797212
2719.0,0.009781121452618344
2718.0,0.009768350453611617
2717.0,0.009776276399963712
2716.0,0.009797074099342882
2715.0,0.009803119473864943
2714.0,0.009778566448740226
2713.0,0.009735321513404425
2712.0,0.009693387069430005
2711.0,0.009661853408114578
2710.0,0.009644642233296315
2709.0,0.00964649244218886
2708.0,0.00966325909922391
2707.0,0.00968000321859058
2706.0,0.009687354721477219
2705.0,0.009688867519855288
2704.0,0.009686725576312928
2703.0,0.009673788126931086
2702.0,0.009646885805753952
2701.0,0.009614935666046133
2700.0,0.009587307131324219
2699.0,0.009566112445888212
2698.0,0.009554443207884214
2697.0,0.009558252352695721
2696.0,0.009573999272547687
2695.0,0.00958720216920475
2694.0,0.009588768341265907
2693.0,0.009579763890834748
2692.0,0.00955837891652605
2691.0,0.009520348637522134
2690.0,0.009478752200102723
2689.0,0.009465143951631505
2688.0,0.009497470638548278
2687.0,0.009556925981101338
2686.0,0.009605017391746002
2685.0,0.009614465819641042
2684.0,0.009580367505312099
2683.0,0.009516326519070313
2682.0,0.00944769074217613
2681.0,0.009397366624989132
2680.0,0.009369426801355382
2679.0,0.009354827374633884
2678.0,0.009353090802775911
2677.0,0.009372482948680682
2676.0,0.009407248693091657
2675.0,0.009434448708180176
2674.0,0.00944223992396542
2673.0,0.009443477005783144
2672.0,0.00945142611718443
2671.0,0.009459993005116414
2670.0,0.009461290562571742
2669.0,0.009467613504642293
2668.0,0.009497808293674671
2667.0,0.009551305563920004
2666.0,0.009609987851752324
2665.0,0.009660921233812634
2664.0,0.00970548943921138
2663.0,0.009750560822068663
2662.0,0.009800583366423848
2661.0,0.009855104566956046
2660.0,0.009907824448127088
2659.0,0.009950325876173297
2658.0,0.009979608820317658
2657.0,0.009997426158004476
2656.0,0.010003220127529138
2655.0,0.009997083485989317
2654.0,0.00998850806485837
2653.0,0.009987688321741454
2652.0,0.009985896908056733
2651.0,0.009962023280458624
2650.0,0.009915227724329862
2649.0,0.009873663419361427
2648.0,0.009859685439483932
2647.0,0.009861790849370333
2646.0,0.009854583859076189
2645.0,0.00983364373505298
2644.0,0.009814619736242501
2643.0,0.009805811769146982
2642.0,0.00979830605033779
2641.0,0.009781033565375123
2640.0,0.009754703535393936
2639.0,0.009730704942797297
2638.0,0.009721020859877439
2637.0,0.009726422643450796
2636.0,0.009732057360726402
2635.0,0.009720305341026194
2634.0,0.009689805550615627
2633.0,0.009654739609634816
2632.0,0.009625581300568443
2631.0,0.009599866732091771
2630.0,0.009572043801157951
2629.0,0.009540134701473474
2628.0,0.009501816755786829
2627.0,0.00945794271084672
2626.0,0.009422501589758697
2625.0,0.009414036745076182
2624.0,0.009431355584938898
2623.0,0.009450071520132882
2622.0,0.00944700695886904
2621.0,0.009417595317762532
2620.0,0.009369421964508995
2619.0,0.009313267763221554
2618.0,0.00926390191047381
2617.0,0.009233928289354707
2616.0,0.009221734437996194
2615.0,0.009215797913248943
2614.0,0.009210500668715448
2613.0,0.009205421205848621
2612.0,0.00919354238723601
2611.0,0.009167778917809243
2610.0,0.009136589943584801
2609.0,0.009114046240448804
2608.0,0.009098205852528069
2607.0,0.009080737369918518
2606.0,0.009070996711151946
2605.0,0.009080047554538435
2604.0,0.009083781787377454
2603.0,0.009040016221197385
2602.0,0.00895232673181679
2601.0,0.008882353360596937
2600.0,0.008878618582126041
2599.0,0.008919218207205901
2598.0,0.008942720512478375
2597.0,0.008915923445364037
2596.0,0.008856829294901112
2595.0,0.008808074736307429
2594.0,0.00880225731402485
2593.0,0.008836615212964567
2592.0,0.008867507707415219
2591.0,0.008846505443244808
2590.0,0.008773843929493956
2589.0,0.00870409477326799
2588.0,0.008688959139923355
2587.0,0.008724074802748845
2586.0,0.008757722331963907
2585.0,0.008738892566976573
2584.0,0.008655476052825272
2583.0,0.008543430006490852
2582.0,0.008462423354905794
2581.0,0.008446747398445144
2580.0,0.008476611602397623
2579.0,0.008507133191536948
2578.0,0.008518070891400702
2577.0,0.008517369165912607
2576.0,0.008506728315110594
2575.0,0.00847540092976427
2574.0,0.008427543848973899
2573.0,0.00838491000686046
2572.0,0.00835587487108271
2571.0,0.008326779553783479
2570.0,0.008289349127605516
2569.0,0.00825528501676471
2568.0,0.00824152959805544
2567.0,0.008259647232851962
2566.0,0.008314174629592838
2565.0,0.008387290391920866
2564.0,0.008433156582771582
2563.0,0.008419128789889863
2562.0,0.00836860879122498
2561.0,0.008330454164495911
2560.0,0.008312169314662792
2559.0,0.008282003720329584
2558.0,0.008232637788563046
2557.0,0.008195675329629816
2556.0,0.00818604432959101
2555.0,0.008178429948047733
2554.0,0.008155787907004981
2553.0,0.008139991645203282
2552.0,0.008152183443007529
2551.0,0.008176866911584549
2550.0,0.008189668478324887
2549.0,0.008197029532161944
2548.0,0.008224303787354632
2547.0,0.00827679274133313
2546.0,0.008327350314105133
2545.0,0.008336993577921894
2544.0,0.008289906871193626
2543.0,0.00821982182386511
2542.0,0.008189983006795964
2541.0,0.00822452607125369
2540.0,0.008273159830869407
2539.0,0.008273849259613934
2538.0,0.008235273657407515
2537.0,0.00821839566084185
2536.0,0.00824773853815615
2535.0,0.00828915845818029
2534.0,0.008313347272363426
2533.0,0.008327842284348122
2532.0,0.008336900867971921
2531.0,0.008320246410224419
2530.0,0.008271871299089689
2529.0,0.00822202129559207
2528.0,0.008200793601700373
2527.0,0.008207801346935918
2526.0,0.008229273224895832
2525.0,0.008255634242168583
2524.0,0.008273849595864862
2523.0,0.008271922021564427
2522.0,0.008256489295198207
2521.0,0.008238228387102888
2520.0,0.008202654142522667
2519.0,0.008133069553193994
2518.0,0.008060864869228013
2517.0,0.00804701468208897
2516.0,0.008106177914309263
2515.0,0.008191228974005293
2514.0,0.008257264521560661
2513.0,0.008295347125287164
2512.0,0.008298632450899627
2511.0,0.008250388677449956
2510.0,0.00816649856423399
2509.0,0.008102725330500497
2508.0,0.008091248067417968
2507.0,0.008104038836692817
2506.0,0.008099154537336534
2505.0,0.008068479450311338
2504.0,0.008022845952634871
2503.0,0.007969159372524997
2502.0,0.007924645260146296
2501.0,0.007918006830298563
2500.0,0.007950890604785071
2499.0,0.007986350930083085
2498.0,0.007995811281180008
2497.0,0.007989768375412903
2496.0,0.007985243152889065
2495.0,0.007973401955470612
2494.0,0.00794166958787768
2493.0,0.007903002343325234
2492.0,0.00788200613132349
2491.0,0.007889430262958543
2490.0,0.007921092832114656
2489.0,0.007960791109791298
2488.0,0.00797927305571676
2487.0,0.007959044890594477
2486.0,0.007927356948908225
2485.0,0.00793326390658976
2484.0,0.0079814146868249
2483.0,0.008019222292653162
2482.0,0.008001024354531963
2481.0,0.007935451054225546
2480.0,0.007859382289863928
2479.0,0.007797758053197181
2478.0,0.007763197413537825
2477.0,0.0077625575246145165
2476.0,0.007783090514847697
2475.0,0.00779605118679982
2474.0,0.00779068240665038
2473.0,0.007785374757996497
2472.0,0.007795652435486437
2471.0,0.007812986574790891
2470.0,0.007824204740012539
2469.0,0.007830278370211356
2468.0,0.007837825454785627
2467.0,0.00785109367764278
2466.0,0.007876060081853301
2465.0,0.00791264578984877
2464.0,0.007943058795254221
2463.0,0.007949907936606016
2462.0,0.007943097494940595
2461.0,0.007944978416282588
2460.0,0.007954894787742521
2459.0,0.007956346641920771
2458.0,0.007951612974745238
2457.0,0.00795592444607806
2456.0,0.007962465230332984
2455.0,0.007948716195020019
2454.0,0.007914986890033726
2453.0,0.0078818330885729
2452.0,0.007853403427996066
2451.0,0.007820827051286885
2450.0,0.007797302893890617
2449.0,0.007808043081271037
2448.0,0.007846308118199518
2447.0,0.00787934336115773
2446.0,0.007894394286270699
2445.0,0.007897744061437997
2444.0,0.007876303218550651
2443.0,0.007810527900114652
2442.0,0.007724295993995848
2441.0,0.007670722188556359
2440.0,0.007664700092524708
2439.0,0.007677255452494114
2438.0,0.007695453731021408
2437.0,0.007731799737086688
2436.0,0.007771792866730076
2435.0,0.0077753607159596755
2434.0,0.007745156192882173
2433.0,0.007735877001391412
2432.0,0.007775637976538989
2431.0,0.007829302835674424
2430.0,0.00785917256019752
2429.0,0.007871397144985262
2428.0,0.007880696520883409
2427.0,0.007877470966940903
2426.0,0.00785565186228868
2425.0,0.007832499621906807
2424.0,0.0078181330946752
2423.0,0.007801777187187362
2422.0,0.007784542211307359
2421.0,0.007786221798604524
2420.0,0.0078036495518670895
2419.0,0.007803178254690601
2418.0,0.007771778628767783
2417.0,0.007737503954715867
2416.0,0.007724153249117353
2415.0,0.007724504441898905
2414.0,0.007734938330418904
2413.0,0.007774215770891834
2412.0,0.007842205721064793
2411.0,0.007893101432917438
2410.0,0.007876198570685042
2409.0,0.00778523429448222
2408.0,0.007658556158631211
2407.0,0.0075534726291365
2406.0,0.007520290630370947
2405.0,0.0075661077457752565
2404.0,0.007638097767416608
2403.0,0.007674004451843092
2402.0,0.007670500858887834
2401.0,0.00766947966643447
2400.0,0.007683325423622749
2399.0,0.007681244604756112
2398.0,0.007651633747215355
2397.0,0.007625419785789501
2396.0,0.007624880150535604
2395.0,0.007635200424800747
2394.0,0.00763940015048045
2393.0,0.007639412168972258
2392.0,0.00763346628060663
2391.0,0.007614381095168515
2390.0,0.007597322651457249
2389.0,0.0076033118869494164
2388.0,0.007605838484265463
2387.0,0.007545814189810115
2386.0,0.0074178150116440186
2385.0,0.007295484077494356
2384.0,0.007248871582583591
2383.0,0.0072737362616530354
2382.0,0.007324236415056019
2381.0,0.007375191616162876
2380.0,0.007419978950416023
2379.0,0.00744633291482664
2378.0,0.0074585643167760195
2377.0,0.007485388410831177
2376.0,0.007518581662615282
2375.0,0.007489732782121443
2374.0,0.0073770421896612245
2373.0,0.007282792784733044
2372.0,0.007311211039614737
2371.0,0.007419735894345129
2370.0,0.007499838402270472
2369.0,0.007529908244702748
2368.0,0.0075205242401444
2367.0,0.007416682722607532
2366.0,0.007238222938752193
2365.0,0.00719666145768064
2364.0,0.007450763587949867
2363.0,0.007865357922614639
2362.0,0.0082094857496549
2361.0,0.008424021434722408
2360.0,0.00849428694225369
2359.0,0.008333032876540754
2358.0,0.008008999154289414
2357.0,0.007776967806569219
2356.0,0.007738191885317391
2355.0,0.007749995322930747
2354.0,0.007736093586883916
2353.0,0.007773845476293451
2352.0,0.007852694508376931
2351.0,0.0078644630234196
2350.0,0.007810185826795208
2349.0,0.007815986659125085
2348.0,0.007959331946245913
2347.0,0.0081414266425997
2346.0,0.008202808996294258
2345.0,0.00813446779398068
2344.0,0.008059024748566157
2343.0,0.00801263203443996
2342.0,0.008006166610860031
2341.0,0.00811270524415725
2340.0,0.008298393476824152
2339.0,0.00841319761340905
2338.0,0.008397303056569758
2337.0,0.00836041395964729
2336.0,0.008375139878831045
2335.0,0.008381455537875624
2334.0,0.008321619924684923
2333.0,0.008256619257686185
2332.0,0.0082434148082826
2331.0,0.008260605787526703
2330.0,0.008281279579345926
2329.0,0.008379993950459004
2328.0,0.008649252319295721
2327.0,0.009074523982612688
2326.0,0.009549692968692475
2325.0,0.009919533355683052
2324.0,0.010047881851410418
2323.0,0.009902880107978698
2322.0,0.009610038649071765
2321.0,0.009346639556584135
2320.0,0.009165376103659147
2319.0,0.009015657969348254
2318.0,0.00887447531299926
2317.0,0.00878823093891171
2316.0,0.00875714057623235
2315.0,0.008720324004791193
2314.0,0.008636605506009462
2313.0,0.008546118491730568
2312.0,0.008495164467318147
2311.0,0.008488513893300579
2310.0,0.00851303067435307
2309.0,0.008564992586535824
2308.0,0.008615504470485426
2307.0,0.008626197569487558
2306.0,0.008606984216222946
2305.0,0.008609397352343043
2304.0,0.008639432899815681
2303.0,0.008644973651223875
2302.0,0.008599136131794338
2301.0,0.008551456299167384
2300.0,0.00855442661965678
2299.0,0.008594978683932768
2298.0,0.008626272511473803
2297.0,0.008634913207999726
2296.0,0.008644195194780978
2295.0,0.008685975475660293
2294.0,0.008785632041404721
2293.0,0.008939104568848461
2292.0,0.00909240717635331
2291.0,0.009183491116614845
2290.0,0.009214440605122448
2289.0,0.009238452235492424
2288.0,0.009272795720574833
2287.0,0.009279443039083183
2286.0,0.009243700587924735
2285.0,0.009201680461040505
2284.0,0.009166933955777511
2283.0,0.009099208377180267
2282.0,0.008980479099838332
2281.0,0.008859707522100597
2280.0,0.008778884019475078
2279.0,0.00871797544049332
2278.0,0.008657095320449169
2277.0,0.008629104372503965
2276.0,0.008652962032050165
2275.0,0.008676812203427347
2274.0,0.008645380918239309
2273.0,0.008565655786358761
2272.0,0.008460050016619883
2271.0,0.008318560560775672
2270.0,0.008156020846826997
2269.0,0.008048794957314255
2268.0,0.008043860111388348
2267.0,0.008087362494745292
2266.0,0.00810307540352507
2265.0,0.008093379052508853
2264.0,0.008099786579186292
2263.0,0.008117642111570976
2262.0,0.008119086845609694
2261.0,0.008117278142218975
2260.0,0.008143812090423898
2259.0,0.008186135821292063
2258.0,0.008197338575199768
2257.0,0.008147236405280981
2256.0,0.00803527509393683
2255.0,0.007882538248265564
2254.0,0.007733193140839003
2253.0,0.007629521912674218
2252.0,0.007567517288264842
2251.0,0.007513507989082751
2250.0,0.007465363494163227
2249.0,0.007445513556041485
2248.0,0.007440181466063699
2247.0,0.007416854759980624
2246.0,0.007400004906646449
2245.0,0.007448326153636243
2244.0,0.007551940147173763
2243.0,0.007636250266895227
2242.0,0.007676299139401094
2241.0,0.0077190018892670225
2240.0,0.007785240392087939
2239.0,0.007840543195500928
2238.0,0.007870971267741023
2237.0,0.007892288324411027
2236.0,0.007879824276046377
2235.0,0.007797050993759698
2234.0,0.0076981788730878555
2233.0,0.007684225565006714
2232.0,0.007738819173888368
2231.0,0.0077339605866454005
2230.0,0.007621512890395565
2229.0,0.007491475497923158
2228.0,0.0074191999869866595
2227.0,0.007382100727450529
2226.0,0.007356142663639976
2225.0,0.007356146969383808
2224.0,0.007348521002346634
2223.0,0.00726711175958592
2222.0,0.007150486943418695
2221.0,0.007125187909443015
2220.0,0.007211613887540737
2219.0,0.007292829407092543
2218.0,0.007309357777503897
2217.0,0.0073273570761899125
2216.0,0.007376400466156359
2215.0,0.007381023833260312
2214.0,0.007311978543089971
2213.0,0.0072523670178796535
2212.0,0.007257892392148193
2211.0,0.00729609338872936
2210.0,0.007362519836795099
2209.0,0.007490235574583188
2208.0,0.007606371644030102
2207.0,0.007562183543078947
2206.0,0.007359827176041586
2205.0,0.007178104814993494
2204.0,0.007115079549374858
2203.0,0.007092901532713519
2202.0,0.007066287803842196
2201.0,0.007111169049634378
2200.0,0.007230747951832756
2199.0,0.0072823327126830895
2198.0,0.007198143745363334
2197.0,0.007090513003684053
2196.0,0.007048486083925521
2195.0,0.0070212749745412655
2194.0,0.006990914263978847
2193.0,0.007053972989285418
2192.0,0.007226607528381576
2191.0,0.00737211813649223
2190.0,0.007427281493861751
2189.0,0.007498655727670807
2188.0,0.007625586653386852
2187.0,0.007654275443661685
2186.0,0.007477962198634604
2185.0,0.007199160088820649
2184.0,0.006931282843977463
2183.0,0.006651981584025518
2182.0,0.006386197572097997
2181.0,0.0062945103540726945
2180.0,0.006405913294654192
2179.0,0.006497099548889404
2178.0,0.006390825925959845
2177.0,0.006181445537259784
2176.0,0.006041819693631251
2175.0,0.006004706386649876
2174.0,0.006080893337483815
2173.0,0.006365704903271599
2172.0,0.006855268631660458
2171.0,0.0073537285138920985
2170.0,0.007698142738196482
2169.0,0.007910565258696647
2168.0,0.008031231992503707
2167.0,0.007993492939356302
2166.0,0.00780996038996201
2165.0,0.0076846000255352135
2164.0,0.0077469647634546
2163.0,0.00782151198700034
2162.0,0.007597871419172309
2161.0,0.00687984069974914
2160.0,0.00563294819477554
2159.0,0.004071918336019549
2158.0,0.002763290636923139
2157.0,0.00226550422113369
2156.0,0.0025549357108910226
2155.0,0.003121444104099772
2154.0,0.003585515739167453
2153.0,0.003935654394451508
2152.0,0.004246687226923918
2151.0,0.004468842082487046
2150.0,0.004577678996959936
2149.0,0.004644188185950345
2148.0,0.004668711975772645
2147.0,0.004579948146267056
2146.0,0.004467657272173509
2145.0,0.004552788262574608
2144.0,0.004843073813153004
2143.0,0.005073995656129176
2142.0,0.005091465819317715
2141.0,0.005043436930754179
2140.0,0.005095891871826179
2139.0,0.005171250386839746
2138.0,0.005099302098893734
2137.0,0.0048493291273322605
2136.0,0.004508425890757702
2135.0,0.004186087183082613
2134.0,0.004026974093383889
2133.0,0.004149475536442604
2132.0,0.0044884693532035325
2131.0,0.0048355763583682754
2130.0,0.005087043823105792
2129.0,0.005311353880691046
2128.0,0.005556964977204032
2127.0,0.005750375388380604
2126.0,0.00584504940170569
2125.0,0.005915676494681096
2124.0,0.006025746101934098
2123.0,0.006129528444562229
2122.0,0.00618333011238139
2121.0,0.006233559087614496
2120.0,0.006317390795800872
2119.0,0.006392500697206356
2118.0,0.006443428537261668
2117.0,0.006545681276260436
2116.0,0.0067368408652540715
2115.0,0.006922547205217134
2114.0,0.006993146177535977
2113.0,0.0069513593962302845
2112.0,0.006854546854242113
2111.0,0.006731037322353765
2110.0,0.006625111447141404
2109.0,0.006619977816187673
2108.0,0.006725111941429059
2107.0,0.006834806320239954
2106.0,0.00686575704512079
2105.0,0.0068489854288119765
2104.0,0.006824358399217607
2103.0,0.006761623209613866
2102.0,0.006657241394895105
2101.0,0.006590770907105596
2100.0,0.00659360238878573
2099.0,0.0065641006722329445
2098.0,0.006406124024317258
2097.0,0.006162461318229235
2096.0,0.0059387386334470065
2095.0,0.005790541718328099
2094.0,0.005754158688230756
2093.0,0.0058661408965243675
2092.0,0.006078769844297473
2091.0,0.006264138847298747
2090.0,0.006369919789153939
2089.0,0.006477548416450199
2088.0,0.006637629765058152
2087.0,0.006772398188855954
2086.0,0.0068149505318549596
2085.0,0.006827276524328227
2084.0,0.006885703437783084
2083.0,0.006949143349771971
2082.0,0.006935091009165008
2081.0,0.006847614987284839
2080.0,0.006744803509111079
2079.0,0.006657483297811711
2078.0,0.006609502265132965
2077.0,0.006631326858911147
2076.0,0.006677395367896972
2075.0,0.0066285753468451475
2074.0,0.006450896622338567
2073.0,0.006259258805582384
2072.0,0.00616443836016648
2071.0,0.006148328588025679
2070.0,0.0061531391967029675
2069.0,0.006172292510117103
2068.0,0.006190297759247533
2067.0,0.006152967677648588
2066.0,0.00606196138721592
2065.0,0.005997611758185014
2064.0,0.005991207944895196
2063.0,0.005993873669328631
2062.0,0.006004724735879206
2061.0,0.006072665794275095
2060.0,0.0061559117401868615
2059.0,0.00614646840121789
2058.0,0.006060511389919391
2057.0,0.006030276418746403
2056.0,0.006087641081355811
2055.0,0.0061573969336370035
2054.0,0.006278643970466852
2053.0,0.006578854366858039
2052.0,0.006959374361063326
2051.0,0.007071297411503619
2050.0,0.006734428594222494
2049.0,0.006191734936087621
2048.0,0.005758464766889161
2047.0,0.0054470946049819564
2046.0,0.005187810387139992
2045.0,0.00509092968677202
2044.0,0.005237364562815292
2043.0,0.00547424058851728
2042.0,0.005652809025933686
2041.0,0.005831285755245845
2040.0,0.0060348815128143385
2039.0,0.006070255397009422
2038.0,0.0057996269673142075
2037.0,0.005372559076989611
2036.0,0.004997871488950453
2035.0,0.004697545298923332
2034.0,0.004468023334001274
2033.0,0.004404432432798204
2032.0,0.0044571654611449485
2031.0,0.004374809213606325
2030.0,0.004089099678741636
2029.0,0.0038578231544312523
2028.0,0.00386298127886102
2027.0,0.003968895971766798
2026.0,0.004041228736711296
2025.0,0.004154513313599411
2024.0,0.004312427847153743
2023.0,0.004312968877077434
2022.0,0.00410251079657446
2021.0,0.003930575708970401
2020.0,0.003957902784863307
2019.0,0.004008969839366682
2018.0,0.0038895706008714214
2017.0,0.00367685770159983
2016.0,0.003515698521899195
2015.0,0.0034282189016635878
2014.0,0.0035000096747788223
2013.0,0.0038828770571328825
2012.0,0.004457629281777015
2011.0,0.004821027293889759
2010.0,0.004761902027506678
2009.0,0.004478161168914037
2008.0,0.0042151047123331654
2007.0,0.0039982693113059485
2006.0,0.0038573992484401236
2005.0,0.003911507270540995
2004.0,0.004093682508167896
2003.0,0.004163096990642237
2002.0,0.004099670963766989
2001.0,0.004156143459735309
2000.0,0.004418668260832481
1999.0,0.004654548060493598
1998.0,0.0047114781841942985
1997.0,0.0047390730155812315
1996.0,0.004852229184595988
1995.0,0.00491357044304496
1994.0,0.004836328616789953
1993.0,0.004823078366240546
1992.0,0.005057192256120976
1991.0,0.005370298265095112
1990.0,0.00554746962796582
1989.0,0.00563292640139526
1988.0,0.005705002925320701
1987.0,0.005686638163372602
1986.0,0.005550958313577166
1985.0,0.005460121605744555
1984.0,0.005537267320579748
1983.0,0.005721847710912034
1982.0,0.005945833053926239
1981.0,0.006176522827943447
1980.0,0.0061826749809573475
1979.0,0.005642213197329151
1978.0,0.004699035472992424
1977.0,0.004007866109946169
1976.0,0.0039018897786194523
1975.0,0.004016653524992575
1974.0,0.003964630766609933
1973.0,0.0038360282673095894
1972.0,0.003826068879398085
1971.0,0.003853073377199939
1970.0,0.003806587669456584
1969.0,0.003780806132966018
1968.0,0.0038173222367910075
1967.0,0.0037485508260475375
1966.0,0.00357572588761046
1965.0,0.0035880710062426973
1964.0,0.0038492641422761447
1963.0,0.0040333500458726
1962.0,0.0038929206401645544
1961.0,0.003577834245325713
1960.0,0.0033520309333983176
1959.0,0.003269902594678563
1958.0,0.0033212615495625602
1957.0,0.0035620092246252096
1956.0,0.003908997415081812
1955.0,0.004101521487065886
1954.0,0.0040435802206429195
1953.0,0.003929128125336211
1952.0,0.0038941361558362643
1951.0,0.0038340002443716936
1950.0,0.0036908758352037054
1949.0,0.003600367237650272
1948.0,0.003625490622647831
1947.0,0.003619850672927894
1946.0,0.0035022790594124806
1945.0,0.003422372928464365
1944.0,0.0034918124513543328
1943.0,0.0035791408237157837
1942.0,0.003561318186187463
1941.0,0.003553859312997504
1940.0,0.00364825025313682
1939.0,0.003738622378576575
1938.0,0.0037529335800989385
1937.0,0.0037772912143880562
1936.0,0.003858827103150584
1935.0,0.0038922708799259504
1934.0,0.00382171920425032
1933.0,0.003758421642505733
1932.0,0.003773778764546925
1931.0,0.00377946319085656
1930.0,0.0037418883169591678
1929.0,0.0037618141907598875
1928.0,0.0038529188415549814
1927.0,0.0038658132720963438
1926.0,0.0037380843315577526
1925.0,0.003634776475570425
1924.0,0.0036965253142962704
1923.0,0.0038301808771098256
1922.0,0.0038794944435517308
1921.0,0.0038907795309090984
1920.0,0.003953608001179617
1919.0,0.004019646474945234
1918.0,0.0040384652309477746
1917.0,0.004064038676487731
1916.0,0.004109559458468232
1915.0,0.004089244765508579
1914.0,0.003971943657188494
1913.0,0.003858247125946566
1912.0,0.0038241151826530727
1911.0,0.0038165836170915082
1910.0,0.0037966943220176536
1909.0,0.0038193508253038175
1908.0,0.003886097057781434
1907.0,0.0039037462726599663
1906.0,0.003864717210034458
1905.0,0.0038883167695856428
1904.0,0.003992825288499089
1903.0,0.004053068791408572
1902.0,0.0040206560306298225
1901.0,0.004000593829764703
1900.0,0.004040788906630177
1899.0,0.004036435949412252
1898.0,0.003930034574611949
1897.0,0.003838707377740597
1896.0,0.003858589939613942
1895.0,0.003910340115184483
1894.0,0.003910469066347971
1893.0,0.003924697025770771
1892.0,0.004003478341612251
1891.0,0.004064492602001254
1890.0,0.004040909463870202
1889.0,0.0040004562778634895
1888.0,0.0040009718215490665
1887.0,0.003995942149429438
1886.0,0.003976452759531466
1885.0,0.004027336190887412
1884.0,0.0041555968553309
1883.0,0.004225702656380861
1882.0,0.004166938395921909
1881.0,0.004072433452239234
1880.0,0.004030422601029967
1879.0,0.004005088387832954
1878.0,0.003959241369603077
1877.0,0.003955978831538667
1876.0,0.00401688367691426
1875.0,0.004041551814831991
1874.0,0.003982572341612697
1873.0,0.003935147311943531
1872.0,0.00396099507621659
1871.0,0.003982003192918252
1870.0,0.003952585118397126
1869.0,0.0040155714753953775
1868.0,0.004206691047347583
1867.0,0.004303765541215798
1866.0,0.004248123907033224
1865.0,0.004178940737554526
1864.0,0.004160785387782982
1863.0,0.004128720358007549
1862.0,0.0040508155258205565
1861.0,0.0040109054763736345
1860.0,0.0040570027184690105
1859.0,0.004108958866410792
1858.0,0.004114781832057405
1857.0,0.004135509287810101
1856.0,0.0041954625293718914
1855.0,0.004213428265796835
1854.0,0.00416379795172893
1853.0,0.004139151844221482
1852.0,0.0041830338920373225
1851.0,0.004218016172408678
1850.0,0.004179418466135923
1849.0,0.004146496106111729
1848.0,0.00419556231091226
1847.0,0.004267168990385752
1846.0,0.004304461685090272
1845.0,0.004413166336469312
1844.0,0.004635075056930466
1843.0,0.0047324233298921235
1842.0,0.004654825761347681
1841.0,0.004596889103679425
1840.0,0.004631305245898902
1839.0,0.0046767726861129824
1838.0,0.0046854406559052805
1837.0,0.004737098028552726
1836.0,0.004859042827521073
1835.0,0.004947459583031627
1834.0,0.0049580873314695245
1833.0,0.004986148828696059
1832.0,0.005096703491820395
1831.0,0.0052187490310165
1830.0,0.005276795805827463
1829.0,0.005336943521867023
1828.0,0.005449252710530516
1827.0,0.005530797667382839
1826.0,0.005546809046562149
1825.0,0.005636706281072592
1824.0,0.00583830317483314
1823.0,0.005970369268347575
1822.0,0.005965015188133544
1821.0,0.005943380557860152
1820.0,0.005982716830238162
1819.0,0.005998700718570574
1818.0,0.005950088076265483
1817.0,0.005970509451129384
1816.0,0.006117287195303354
1815.0,0.006254566640929429
1814.0,0.006294151535191288
1813.0,0.006335647518369982
1812.0,0.006487366976631569
1811.0,0.006658945878659037
1810.0,0.006766626835357099
1809.0,0.006914435757503881
1808.0,0.007141364773898956
1807.0,0.007312180707703744
1806.0,0.007365839366820105
1805.0,0.007422469049108487
1804.0,0.007569847120671885
1803.0,0.0077398975479644905
1802.0,0.007900071286497092
1801.0,0.008180086375936306
1800.0,0.008599825276821743
1799.0,0.008925445093835322
1798.0,0.009092961122908163
1797.0,0.009304310399320533
1796.0,0.009671517364405538
1795.0,0.010060955214206514
1794.0,0.010395984678582304
1793.0,0.010961947252877781
1792.0,0.012006564370387553
1791.0,0.013119402903161654
1790.0,0.013997401575644136
1789.0,0.014863842576029039
1788.0,0.01589390425512112
1787.0,0.017099381788498222
1786.0,0.01856784590958387
1785.0,0.02041900259683791
1784.0,0.022461399313848284
1783.0,0.0243780056111709
1782.0,0.0262854813504124
1781.0,0.02862721673751224
1780.0,0.03139809174164354
1779.0,0.03395508957167191
1778.0,0.03604946896597484
1777.0,0.038017406803907895
1776.0,0.04005582892832268
1775.0,0.042012307288455314
1774.0,0.04397409134559435
1773.0,0.046833094715599384
1772.0,0.050929816771571455
1771.0,0.054659474649773214
1770.0,0.057396156323542113
1769.0,0.060302211516094675
1768.0,0.06408917111193935
1767.0,0.06822068957553032
1766.0,0.07194925662895237
1765.0,0.0754250879722796
1764.0,0.07937779481656856
1763.0,0.08462077971016875
1762.0,0.09142508001288334
1761.0,0.09852163705109725
1760.0,0.10429421598118921
1759.0,0.1087625561677484
1758.0,0.11326774142477378
1757.0,0.11878591147181586
1756.0,0.12425755169885408
1755.0,0.1279171993386976
1754.0,0.12991905801275605
1753.0,0.1315858199606266
1752.0,0.13375904573499622
1751.0,0.13608680044282825
1750.0,0.1377804001005979
1749.0,0.13889768755260493
1748.0,0.1393259900174625
1747.0,0.13847076731506897
1746.0,0.13643628707912575
1745.0,0.1336114603277055
1744.0,0.12985249038849703
1743.0,0.125000661622943
1742.0,0.11933253611918483
1741.0,0.11256580757755236
1740.0,0.1038726384729689
1739.0,0.0942683315033555
1738.0,0.0863538027622159
1737.0,0.08057896672247356
1736.0,0.07508209434450358
1735.0,0.06705624553567904
1734.0,0.056254881357931684
1733.0,0.04759691162890208
1732.0,0.042662993108454526
1731.0,0.03917779495487193
1730.0,0.036027899977013236
1729.0,0.033174800429405585
1728.0,0.0307582390922203
1727.0,0.028811295870910913
1726.0,0.027230803383818437
1725.0,0.02583534394218941
1724.0,0.0245047644916935
1723.0,0.023329949078612112
1722.0,0.02247773724277358
1721.0,0.02186182373876261
1720.0,0.021188893445164374
1719.0,0.020243745698788736
1718.0,0.019204324522127263
1717.0,0.018389495393696664
1716.0,0.017688348622946878
1715.0,0.017086851796638443
1714.0,0.016670091661059188
1713.0,0.016295933774173606
1712.0,0.015822217687678514
1711.0,0.015294665303681822
1710.0,0.014834123357434396
1709.0,0.01445554946337723
1708.0,0.014090878276638647
1707.0,0.01372227854481526
1706.0,0.01341885118786133
1705.0,0.013191167326305302
1704.0,0.012973321001773841
1703.0,0.012828444485934561
1702.0,0.012785855088419852
1701.0,0.012826676907560253
1700.0,0.012806312598492903
1699.0,0.012590125336175576
1698.0,0.012472208370171928
1697.0,0.012568816205831246
1696.0,0.01265627677320383
1695.0,0.012569534099341152
1694.0,0.012495595394827122
1693.0,0.012536400265550666
1692.0,0.012559967049478586
1691.0,0.012510670123513928
1690.0,0.012503115143963314
1689.0,0.01261828921394339
1688.0,0.012770931981492687
1687.0,0.012862814919262274
1686.0,0.012857791730992444
1685.0,0.012962096609832552
1684.0,0.013320115048753644
1683.0,0.013582160225770887
1682.0,0.013815343024929105
1681.0,0.014066303000137344
1680.0,0.014249935012777128
1679.0,0.014395368979981154
1678.0,0.014573115195018603
1677.0,0.014801953156327919
1676.0,0.015070784709681716
1675.0,0.015338111704058813
1674.0,0.015491815089689845
1673.0,0.01553566851411842
1672.0,0.015561120879366088
1671.0,0.01564549919076126
1670.0,0.015906306197300827
1669.0,0.016227919005724192
1668.0,0.01640721384956261
1667.0,0.01649647619167311
1666.0,0.016580440182570887
1665.0,0.016670591427390854
1664.0,0.016766505364338224
1663.0,0.01690680863850177
1662.0,0.01708663361484165
1661.0,0.01721425201983596
1660.0,0.017285911156451984
1659.0,0.017318918386464318
1658.0,0.017346121703259682
1657.0,0.01739229737052187
1656.0,0.01747955863502057
1655.0,0.01749900991639266
1654.0,0.017594616963157166
1653.0,0.017914781870216414
1652.0,0.01781311693392847
1651.0,0.01764128583120654
1650.0,0.01766577136584494
1649.0,0.017709373866618194
1648.0,0.01769952234608281
1647.0,0.017805539086415315
1646.0,0.0179587752608679
1645.0,0.017983790698950997
1644.0,0.017946353787859633
1643.0,0.017912737295820522
1642.0,0.01789413551542354
1641.0,0.01785754317392997
1640.0,0.01779852660349695
1639.0,0.01774765696295631
1638.0,0.017703712594503217
1637.0,0.017672341343879926
1636.0,0.017695601913247483
1635.0,0.017675772029505602
1634.0,0.01756732493519098
1633.0,0.017465194263641997
1632.0,0.01735541624187075
1631.0,0.017229766593355407
1630.0,0.017099882546448432
1629.0,0.016957763800135264
1628.0,0.016789171218214684
1627.0,0.01661716942796982
1626.0,0.016472458527767474
1625.0,0.01631809857479668
1624.0,0.016109618527086148
1623.0,0.015866569637446384
1622.0,0.015643254433180105
1621.0,0.015473184252061043
1620.0,0.015352250591554414
1619.0,0.015213091038857145
1618.0,0.014985985212705673
1617.0,0.014663525375847954
1616.0,0.014303800176491493
1615.0,0.014044715839064945
1614.0,0.013931622673301457
1613.0,0.013838682277316088
1612.0,0.013663403832518052
1611.0,0.013430962934923085
1610.0,0.013206848649917145
1609.0,0.012996578828441869
1608.0,0.012781854440351875
1607.0,0.012584443144149731
1606.0,0.012419336437483483
1605.0,0.012248216385846413
1604.0,0.01205548111278869
1603.0,0.011867254291016012
1602.0,0.01170995034187625
1601.0,0.011571899260712082
1600.0,0.01142971896131068
1599.0,0.011284219489885844
1598.0,0.01113943331964039
1597.0,0.010983785476017662
1596.0,0.010806688769504781
1595.0,0.01062615049713321
1594.0,0.010472647881352755
1593.0,0.010346383882672646
1592.0,0.010231156372836597
1591.0,0.010127996736381125
1590.0,0.010042906249285328
1589.0,0.009956473018001928
1588.0,0.009848161995123906
1587.0,0.009727564979589732
1586.0,0.00961858045201811
1585.0,0.009516305427017722
1584.0,0.009412549769129551
1583.0,0.009325749256944583
1582.0,0.009248781710130955
1581.0,0.009164256029103316
1580.0,0.009076407476389804
1579.0,0.008991934476104708
1578.0,0.008868082682761028
1577.0,0.008708410784626202
1576.0,0.00856072162913913
1575.0,0.008451584511367431
1574.0,0.008450835553163205
1573.0,0.008527267694643828
1572.0,0.00856635316949071
1571.0,0.008528444586346967
1570.0,0.008499834943012223
1569.0,0.008499659807217202
1568.0,0.008470068252559323
1567.0,0.008425108933031748
1566.0,0.008377736789998678
1565.0,0.008326364746607601
1564.0,0.00830342805567496
1563.0,0.00833853307077201
1562.0,0.008420730954663981
1561.0,0.008420711682416598
1560.0,0.00826557193498383
1559.0,0.00828954259346677
1558.0,0.008426405194119255
1557.0,0.008492639609341221
1556.0,0.008549488007068446
1555.0,0.00860036485326635
1554.0,0.008626520888601935
1553.0,0.008639030417379727
1552.0,0.00864340059519134
1551.0,0.00866718693771319
1550.0,0.008728154262709467
1549.0,0.008819592234320411
1548.0,0.008879681112695749
1547.0,0.008884965736105279
1546.0,0.008831916693973804
1545.0,0.008792306780443905
1544.0,0.0088289968251146
1543.0,0.00890090660395058
1542.0,0.00892984255768365
1541.0,0.009080155025127759
1540.0,0.009330267481882992
1539.0,0.009281805884140168
1538.0,0.009168871973012848
1537.0,0.009212238302965164
1536.0,0.009311893511574467
1535.0,0.009376882323421053
1534.0,0.009445256558233115
1533.0,0.009582072835702678
1532.0,0.009685069986322892
1531.0,0.009704591078305905
1530.0,0.00968205161625242
1529.0,0.009666615617119605
1528.0,0.00968475447804273
1527.0,0.009735873217600232
1526.0,0.009823953851684036
1525.0,0.009935745246970268
1524.0,0.01003119523952155
1523.0,0.010059628411783515
1522.0,0.010122276470857953
1521.0,0.010290527162598493
1520.0,0.010404382164951305
1519.0,0.010449459689741336
1518.0,0.01049256744772072
1517.0,0.01060779895692921
1516.0,0.010776932179885994
1515.0,0.010904587273504055
1514.0,0.011003891516511828
1513.0,0.011080219116823354
1512.0,0.011126977800834364
1511.0,0.011111071546102736
1510.0,0.011075424493396008
1509.0,0.011035016164724845
1508.0,0.011162063217525902
1507.0,0.011559233986069844
1506.0,0.011729560695989062
1505.0,0.011726340667536105
1504.0,0.011752215454604014
1503.0,0.011787811700915394
1502.0,0.011853116467791365
1501.0,0.011954141080421078
1500.0,0.012089354602034613
1499.0,0.012207333171662334
1498.0,0.012293445014668777
1497.0,0.012445148617790544
1496.0,0.01263026299015815
1495.0,0.012724473699725292
1494.0,0.012779540057665087
1493.0,0.012864878053238188
1492.0,0.012943105637419312
1491.0,0.012965671035276037
1490.0,0.013021102427602307
1489.0,0.01321852070152895
1488.0,0.013454588946104018
1487.0,0.013609756371122834
1486.0,0.013725947564010802
1485.0,0.013851485754596136
1484.0,0.013981923612427328
1483.0,0.014100060588425334
1482.0,0.01421932594279985
1481.0,0.01438727341622224
1480.0,0.014592405382870342
1479.0,0.014794471348076044
1478.0,0.01500343359197423
1477.0,0.015277801089766094
1476.0,0.015610360196609815
1475.0,0.015926382279476868
1474.0,0.01630614831022549
1473.0,0.017045158572079132
1472.0,0.018017979359452044
1471.0,0.0187826576730883
1470.0,0.01941973571816162
1469.0,0.020146765772935372
1468.0,0.02102151193127878
1467.0,0.022108441914640065
1466.0,0.023658414032846437
1465.0,0.02590092066631761
1464.0,0.028350645271819984
1463.0,0.030279779522912248
1462.0,0.031746839985742834
1461.0,0.03306776487588782
1460.0,0.03442962345313505
1459.0,0.03589979913962113
1458.0,0.03812870140078694
1457.0,0.04128305944458638
1456.0,0.043348236308599436
1455.0,0.04393068889288392
1454.0,0.044202358826111565
1453.0,0.044464685360349365
1452.0,0.04460114378194848
1451.0,0.044498747953518304
1450.0,0.04419259711638934
1449.0,0.04359258362837074
1448.0,0.042488073686269494
1447.0,0.04096867694288863
1446.0,0.039330748699212166
1445.0,0.03760895922581593
1444.0,0.035686604723048534
1443.0,0.033589308644886434
1442.0,0.031513459665000874
1441.0,0.02965300179960874
1440.0,0.02810502049060469
1439.0,0.026844097726940908
1438.0,0.02569596754579807
1437.0,0.024437270631382922
1436.0,0.023189370187524427
1435.0,0.022325102361001548
1434.0,0.021850015835000177
1433.0,0.021529644118322998
1432.0,0.021229261620919745
1431.0,0.02095399845695511
1430.0,0.02074166642951328
1429.0,0.020569391223749768
1428.0,0.020412241969670564
1427.0,0.020296321135198837
1426.0,0.02021422017744663
1425.0,0.020104267797168427
1424.0,0.01997585636667655
1423.0,0.01991482123474909
1422.0,0.01995320303555555
1421.0,0.019998770060188607
1420.0,0.019947578029753055
1419.0,0.01980076932079875
1418.0,0.019637016338119873
1417.0,0.019512412130523515
1416.0,0.019420545304291412
1415.0,0.01933448301235245
1414.0,0.0192262299557965
1413.0,0.019073398231530182
1412.0,0.018881688399607667
1411.0,0.018686042859442982
1410.0,0.01850387020663502
1409.0,0.01832779652209183
1408.0,0.018152192681570967
1407.0,0.017983875048899377
1406.0,0.017805553154172864
1405.0,0.017587052790632163
1404.0,0.017385800942168586
1403.0,0.017286600579193408
1402.0,0.017282149383354737
1401.0,0.017314930347475246
1400.0,0.017400852707352484
1399.0,0.01761250410633598
1398.0,0.01794297785397266
1397.0,0.018378385867436918
1396.0,0.019069047015339485
1395.0,0.020154332105472007
1394.0,0.02142413291420415
1393.0,0.022594282177500553
1392.0,0.023687896401820563
1391.0,0.02482346062561971
1390.0,0.026048043001635414
1389.0,0.02742043531035642
1388.0,0.029054107864057113
1387.0,0.03083653737321953
1386.0,0.03234185252832176
1385.0,0.033362753125444546
1384.0,0.03401101356476935
1383.0,0.034354102171149585
1382.0,0.0343509626489314
1381.0,0.033956102915895875
1380.0,0.03316401430623033
1379.0,0.032040516226227736
1378.0,0.030756123104069902
1377.0,0.02950391134289715
1376.0,0.028392487529825323
1375.0,0.027547985796880857
1374.0,0.027183591467251807
1373.0,0.027333674742801156
1372.0,0.02777270229434664
1371.0,0.02832003135820839
1370.0,0.028927616173891307
1369.0,0.02953949305063265
1368.0,0.030045966436791353
1367.0,0.030372950489930606
1366.0,0.03054631516074302
1365.0,0.03062143303356367
1364.0,0.030643299370498985
1363.0,0.030665320032348842
1362.0,0.030708726506655702
1361.0,0.030720322976246647
1360.0,0.03064383479452492
1359.0,0.030470111580460806
1358.0,0.030203190069442498
1357.0,0.02982744866377819
1356.0,0.02932009933911136
1355.0,0.028692184780575357
1354.0,0.027989626478912448
1353.0,0.027246132364068837
1352.0,0.026456604275172692
1351.0,0.025618869235786903
1350.0,0.024759937522296084
1349.0,0.02390931850110191
1348.0,0.023088267239438905
1347.0,0.0223156976680584
1346.0,0.021611067676794934
1345.0,0.020972504688019426
1344.0,0.020381074284759715
1343.0,0.019824159770159663
1342.0,0.01929477358177188
1341.0,0.018776762237765397
1340.0,0.01827101361607056
1339.0,0.017830547429243622
1338.0,0.017499903937345816
1337.0,0.0172396643646921
1336.0,0.016982355655548887
1335.0,0.016713356176461584
1334.0,0.016455545417627008
1333.0,0.016215401980265727
1332.0,0.015982360218097395
1331.0,0.015768215898926012
1330.0,0.015599667659560782
1329.0,0.015474418440991775
1328.0,0.015366423799391314
1327.0,0.015272016680703819
1326.0,0.015207973633831546
1325.0,0.015169671694442551
1324.0,0.015133120032770397
1323.0,0.015088439326950188
1322.0,0.015043043852311939
1321.0,0.014994652382960005
1320.0,0.014934851485887034
1319.0,0.014875956258213762
1318.0,0.014838131888772713
1317.0,0.014811829010566508
1316.0,0.014774808010233318
1315.0,0.014736361407390763
1314.0,0.014725283125216752
1313.0,0.014739202704487149
1312.0,0.014743453893088905
1311.0,0.014725442864394023
1310.0,0.014705275103764164
1309.0,0.01469513717104812
1308.0,0.01468525862660747
1307.0,0.014669140228067545
1306.0,0.014649999114220033
1305.0,0.01462001278786337
1304.0,0.01456483860061306
1303.0,0.01448719022764883
1302.0,0.014402232302241191
1301.0,0.01430681978847578
1300.0,0.014181306438071029
1299.0,0.014019490777288927
1298.0,0.013830054548915921
1297.0,0.013609210701747646
1296.0,0.013344330300237208
1295.0,0.013048181617673797
1294.0,0.01276010962823686
1293.0,0.012513970750527698
1292.0,0.012331078970545938
1291.0,0.012241374750579407
1290.0,0.012282589062957358
1289.0,0.012476151780011196
1288.0,0.012821924617294159
1287.0,0.013313432088897067
1286.0,0.013942302866384624
1285.0,0.01469185890396233
1284.0,0.01554073080146224
1283.0,0.016472262157575503
1282.0,0.01747380175306424
1281.0,0.018526467811848104
1280.0,0.0196022404101815
1279.0,0.020673859884101642
1278.0,0.021721427198647156
1277.0,0.02272400390767744
1276.0,0.02365259562875298
1275.0,0.024487334881055436
1274.0,0.025236070495523136
1273.0,0.025916809775971703
1272.0,0.026522220569361855
1271.0,0.02702265747028243
1270.0,0.0274039373833607
1269.0,0.027676735351027992
1268.0,0.02785142178138543
1267.0,0.027931651110817343
1266.0,0.027927205023621844
1265.0,0.027846115208887814
1264.0,0.027680252225927814
1263.0,0.02742292498010543
1262.0,0.027091952045904796
1261.0,0.026713878251362233
1260.0,0.026299343972726548
1259.0,0.02585530999690576
1258.0,0.025404302980408928
1257.0,0.024969306886827265
1256.0,0.024555786406029376
1255.0,0.024166077069401812
1254.0,0.023812715390822976
1253.0,0.023503568363017622
1252.0,0.023232943149174512
1251.0,0.02300226608778105
1250.0,0.02282998875706596
1249.0,0.02272601998828754
1248.0,0.022674012220751605
1247.0,0.02265309392972735
1246.0,0.022662677180171845
1245.0,0.02271289590802836
1244.0,0.02280336391747615
1243.0,0.02292727337360791
1242.0,0.02308637636508846
1241.0,0.023287147111059312
1240.0,0.02352922029010906
1239.0,0.023809652545804635
1238.0,0.024132607000409305
1237.0,0.024504470284110083
1236.0,0.024924479302261
1235.0,0.02538952095531624
1234.0,0.025903387410053665
1233.0,0.026473056197643667
1232.0,0.02710207362951232
1231.0,0.027797435776901885
1230.0,0.028575869453752095
1229.0,0.02944886496211894
1228.0,0.030405893250979844
1227.0,0.03142854113981503
1226.0,0.032518376918533036
1225.0,0.03369075908407843
1224.0,0.03494131125003449
1223.0,0.03624548583170772
1222.0,0.03759568605783658
1221.0,0.03900600755942957
1220.0,0.04046947194948748
1219.0,0.04194513697072478
1218.0,0.04340357903264603
1217.0,0.04484616356793241
1216.0,0.04626009175842364
1215.0,0.04760197792501544
1214.0,0.04884843019248114
1213.0,0.05001193998578605
1212.0,0.05108368001168669
1211.0,0.05202004376259768
1210.0,0.052809930555199
1209.0,0.053488383310296025
1208.0,0.054066444649819904
1207.0,0.0545251424957591
1206.0,0.05489708128085206
1205.0,0.05526883786629554
1204.0,0.055680460860662445
1203.0,0.05610758753761999
1202.0,0.05656400238229576
1201.0,0.05713381005320951
1200.0,0.05787273734240121
1199.0,0.05875923266545846
1198.0,0.05977640568390594
1197.0,0.060966884379689626
1196.0,0.06237185958945189
1195.0,0.06399442940898417
1194.0,0.06586309405200606
1193.0,0.06805219014482322
1192.0,0.0705906190016586
1191.0,0.07342832123685368
1190.0,0.07654921175868276
1189.0,0.0800234492244448
1188.0,0.08386818231711905
1187.0,0.08794995317865459
1186.0,0.09211578646372616
1185.0,0.09630054130215623
1184.0,0.10036492563838283
1183.0,0.10394731687972521
1182.0,0.10662011924926024
1181.0,0.10804484385686697
1180.0,0.10785309141193146
1179.0,0.10564837758484706
1178.0,0.10134193507397951
1177.0,0.09526557274524307
1176.0,0.08789564794853363
1175.0,0.07974657221769368
1174.0,0.07146061557621054
1173.0,0.06365000226395394
1172.0,0.056638050669293255
1171.0,0.05049697812275224
1170.0,0.04523549862086975
1169.0,0.040834539036411766
1168.0,0.037199453495971785
1167.0,0.03420134409946579
1166.0,0.03174502744368346
1165.0,0.02975081399903251
1164.0,0.02811891143215451
1163.0,0.02676455272328406
1162.0,0.025655128363995583
1161.0,0.02477266947199258
1160.0,0.024069929706161255
1159.0,0.02349645207135858
1158.0,0.023040333416702547
1157.0,0.02271214562033144
1156.0,0.022509393333770063
1155.0,0.02242317317103807
1154.0,0.022459607200136286
1153.0,0.02263120175199097
1152.0,0.02294361848737513
1151.0,0.023411070448176946
1150.0,0.02407053614845564
1149.0,0.02496325765893361
1148.0,0.02611496306878651
1147.0,0.027547971433521397
1146.0,0.029297462210508878
1145.0,0.031393989341223394
1144.0,0.0338321638120529
1143.0,0.03657391057601126
1142.0,0.0395803460237133
1141.0,0.042810736172331096
1140.0,0.04617717647952735
1139.0,0.049545332568905774
1138.0,0.05281757431446398
1137.0,0.055966146620201336
1136.0,0.05894711123877146
1135.0,0.061660856269765835
1134.0,0.06405767724886302
1133.0,0.0661919057632733
1132.0,0.06810350397471883
1131.0,0.06973945503622474
1130.0,0.07104158113619874
1129.0,0.07199317114759454
1128.0,0.07252166478186389
1127.0,0.07249160044876894
1126.0,0.07186984002087378
1125.0,0.07078037505539125
1124.0,0.06936352423089129
1123.0,0.0677222847443454
1122.0,0.06601515294396115
1121.0,0.06443703923562177
1120.0,0.06307759569687113
1119.0,0.06191552573020688
1118.0,0.06095274264863397
1117.0,0.06024245867574336
1116.0,0.059793854000534566
1115.0,0.059572925944097715
1114.0,0.05961282546621707
1113.0,0.06001450005551946
1112.0,0.06081622559468412
1111.0,0.06196252615062582
1110.0,0.0634263750451309
1109.0,0.06525851734700061
1108.0,0.06747169182298014
1107.0,0.06997723409783334
1106.0,0.07269298163857507
1105.0,0.07560936943353262
1104.0,0.07868564776310032
1103.0,0.0818054527816638
1102.0,0.08492063577445595
1101.0,0.08810724499449299
1100.0,0.09138692884640703
1099.0,0.0946488414881361
1098.0,0.09785454492023779
1097.0,0.10113465288133502
1096.0,0.10455085783699045
1095.0,0.10796724736603562
1094.0,0.11130844041366854
1093.0,0.114716489652728
1092.0,0.11828064537393372
1091.0,0.12185950616821417
1090.0,0.12535215584454604
1089.0,0.12887066072856365
1088.0,0.1324383758171615
1087.0,0.1358138201200754
1086.0,0.13883461138080902
1085.0,0.14160551135748417
1084.0,0.14410840967571098
1083.0,0.14601859077201043
1082.0,0.14717313284700675
1081.0,0.14779253665339182
1080.0,0.14798878942072186
1079.0,0.14752956445966436
1078.0,0.14630233247354527
1077.0,0.14450216837329352
1076.0,0.14217331372061642
1075.0,0.13908319854792703
1074.0,0.13519670059829988
1073.0,0.1307827041482848
1072.0,0.12596485787966985
1071.0,0.12064194791898211
1070.0,0.11489209721750919
1069.0,0.10902045289539011
1068.0,0.10320597689949779
1067.0,0.09747658699030048
1066.0,0.092000199812058
1065.0,0.08707803684509183
1064.0,0.08287526822148975
1063.0,0.07939764327875745
1062.0,0.07668833131648688
1061.0,0.07483764887065052
1060.0,0.07380706497848206
1059.0,0.07340730224727433
1058.0,0.07347011554583363
1057.0,0.07391292983022682
1056.0,0.0746166858397086
1055.0,0.07539851790192634
1054.0,0.07617762463205117
1053.0,0.07703957460205334
1052.0,0.07805713120772075
1051.0,0.07917324885214669
1050.0,0.08033563076178026
1049.0,0.08157719841233163
1048.0,0.08286569373391403
1047.0,0.08405262971759409
1046.0,0.0850495310968088
1045.0,0.08587552918989169
1044.0,0.08648228317604921
1043.0,0.08671737691500538
1042.0,0.08650878160565068
1041.0,0.08590758330341747
1040.0,0.08491002474270044
1039.0,0.08343000598555635
1038.0,0.08148713453146987
1037.0,0.07923562555891814
1036.0,0.07678992770154941
1035.0,0.07419710792199771
1034.0,0.07157228785667563
1033.0,0.06908609121894993
1032.0,0.06681053168014277
1031.0,0.06471377855354642
1030.0,0.06279702378011437
1029.0,0.06110564730501855
1028.0,0.05960927114651861
1027.0,0.058191496872625995
1026.0,0.05676844698115041
1025.0,0.05532085424541065
1024.0,0.05381170057481768
1023.0,0.05217530651627507
1022.0,0.05039794453945008
1021.0,0.048524897875035666
1020.0,0.04658511500030774
1019.0,0.044581151615609674
1018.0,0.04254467509711839
1017.0,0.04053136150265239
1016.0,0.03856901334318165
1015.0,0.036668017062919285
1014.0,0.03486555558062121
1013.0,0.033205971371766466
1012.0,0.031693783010825094
1011.0,0.030308329888514035
1010.0,0.029045100280749074
1009.0,0.02790606773461001
1008.0,0.02687059848973855
1007.0,0.02591281934238391
1006.0,0.025033251759747438
1005.0,0.024242626411321036
1004.0,0.02352798724559967
1003.0,0.022862511141336535
1002.0,0.02223635263968057
1001.0,0.0216524224200401
1000.0,0.02110335697152324
999.0,0.020576341179024096
998.0,0.020071242821126843
997.0,0.019594130863218494
996.0,0.01914137733939952
995.0,0.018705289189864915
994.0,0.018285291000594003
993.0,0.017880956729231644
992.0,0.017485922675306104
991.0,0.017100605112817455
990.0,0.016737435258379313
989.0,0.016401335675467924
988.0,0.016079141072649013
987.0,0.015759700233743016
986.0,0.015448805604410802
985.0,0.015151885952394289
984.0,0.014857883459032214
983.0,0.014554808884729036
982.0,0.014248659340785522
981.0,0.013953227542445327
980.0,0.013671013503959696
979.0,0.013395443289684564
978.0,0.013122974491933555
977.0,0.012853816364746775
976.0,0.012588880917909419
975.0,0.012332712538766812
974.0,0.012091424313324696
973.0,0.011864764963749472
972.0,0.011649788337252748
971.0,0.011451941815369335
970.0,0.011280039399517602
969.0,0.011132605441640717
968.0,0.011005928657687507
967.0,0.010915296735950198
966.0,0.01089008770196154
965.0,0.010945651629270105
964.0,0.011076899123989552
963.0,0.011279763907270854
962.0,0.011557196472598476
961.0,0.011896046124422764
960.0,0.012252678574158897
959.0,0.012569511689513726
958.0,0.012798429543326263
957.0,0.012908032054875451
956.0,0.01288528550586741
955.0,0.012742651893451837
954.0,0.01251341167121589
953.0,0.01222806034072459
952.0,0.011902512011267422
951.0,0.0115527397553053
950.0,0.011202814770756006
949.0,0.010869749472163702
948.0,0.010557145104531495
947.0,0.010270893568255439
946.0,0.01002321639469594
945.0,0.00981428313038668
944.0,0.009627897214107537
943.0,0.00945297143460199
942.0,0.009293999849438305
941.0,0.009155116227042136
940.0,0.009030422588770227
939.0,0.008915998750730549
938.0,0.008814932540124783
937.0,0.008724390660072929
936.0,0.008634782928683641
935.0,0.008549423347728041
934.0,0.008488237877819965
933.0,0.008461267118390962
932.0,0.008450972721029567
931.0,0.008430351662897958
930.0,0.008389868594997383
929.0,0.008340435267275875
928.0,0.008298887063676857
927.0,0.00827642768471568
926.0,0.00827318153593544
925.0,0.008278404821194907
924.0,0.008279905986419828
923.0,0.008273356518777197
922.0,0.008258917893482789
921.0,0.00823546481509686
920.0,0.008207745227352261
919.0,0.008191000144824188
918.0,0.008192078207681523
917.0,0.008190709539223653
916.0,0.008158064296796507
915.0,0.008092761232300915
914.0,0.008020980686492814
913.0,0.007961637626012937
912.0,0.007911128463767597
911.0,0.007863676362053026
910.0,0.007824666059637119
909.0,0.007797115907467322
908.0,0.007772524775023888
907.0,0.007742175135858681
906.0,0.007704425027962605
905.0,0.007658859156991165
904.0,0.007608297341891838
903.0,0.007567195782392478
902.0,0.0075503901769123204
901.0,0.007551803728897176
900.0,0.0075517158148256
899.0,0.007545883660704128
898.0,0.007547854607385036
897.0,0.007560052312378213
896.0,0.007563323154476179
895.0,0.007540506386198862
894.0,0.00749150332402169
893.0,0.007418872244498486
892.0,0.0073177137274080435
891.0,0.007189935808115899
890.0,0.007054850111363954
889.0,0.006939402388117816
888.0,0.006871785747755198
887.0,0.006887131511532958
886.0,0.007020990522934745
885.0,0.0072923588049875615
884.0,0.007708822510057566
883.0,0.008289534260157858
882.0,0.009063598595954698
881.0,0.01003701147338269
880.0,0.011170585518553395
879.0,0.01239557151832299
878.0,0.013647737856272654
877.0,0.014884151304257475
876.0,0.016069459316483077
875.0,0.01715485810998077
874.0,0.018072147863914985
873.0,0.018740039485787643
872.0,0.01908707286294911
871.0,0.019101012035344197
870.0,0.01885965502341243
869.0,0.018483218041378268
868.0,0.0180564148802809
867.0,0.01761343081703004
866.0,0.01717097507049983
865.0,0.016735427513207522
864.0,0.016284814193708686
863.0,0.01577576702939545
862.0,0.015172093422672596
861.0,0.014454944086486222
860.0,0.013619235671354049
859.0,0.0126843818086757
858.0,0.011701161359770847
857.0,0.01073060814437269
856.0,0.009824476578068318
855.0,0.009029567948463813
854.0,0.008384563530160708
853.0,0.007899510333831777
852.0,0.007556804545948408
851.0,0.007334434131531968
850.0,0.007205645070988606
849.0,0.007116433584677241
848.0,0.0069946228737205445
847.0,0.00679622286136986
846.0,0.006526887667796286
845.0,0.006212288771040905
844.0,0.005870924954842899
843.0,0.005524329969886171
842.0,0.005203247956240931
841.0,0.004923859263493483
840.0,0.004677151459537428
839.0,0.004454970516956373
838.0,0.004267241783806677
837.0,0.0041212032858611025
836.0,0.004003579228371077
835.0,0.003897949467296642
834.0,0.00380451171867063
833.0,0.0037294657674277025
832.0,0.003668205733606121
831.0,0.0036127220588701905
830.0,0.0035652699402629624
829.0,0.0035328079335318306
828.0,0.003516611201069164
827.0,0.0035162346509994193
826.0,0.0035323113299525113
825.0,0.0035558815124361095
824.0,0.0035682373716940455
823.0,0.0035618843709742613
822.0,0.0035492207793837455
821.0,0.0035440315275365314
820.0,0.0035501166707147674
819.0,0.0035707990757440997
818.0,0.003609057693264632
817.0,0.0036523877952557814
816.0,0.0036748021549700884
815.0,0.0036644787347016785
814.0,0.0036399627863902325
813.0,0.0036292380132850466
812.0,0.003640625308883195
811.0,0.003662421945223978
810.0,0.003682057277813313
809.0,0.0036957607821550536
808.0,0.0037046804651218092
807.0,0.0037115329042594365
806.0,0.0037202141234480256
805.0,0.00373272788869
804.0,0.0037483394091889152
803.0,0.003768535386292444
802.0,0.0037992179452466367
801.0,0.003844451088084502
800.0,0.0038997394818024392
799.0,0.0039530108167982695
798.0,0.003990746091390971
797.0,0.00400606958355075
796.0,0.004007657018074288
795.0,0.0040209752081744946
794.0,0.00407268654843743
793.0,0.0041691773419219695
792.0,0.004292984338959461
791.0,0.004420027051527012
790.0,0.004538094714530955
789.0,0.00465366758583405
788.0,0.004788429140437353
787.0,0.004966362255895234
786.0,0.005192959999307035
785.0,0.005444437507499145
784.0,0.0056851135028778265
783.0,0.0058978198507577614
782.0,0.006091828722469944
781.0,0.00628151160323993
780.0,0.006468850942994639
779.0,0.006652321097698109
778.0,0.006841368507907546
777.0,0.007050307952852032
776.0,0.0072827734010514
775.0,0.00753184983381221
774.0,0.0077920212722249645
773.0,0.008063144923398241
772.0,0.008346870244039323
771.0,0.008649426393863804
770.0,0.00898627086215963
769.0,0.009372770236097921
768.0,0.00980848772148413
767.0,0.010278162171584539
766.0,0.010768047490566122
765.0,0.011273625911345588
764.0,0.011792623206466506
763.0,0.012321218357764792
762.0,0.012856657027534874
761.0,0.013390773362083642
760.0,0.013899866022303024
759.0,0.01435404342665958
758.0,0.014736677660461505
757.0,0.01503878756146344
756.0,0.015237474724395659
755.0,0.01530540145368934
754.0,0.015245636738220863
753.0,0.01509320007166759
752.0,0.0148807000581807
751.0,0.01462981182946613
750.0,0.014371898299259583
749.0,0.01413746756496937
748.0,0.01391793136567384
747.0,0.013671887133092898
746.0,0.013383702213291954
745.0,0.013089110210124093
744.0,0.01282690099172305
743.0,0.012588873910414453
742.0,0.01233506330653162
741.0,0.01203850980205784
740.0,0.011694612560428173
739.0,0.011300326436567237
738.0,0.010848562205781634
737.0,0.010342621104375449
736.0,0.009800308203032865
735.0,0.009239653816226434
734.0,0.008668182253317797
733.0,0.008095052760246503
732.0,0.007554623573138186
731.0,0.007106198643493652
730.0,0.006795387937920672
729.0,0.006616542348741868
728.0,0.006528488529630731
727.0,0.0065057214674481105
726.0,0.006557274018837687
725.0,0.006694924012924108
724.0,0.00690326628065854
723.0,0.007153765432571804
722.0,0.007434014072810961
721.0,0.007745926759858492
720.0,0.008081056864248828
719.0,0.008418389912724398
718.0,0.00875148505544673
717.0,0.009096250870954153
716.0,0.00946206917266721
715.0,0.009828753393706643
714.0,0.010155385352045052
713.0,0.01040285120594053
712.0,0.01054946563881766
711.0,0.010601548006554346
710.0,0.010592897471892251
709.0,0.010559268349949472
708.0,0.010515207354102815
707.0,0.010466811236436724
706.0,0.010434021691183619
705.0,0.010437729967657731
704.0,0.010467228206304035
703.0,0.010483438534490776
702.0,0.010462202461992767
701.0,0.010417357284450837
700.0,0.010378225163726367
699.0,0.01035910970279345
698.0,0.010347000486199784
697.0,0.010310219221565817
696.0,0.010223242494586827
695.0,0.010091461196610897
694.0,0.009950296682664356
693.0,0.009829017011172492
692.0,0.009726629241865313
691.0,0.009637851942909965
690.0,0.00958156582829416
689.0,0.009578709536926095
688.0,0.009609324993006943
687.0,0.009625541300807373
686.0,0.009609282921363208
685.0,0.009578447856265437
684.0,0.009544840872129128
683.0,0.00950513015621653
682.0,0.009461562126949059
681.0,0.009418750285374488
680.0,0.009361325248062186
679.0,0.009267735881450613
678.0,0.009142713352047794
677.0,0.009016037119462854
676.0,0.00891128929541177
675.0,0.008826264230706808
674.0,0.008752192983947495
673.0,0.00869591083054418
672.0,0.008665580850516403
671.0,0.008676290053705616
670.0,0.008736063188960225
669.0,0.008830976861134255
668.0,0.008823189115775572
667.0,0.008640338176310377
666.0,0.008461412761804225
665.0,0.008380186532364654
664.0,0.008337386782703918
663.0,0.008282484384911453
662.0,0.008204602743077487
661.0,0.008133269039028137
660.0,0.008093421240690409
659.0,0.008083250469698825
658.0,0.008074645857227045
657.0,0.008025521647226485
656.0,0.007911089118961257
655.0,0.00774861784469039
654.0,0.007589712020617222
653.0,0.007467688404549453
652.0,0.007368305588476835
651.0,0.007270266924847096
650.0,0.007182359754234299
649.0,0.007109194598561536
648.0,0.007014462864220573
647.0,0.006864582088317174
646.0,0.006688938231836489
645.0,0.006550553619255828
644.0,0.006467001857647949
643.0,0.00640227137867409
642.0,0.006331843587116005
641.0,0.006275190200177583
640.0,0.0062550246755702366
639.0,0.006255106345937584
638.0,0.006231187887097131
637.0,0.006150685076823481
636.0,0.00601588757944228
635.0,0.005867657468575201
634.0,0.005763274254788103
633.0,0.005719544189266044
632.0,0.005688909497681326
631.0,0.005614629813187957
630.0,0.005497340715531578
629.0,0.0053834089547300755
628.0,0.005298749868127443
627.0,0.005227237607671638
626.0,0.005149329595958041
625.0,0.005067192642292724
624.0,0.004981184349530952
623.0,0.0048759095515475415
622.0,0.00474737999614714
621.0,0.004617285261736125
620.0,0.004506531868009613
619.0,0.004412817179814487
618.0,0.004321473701550754
617.0,0.0042197867040542555
616.0,0.004095894442197262
615.0,0.003948660742839604
614.0,0.0038038523574911286
613.0,0.0036992548356754133
612.0,0.0036497597471505643
611.0,0.0036344427167337486
610.0,0.003617193880736537
609.0,0.003574097054390003
608.0,0.0035036189994651114
607.0,0.0034288430293129644
606.0,0.0033958309359551925
605.0,0.0034443892330346983
604.0,0.0035622832674832104
603.0,0.0036795786321754693
602.0,0.0037227895904537074
601.0,0.0036712728819094983
600.0,0.0035610050905843463
