cm-1,A
4000.0,0.002190535157665284
3999.0,0.0021917661870718844
3998.0,0.0021919449493947273
3997.0,0.002193008570603996
3996.0,0.0021970270172809283
3995.0,0.002204446342825327
3994.0,0.0022123466013283886
3993.0,0.0022160104296736326
3992.0,0.0022123675512977165
3991.0,0.0022029626024526253
3990.0,0.0021932490725259024
3989.0,0.002188143623824237
3988.0,0.0021894427564582144
3987.0,0.00219573267175423
3986.0,0.002204422771446198
3985.0,0.002212976802761047
3984.0,0.002218739618409316
3983.0,0.002219819760917505
3982.0,0.002216385633648452
3981.0,0.002211298580737941
3980.0,0.002207644741868654
3979.0,0.002205903345385043
3978.0,0.0022038318536212716
3977.0,0.0021989567055105694
3976.0,0.0021914863861521444
3975.0,0.0021837145710459274
3974.0,0.002178120823745332
3973.0,0.0021758715478500685
3972.0,0.0021767572705218554
3971.0,0.002180799109811213
3970.0,0.002188358882694361
3969.0,0.0021993331904139124
3968.0,0.002211889073101293
3967.0,0.0022218143013744557
3966.0,0.002224448954114406
3965.0,0.002218109557595699
3964.0,0.002206338342913048
3963.0,0.0021952815822017056
3962.0,0.0021896740715016327
3961.0,0.002189586522149579
3960.0,0.0021906623434321737
3959.0,0.0021900992532916264
3958.0,0.002188564315990376
3957.0,0.0021882838424742796
3956.0,0.002190966583457494
3955.0,0.002195588687188655
3954.0,0.0022006725338175786
3953.0,0.0022059247594066788
3952.0,0.00221040570860167
3951.0,0.002212513455328042
3950.0,0.0022096402611597576
3949.0,0.002202530080525388
3948.0,0.0021961699686474465
3947.0,0.002194918553923956
3946.0,0.002201425114381878
3945.0,0.002211776092276299
3944.0,0.0022189546287706566
3943.0,0.0022215127781018643
3942.0,0.002222049280607417
3941.0,0.002225202912251368
3940.0,0.002230616918416241
3939.0,0.0022330267783026705
3938.0,0.002228802676110562
3937.0,0.0022182509736613874
3936.0,0.0022068541023368424
3935.0,0.0021993476041593345
3934.0,0.0021986910259001796
3933.0,0.0022047530641514093
3932.0,0.0022166683610060174
3931.0,0.002230824023937761
3930.0,0.002241013146615228
3929.0,0.0022474608524237737
3928.0,0.0022535959858692818
3927.0,0.002261949979428174
3926.0,0.002269102361857109
3925.0,0.0022700158349613156
3924.0,0.0022651716409278566
3923.0,0.0022567135840266296
3922.0,0.0022456194391615395
3921.0,0.0022291939387266415
3920.0,0.002207287007676046
3919.0,0.002188595387067052
3918.0,0.0021811864650108665
3917.0,0.002186289311050439
3916.0,0.002198155278629069
3915.0,0.0022099335408226287
3914.0,0.002219436890443102
3913.0,0.0022248620182004457
3912.0,0.002224853328154414
3911.0,0.002222123275900754
3910.0,0.002220145900273237
3909.0,0.0022208144776313067
3908.0,0.0022247434078045856
3907.0,0.0022291608220694134
3906.0,0.0022271546111200828
3905.0,0.002212738494244409
3904.0,0.002189160845155665
3903.0,0.002173063629971296
3902.0,0.0021789523123732606
3901.0,0.002201837632594489
3900.0,0.00222599739036391
3899.0,0.002239360451469996
3898.0,0.002240682906785709
3897.0,0.002236685894213667
3896.0,0.0022279551588658877
3895.0,0.0022146684683422586
3894.0,0.002203213213981511
3893.0,0.0021992498250484422
3892.0,0.0022017464657209437
3891.0,0.0022002885646214276
3890.0,0.0021888649936434353
3889.0,0.0021753354945432055
3888.0,0.0021691649877470633
3887.0,0.002169375602261738
3886.0,0.0021750652803926218
3885.0,0.002190416924425117
3884.0,0.002213830127118414
3883.0,0.002241280069890785
3882.0,0.0022634682501690385
3881.0,0.002268104867184602
3880.0,0.0022554802747812887
3879.0,0.002235555325945494
3878.0,0.002221207310054387
3877.0,0.002222057943895033
3876.0,0.002235049022365306
3875.0,0.002246431205140162
3874.0,0.0022450081379581984
3873.0,0.002232771184198723
3872.0,0.0022194837207127234
3871.0,0.002209916752978636
3870.0,0.0022029656677079647
3869.0,0.002199062505594586
3868.0,0.0022004931689952514
3867.0,0.002208212254281492
3866.0,0.0022147389550733606
3865.0,0.00221741592266584
3864.0,0.0022216735091749526
3863.0,0.002228139986982884
3862.0,0.0022283093189303105
3861.0,0.002218018749429909
3860.0,0.002204482001895291
3859.0,0.0021920578601485287
3858.0,0.0021808588402091687
3857.0,0.0021733985521233965
3856.0,0.002173675977361231
3855.0,0.0021853404853530373
3854.0,0.0021903876630108175
3853.0,0.002184401141449384
3852.0,0.0021856865895640626
3851.0,0.0021986399322297913
3850.0,0.0022138777279478673
3849.0,0.0022198462244503326
3848.0,0.0022150118721295103
3847.0,0.0022077585810744626
3846.0,0.0022045383620090267
3845.0,0.002210148265963229
3844.0,0.002223846029922264
3843.0,0.0022391662658327602
3842.0,0.0022507216063436
3841.0,0.002259534426674834
3840.0,0.0022700666652999187
3839.0,0.0022822034380297514
3838.0,0.0022922135471062904
3837.0,0.002294982271346258
3836.0,0.0022879587174210016
3835.0,0.0022768569054182775
3834.0,0.002266701736414454
3833.0,0.0022587693398958006
3832.0,0.0022524510537429996
3831.0,0.002247048286267766
3830.0,0.00224474620402312
3829.0,0.0022487538914717385
3828.0,0.002256122685603737
3827.0,0.00225616149899705
3826.0,0.002242066267476383
3825.0,0.002220346852585353
3824.0,0.002207552166064073
3823.0,0.0022161927125034534
3822.0,0.002237365653653357
3821.0,0.0022541181018854786
3820.0,0.002258797482311254
3819.0,0.0022601535471950757
3818.0,0.0022668006346609542
3817.0,0.0022715978630596075
3816.0,0.0022644473809809865
3815.0,0.002252422211201909
3814.0,0.002247003915352949
3813.0,0.0022467762608829045
3812.0,0.0022384482635797254
3811.0,0.002217395768914927
3810.0,0.0021973978345043357
3809.0,0.002192988797014671
3808.0,0.002202025811689311
3807.0,0.002208484898259527
3806.0,0.002205510148134039
3805.0,0.002206469708051435
3804.0,0.0022231039701463996
3803.0,0.0022521141720973177
3802.0,0.002280337764263397
3801.0,0.002296265784643238
3800.0,0.002299884319754199
3799.0,0.0022955735402336464
3798.0,0.002286364105300238
3797.0,0.0022719917874737443
3796.0,0.0022573272627258723
3795.0,0.002251082796391697
3794.0,0.0022531888950051687
3793.0,0.0022566705524269867
3792.0,0.002254817797700424
3791.0,0.002250283292426258
3790.0,0.002250823123126862
3789.0,0.0022589243238689237
3788.0,0.0022698739699451497
3787.0,0.0022769982690073465
3786.0,0.0022760213125165357
3785.0,0.002268910431201575
3784.0,0.0022618543052662114
3783.0,0.0022606009381990347
3782.0,0.0022684322216498954
3781.0,0.002281781038758139
3780.0,0.0022940852677136893
3779.0,0.0023010436356932975
3778.0,0.0023032458336350323
3777.0,0.00230302389969884
3776.0,0.002298907901290583
3775.0,0.002288037066974824
3774.0,0.0022739553210623558
3773.0,0.0022650848847354686
3772.0,0.0022652582166421678
3771.0,0.002269488417195399
3770.0,0.0022706393215446534
3769.0,0.002269285104678065
3768.0,0.002271440273683382
3767.0,0.0022774038606241673
3766.0,0.0022833097779682713
3765.0,0.002287492533371375
3764.0,0.0022912409267435594
3763.0,0.002297493981178753
3762.0,0.002303848943666759
3761.0,0.002303644455689766
3760.0,0.0022979005513648794
3759.0,0.0022926716688497113
3758.0,0.0022889869724151794
3757.0,0.002278973484323657
3756.0,0.0022635302387166408
3755.0,0.0022478818206749414
3754.0,0.0022323316641383838
3753.0,0.0022111254308841794
3752.0,0.002188162652300257
3751.0,0.0021775547958786433
3750.0,0.0021805879726668406
3749.0,0.0021869374478746184
3748.0,0.0021929974976483647
3747.0,0.002206447948292887
3746.0,0.0022263354663441693
3745.0,0.002244673785318822
3744.0,0.002257664389543978
3743.0,0.0022755611162042864
3742.0,0.0023004204130036435
3741.0,0.002318938553873145
3740.0,0.0023195839625418857
3739.0,0.0023100780627302057
3738.0,0.0023114369414732683
3737.0,0.0023264682748378356
3736.0,0.0023394313851493615
3735.0,0.0023349420100803285
3734.0,0.0023121244509099383
3733.0,0.002287356031046039
3732.0,0.0022794516455557643
3731.0,0.0022938823594084575
3730.0,0.002323383618333336
3729.0,0.0023556860821970504
3728.0,0.0023758128359526584
3727.0,0.0023763576922533154
3726.0,0.002365380892433479
3725.0,0.002357890779441046
3724.0,0.0023587604931908533
3723.0,0.0023609894016463143
3722.0,0.0023568214840057108
3721.0,0.0023459211265167337
3720.0,0.0023327310517680406
3719.0,0.0023209787391272026
3718.0,0.00231145853092725
3717.0,0.002303167386568686
3716.0,0.002298310636176632
3715.0,0.002301284331615904
3714.0,0.0023183968274224963
3713.0,0.002353959399014959
3712.0,0.002400110604367846
3711.0,0.0024367150792015914
3710.0,0.0024484236210342613
3709.0,0.0024395105709279557
3708.0,0.00242377509545357
3707.0,0.0024095891470332243
3706.0,0.0024003306817932763
3705.0,0.0023968890972664893
3704.0,0.002396073840865512
3703.0,0.0023926757875680467
3702.0,0.0023863178949280073
3701.0,0.0023833116989160005
3700.0,0.002387664678073739
3699.0,0.002396965737652153
3698.0,0.0024058343539145478
3697.0,0.0024129392395058624
3696.0,0.0024242716716358585
3695.0,0.0024439854801108505
3694.0,0.002464655289611102
3693.0,0.0024720686483382607
3692.0,0.0024577927021610536
3691.0,0.0024272070062735596
3690.0,0.002395347262067529
3689.0,0.002375998685264109
3688.0,0.0023749468243832875
3687.0,0.0023875356682341213
3686.0,0.0024080509017980175
3685.0,0.0024303667966330544
3684.0,0.0024469516323374343
3683.0,0.0024566601482120098
3682.0,0.0024649614374211027
3681.0,0.0024738541392941606
3680.0,0.002479658814438441
3679.0,0.0024838422410932417
3678.0,0.002493822046342145
3677.0,0.0025111316592270156
3676.0,0.002527080846244015
3675.0,0.002535952498528558
3674.0,0.00254209221560364
3673.0,0.0025558501508291124
3672.0,0.00257298854886491
3671.0,0.0025813779256985024
3670.0,0.0025817560206434593
3669.0,0.002586147385821535
3668.0,0.00259512130103125
3667.0,0.002607080471372158
3666.0,0.0026183179597343747
3665.0,0.0026296317423705907
3664.0,0.0026434651717291285
3663.0,0.002661007522033813
3662.0,0.0026786874225226366
3661.0,0.00269101484305009
3660.0,0.0026981300302009736
3659.0,0.0027061306697353602
3658.0,0.0027211437120893845
3657.0,0.0027417383700746156
3656.0,0.00276265785975757
3655.0,0.002783394722871934
3654.0,0.002806802059335629
3653.0,0.002834035082262247
3652.0,0.0028573355773062296
3651.0,0.0028743936581564124
3650.0,0.002898779383995473
3649.0,0.0029463454453759934
3648.0,0.003004885205774934
3647.0,0.0030532872960822525
3646.0,0.003083334315031756
3645.0,0.0031018953403121824
3644.0,0.0031174023776088695
3643.0,0.003135662899631881
3642.0,0.003161341119549772
3641.0,0.0031944254133167305
3640.0,0.003232877947578792
3639.0,0.0032726221084938365
3638.0,0.0033104359100545504
3637.0,0.003344586888460335
3636.0,0.0033722565645987936
3635.0,0.003389512945368267
3634.0,0.003395409350052991
3633.0,0.0033988112860452993
3632.0,0.0034125737987347636
3631.0,0.0034445005392267046
3630.0,0.0034858362770138034
3629.0,0.003520564793153459
3628.0,0.003542760233893677
3627.0,0.003559443195643517
3626.0,0.003581322200550161
3625.0,0.003604265733563816
3624.0,0.0036195813102469325
3623.0,0.0036277960933091295
3622.0,0.0036400896853564504
3621.0,0.0036661026622348573
3620.0,0.0037042166482159876
3619.0,0.003743892195114594
3618.0,0.003777056800097072
3617.0,0.0038055476962977307
3616.0,0.0038334124413033285
3615.0,0.003860413760260142
3614.0,0.003885453261934696
3613.0,0.003909829769288978
3612.0,0.003936582379333411
3611.0,0.003968844395609078
3610.0,0.004009554791827679
3609.0,0.004060895601659426
3608.0,0.00411888689337015
3607.0,0.0041745235517073745
3606.0,0.004219435804174784
3605.0,0.0042522795455566115
3604.0,0.00427864342873607
3603.0,0.004305290283624302
3602.0,0.004336588511022407
3601.0,0.0043706218903823355
3600.0,0.004400509087529532
3599.0,0.004423801565686747
3598.0,0.004446092029168881
3597.0,0.00447402579879283
3596.0,0.004507387447356068
3595.0,0.0045397976464230765
3594.0,0.004564462849630076
3593.0,0.004580986126298583
3592.0,0.004592531896184852
3591.0,0.004604000586028124
3590.0,0.004618410325560297
3589.0,0.004638176980077161
3588.0,0.0046683705010062415
3587.0,0.004709074406216714
3586.0,0.004749932249250497
3585.0,0.0047839224215391486
3584.0,0.004812282158805418
3583.0,0.0048384203977215896
3582.0,0.004864935461728526
3581.0,0.004893286830799216
3580.0,0.004923219061244348
3579.0,0.004956255579115042
3578.0,0.004995340987806908
3577.0,0.005040196547862466
3576.0,0.005084439000481476
3575.0,0.005122019783304475
3574.0,0.0051541219302530805
3573.0,0.005187324916516913
3572.0,0.005226330939410556
3571.0,0.005270331396308801
3570.0,0.005313037595489895
3569.0,0.005343626087473545
3568.0,0.005359947037730538
3567.0,0.005378509282209927
3566.0,0.005413976570350632
3565.0,0.005461856072990151
3564.0,0.005509475663289158
3563.0,0.005549267765294774
3562.0,0.00558251908776543
3561.0,0.005614804433956585
3560.0,0.005650164393284696
3559.0,0.0056882365802676076
3558.0,0.005726902716855668
3557.0,0.005764759456592088
3556.0,0.005800812284534726
3555.0,0.00583524653152211
3554.0,0.005870829632702924
3553.0,0.005910515155901994
3552.0,0.005952904558272326
3551.0,0.005993584854695493
3550.0,0.006030644420210845
3549.0,0.006064056787307363
3548.0,0.006094202393536119
3547.0,0.006125128718781056
3546.0,0.006164180984829579
3545.0,0.00621413290050492
3544.0,0.006267857407802661
3543.0,0.006316691031752315
3542.0,0.006358795125524185
3541.0,0.0063979201820023104
3540.0,0.0064380878128217234
3539.0,0.006479058308316774
3538.0,0.006517402569317243
3537.0,0.006550808793808122
3536.0,0.006581575715449968
3535.0,0.006615325947842057
3534.0,0.0066566134807413725
3533.0,0.006704770353192108
3532.0,0.006753825848646949
3531.0,0.006798220402317879
3530.0,0.006835664022616008
3529.0,0.006866789951207259
3528.0,0.006894357248740452
3527.0,0.0069235364822865
3526.0,0.006959335666027898
3525.0,0.007002334299620322
3524.0,0.007048617502587059
3523.0,0.0070945771901131
3522.0,0.007139934527557661
3521.0,0.007185182537258762
3520.0,0.007228947871092876
3519.0,0.00726898057091639
3518.0,0.007305322069468876
3517.0,0.007339641089887793
3516.0,0.007373007516891399
3515.0,0.007406609825284882
3514.0,0.007442871783692096
3513.0,0.007483413676314889
3512.0,0.007525447016740468
3511.0,0.00756406924294741
3510.0,0.007597704137570093
3509.0,0.0076299845909421765
3508.0,0.007665449969830372
3507.0,0.007705233344668308
3506.0,0.00774653294291929
3505.0,0.0077849075814112306
3504.0,0.007817951512082836
3503.0,0.007848513645400738
3502.0,0.007881581757226233
3501.0,0.007919185823362124
3500.0,0.007960637359508235
3499.0,0.008004751949044313
3498.0,0.00805016569469826
3497.0,0.008093950804739814
3496.0,0.008132366793770579
3495.0,0.00816537094994507
3494.0,0.008197912032914732
3493.0,0.008234156920407002
3492.0,0.008272922748163705
3491.0,0.008310673097321223
3490.0,0.00834678687948199
3489.0,0.008383168630957406
3488.0,0.008419140892548969
3487.0,0.008450324831824868
3486.0,0.008474387443347874
3485.0,0.008494988795201611
3484.0,0.008519166648326647
3483.0,0.008552029298165485
3482.0,0.008592925593328847
3481.0,0.008636829884266534
3480.0,0.00867899537728474
3479.0,0.008718020241398927
3478.0,0.00875469384494643
3477.0,0.008789778257909503
3476.0,0.008823865315715282
3475.0,0.00885848654113123
3474.0,0.008894485907518727
3473.0,0.008929170199881424
3472.0,0.008958664497399045
3471.0,0.00898333959467646
3470.0,0.009007791133036985
3469.0,0.009035191638671603
3468.0,0.00906462422933549
3467.0,0.009094928223298045
3466.0,0.009127744238678242
3465.0,0.009163675581178385
3464.0,0.009198755170421766
3463.0,0.009228341126043493
3462.0,0.009252620348966012
3461.0,0.009275578916874912
3460.0,0.009300425209078927
3459.0,0.009328878543638298
3458.0,0.009362437722778503
3457.0,0.009399848569873677
3456.0,0.009435634870738941
3455.0,0.009464983502434748
3454.0,0.009489218553053548
3453.0,0.00951402621266428
3452.0,0.009542772684999942
3451.0,0.009574898514065634
3450.0,0.0096077205908966
3449.0,0.009636924586916397
3448.0,0.00965808545901248
3447.0,0.009672203925162387
3446.0,0.009687317647763035
3445.0,0.009711049441886558
3444.0,0.009743229437693502
3443.0,0.009777507156163035
3442.0,0.009808649576107817
3441.0,0.009835653025544393
3440.0,0.009859980217835487
3439.0,0.009884614294707321
3438.0,0.00991333026404748
3437.0,0.009946710052500507
3436.0,0.009980176787324251
3435.0,0.010008450728217957
3434.0,0.010030669305107865
3433.0,0.010049778433114893
3432.0,0.010068630053704229
3431.0,0.01008989361687387
3430.0,0.01011593745194247
3429.0,0.010146028269865656
3428.0,0.010175772522669721
3427.0,0.010202091974706267
3426.0,0.010226691481215511
3425.0,0.010252319399625027
3424.0,0.010278489096188188
3423.0,0.010303015343029534
3422.0,0.010325360962681369
3421.0,0.0103458971489741
3420.0,0.010364414265486767
3419.0,0.01038220676789118
3418.0,0.010402715197014623
3417.0,0.010427551240202027
3416.0,0.010453967628619153
3415.0,0.010478353980469512
3414.0,0.010500018220172649
3413.0,0.010519938507815088
3412.0,0.010538653166206273
3411.0,0.010557144898466127
3410.0,0.01057692843925963
3409.0,0.010597370513762706
3408.0,0.01061578849251161
3407.0,0.010631971131621887
3406.0,0.010649714552348118
3405.0,0.010671574972538652
3404.0,0.010695390129233165
3403.0,0.010717875069934475
3402.0,0.010738603572397276
3401.0,0.010758095796771458
3400.0,0.01077486019337292
3399.0,0.010788020392852217
3398.0,0.010800451069767278
3397.0,0.010816248821030654
3396.0,0.010835809740454587
3395.0,0.010855311040954262
3394.0,0.010870334261540172
3393.0,0.010879316579635171
3392.0,0.010885522663885372
3391.0,0.010896170804914989
3390.0,0.010916676617519456
3389.0,0.010944097788441616
3388.0,0.010969303881066424
3387.0,0.010987187964022697
3386.0,0.011001799427308596
3385.0,0.011019204488749088
3384.0,0.01103923965162144
3383.0,0.011057895656024065
3382.0,0.011074100905991197
3381.0,0.011089700944846946
3380.0,0.01110471326741587
3379.0,0.011117353656748204
3378.0,0.011128034299087125
3377.0,0.011140241300057606
3376.0,0.011157272966195217
3375.0,0.011179919622736144
3374.0,0.011206312160121825
3373.0,0.011231986727207507
3372.0,0.01125171335689944
3371.0,0.011264085629695969
3370.0,0.011273985159771325
3369.0,0.011288250624767677
3368.0,0.01130933932270023
3367.0,0.011334301983625866
3366.0,0.011358586895403928
3365.0,0.011379152001583542
3364.0,0.011395653606552241
3363.0,0.011410723566791403
3362.0,0.011427795719514851
3361.0,0.011447050223875103
3360.0,0.011465138109350861
3359.0,0.011480156420881757
3358.0,0.011494303723487738
3357.0,0.01150975113052791
3356.0,0.011524753602386218
3355.0,0.011536614692333164
3354.0,0.011545956709576399
3353.0,0.011555144929587115
3352.0,0.011564798671537065
3351.0,0.01157483860514591
3350.0,0.011587132031046717
3349.0,0.011603810568807632
3348.0,0.011624270282531523
3347.0,0.011645802480039642
3346.0,0.01166572606187177
3345.0,0.011681045717190844
3344.0,0.011688968919055836
3343.0,0.011691365554891179
3342.0,0.011696273386728634
3341.0,0.011711200844989361
3340.0,0.011735321362255692
3339.0,0.011760805811653056
3338.0,0.011781021091444686
3337.0,0.011795264689800687
3336.0,0.011807003375614179
3335.0,0.01182029230204594
3334.0,0.011837186778873446
3333.0,0.011856123203708494
3332.0,0.011873031792348793
3331.0,0.01188531887499309
3330.0,0.011893935783203982
3329.0,0.011901298407160267
3328.0,0.011909671302195262
3327.0,0.011922065988074373
3326.0,0.011941078100022044
3325.0,0.01196452711454553
3324.0,0.011985353247832982
3323.0,0.011998752887536624
3322.0,0.012007049217082932
3321.0,0.01201577053128246
3320.0,0.012027978749393601
3319.0,0.012044480001906539
3318.0,0.012065411981343949
3317.0,0.01208813630423261
3316.0,0.012107229586528233
3315.0,0.012121055330340993
3314.0,0.012135596565644164
3313.0,0.012157527508790164
3312.0,0.012185412162497388
3311.0,0.012211773010340236
3310.0,0.012232054012058357
3309.0,0.012247432973299614
3308.0,0.01226048536616688
3307.0,0.012272697959286904
3306.0,0.012285709867531752
3305.0,0.012300968404611114
3304.0,0.012318119163634166
3303.0,0.012336104930335101
3302.0,0.012354879001310777
3301.0,0.012373703838906791
3300.0,0.012389885806688658
3299.0,0.012402431984875084
3298.0,0.01241490440323245
3297.0,0.012431002388585627
3296.0,0.012448567255579879
3295.0,0.0124619115600082
3294.0,0.012469022914593344
3293.0,0.012473020106293212
3292.0,0.012477323971715738
3291.0,0.012482788480395851
3290.0,0.012489149643284635
3289.0,0.0124961720169732
3288.0,0.01250313222349241
3287.0,0.012509053090010342
3286.0,0.012512814986542308
3285.0,0.012511903455063901
3284.0,0.012503201063345107
3283.0,0.012487501966945697
3282.0,0.012471237033314451
3281.0,0.01246039547491113
3280.0,0.012454148901919869
3279.0,0.012447176510068016
3278.0,0.012436974902738228
3277.0,0.01242580501314765
3276.0,0.01241646697428578
3275.0,0.012409344321130486
3274.0,0.012402803203592773
3273.0,0.012393636041130975
3272.0,0.012378038997424025
3271.0,0.012355105653662496
3270.0,0.01232874957766061
3269.0,0.012303739939199804
3268.0,0.012280342874105512
3267.0,0.012254929778375044
3266.0,0.012224898662178069
3265.0,0.012191095256725926
3264.0,0.012156224360733242
3263.0,0.012123000705369723
3262.0,0.012093029910861992
3261.0,0.012065401349270031
3260.0,0.012037271395490415
3259.0,0.01200705203133446
3258.0,0.011975956246626908
3257.0,0.011945028624755386
3256.0,0.01191313829042269
3255.0,0.011879930067898767
3254.0,0.011848066773471692
3253.0,0.011819268184755644
3252.0,0.011790338130506402
3251.0,0.011757154220077547
3250.0,0.011720895084194334
3249.0,0.01168675024358321
3248.0,0.011657111241579145
3247.0,0.011629577742169737
3246.0,0.011601538614357802
3245.0,0.011573523265693482
3244.0,0.011547672715976284
3243.0,0.011525503390134513
3242.0,0.01150735393376898
3241.0,0.011491736265604152
3240.0,0.011475110649275595
3239.0,0.011454286504524715
3238.0,0.01142929237079926
3237.0,0.011402583079309268
3236.0,0.011376563126534027
3235.0,0.01135335605233104
3234.0,0.011335382967785825
3233.0,0.011323240291405105
3232.0,0.011313570037543838
3231.0,0.011301823500806999
3230.0,0.011286606861894949
3229.0,0.011269426847108573
3228.0,0.011251247056272647
3227.0,0.0112320298544779
3226.0,0.011213242261539596
3225.0,0.011197948882533844
3224.0,0.01118773035926088
3223.0,0.01118105096061381
3222.0,0.011174658523896572
3221.0,0.011165658577061283
3220.0,0.011152793546290908
3219.0,0.011136980479497805
3218.0,0.01112044759606006
3217.0,0.011104489331100576
3216.0,0.011088929748148567
3215.0,0.01107393327330331
3214.0,0.011060470789539794
3213.0,0.011048013252166495
3212.0,0.011034239547624733
3211.0,0.011018650720367217
3210.0,0.011003835716444154
3209.0,0.010991228580700512
3208.0,0.010978319923472256
3207.0,0.010962539687085979
3206.0,0.010945394916204302
3205.0,0.0109298632904086
3204.0,0.010916031645432428
3203.0,0.010902414180092506
3202.0,0.01088935399550374
3201.0,0.010877407655984413
3200.0,0.010864322921986363
3199.0,0.010847207900003732
3198.0,0.010826526404150315
3197.0,0.010804412418445652
3196.0,0.010780951725439683
3195.0,0.01075591420546661
3194.0,0.010732285416451513
3193.0,0.010713146966404453
3192.0,0.010695691067983643
3191.0,0.010673129549290415
3190.0,0.010643181865536245
3189.0,0.010611115547698943
3188.0,0.010583119107163575
3187.0,0.010559835795489147
3186.0,0.010537587039178538
3185.0,0.01051313417247266
3184.0,0.01048591781416631
3183.0,0.010457046417134923
3182.0,0.010427498705076303
3181.0,0.010396861431992171
3180.0,0.01036445235369708
3179.0,0.010332093130082744
3178.0,0.010303770291421415
3177.0,0.010280883258960274
3176.0,0.010259684606920802
3175.0,0.010235432280821717
3174.0,0.010207320032594162
3173.0,0.010177288336858875
3172.0,0.010146319249910286
3171.0,0.010115024044758636
3170.0,0.010085890750859208
3169.0,0.010061284692658797
3168.0,0.010040002003874402
3167.0,0.010019023777205005
3166.0,0.00999747226587253
3165.0,0.009975624458415409
3164.0,0.009951787565889162
3163.0,0.009923964473049416
3162.0,0.009894008494145585
3161.0,0.0098661223145825
3160.0,0.009841365266246628
3159.0,0.009817175122691129
3158.0,0.009792115812310523
3157.0,0.009767422183573888
3156.0,0.009743734888601651
3155.0,0.009719625681441421
3154.0,0.009693741331362382
3153.0,0.009665933188888153
3152.0,0.009636528232256868
3151.0,0.009606914937350438
3150.0,0.00958038625608974
3149.0,0.009559524788869652
3148.0,0.0095426958730525
3147.0,0.009525729435116518
3146.0,0.009506712618880165
3145.0,0.009486414425677017
3144.0,0.009464674254929074
3143.0,0.009439727521539399
3142.0,0.009411646353098645
3141.0,0.009383686731639312
3140.0,0.009359078871755864
3139.0,0.00933827292983033
3138.0,0.009319993794197097
3137.0,0.009303182504243862
3136.0,0.009286890571033823
3135.0,0.009269819225626077
3134.0,0.009250960233451755
3133.0,0.009230049504524352
3132.0,0.009206998347001111
3131.0,0.00918170196252836
3130.0,0.00915457927915063
3129.0,0.009126784738319899
3128.0,0.00910003661640572
3127.0,0.009076310415748516
3126.0,0.009056350284419779
3125.0,0.009038210836175828
3124.0,0.009019007492119814
3123.0,0.008998621877279931
3122.0,0.008979354856778017
3121.0,0.008961163058259905
3120.0,0.008940940766324717
3119.0,0.008918187687132205
3118.0,0.008897646083960351
3117.0,0.00888340762514813
3116.0,0.008873106436257619
3115.0,0.008861385764825223
3114.0,0.008847210107545462
3113.0,0.008833689307169025
3112.0,0.008822101239165303
3111.0,0.008810246195448004
3110.0,0.008795843381202732
3109.0,0.00877896707707816
3108.0,0.008761836847518205
3107.0,0.008748527644458187
3106.0,0.008742730232649206
3105.0,0.008742938824451922
3104.0,0.008741822479244708
3103.0,0.008733338558605308
3102.0,0.008719054880551708
3101.0,0.00870518021928526
3100.0,0.008695317488080438
3099.0,0.008688673925394895
3098.0,0.00868329171490521
3097.0,0.008677390647868126
3096.0,0.008669601317881977
3095.0,0.008660584684107749
3094.0,0.008653117069426921
3093.0,0.008648402609263408
3092.0,0.008644268521166875
3091.0,0.008639068881363425
3090.0,0.008634285383429278
3089.0,0.008630624106313546
3088.0,0.008624404497579258
3087.0,0.008611899883947232
3086.0,0.008595259750167684
3085.0,0.008580161594092051
3084.0,0.008569773929943961
3083.0,0.008563961642405289
3082.0,0.008562107050085595
3081.0,0.00856252368294204
3080.0,0.008561037878252444
3079.0,0.008554897631506856
3078.0,0.008547072231487287
3077.0,0.008542869639125015
3076.0,0.00854323496277056
3075.0,0.008544877986296983
3074.0,0.008545481144580076
3073.0,0.008544347263638188
3072.0,0.008539431436210195
3071.0,0.008528506263648294
3070.0,0.008513439451080124
3069.0,0.008499440929461826
3068.0,0.008489478315880504
3067.0,0.008482449357041264
3066.0,0.008476300208764989
3065.0,0.008470080048617282
3064.0,0.008462757931743404
3063.0,0.008452981690890001
3062.0,0.008440657207233093
3061.0,0.008426831232172758
3060.0,0.008412239434295051
3059.0,0.008397162244328713
3058.0,0.008382346735351168
3057.0,0.008368527839580878
3056.0,0.008355898418596843
3055.0,0.0083448029939434
3054.0,0.008335041075044979
3053.0,0.008323533411115287
3052.0,0.008305381277695126
3051.0,0.008279791682543643
3050.0,0.008252639263815774
3049.0,0.008230389576331388
3048.0,0.008213126155305398
3047.0,0.008196671844413646
3046.0,0.008179081853990368
3045.0,0.008161640362144031
3044.0,0.008144853607013123
3043.0,0.008127602324301408
3042.0,0.008110331740626368
3041.0,0.008095180004663742
3040.0,0.008082425615050001
3039.0,0.008068947747424825
3038.0,0.008051376386248827
3037.0,0.008029451607205867
3036.0,0.008006443110319308
3035.0,0.007987150295704142
3034.0,0.007974641067378345
3033.0,0.007967728479981288
3032.0,0.007962101989851924
3031.0,0.007954754451187101
3030.0,0.007946270490042116
3029.0,0.007938084841995959
3028.0,0.007929854503272132
3027.0,0.007920859089383659
3026.0,0.007912182773302136
3025.0,0.007905094758236888
3024.0,0.007899447762821985
3023.0,0.007895260894539497
3022.0,0.0078938953716232
3021.0,0.007895499018651726
3020.0,0.007897691038603077
3019.0,0.007899213892517621
3018.0,0.007902400948330173
3017.0,0.007909310200794765
3016.0,0.00791776926733277
3015.0,0.007924833000736112
3014.0,0.00793205168531699
3013.0,0.007944038551038889
3012.0,0.007962331501970621
3011.0,0.007983948794545635
3010.0,0.008004914007073946
3009.0,0.008023074549952365
3008.0,0.008038290708518529
3007.0,0.008052461905075872
3006.0,0.008068966829046164
3005.0,0.00809051157083282
3004.0,0.008117602144251505
3003.0,0.008149713221483461
3002.0,0.008185903120214
3001.0,0.008224191754314446
3000.0,0.008263494630201262
2999.0,0.008307509226816563
2998.0,0.008363581364491465
2997.0,0.008435086048194516
2996.0,0.008518005133377835
2995.0,0.008607473141428528
2994.0,0.008704841355131353
2993.0,0.008815593216713666
2992.0,0.008942684775563692
2991.0,0.00908590348956987
2990.0,0.009245338102219
2989.0,0.009421885111504895
2988.0,0.009615375941110707
2987.0,0.00982601201986418
2986.0,0.010057376827297071
2985.0,0.01031559047009116
2984.0,0.010606441019279945
2983.0,0.010935358654675362
2982.0,0.011308786001145248
2981.0,0.01173300769152355
2980.0,0.012213167287728146
2979.0,0.012755781862822365
2978.0,0.013371122507266535
2977.0,0.014071336685757881
2976.0,0.014868203271309118
2975.0,0.015774064034931496
2974.0,0.016802844759715444
2973.0,0.017967683742904247
2972.0,0.019278087063743187
2971.0,0.020741075725620266
2970.0,0.022362306419992588
2969.0,0.02414321343678433
2968.0,0.02607754733625408
2967.0,0.02815002496130872
2966.0,0.030332310139374846
2965.0,0.03257210569832569
2964.0,0.034785986737605586
2963.0,0.03686603605171792
2962.0,0.03869703917887568
2961.0,0.0401863608887479
2960.0,0.04129617821086067
2959.0,0.04206435668795793
2958.0,0.042598934955339215
2957.0,0.043046122414149006
2956.0,0.043547134971655244
2955.0,0.044194488215793595
2954.0,0.04499763992953363
2953.0,0.0458664588228696
2952.0,0.04662197689308057
2951.0,0.04704106922444403
2950.0,0.04691602907361888
2949.0,0.04610689765283513
2948.0,0.04458548890190522
2947.0,0.04244679192222297
2946.0,0.03988980977822961
2945.0,0.037166678061299654
2944.0,0.0345271344578805
2943.0,0.03217538725117109
2942.0,0.03024513399528518
2941.0,0.02879876181124961
2940.0,0.02783904027209737
2939.0,0.027335878145536573
2938.0,0.027248935512791672
2937.0,0.027534519823634234
2936.0,0.0281487151729762
2935.0,0.029052742754215113
2934.0,0.030214375194109418
2933.0,0.03160197136562577
2932.0,0.03317604035440394
2931.0,0.034887743796672976
2930.0,0.03668217458502276
2929.0,0.038499860129777234
2928.0,0.04028197778906856
2927.0,0.04198233747164961
2926.0,0.04357867142602052
2925.0,0.04507525133203307
2924.0,0.046497667550180276
2923.0,0.04787583874240255
2922.0,0.04921866374451032
2921.0,0.050484646457326435
2920.0,0.05157397785430757
2919.0,0.05234746104266489
2918.0,0.052673256961469045
2917.0,0.05247724764091585
2916.0,0.051778027908625346
2915.0,0.05068551075259065
2914.0,0.049359879002063074
2913.0,0.04796488153103898
2912.0,0.04662940577342394
2911.0,0.045428387862470984
2910.0,0.04437777414933307
2909.0,0.043444157293378007
2908.0,0.042566021107233606
2907.0,0.041680480774256116
2906.0,0.04074208460136507
2905.0,0.03972806048811366
2904.0,0.03863729264183685
2903.0,0.03748479389638184
2902.0,0.036294855155783665
2901.0,0.035093947603608414
2900.0,0.03390555787225035
2899.0,0.032754007525800495
2898.0,0.03166528638312562
2897.0,0.030663710795131506
2896.0,0.029767335419894653
2895.0,0.02898816391493434
2894.0,0.02833388254326641
2893.0,0.027807437829073207
2892.0,0.027405519534899444
2891.0,0.027119568493327126
2890.0,0.026938532190942607
2889.0,0.026849021569602966
2888.0,0.026836241375627252
2887.0,0.02688843362469856
2886.0,0.027001503576835673
2885.0,0.027178236709398375
2884.0,0.02742333357992089
2883.0,0.02773666674266859
2882.0,0.02810678985947286
2881.0,0.028503250983150444
2880.0,0.028876503079654843
2879.0,0.029166439940689556
2878.0,0.02932239980581685
2877.0,0.02932457402891135
2876.0,0.029201027458443087
2875.0,0.029025014602071963
2874.0,0.028889224755846214
2873.0,0.028869701887828874
2872.0,0.028999425263287328
2871.0,0.029262981181631943
2870.0,0.02960350996019627
2869.0,0.029924898704710517
2868.0,0.030096107138481674
2867.0,0.02997045265137467
2866.0,0.029423527220544893
2865.0,0.028402250029933778
2864.0,0.026957312020951085
2863.0,0.02523639447014419
2862.0,0.023433689951460997
2861.0,0.021726258305323976
2860.0,0.020231214187978547
2859.0,0.0190010435163874
2858.0,0.018043353407080083
2857.0,0.01733912571733358
2856.0,0.016855788157202862
2855.0,0.016559714578478085
2854.0,0.016426292292740025
2853.0,0.016442179237458634
2852.0,0.016602725302121348
2851.0,0.01691056993944184
2850.0,0.017374671483296265
2849.0,0.018004498265733155
2848.0,0.018804488091650487
2847.0,0.019773717375382815
2846.0,0.020907401454529437
2845.0,0.02219174665869963
2844.0,0.023596447071588096
2843.0,0.025066832214996785
2842.0,0.026520166947261725
2841.0,0.02784365882343603
2840.0,0.02890503738972785
2839.0,0.029571282828649438
2838.0,0.02973200433935557
2837.0,0.02932048487653725
2836.0,0.02833750730263059
2835.0,0.02686668334479477
2834.0,0.025066710134554516
2833.0,0.02313265859724897
2832.0,0.021242555826596614
2831.0,0.019520564279878614
2830.0,0.01802828508717834
2829.0,0.016775424912856586
2828.0,0.01573993983883253
2827.0,0.014884888452633704
2826.0,0.014174016433316176
2825.0,0.013576417651478528
2824.0,0.013066575140837837
2823.0,0.012624037694105696
2822.0,0.01223524585305307
2821.0,0.011892109605189213
2820.0,0.011589010485525771
2819.0,0.011320610413566108
2818.0,0.011082199263226325
2817.0,0.010868995384901645
2816.0,0.010675934833609948
2815.0,0.010498833002265302
2814.0,0.010335286739883407
2813.0,0.010182852908730307
2812.0,0.01003804131712773
2811.0,0.009897827235029645
2810.0,0.009760558210318014
2809.0,0.009623693179744687
2808.0,0.009483134803752187
2807.0,0.009336654871172488
2806.0,0.009186021854497997
2805.0,0.009033826064744592
2804.0,0.008881081312633208
2803.0,0.008730243902308012
2802.0,0.008588018298214982
2801.0,0.00846131375647852
2800.0,0.008352193700687703
2799.0,0.008258871864992818
2798.0,0.008179186249858923
2797.0,0.008109931683690138
2796.0,0.008044659532520284
2795.0,0.007976408561288728
2794.0,0.00790164376075765
2793.0,0.007819469384476403
2792.0,0.007729063624579004
2791.0,0.007631203607040565
2790.0,0.007530664240945518
2789.0,0.00743327380708219
2788.0,0.007341451027374185
2787.0,0.0072545014730619455
2786.0,0.007171253420226556
2785.0,0.007089988191490445
2784.0,0.007008195467336461
2783.0,0.006926160070818562
2782.0,0.006848837798017742
2781.0,0.006780537769707596
2780.0,0.006719553635828228
2779.0,0.006661358815153074
2778.0,0.006604800402991993
2777.0,0.006551495990753569
2776.0,0.006501535701807483
2775.0,0.00645447813377454
2774.0,0.00641306920475212
2773.0,0.00638089968755985
2772.0,0.00635650427715133
2771.0,0.00633392795905042
2770.0,0.006309053286761058
2769.0,0.006281716741180126
2768.0,0.00625253751246533
2767.0,0.006221524803819286
2766.0,0.0061898547130213935
2765.0,0.0061595616318998025
2764.0,0.006131126994028471
2763.0,0.006103770415381951
2762.0,0.006077553221112805
2761.0,0.006052545556412402
2760.0,0.006026927946007329
2759.0,0.005998926487578228
2758.0,0.0059698696815966975
2757.0,0.005942643917816348
2756.0,0.005918041802228937
2755.0,0.005895010735233113
2754.0,0.00587306834678853
2753.0,0.005851685357514413
2752.0,0.00582917446640169
2751.0,0.005805907369713021
2750.0,0.0057871661661136956
2749.0,0.005778579185331331
2748.0,0.005778948619050737
2747.0,0.005781018734278406
2746.0,0.005779389739551468
2745.0,0.005774579357343642
2744.0,0.005770361015200002
2743.0,0.0057703875206219874
2742.0,0.0057769127029782845
2741.0,0.005789302718929456
2740.0,0.005803668622536101
2739.0,0.005816498728439482
2738.0,0.005828429163253212
2737.0,0.005842447697268027
2736.0,0.005859522898785045
2735.0,0.005878335358087866
2734.0,0.0058982021177756945
2733.0,0.005919403452401723
2732.0,0.005941810040366689
2731.0,0.005966219314829132
2730.0,0.005996173522354057
2729.0,0.006035176391007347
2728.0,0.006082433862730024
2727.0,0.0061332280255228236
2726.0,0.006182128148684667
2725.0,0.006223167080705154
2724.0,0.006248569827614696
2723.0,0.006251416600971404
2722.0,0.00623029524743857
2721.0,0.006189090873489813
2720.0,0.0061325742915757766
2719.0,0.006064458213324482
2718.0,0.005988891319697085
2717.0,0.005910793551594331
2716.0,0.0058346629984236155
2715.0,0.0057642948182816635
2714.0,0.00570245909272781
2713.0,0.005648983643855255
2712.0,0.005600237846375648
2711.0,0.0055530055723727045
2710.0,0.00550810172024727
2709.0,0.0054681083077977675
2708.0,0.005432826586115026
2707.0,0.005399362851334605
2706.0,0.005365586889653634
2705.0,0.005331377141857948
2704.0,0.005297538743219536
2703.0,0.005265472433029309
2702.0,0.005236660339147829
2701.0,0.005210598081291238
2700.0,0.00518492597013197
2699.0,0.005159532065793862
2698.0,0.0051383432761944485
2697.0,0.005124323054981341
2696.0,0.005114778159608625
2695.0,0.005104511710017074
2694.0,0.005092271752459758
2693.0,0.005080842286743327
2692.0,0.00507212583845859
2691.0,0.005065030033283652
2690.0,0.005057480505601949
2689.0,0.0050481159597191815
2688.0,0.005036872272946566
2687.0,0.005025762971046214
2686.0,0.005017844128596736
2685.0,0.005013584235077621
2684.0,0.005009771029362293
2683.0,0.00500366923989229
2682.0,0.0049960674110527
2681.0,0.004988605269600064
2680.0,0.004980593548069413
2679.0,0.0049710003524458335
2678.0,0.004960966965882653
2677.0,0.004951761121526437
2676.0,0.004942463420770096
2675.0,0.004932196270137061
2674.0,0.004922229267148349
2673.0,0.00491334513330888
2672.0,0.004903779452176824
2671.0,0.004892625531483233
2670.0,0.004882565731227782
2669.0,0.004876444516511437
2668.0,0.004873902380289209
2667.0,0.004874569762163957
2666.0,0.00488130949208653
2665.0,0.004896219192522613
2664.0,0.004916111051179319
2663.0,0.004936102139263749
2662.0,0.00495529485565174
2661.0,0.004974740742850863
2660.0,0.004992058086042762
2659.0,0.005003093239824834
2658.0,0.005007879264682157
2657.0,0.005010484362317867
2656.0,0.005013335920293289
2655.0,0.005015330149576895
2654.0,0.005014746585638825
2653.0,0.005011025773549345
2652.0,0.005004534604405764
2651.0,0.004997324303757509
2650.0,0.004992521676634424
2649.0,0.004990341979258156
2648.0,0.004986939718973997
2647.0,0.004980190038089244
2646.0,0.00497369969981778
2645.0,0.0049714296666752535
2644.0,0.0049713285378874175
2643.0,0.004968689156987135
2642.0,0.004963127969437681
2641.0,0.004957397490874606
2640.0,0.004951701363734399
2639.0,0.004944402428094637
2638.0,0.0049365724853307055
2637.0,0.004931004577009239
2636.0,0.0049283356682542166
2635.0,0.004928473969958793
2634.0,0.004933512189530508
2633.0,0.004944369197671719
2632.0,0.0049567500802248895
2631.0,0.004965581160902199
2630.0,0.004971233134175634
2629.0,0.00497661375083839
2628.0,0.004981219518121269
2627.0,0.004984050149264845
2626.0,0.004989203790846521
2625.0,0.005001248994724768
2624.0,0.005016537909952017
2623.0,0.005026598177601434
2622.0,0.005029317512740435
2621.0,0.0050303227093319814
2620.0,0.005033791617169749
2619.0,0.005038252819850602
2618.0,0.005041361885328538
2617.0,0.005042750225265956
2616.0,0.005042086775331285
2615.0,0.0050393382805750085
2614.0,0.005036335048588771
2613.0,0.005033315381467384
2612.0,0.005025690915890822
2611.0,0.0050098519063202515
2610.0,0.004990148987124131
2609.0,0.004973765953747258
2608.0,0.004959992691681525
2607.0,0.0049418781783578496
2606.0,0.004917669194285377
2605.0,0.004893504074975257
2604.0,0.0048747521468672506
2603.0,0.004861389844858474
2602.0,0.004852375642015532
2601.0,0.004847923885655416
2600.0,0.0048461145251418175
2599.0,0.004842925000078395
2598.0,0.0048369769496933715
2597.0,0.004830376551799167
2596.0,0.0048248367333246
2595.0,0.0048209357889662414
2594.0,0.004820585987086921
2593.0,0.0048259317742735085
2592.0,0.004836358501742977
2591.0,0.004850097663260218
2590.0,0.004866994953107624
2589.0,0.004886049985447699
2588.0,0.004903056515429374
2587.0,0.0049153836183077875
2586.0,0.004925815356101736
2585.0,0.0049366060363403245
2584.0,0.004943605956267989
2583.0,0.004942521271344905
2582.0,0.004937250193220069
2581.0,0.004934407063963744
2580.0,0.004932206247809117
2579.0,0.004922705467642362
2578.0,0.004903009509844561
2577.0,0.004876929377213361
2576.0,0.004847540716273492
2575.0,0.004816018031922999
2574.0,0.004786625356515219
2573.0,0.004764468214976957
2572.0,0.0047480449383687125
2571.0,0.00473103624235477
2570.0,0.004711471083825555
2569.0,0.004692960926835719
2568.0,0.004677851704082425
2567.0,0.004665561399552624
2566.0,0.004656621131989349
2565.0,0.004651700162597473
2564.0,0.004647579442313123
2563.0,0.004640816418111954
2562.0,0.004634496745905206
2561.0,0.00463445409772192
2560.0,0.004639440821451451
2559.0,0.004641872738506688
2558.0,0.004638194386362043
2557.0,0.004632148316258853
2556.0,0.004627939535320902
2555.0,0.004625900462947314
2554.0,0.004624797303563037
2553.0,0.004623293001576951
2552.0,0.004619486695964775
2551.0,0.004613351401950625
2550.0,0.0046082305184212986
2549.0,0.004605886401611934
2548.0,0.004602911871834237
2547.0,0.0045967225839692065
2546.0,0.0045911669610802725
2545.0,0.004590131872063711
2544.0,0.004589597713126378
2543.0,0.00458332022097647
2542.0,0.004573242033979601
2541.0,0.004566733884515804
2540.0,0.004566127429114259
2539.0,0.00456863237549917
2538.0,0.00457359127975704
2537.0,0.0045814154219655364
2536.0,0.0045878317648437705
2535.0,0.004588011646523209
2534.0,0.004585007581078087
2533.0,0.00458576400515689
2532.0,0.004589942804668335
2531.0,0.0045910783528583425
2530.0,0.00458776687168899
2529.0,0.004585084838896696
2528.0,0.004585137970497085
2527.0,0.004584396485965616
2526.0,0.004581113330055004
2525.0,0.004578005845060076
2524.0,0.004576521349483689
2523.0,0.004574674325948854
2522.0,0.0045710957273658506
2521.0,0.004565701695306627
2520.0,0.004556596905154432
2519.0,0.0045417401721812535
2518.0,0.004523284506030998
2517.0,0.0045054476638556945
2516.0,0.004489163442963561
2515.0,0.004473343206876724
2514.0,0.004458908439009177
2513.0,0.0044461142559400774
2512.0,0.004430871501835141
2511.0,0.004410126946318331
2510.0,0.004388314043407595
2509.0,0.00437206470924303
2508.0,0.00436115490142684
2507.0,0.004351384999194702
2506.0,0.004343250294411277
2505.0,0.004339671316856553
2504.0,0.004337436253117327
2503.0,0.004329589587732304
2502.0,0.004315405013116898
2501.0,0.004300278163030047
2500.0,0.004286673213163603
2499.0,0.004272642313682952
2498.0,0.004258522679889948
2497.0,0.004247319289485272
2496.0,0.0042385412364640065
2495.0,0.004228120106031577
2494.0,0.004214407078168927
2493.0,0.004198558038748762
2492.0,0.004180029420969336
2491.0,0.004157707476193055
2490.0,0.004134296254874847
2489.0,0.004113594135852357
2488.0,0.004094777202396196
2487.0,0.004075042090864011
2486.0,0.004055643709305207
2485.0,0.004038949584603467
2484.0,0.004021906880338945
2483.0,0.003999467822345756
2482.0,0.003972720003871124
2481.0,0.003946995408013604
2480.0,0.003923906897202956
2479.0,0.0039019809840466395
2478.0,0.0038827746627843962
2477.0,0.0038687368688736998
2476.0,0.003856733923768383
2475.0,0.003841393663447705
2474.0,0.003823466356657066
2473.0,0.003807301247736125
2472.0,0.003791601030748208
2471.0,0.003770982449048517
2470.0,0.003746146957880553
2469.0,0.003724478767963832
2468.0,0.0037101786665651405
2467.0,0.0037007021858019287
2466.0,0.00369310340923564
2465.0,0.0036873285450914686
2464.0,0.0036829511445320706
2463.0,0.0036785507393279175
2462.0,0.003674581932580581
2461.0,0.0036720785633776367
2460.0,0.003669441143019667
2459.0,0.003665257670865169
2458.0,0.003662373611854221
2457.0,0.0036637621069960068
2456.0,0.0036664868820478905
2455.0,0.0036655106644918377
2454.0,0.0036612305089923636
2453.0,0.0036571307056753174
2452.0,0.003652276270642822
2451.0,0.003642754693374873
2450.0,0.0036287643641211816
2449.0,0.0036139827453666746
2448.0,0.003599916487061406
2447.0,0.00358702249905988
2446.0,0.0035786041156063058
2445.0,0.003576373214895614
2444.0,0.003574431536285517
2443.0,0.0035649948742736493
2442.0,0.0035482919724453546
2441.0,0.00353015198861952
2440.0,0.0035126757208382145
2439.0,0.0034952541844000384
2438.0,0.003482333855578797
2437.0,0.0034807081880334784
2436.0,0.0034889696541449975
2435.0,0.003497305867036513
2434.0,0.0034980373890240732
2433.0,0.0034902959316075463
2432.0,0.00347574541977818
2431.0,0.0034571489996431193
2430.0,0.003440696196484784
2429.0,0.0034320627905672
2428.0,0.0034289061268612817
2427.0,0.003422794240198275
2426.0,0.003409129679517583
2425.0,0.0033908655613251668
2424.0,0.0033732785737129144
2423.0,0.003359516995618087
2422.0,0.0033499129907306564
2421.0,0.003341086382791662
2420.0,0.003327454517155908
2419.0,0.0033079938581285478
2418.0,0.003289142766073258
2417.0,0.0032769211167010077
2416.0,0.0032695455593900295
2415.0,0.0032623613602796404
2414.0,0.0032558953430898386
2413.0,0.003253238983453764
2412.0,0.003253259315300022
2411.0,0.0032524460601820243
2410.0,0.003249691380748706
2409.0,0.003243061910274234
2408.0,0.0032264598339098094
2407.0,0.0031976019052993142
2406.0,0.003165902400705466
2405.0,0.0031440304511708905
2404.0,0.0031338725692849987
2403.0,0.003127922519236494
2402.0,0.0031212839145593908
2401.0,0.003114474837362876
2400.0,0.003106990473145857
2399.0,0.0030966661914222883
2398.0,0.0030847636935214503
2397.0,0.0030746791757041174
2396.0,0.0030661802047566283
2395.0,0.0030569348881251653
2394.0,0.0030483129167264136
2393.0,0.0030435979952336415
2392.0,0.0030423109506428304
2391.0,0.003042157826797328
2390.0,0.0030446843780061227
2389.0,0.0030532658335503237
2388.0,0.0030674484038564973
2387.0,0.0030847327651201935
2386.0,0.0031049648262579535
2385.0,0.0031259773232977265
2384.0,0.0031366672948362857
2383.0,0.00312147745386542
2382.0,0.0030714989889791856
2381.0,0.002986763274994744
2380.0,0.002871673516874772
2379.0,0.002738527638170515
2378.0,0.0026146764715997586
2377.0,0.0025324954737726843
2376.0,0.0025071983086463845
2375.0,0.0025312657195846675
2374.0,0.0025879506079227858
2373.0,0.0026575076907740807
2372.0,0.002713015636668182
2371.0,0.0027338811981816053
2370.0,0.0027296544766945295
2369.0,0.0027287798694537123
2368.0,0.002738714708923299
2367.0,0.0027405540950062603
2366.0,0.0027233499063975546
2365.0,0.002696843244634299
2364.0,0.002672091733275868
2363.0,0.0026600001875784797
2362.0,0.0026746423181127966
2361.0,0.0027082962469871436
2360.0,0.002728327192627235
2359.0,0.002717321395495061
2358.0,0.002684694855882036
2357.0,0.0026350859911927625
2356.0,0.00256337565074715
2355.0,0.002487410306314486
2354.0,0.002419456266557017
2353.0,0.0023605110073365004
2352.0,0.002338172629532085
2351.0,0.0023950352921258745
2350.0,0.002519942246397444
2349.0,0.0026389097209218192
2348.0,0.0026878475544334247
2347.0,0.0026666344526548777
2346.0,0.0026425369777349317
2345.0,0.0026840412148514538
2344.0,0.0027756754145066907
2343.0,0.002849986595407776
2342.0,0.0028458691030120026
2341.0,0.002765920069594484
2340.0,0.002668302837658493
2339.0,0.002606876012325585
2338.0,0.0025929096035651584
2337.0,0.002599911728861828
2336.0,0.0026040910256104237
2335.0,0.0025927846703090677
2334.0,0.002564932234746855
2333.0,0.0025213097100127858
2332.0,0.0024859331178203902
2331.0,0.0024877407397656693
2330.0,0.0025579917956245345
2329.0,0.0026919786381714916
2328.0,0.0028723299008543424
2327.0,0.003068703798000039
2326.0,0.003250515739576073
2325.0,0.0033760098683890526
2324.0,0.0034056431561243815
2323.0,0.003338245423818491
2322.0,0.0032254329354361186
2321.0,0.0031343151817661095
2320.0,0.0030966815799784667
2319.0,0.0030987503851014056
2318.0,0.003119594395519504
2317.0,0.0031370812582795825
2316.0,0.0031396367028679786
2315.0,0.0031228074351862846
2314.0,0.003108399209175627
2313.0,0.003114588206863362
2312.0,0.0031458786243146438
2311.0,0.0031842840736558357
2310.0,0.0032189212465637707
2309.0,0.0032411129387323557
2308.0,0.003246352746743923
2307.0,0.003233249021558358
2306.0,0.0032190738264076682
2305.0,0.0032226072647406232
2304.0,0.0032486956416389497
2303.0,0.0032841361720933777
2302.0,0.0033197022836501935
2301.0,0.0033511610099162224
2300.0,0.0033774759136306395
2299.0,0.0033956008404464324
2298.0,0.003411712214930529
2297.0,0.0034302012942685877
2296.0,0.003447783621925173
2295.0,0.003455217263201583
2294.0,0.003455139509497933
2293.0,0.0034578477121152053
2292.0,0.0034688671089605745
2291.0,0.003485421253537145
2290.0,0.0035065110599471266
2289.0,0.0035336529626009095
2288.0,0.003561791949262305
2287.0,0.003580634383598214
2286.0,0.003584085386331976
2285.0,0.00357305025298979
2284.0,0.0035492288213765004
2283.0,0.003517419335389932
2282.0,0.003488840055924666
2281.0,0.003472688249237651
2280.0,0.0034647950404927998
2279.0,0.003455864929000683
2278.0,0.003446130298475036
2277.0,0.0034407667416051875
2276.0,0.0034363905331491794
2275.0,0.0034255815289100464
2274.0,0.0034118911453820573
2273.0,0.0034044573281589606
2272.0,0.003402507155552072
2271.0,0.0033976162721388115
2270.0,0.003388482535439076
2269.0,0.0033782266216691188
2268.0,0.0033629980377991413
2267.0,0.003338820187936132
2266.0,0.003315375190002855
2265.0,0.003305576830228748
2264.0,0.003306174810980658
2263.0,0.003306267659412776
2262.0,0.0033101167939413745
2261.0,0.003331601703873463
2260.0,0.003367876752198776
2259.0,0.0033985449606977435
2258.0,0.0034099085345148097
2257.0,0.003403256320838147
2256.0,0.0033812886942690126
2255.0,0.0033456108775524315
2254.0,0.003307736769765512
2253.0,0.0032831308356665425
2252.0,0.0032737895998350445
2251.0,0.0032708486791697853
2250.0,0.0032734101171270416
2249.0,0.0032867903438164653
2248.0,0.0033048074434856266
2247.0,0.003313744307251996
2246.0,0.003311768809834503
2245.0,0.003309344506478608
2244.0,0.0033113111398133657
2243.0,0.003315079471496181
2242.0,0.0033234175660328295
2241.0,0.0033401378453304428
2240.0,0.003355359234513547
2239.0,0.0033542958193500862
2238.0,0.0033396669488699304
2237.0,0.0033279905437462124
2236.0,0.0033251840018540682
2235.0,0.0033234820380838685
2234.0,0.003320186990656549
2233.0,0.0033207101545905966
2232.0,0.0033248624084500703
2231.0,0.003328097062822581
2230.0,0.0033334884187712303
2229.0,0.00334464320143423
2228.0,0.003351645124736448
2227.0,0.003343663700840202
2226.0,0.0033300548686438294
2225.0,0.003328117050556215
2224.0,0.0033350645104921074
2223.0,0.0033349270998039695
2222.0,0.0033284202560531443
2221.0,0.0033309225443452816
2220.0,0.003342837630456616
2219.0,0.0033474482974545604
2218.0,0.0033388373600692096
2217.0,0.0033288806284348304
2216.0,0.003326083823347881
2215.0,0.0033284667929279303
2214.0,0.003336972596518356
2213.0,0.003354158301869913
2212.0,0.003370136451877989
2211.0,0.0033707919224361827
2210.0,0.003358950985977378
2209.0,0.0033488483841692977
2208.0,0.0033431670816894627
2207.0,0.0033359886655602916
2206.0,0.003333262332219233
2205.0,0.003346584677425396
2204.0,0.0033693323995008916
2203.0,0.0033829846878570304
2202.0,0.003385751478365468
2201.0,0.0033923593955082878
2200.0,0.0034080224097524136
2199.0,0.0034241623901664926
2198.0,0.0034372574247971506
2197.0,0.0034509219413824104
2196.0,0.0034623406941969442
2195.0,0.003467139583486432
2194.0,0.0034734847200065117
2193.0,0.003491159769632278
2192.0,0.003513131352891998
2191.0,0.003529136646742129
2190.0,0.0035480681087307377
2189.0,0.00358209738547304
2188.0,0.0036177152870367976
2187.0,0.0036298104593590567
2186.0,0.0036167661391626185
2185.0,0.0035936664375498042
2184.0,0.0035578533699000816
2183.0,0.0034946550236128315
2182.0,0.003416637377249658
2181.0,0.003364213982610208
2180.0,0.0033610229110015225
2179.0,0.0033915741189024812
2178.0,0.0034222143385533588
2177.0,0.0034239274171950444
2176.0,0.003384681107404402
2175.0,0.003324974504967248
2174.0,0.0032933362164124817
2173.0,0.0033227577075008417
2172.0,0.0033987129047477645
2171.0,0.0034892755895594768
2170.0,0.0035883846160415745
2169.0,0.0037032889252895836
2168.0,0.0038169987133244683
2167.0,0.003895482305646565
2166.0,0.003928049630666839
2165.0,0.0039370376006871485
2164.0,0.0039518727873534545
2163.0,0.0039848201855432214
2162.0,0.004006312098820431
2161.0,0.003923409946883769
2160.0,0.003630293444206397
2159.0,0.003146020681436012
2158.0,0.0026651445366256315
2157.0,0.002386388586881765
2156.0,0.002328006043555376
2155.0,0.002377030038024947
2154.0,0.0024491321063508592
2153.0,0.0025286247515653934
2152.0,0.002609254611512859
2151.0,0.002670572527926449
2150.0,0.0027047396349516514
2149.0,0.0027192093064811206
2148.0,0.0027136676925150214
2147.0,0.002686345234415422
2146.0,0.002655884756536619
2145.0,0.0026457618451495787
2144.0,0.0026539022550307522
2143.0,0.002663683227845751
2142.0,0.002672798329096243
2141.0,0.0026856341033265965
2140.0,0.002692309013528848
2139.0,0.002681509649242221
2138.0,0.002658573248728168
2137.0,0.002625498214965404
2136.0,0.0025624320065546933
2135.0,0.0024605323794558787
2134.0,0.002357784188784887
2133.0,0.002307243917786814
2132.0,0.0023206627577490838
2131.0,0.0023701750249955477
2130.0,0.00243160414845158
2129.0,0.00249506671662655
2128.0,0.002548347665407879
2127.0,0.002581371315369967
2126.0,0.002603634339569219
2125.0,0.0026325676967816347
2124.0,0.002667720611786798
2123.0,0.002695521349562236
2122.0,0.002713462016627955
2121.0,0.0027299555370417354
2120.0,0.0027475796536606868
2119.0,0.002766658865223501
2118.0,0.0027980553889534673
2117.0,0.0028504008944389664
2116.0,0.0029095123197261656
2115.0,0.002950684548136399
2114.0,0.00296780843994095
2113.0,0.0029724736728654034
2112.0,0.0029713391528031347
2111.0,0.0029639015886665566
2110.0,0.002956671938512358
2109.0,0.0029578824619542502
2108.0,0.0029622700600369753
2107.0,0.0029605479641502505
2106.0,0.002958590192676384
2105.0,0.0029675458052812976
2104.0,0.0029816586144312436
2103.0,0.002986404584256203
2102.0,0.002982633049769815
2101.0,0.002981269592788389
2100.0,0.0029801568672057507
2099.0,0.00296607313509303
2098.0,0.002933902288333008
2097.0,0.0028859054323111728
2096.0,0.0028215643631165858
2095.0,0.002749976434843245
2094.0,0.002702067116717911
2093.0,0.002703625485356957
2092.0,0.0027431261418445654
2091.0,0.0027874711065719792
2090.0,0.002820680891720776
2089.0,0.0028469113433844265
2088.0,0.002867608277756824
2087.0,0.0028815635515701964
2086.0,0.002899640415143195
2085.0,0.0029335216202625008
2084.0,0.0029737780520555663
2083.0,0.003001107556636885
2082.0,0.0030136765161848478
2081.0,0.0030222324468254587
2080.0,0.003026656123510474
2079.0,0.0030203388345913583
2078.0,0.0030099384068207934
2077.0,0.003006411903379619
2076.0,0.003004317747424482
2075.0,0.0029945188564150377
2074.0,0.002987049542503445
2073.0,0.0029947211295772162
2072.0,0.0030056124962758485
2071.0,0.0029998606179273677
2070.0,0.0029824611976060557
2069.0,0.0029707142413617485
2068.0,0.0029613751199681244
2067.0,0.002942815838319843
2066.0,0.00292705453759106
2065.0,0.0029329405359046867
2064.0,0.002946430351358312
2063.0,0.002937674565245783
2062.0,0.002910250159717068
2061.0,0.0028948942924610236
2060.0,0.0029040572534162075
2059.0,0.0029268560237497056
2058.0,0.0029582261447360305
2057.0,0.002994146694107476
2056.0,0.0030117949440939653
2055.0,0.003002237692634431
2054.0,0.003014880029300141
2053.0,0.0031137143395494993
2052.0,0.0032848799144183163
2051.0,0.003432293431040115
2050.0,0.00347275342413602
2049.0,0.0034083273545462366
2048.0,0.003303431795261225
2047.0,0.0032207479302830888
2046.0,0.0031920816355193267
2045.0,0.003214134415244593
2044.0,0.0032499948659587296
2043.0,0.0032628422328462893
2042.0,0.0032569145901723035
2041.0,0.003261437703903143
2040.0,0.003279434334555891
2039.0,0.003289157001831258
2038.0,0.003288246579806717
2037.0,0.0032899767376518463
2036.0,0.0032827510864904983
2035.0,0.003241233748948988
2034.0,0.0031765799205679818
2033.0,0.0031275255903652505
2032.0,0.0031014853197804952
2031.0,0.0030745489246382985
2030.0,0.0030434048514318985
2029.0,0.0030238669697889423
2028.0,0.0030060737268918086
2027.0,0.0029675216286915215
2026.0,0.0029269124386959032
2025.0,0.00292695813880358
2024.0,0.0029661133809113787
2023.0,0.0030009394392673944
2022.0,0.0030130031064116727
2021.0,0.0030204192057772554
2020.0,0.003026584321297515
2019.0,0.0030117464299412007
2018.0,0.0029787002054330793
2017.0,0.0029573007052554647
2016.0,0.0029564226821668736
2015.0,0.0029577458952241955
2014.0,0.002957125433760285
2013.0,0.002966261684288881
2012.0,0.0029793370660372545
2011.0,0.002978450265727745
2010.0,0.0029645075910478807
2009.0,0.0029446803824695585
2008.0,0.002903594034929749
2007.0,0.0028305583174325316
2006.0,0.0027582624577104638
2005.0,0.002724619773345787
2004.0,0.002715975382690629
2003.0,0.002697930719284644
2002.0,0.0026801878741443096
2001.0,0.002698623610801564
2000.0,0.0027491352081233378
1999.0,0.002794982588122268
1998.0,0.0028257681774582354
1997.0,0.0028591498663622134
1996.0,0.0028958487184416086
1995.0,0.0029208498554885104
1994.0,0.00293964303112179
1993.0,0.002969092740728361
1992.0,0.002996959274913633
1991.0,0.002997092007814324
1990.0,0.0029828556865244917
1989.0,0.002993015823857082
1988.0,0.003032155854225881
1987.0,0.0030718769433513904
1986.0,0.0031018301698624738
1985.0,0.00313561835438301
1984.0,0.0031770064581412246
1983.0,0.003226783869135959
1982.0,0.0033080483925765234
1981.0,0.0034266129596977604
1980.0,0.0035120343528680215
1979.0,0.00346441785146676
1978.0,0.0032730026607676404
1977.0,0.0030392474044129677
1976.0,0.002862922662340628
1975.0,0.0027629123124734826
1974.0,0.0027198476678736605
1973.0,0.0027180910660125537
1972.0,0.00273145215250385
1971.0,0.002731081638756125
1970.0,0.002720983242220695
1969.0,0.002724312265952596
1968.0,0.0027350992479760784
1967.0,0.0027252307527868484
1966.0,0.002697216535697963
1965.0,0.0026807279114820083
1964.0,0.0026789045378039144
1963.0,0.0026651701192689147
1962.0,0.0026279073135004674
1961.0,0.002578751637519185
1960.0,0.002522979102066976
1959.0,0.002462699333838818
1958.0,0.002423272904966075
1957.0,0.002432403095146925
1956.0,0.002475116731638301
1955.0,0.0025075534159768958
1954.0,0.0025115105945681614
1953.0,0.0025027100520506555
1952.0,0.0024932550258180623
1951.0,0.0024801169165746266
1950.0,0.0024683814879103453
1949.0,0.0024681465629034683
1948.0,0.0024694977213361126
1947.0,0.002455473193247618
1946.0,0.002436355745426316
1945.0,0.0024378972447197888
1944.0,0.0024587356934844336
1943.0,0.0024707539845413313
1942.0,0.002460255496888638
1941.0,0.0024379474265383725
1940.0,0.0024131262410955604
1939.0,0.00238935948243516
1938.0,0.002377926389007123
1937.0,0.002388057222649772
1936.0,0.0024061836378399966
1935.0,0.002409802332490673
1934.0,0.0023979685218306363
1933.0,0.002385452132713605
1932.0,0.0023742799547609083
1931.0,0.0023560069672718645
1930.0,0.0023383589138810633
1929.0,0.00233594383237029
1928.0,0.0023404429752525184
1927.0,0.002333799515990909
1926.0,0.0023220302670740253
1925.0,0.0023298512697524864
1924.0,0.0023608302686398404
1923.0,0.002393405428903042
1922.0,0.0024151061423813677
1921.0,0.0024318406108403486
1920.0,0.002443310158247756
1919.0,0.002438821892768305
1918.0,0.0024209344255642007
1917.0,0.002405198744759094
1916.0,0.0023925333154697468
1915.0,0.0023760381236905934
1914.0,0.0023615030957251032
1913.0,0.0023598303424595267
1912.0,0.002366158578059589
1911.0,0.00236678232264885
1910.0,0.002364556600438806
1909.0,0.0023693036388728623
1908.0,0.0023707656632639034
1907.0,0.0023542813671920066
1906.0,0.0023302756097538023
1905.0,0.002321895256324414
1904.0,0.0023265699106446275
1903.0,0.0023238329164953692
1902.0,0.002313787698063953
1901.0,0.0023127827168455406
1900.0,0.002320083620174654
1899.0,0.0023223228785994292
1898.0,0.002321918148123563
1897.0,0.002333286988563634
1896.0,0.0023507409625229507
1895.0,0.0023516383306313054
1894.0,0.002334525190956199
1893.0,0.002321177964752781
1892.0,0.0023207865059865092
1891.0,0.0023217346914023024
1890.0,0.002317536932541803
1889.0,0.0023126937716628163
1888.0,0.002302382667332556
1887.0,0.0022819723435651006
1886.0,0.0022640877045524126
1885.0,0.0022621347389821427
1884.0,0.00226645916121378
1883.0,0.0022589123599339235
1882.0,0.002245326664862899
1881.0,0.0022449570140529213
1880.0,0.002256114249399722
1879.0,0.0022612040844386732
1878.0,0.0022570914034773
1877.0,0.0022559868985843837
1876.0,0.0022589871255569217
1875.0,0.0022541246648820276
1874.0,0.0022418853999171045
1873.0,0.00223691405325973
1872.0,0.0022426915000475405
1871.0,0.002248591760849963
1870.0,0.0022527306953095817
1869.0,0.0022650188721710747
1868.0,0.002275035900639858
1867.0,0.002261714308159348
1866.0,0.002235899466753413
1865.0,0.0022221608412916773
1864.0,0.002221229819270864
1863.0,0.002218743128047471
1862.0,0.002214793831810331
1861.0,0.0022206995123283217
1860.0,0.0022321043990015427
1859.0,0.002233250593716412
1858.0,0.0022250921543018644
1857.0,0.0022209519969365655
1856.0,0.002219559195591361
1855.0,0.0022102389116457287
1854.0,0.00219811177475685
1853.0,0.0021969430440967157
1852.0,0.002202208476363504
1851.0,0.0022010362658978753
1850.0,0.0021950368117862303
1849.0,0.002196209457530266
1848.0,0.0022028885989542747
1847.0,0.002203128420638554
1846.0,0.002199007862447091
1845.0,0.002202757405254355
1844.0,0.0022067765566295976
1843.0,0.0021916295636121097
1842.0,0.0021709230638274272
1841.0,0.0021684339863751374
1840.0,0.0021794125770653967
1839.0,0.0021858966256166168
1838.0,0.0021848243373095546
1837.0,0.002187322057701079
1836.0,0.002191751041531209
1835.0,0.0021875065505487113
1834.0,0.0021797440693286756
1833.0,0.002184137726953235
1832.0,0.002202916061456201
1831.0,0.0022226087489954772
1830.0,0.0022323792638021937
1829.0,0.0022338296240208434
1828.0,0.002234110920444307
1827.0,0.002240305370944758
1826.0,0.002255104248117257
1825.0,0.0022728086133184016
1824.0,0.002276951131384448
1823.0,0.0022587564027868926
1822.0,0.002235635534877096
1821.0,0.0022269917001148
1820.0,0.002227747401602946
1819.0,0.0022182510425807767
1818.0,0.0021966456948820383
1817.0,0.0021849381889974765
1816.0,0.0021939870192442543
1815.0,0.0022131816432257394
1814.0,0.0022372797546333315
1813.0,0.0022724615961923346
1812.0,0.00231889807672276
1811.0,0.0023594063460608676
1810.0,0.0023841117465516577
1809.0,0.00240487204187241
1808.0,0.0024275056494809668
1807.0,0.0024438224184839003
1806.0,0.0024567159150677316
1805.0,0.002483060759224511
1804.0,0.002526109532778682
1803.0,0.0025682153145792845
1802.0,0.0025973199631470294
1801.0,0.002617893386466616
1800.0,0.002632648989434605
1799.0,0.0026333731219987016
1798.0,0.0026274214238640775
1797.0,0.0026320106542963456
1796.0,0.0026454713528799288
1795.0,0.002652617911163161
1794.0,0.0026534386744652668
1793.0,0.0026645869380612633
1792.0,0.002688993383783394
1791.0,0.002700260542059727
1790.0,0.002690024664352606
1789.0,0.0026784242505356807
1788.0,0.0026752176329941308
1787.0,0.002671971747394544
1786.0,0.002661068246337443
1785.0,0.002643678373553004
1784.0,0.002618448798371381
1783.0,0.0025849725294166135
1782.0,0.0025533885001028235
1781.0,0.0025271772702445605
1780.0,0.0024952686151527913
1779.0,0.002444014373392292
1778.0,0.0023846363234662255
1777.0,0.0023376822237944576
1776.0,0.002301955478034871
1775.0,0.0022634694416500956
1774.0,0.002220184743625054
1773.0,0.0021873427202903665
1772.0,0.0021771779752195104
1771.0,0.0021822396860056922
1770.0,0.002197001604337613
1769.0,0.002220607154322565
1768.0,0.0022356848844635835
1767.0,0.002221644103728237
1766.0,0.002189726904932623
1765.0,0.0021724133427265726
1764.0,0.002182247086770954
1763.0,0.0022033054832128755
1762.0,0.002215475468406398
1761.0,0.0022143166909417322
1760.0,0.0022137055527524365
1759.0,0.0022251367048010543
1758.0,0.002251253069738749
1757.0,0.00228233358209305
1756.0,0.0022987231630940946
1755.0,0.0022956012443620722
1754.0,0.0022927914308636054
1753.0,0.0023088619091250675
1752.0,0.0023435864806819052
1751.0,0.0023842734498023565
1750.0,0.002422035085263931
1749.0,0.002462186832498959
1748.0,0.002502159019692337
1747.0,0.0025325827256851862
1746.0,0.0025590006458354277
1745.0,0.0025953170184597574
1744.0,0.002640551577190958
1743.0,0.0026742864326163873
1742.0,0.002686389986143883
1741.0,0.0026914867083823635
1740.0,0.0027015754089883214
1739.0,0.002705930997573852
1738.0,0.002701309130450677
1737.0,0.0027012645067073363
1736.0,0.002708402751881885
1735.0,0.0027111499880048337
1734.0,0.0027083155394462075
1733.0,0.002711280487858664
1732.0,0.0027385174278642924
1731.0,0.002788420180913836
1730.0,0.0028361728203771834
1729.0,0.002866400746463363
1728.0,0.0028773547182993084
1727.0,0.0028786100104924205
1726.0,0.0028845913923678966
1725.0,0.0029036844299431845
1724.0,0.0029298138616690697
1723.0,0.0029451321103333944
1722.0,0.0029490496925481573
1721.0,0.002959007201349928
1720.0,0.0029778799201992446
1719.0,0.0029861678617441436
1718.0,0.002978799538532744
1717.0,0.0029957826712534528
1716.0,0.003051537925250265
1715.0,0.0031136609915215887
1714.0,0.003162963395017122
1713.0,0.003207697066342176
1712.0,0.003254329444124356
1711.0,0.003297842050255398
1710.0,0.003337393742260923
1709.0,0.003383643809451172
1708.0,0.0034460386768855695
1707.0,0.0035223009928088455
1706.0,0.0036087458816390864
1705.0,0.0037017749515461363
1704.0,0.003782032989620489
1703.0,0.00383944934235894
1702.0,0.003898854949579445
1701.0,0.004006670409244214
1700.0,0.004144312917980192
1699.0,0.004226033832362853
1698.0,0.004293798677847063
1697.0,0.004432664129880652
1696.0,0.00464187298947659
1695.0,0.004823537245366183
1694.0,0.004950359683563684
1693.0,0.0050863872254455714
1692.0,0.0052443809006757994
1691.0,0.005401602112734459
1690.0,0.005550785202171159
1689.0,0.00569135884283461
1688.0,0.005804775356685006
1687.0,0.0058793892566141
1686.0,0.005950421713090654
1685.0,0.0061012829486944975
1684.0,0.00634254054410009
1683.0,0.006534241892547266
1682.0,0.006661206350917547
1681.0,0.006797063621534041
1680.0,0.006943547231682606
1679.0,0.007070140567254087
1678.0,0.007178181314757724
1677.0,0.007302579432477738
1676.0,0.007460637818183937
1675.0,0.0076191825004412565
1674.0,0.007744170340916439
1673.0,0.00785925821463899
1672.0,0.007992503496515162
1671.0,0.008140000538816703
1670.0,0.008303972072289159
1669.0,0.00848066313096481
1668.0,0.008638758780210996
1667.0,0.008766109449632669
1666.0,0.008881472533709668
1665.0,0.009010925449309617
1664.0,0.009165433906351493
1663.0,0.00932778957331522
1662.0,0.00947690303691071
1661.0,0.009612968050648771
1660.0,0.009743767047784674
1659.0,0.0098651347873269
1658.0,0.009974809766968738
1657.0,0.010076255644454354
1656.0,0.010161042359631129
1655.0,0.010216779579677105
1654.0,0.010270230794555961
1653.0,0.010360986557802787
1652.0,0.010405429416054778
1651.0,0.010450674929618277
1650.0,0.010546728770384017
1649.0,0.010649817159323309
1648.0,0.01073302133094437
1647.0,0.010792664908271547
1646.0,0.010820160371061037
1645.0,0.010831494937503012
1644.0,0.010860660453773896
1643.0,0.010900494098257276
1642.0,0.0109334368395845
1641.0,0.010959827341000985
1640.0,0.01098136928540567
1639.0,0.010988459248166297
1638.0,0.010975719715064365
1637.0,0.010956448123292103
1636.0,0.010939591579096707
1635.0,0.010905158014319877
1634.0,0.0108550034300741
1633.0,0.010827801653705215
1632.0,0.010811817241387757
1631.0,0.010773665952177845
1630.0,0.010708799367990652
1629.0,0.010632523465022343
1628.0,0.01054836341104851
1627.0,0.010450578353088937
1626.0,0.010346657179095511
1625.0,0.010244111862307441
1624.0,0.010132046972701932
1623.0,0.010001487858163063
1622.0,0.009873995197809833
1621.0,0.00977008312233528
1620.0,0.009674818288773087
1619.0,0.009555261135437037
1618.0,0.009402081640767598
1617.0,0.009244689631773642
1616.0,0.009114266588525495
1615.0,0.009023084369915176
1614.0,0.008968219216488648
1613.0,0.008922746486177338
1612.0,0.008855306397273338
1611.0,0.008760175948817214
1610.0,0.008662050888099895
1609.0,0.008579180827970581
1608.0,0.008501230220819096
1607.0,0.008417627773458159
1606.0,0.008339242596446358
1605.0,0.008273224428529149
1604.0,0.008209735469942251
1603.0,0.008143004764009929
1602.0,0.008084462497346871
1601.0,0.0080407564061447
1600.0,0.00799934976156527
1599.0,0.007951904629391137
1598.0,0.00790882512468945
1597.0,0.007878665385177739
1596.0,0.007851566058201767
1595.0,0.007817535422107544
1594.0,0.00778529369271406
1593.0,0.007762707010143631
1592.0,0.007740354561309061
1591.0,0.007712256919102612
1590.0,0.007691824128804118
1589.0,0.007687795240874677
1588.0,0.007687391280587517
1587.0,0.007681078415122146
1586.0,0.007680757483449522
1585.0,0.007695909960867312
1584.0,0.007715482803489044
1583.0,0.00773298642496858
1582.0,0.007759485106054183
1581.0,0.007799010572250709
1580.0,0.007832897827935455
1579.0,0.007846793902681401
1578.0,0.007855284139826257
1577.0,0.007891532579566414
1576.0,0.007959057504158502
1575.0,0.008031851655365787
1574.0,0.008115858156740067
1573.0,0.008212974191423115
1572.0,0.008303060331370576
1571.0,0.008385292652807448
1570.0,0.008487353510303103
1569.0,0.008606359263407786
1568.0,0.008701776533723638
1567.0,0.008779508256469077
1566.0,0.008875514998719865
1565.0,0.009000409383839019
1564.0,0.009122934845339624
1563.0,0.009215047722110303
1562.0,0.009288703137759468
1561.0,0.009383506146429339
1560.0,0.00954311459521598
1559.0,0.009810615921760274
1558.0,0.01006642485123469
1557.0,0.010230828646380107
1556.0,0.010401805551542008
1555.0,0.010594915175987318
1554.0,0.010796048658661175
1553.0,0.01099727775946385
1552.0,0.011201464478968168
1551.0,0.011411303060001569
1550.0,0.011623116803700666
1549.0,0.011818035421539462
1548.0,0.011976493412696923
1547.0,0.01211570782840244
1546.0,0.012271297690490764
1545.0,0.012457511843367537
1544.0,0.012636947077430337
1543.0,0.012758700443844775
1542.0,0.012838919744719235
1541.0,0.012968307291474855
1540.0,0.013180368680145686
1539.0,0.013367181450683628
1538.0,0.013504732924157627
1537.0,0.013661089344433474
1536.0,0.013832676944571735
1535.0,0.013995872739225697
1534.0,0.014165202087096913
1533.0,0.014348694065688485
1532.0,0.014502768455314162
1531.0,0.014610131814723678
1530.0,0.014709926293606342
1529.0,0.0148394342948288
1528.0,0.014991595975816145
1527.0,0.015131159752368253
1526.0,0.015246346288876386
1525.0,0.015355257636190167
1524.0,0.015466663671647621
1523.0,0.015579448532559655
1522.0,0.015720100137717578
1521.0,0.015904751161058436
1520.0,0.01607604327054651
1519.0,0.016211008487745815
1518.0,0.0163453332599375
1517.0,0.01650154553959019
1516.0,0.01664471255562714
1515.0,0.016734280324269886
1514.0,0.016800870486436227
1513.0,0.01688799760233596
1512.0,0.016993367529276243
1511.0,0.01708596987420444
1510.0,0.0171589320910661
1509.0,0.017230550957575665
1508.0,0.017314524363529305
1507.0,0.017408498238969432
1506.0,0.01747189193152603
1505.0,0.017514742926431466
1504.0,0.017606068532431917
1503.0,0.017730150849232275
1502.0,0.017860460048246114
1501.0,0.018002323165273476
1500.0,0.01815045241537517
1499.0,0.01827603525776965
1498.0,0.01837545132601893
1497.0,0.018488954610398848
1496.0,0.01862188802251469
1495.0,0.018735554567640412
1494.0,0.01884665530268871
1493.0,0.01899821387522117
1492.0,0.019183653989093035
1491.0,0.01936155742228444
1490.0,0.019526778491710108
1489.0,0.01970684414162725
1488.0,0.019884259097508416
1487.0,0.02003013890402983
1486.0,0.02017448587979623
1485.0,0.020354978817538904
1484.0,0.020559405460251638
1483.0,0.02076668988995492
1482.0,0.020991111177071396
1481.0,0.021256734559447203
1480.0,0.02154525197710964
1479.0,0.02183596596564352
1478.0,0.022161085462380076
1477.0,0.022560839454161694
1476.0,0.02300818414856683
1475.0,0.023463133189725652
1474.0,0.02401355233526892
1473.0,0.024807848959115884
1472.0,0.025779921526737002
1471.0,0.026707948838824627
1470.0,0.02757478485427882
1469.0,0.02848212663940081
1468.0,0.029462412303051678
1467.0,0.030517837067004335
1466.0,0.03169980512357288
1465.0,0.03299508651757264
1464.0,0.03417803185347472
1463.0,0.0350544856077715
1462.0,0.035688096031139704
1461.0,0.03621392027815663
1460.0,0.036674109766818334
1459.0,0.03707464446282079
1458.0,0.037481458525660726
1457.0,0.03792225589208258
1456.0,0.03823550922429005
1455.0,0.03837772498375673
1454.0,0.038471349277073595
1453.0,0.03854386876478028
1452.0,0.03852017685827261
1451.0,0.0383287398864517
1450.0,0.037940199397847055
1449.0,0.037309425002105684
1448.0,0.0364072089565918
1447.0,0.03534343228209589
1446.0,0.03430519490080576
1445.0,0.033380753767532884
1444.0,0.03256942924908399
1443.0,0.03187569767352377
1442.0,0.031330807699371695
1441.0,0.03095183776247805
1440.0,0.03072699559093732
1439.0,0.03063856006627932
1438.0,0.030658184821842977
1437.0,0.030696912901617027
1436.0,0.03060049745833116
1435.0,0.030309162840841286
1434.0,0.02989048905750928
1433.0,0.02940567591459391
1432.0,0.02889799865981996
1431.0,0.028434515386935852
1430.0,0.028071477933990525
1429.0,0.027816558714282603
1428.0,0.027654867279471987
1427.0,0.027571522077576262
1426.0,0.027541347202873778
1425.0,0.02752742462101704
1424.0,0.0275152645942951
1423.0,0.027519222880020885
1422.0,0.02754728668780324
1421.0,0.02758925835211399
1420.0,0.027629948943639408
1419.0,0.02766389700256127
1418.0,0.02768959075740326
1417.0,0.02771060772357195
1416.0,0.027738019387261094
1415.0,0.027775286874254554
1414.0,0.027816778318963457
1413.0,0.0278546906362092
1412.0,0.02788711031055683
1411.0,0.02791692929798486
1410.0,0.027941386275061163
1409.0,0.02795588372658695
1408.0,0.0279636964842023
1407.0,0.027969343406308203
1406.0,0.027967580779444823
1405.0,0.027943506297560722
1404.0,0.027896488023496962
1403.0,0.02784597200653551
1402.0,0.027804724825891473
1401.0,0.027763404375670053
1400.0,0.027705047752264858
1399.0,0.027630887061456923
1398.0,0.02755273880520594
1397.0,0.027472103103078356
1396.0,0.027384591987635765
1395.0,0.027292066441066534
1394.0,0.02719724166741905
1393.0,0.027102068092295737
1392.0,0.027025387300410358
1391.0,0.026987286375374984
1390.0,0.026991939112081777
1389.0,0.027041705393557533
1388.0,0.027166097124869035
1387.0,0.027417273018242778
1386.0,0.02783275468848592
1385.0,0.028453828822194136
1384.0,0.0293678780532469
1383.0,0.030671460580863244
1382.0,0.03241041836919711
1381.0,0.03459901040773522
1380.0,0.037229883571610015
1379.0,0.04013241752133184
1378.0,0.042844099031637224
1377.0,0.044747359794592885
1376.0,0.045295728713990735
1375.0,0.04418278358736302
1374.0,0.04164560788145362
1373.0,0.038497901215294464
1372.0,0.035487203792289715
1371.0,0.03288254079571783
1370.0,0.03070045411599486
1369.0,0.028947041429772148
1368.0,0.027630604477510395
1367.0,0.026708102588626003
1366.0,0.026103049316634278
1365.0,0.0257438022097776
1364.0,0.0255693938099141
1363.0,0.02553155680688088
1362.0,0.02559022500083983
1361.0,0.025683421021684475
1360.0,0.025720890052048993
1359.0,0.025620366195207078
1358.0,0.025342589286677826
1357.0,0.024894005084074744
1356.0,0.02431154094219102
1355.0,0.023657177002688354
1354.0,0.023010527171219805
1353.0,0.022432150496832146
1352.0,0.021932080596642138
1351.0,0.021490367823090283
1350.0,0.021098184277486828
1349.0,0.020754217051505233
1348.0,0.020447137252246284
1347.0,0.020162642820702976
1346.0,0.019899278404163105
1345.0,0.01966006370632076
1344.0,0.019440317742149184
1343.0,0.019235354460228386
1342.0,0.019048630917605808
1341.0,0.018880030321521236
1340.0,0.018717559150314776
1339.0,0.018551957849165787
1338.0,0.018388613220451485
1337.0,0.018236774389218828
1336.0,0.01809857153701268
1335.0,0.01797539148117714
1334.0,0.017873171111229443
1333.0,0.017792156426968048
1332.0,0.017718391389616648
1331.0,0.01763396376301443
1330.0,0.017530198098405423
1329.0,0.017404519244119634
1328.0,0.01725460926202991
1327.0,0.017083428585616078
1326.0,0.016902389758387818
1325.0,0.016719867371150998
1324.0,0.016537960264449196
1323.0,0.016361592372221803
1322.0,0.016199751559472907
1321.0,0.01605414864199846
1320.0,0.01591712500197946
1319.0,0.01578402439904123
1318.0,0.015658032482203304
1317.0,0.015540371841336238
1316.0,0.01542620642571265
1315.0,0.015313479323746833
1314.0,0.015206515943050933
1313.0,0.015109182486754281
1312.0,0.015022256326887293
1311.0,0.014950893507306006
1310.0,0.014908063945470092
1309.0,0.014907144426948666
1308.0,0.014953050300866334
1307.0,0.015034871435228279
1306.0,0.015120188796311312
1305.0,0.015159377674866921
1304.0,0.01511294864497019
1303.0,0.014981105430888587
1302.0,0.01480345701510482
1301.0,0.014626682413452618
1300.0,0.01447733185202853
1299.0,0.014360851243608159
1298.0,0.014270108752904204
1297.0,0.014189581237279255
1296.0,0.0141017373221818
1295.0,0.013998300487839533
1294.0,0.013882620683557017
1293.0,0.013760748216647887
1292.0,0.013636472056272539
1291.0,0.013514834555534533
1290.0,0.013402301481525705
1289.0,0.013301086811302843
1288.0,0.013209043736630262
1287.0,0.013125819257637755
1286.0,0.013052957288343013
1285.0,0.012988210892610824
1284.0,0.012926640697159692
1283.0,0.012867438517596435
1282.0,0.012813801128774829
1281.0,0.01276593098123187
1280.0,0.012720035500398602
1279.0,0.012675162452885098
1278.0,0.012634410559787196
1277.0,0.012598890173255422
1276.0,0.012565831916330126
1275.0,0.012534113268179041
1274.0,0.012506095543122325
1273.0,0.012483061306982356
1272.0,0.012463642226489253
1271.0,0.012447485746746641
1270.0,0.012435891263060479
1269.0,0.012428540859121302
1268.0,0.012424365528269993
1267.0,0.01242549131345205
1266.0,0.012435147469846735
1265.0,0.012452553768459983
1264.0,0.01247496559710422
1263.0,0.012504566328197438
1262.0,0.012548768031381425
1261.0,0.012613877714768634
1260.0,0.012701901603716034
1259.0,0.012811286920845879
1258.0,0.012932084699690566
1257.0,0.01303946577367307
1256.0,0.013099324347498527
1255.0,0.01308806938512
1254.0,0.013008794195350946
1253.0,0.01288766643325178
1252.0,0.012756855866042643
1251.0,0.012640825823005826
1250.0,0.012550500023913579
1249.0,0.012484113131434839
1248.0,0.012434687011363165
1247.0,0.012398010069519945
1246.0,0.01237245387303129
1245.0,0.0123542671266966
1244.0,0.012337983647674036
1243.0,0.01232133739898105
1242.0,0.01230584650830661
1241.0,0.012292449150718338
1240.0,0.012280093000271579
1239.0,0.012268510852283239
1238.0,0.012258698095216361
1237.0,0.012250333654366199
1236.0,0.012241980507907223
1235.0,0.012233782115129033
1234.0,0.01222651601517833
1233.0,0.012218111032000363
1232.0,0.012205069990817158
1231.0,0.012187745881120378
1230.0,0.012170619971118731
1229.0,0.012156857098690943
1228.0,0.012145903704703063
1227.0,0.012136952289127624
1226.0,0.012131419780647414
1225.0,0.012130647795253077
1224.0,0.012133322745025163
1223.0,0.012135833370393366
1222.0,0.012133355129972035
1221.0,0.012120571530158887
1220.0,0.012093607719417176
1219.0,0.012051874521621243
1218.0,0.011996593591235036
1217.0,0.011928563485090573
1216.0,0.011849796171636489
1215.0,0.011765840592297393
1214.0,0.011682754986917837
1213.0,0.011602519235439932
1212.0,0.011524848323537241
1211.0,0.011451564514664983
1210.0,0.011384824410474233
1209.0,0.011322493946897938
1208.0,0.011260210171493094
1207.0,0.011197391344783456
1206.0,0.011137121427378412
1205.0,0.011081004779301091
1204.0,0.01102841794429117
1203.0,0.010979909317379789
1202.0,0.01093656490995309
1201.0,0.01089652477463764
1200.0,0.010856722395712792
1199.0,0.010817849598606977
1198.0,0.010783164670878028
1197.0,0.010752666600401788
1196.0,0.010722745164096475
1195.0,0.010691484324039595
1194.0,0.010660521274967126
1193.0,0.010631443655393643
1192.0,0.010604333536197852
1191.0,0.010580232496890973
1190.0,0.010561324431237447
1189.0,0.010547975441211402
1188.0,0.010538540266003408
1187.0,0.010532515703721337
1186.0,0.010531458089056379
1185.0,0.010536888050035177
1184.0,0.010549635474807688
1183.0,0.010571184179503456
1182.0,0.010603695301151256
1181.0,0.010649082048318315
1180.0,0.010709989292293798
1179.0,0.010791218535490258
1178.0,0.010898456028354545
1177.0,0.011036787167330824
1176.0,0.011212889889718122
1175.0,0.01143793216933499
1174.0,0.011725486494185661
1173.0,0.012084307180884518
1172.0,0.012509788709488002
1171.0,0.012976596068403895
1170.0,0.013435517733905838
1169.0,0.01382091375818938
1168.0,0.014070143320774737
1167.0,0.014150564097175368
1166.0,0.014075742246601963
1165.0,0.013894778215161836
1164.0,0.013663846205659864
1163.0,0.01342634007625278
1162.0,0.013208761015749065
1161.0,0.013022461416754331
1160.0,0.012867979972423978
1159.0,0.012742310020689188
1158.0,0.012643536747184625
1157.0,0.012569314842620987
1156.0,0.012514742347011878
1155.0,0.012473835922012282
1154.0,0.01243997765712106
1153.0,0.012402727566117239
1152.0,0.012348251217980263
1151.0,0.012267566025330513
1150.0,0.012163655681602529
1149.0,0.012047672542776396
1148.0,0.011930161477947551
1147.0,0.011817818450749452
1146.0,0.011714514836175251
1145.0,0.01162102453213169
1144.0,0.011535213648757286
1143.0,0.011455402549750714
1142.0,0.011382444127714901
1141.0,0.011317467116400018
1140.0,0.01126020267710563
1139.0,0.011211186223514443
1138.0,0.011172793816670383
1137.0,0.011145897699532573
1136.0,0.011127668162105501
1135.0,0.01111452172760226
1134.0,0.01110517211646232
1133.0,0.011099071460887063
1132.0,0.011094335461205227
1131.0,0.011089731780356224
1130.0,0.011086861370725804
1129.0,0.011087677190418527
1128.0,0.01109108935021971
1127.0,0.011094447732522179
1126.0,0.011097453676594824
1125.0,0.011102332599884981
1124.0,0.011110824139004718
1123.0,0.011122965441290274
1122.0,0.011138020618522957
1121.0,0.011154904350045958
1120.0,0.011172542902074645
1119.0,0.01119129805343375
1118.0,0.011213028190989146
1117.0,0.011238495373364818
1116.0,0.011266268388818253
1115.0,0.01129568368909648
1114.0,0.011328935461938838
1113.0,0.011368135701774723
1112.0,0.011412607881916866
1111.0,0.011462152263290965
1110.0,0.011520973134055227
1109.0,0.011594289802961443
1108.0,0.011682420742238287
1107.0,0.011780857883208463
1106.0,0.01188494275355482
1105.0,0.01198958323632318
1104.0,0.01208429567177745
1103.0,0.012154248756289586
1102.0,0.01218939738488002
1101.0,0.01219033555284243
1100.0,0.012166823146305216
1099.0,0.012132118659889031
1098.0,0.012101023902871447
1097.0,0.01208470948320038
1096.0,0.012085953456438687
1095.0,0.012101217011691609
1094.0,0.012126905937643373
1093.0,0.01216104913268183
1092.0,0.012200644389887466
1091.0,0.01224226335716447
1090.0,0.012285508030253724
1089.0,0.012332778576515597
1088.0,0.012387967659523769
1087.0,0.012460527254781579
1086.0,0.012566050565649032
1085.0,0.012709453643497272
1084.0,0.012863230090049796
1083.0,0.01297316895607182
1082.0,0.012997244893399647
1081.0,0.01293828430465047
1080.0,0.012835631320244454
1079.0,0.012731210922274007
1078.0,0.01264598102982937
1077.0,0.012579593862464203
1076.0,0.01252263782528564
1075.0,0.012468171069773689
1074.0,0.012416248985322172
1073.0,0.01237043386897119
1072.0,0.012331331034812683
1071.0,0.012295171213679198
1070.0,0.01225845413921801
1069.0,0.012221392851062697
1068.0,0.01218599937819413
1067.0,0.012153097194182734
1066.0,0.01212225117748731
1065.0,0.012092950976115475
1064.0,0.01206511747078786
1063.0,0.01203972661874556
1062.0,0.012019040826247605
1061.0,0.012004678177264734
1060.0,0.011995434944324729
1059.0,0.011988559588937756
1058.0,0.011982993996355672
1057.0,0.011979597939442178
1056.0,0.011978395148751752
1055.0,0.011977769831315849
1054.0,0.011976695367075876
1053.0,0.011976083285113851
1052.0,0.011977676380847123
1051.0,0.011983196348059545
1050.0,0.011994585513366162
1049.0,0.01201311281190786
1048.0,0.012037669537061818
1047.0,0.01206445558156171
1046.0,0.012086897095895046
1045.0,0.012094893851578352
1044.0,0.012077315351591223
1043.0,0.01202982223154081
1042.0,0.01196023866748819
1041.0,0.011883129813701033
1040.0,0.01180912917569428
1039.0,0.011741063005841176
1038.0,0.011677563332377926
1037.0,0.011616414357376337
1036.0,0.011555190365396453
1035.0,0.011492318513133391
1034.0,0.011428198233350896
1033.0,0.011363564640453207
1032.0,0.011297412493647616
1031.0,0.011228740640315912
1030.0,0.011159781921054617
1029.0,0.011095227495537277
1028.0,0.011038225881336461
1027.0,0.010988220424573283
1026.0,0.01094185500973745
1025.0,0.010894767868281635
1024.0,0.010843528292744844
1023.0,0.010787577362138158
1022.0,0.01072923732784293
1021.0,0.01067125522389323
1020.0,0.010615159655190675
1019.0,0.01056221063829155
1018.0,0.01051378166026575
1017.0,0.010469585578883157
1016.0,0.010427432165214901
1015.0,0.010386261491897824
1014.0,0.010347912193537347
1013.0,0.010314621694730979
1012.0,0.010286654516308159
1011.0,0.010264275935238942
1010.0,0.010250598197728817
1009.0,0.010250348230955464
1008.0,0.0102667717919957
1007.0,0.010302139109077919
1006.0,0.010361970123893999
1005.0,0.010458661055641106
1004.0,0.010612315920213802
1003.0,0.01084814967102861
1002.0,0.01118642255706898
1001.0,0.011621325202745256
1000.0,0.01209693154941515
999.0,0.012503623082165786
998.0,0.012714952893678686
997.0,0.012650091180599057
996.0,0.012317127356744168
995.0,0.01180691345236405
994.0,0.011242680625924052
993.0,0.01072094136063197
992.0,0.010284634469213912
991.0,0.009935949627790085
990.0,0.009660835624662458
989.0,0.00944296772160702
988.0,0.00926817361151059
987.0,0.009126517891303046
986.0,0.009013067095635917
985.0,0.008927390450445785
984.0,0.008873869935824261
983.0,0.008861879837693477
982.0,0.008903259647032178
981.0,0.009009368388110178
980.0,0.009191061286685471
979.0,0.00945823859470166
978.0,0.009814270818394392
977.0,0.010247519674958148
976.0,0.010723823946992906
975.0,0.011180318950673226
974.0,0.011525117082874873
973.0,0.011654819405010126
972.0,0.011496549452917235
971.0,0.011056699870660163
970.0,0.010432423353082289
969.0,0.00976219870644141
968.0,0.00915581054316467
967.0,0.00866122493492863
966.0,0.008276420329150297
965.0,0.007977486811047504
964.0,0.007739459198331149
963.0,0.007544321038041625
962.0,0.007380305154072002
961.0,0.00723847758574764
960.0,0.007111453455411117
959.0,0.006994632910597461
958.0,0.006886533217884164
957.0,0.006786939858260246
956.0,0.006695538279635574
955.0,0.00661221965027279
954.0,0.006536842672665559
953.0,0.006467870339393714
952.0,0.006402538868492579
951.0,0.0063392677266456785
950.0,0.006279193905382052
949.0,0.006224903387819995
948.0,0.006178352558024469
947.0,0.006140327834737226
946.0,0.006111170134732531
945.0,0.006091356060015594
944.0,0.006080935139076468
943.0,0.006077588446497154
942.0,0.0060747451552361515
941.0,0.006062255918071351
940.0,0.006030186281673053
939.0,0.0059735568606645315
938.0,0.005895103120598492
937.0,0.005804438374482679
936.0,0.005713853083955776
935.0,0.005632635617037689
934.0,0.0055632521277506316
933.0,0.005502449440574714
932.0,0.005445914730605733
931.0,0.005391326623294903
930.0,0.005337932190251741
929.0,0.005285663952664896
928.0,0.005235337096482934
927.0,0.0051879093102925175
926.0,0.00514280288497413
925.0,0.005098487212191071
924.0,0.005055092609346062
923.0,0.005014508645264981
922.0,0.00497736615003458
921.0,0.00494203888984442
920.0,0.004907377804605828
919.0,0.004874282332428672
918.0,0.004843642436699333
917.0,0.0048147048045293385
916.0,0.0047864011745244635
915.0,0.004758501129757382
914.0,0.004730877312546906
913.0,0.004703733685567872
912.0,0.004679158583949228
911.0,0.004660008539400869
910.0,0.004646361263374602
909.0,0.004635796027916422
908.0,0.004628856039442664
907.0,0.004632597121069878
906.0,0.00465814617700602
905.0,0.004716440775355248
904.0,0.004814864278776089
903.0,0.004951529781004826
902.0,0.005108214109213771
901.0,0.005250268192779496
900.0,0.005336978875221482
899.0,0.0053366604731844135
898.0,0.00523972564904292
897.0,0.005063813547781545
896.0,0.004847451490967888
895.0,0.004633464221534265
894.0,0.004450931556750024
893.0,0.004309399328606495
892.0,0.004209511976323397
891.0,0.004156831672512995
890.0,0.004165303897088555
889.0,0.004251879302195379
888.0,0.004429771930662635
887.0,0.0047024683080041955
886.0,0.005061048166929723
885.0,0.00548994991941329
884.0,0.005977425679215059
883.0,0.006520251488086903
882.0,0.007120341873782002
881.0,0.007778257593325875
880.0,0.00848629242382113
879.0,0.009224420261413744
878.0,0.009965795585299274
877.0,0.010689291901932676
876.0,0.011385496625393626
875.0,0.012050090903766929
874.0,0.012667863883808141
873.0,0.013190761800660216
872.0,0.013527251063607313
871.0,0.013575250178953434
870.0,0.013293137572327715
869.0,0.012743400586677103
868.0,0.01206172707344576
867.0,0.011386562942757318
866.0,0.010808161777384123
865.0,0.01035996613798868
864.0,0.010038831765462403
863.0,0.009826966996452963
862.0,0.009702748627899806
861.0,0.009646063744710711
860.0,0.00964291317914919
859.0,0.009685050434560706
858.0,0.009763755548297531
857.0,0.009863697587646587
856.0,0.009959963919199878
855.0,0.010017435526491397
854.0,0.009997469568689472
853.0,0.009875789620418362
852.0,0.00966007962802412
851.0,0.009386722673673749
850.0,0.009094820829884711
849.0,0.00880650857286543
848.0,0.008540712864115523
847.0,0.008343257394700302
846.0,0.008288760171179388
845.0,0.008439762880965825
844.0,0.008790977472673652
843.0,0.009235279224240589
842.0,0.009581503345342727
841.0,0.009638848355647264
840.0,0.009328857705112806
839.0,0.008740238700881467
838.0,0.008068335638994286
837.0,0.007484642052574927
836.0,0.007054643584737223
835.0,0.00675698101842323
834.0,0.006546854237547299
833.0,0.00639195498512687
832.0,0.006272330435752761
831.0,0.00617409241210591
830.0,0.006089397644138123
829.0,0.006014535412845873
828.0,0.005946289256967453
827.0,0.005883786928422195
826.0,0.005830364252303087
825.0,0.0057870201966002096
824.0,0.005747398273239755
823.0,0.005706067261383821
822.0,0.0056675574567125455
821.0,0.005640444677037719
820.0,0.005627360799113529
819.0,0.005626802706649388
818.0,0.0056403151290030035
817.0,0.0056728451840525095
816.0,0.005729125605912175
815.0,0.0058136273184952415
814.0,0.005930453656643262
813.0,0.006076815468776029
812.0,0.006235938389226491
811.0,0.0063799893005567895
810.0,0.006481198135269643
809.0,0.006519653265203602
808.0,0.006485401659977439
807.0,0.006382342445979898
806.0,0.0062317581253007615
805.0,0.006065039712088934
804.0,0.005909225845236568
803.0,0.005779339549654666
802.0,0.005679605974001251
801.0,0.005605985553805332
800.0,0.005548630642555187
799.0,0.005497676947142333
798.0,0.005449086979669808
797.0,0.005403606823700582
796.0,0.0053611726056905515
795.0,0.005319626097050772
794.0,0.005278201398937054
793.0,0.005238342884507936
792.0,0.005200652508974858
791.0,0.00516411688180084
790.0,0.005128681084896304
789.0,0.005095654627849168
788.0,0.0050649981067162455
787.0,0.005034713604589529
786.0,0.005003706604983654
785.0,0.004973154489495354
784.0,0.004944538957111582
783.0,0.004918294548504673
782.0,0.004894667606008777
781.0,0.004873933809276654
780.0,0.004855149067222739
779.0,0.004836309536528898
778.0,0.0048162722144684846
777.0,0.004795152430688427
776.0,0.0047727535111955965
775.0,0.004748522098467334
774.0,0.004723562776339861
773.0,0.0047008604482748255
772.0,0.00468255628864381
771.0,0.0046681427818746676
770.0,0.004655778145952611
769.0,0.004643974413691604
768.0,0.004631365366542323
767.0,0.004616481660973191
766.0,0.004599224068414772
765.0,0.0045817341111059435
764.0,0.004566586062376867
763.0,0.004554477009724428
762.0,0.004544447822743224
761.0,0.00453575112779164
760.0,0.004528504017357455
759.0,0.004522687460123816
758.0,0.004517406794673958
757.0,0.004511501248551371
756.0,0.0045046201923651715
755.0,0.0044976529458204875
754.0,0.0044920885164283645
753.0,0.004488760837787269
752.0,0.004487425505185086
751.0,0.004487650406151173
750.0,0.004489807511648937
749.0,0.004494475933217219
748.0,0.004500884386824352
747.0,0.004506674234945871
746.0,0.004509485482917157
745.0,0.004508526779942988
744.0,0.004504668241381394
743.0,0.004499553616555355
742.0,0.004494692961735412
741.0,0.004490687287001306
740.0,0.004486998539556257
739.0,0.004483171562353425
738.0,0.004480663402216548
737.0,0.0044828490853323
736.0,0.004492970705912044
735.0,0.004512628368861381
734.0,0.004542488604696232
733.0,0.004583590133265922
732.0,0.004637183561204855
731.0,0.004703913307812962
730.0,0.004784448898304573
729.0,0.004881113868664923
728.0,0.004996126395973914
727.0,0.005128017485505925
726.0,0.005272018210334039
725.0,0.005422599712001164
724.0,0.005574667992889101
723.0,0.005724156569276102
722.0,0.005868834107850271
721.0,0.006006339575585017
720.0,0.0061305708554167705
719.0,0.006236239962635213
718.0,0.006331160745256564
717.0,0.00644089351017514
716.0,0.006595680443952548
715.0,0.006800378835169556
714.0,0.007009459632722538
713.0,0.007142868451075254
712.0,0.0071414921722383826
711.0,0.007012700926306913
710.0,0.006820497879222223
709.0,0.006632182835386625
708.0,0.006478822256143451
707.0,0.006359475388023865
706.0,0.006266683768778781
705.0,0.006199972537057927
704.0,0.006164416779241514
703.0,0.006166742560318352
702.0,0.0062045992311229245
701.0,0.0062510225684508924
700.0,0.006258883175598901
699.0,0.006194085457944352
698.0,0.00606722582352745
697.0,0.005922412349019284
696.0,0.005795014123273594
695.0,0.005691470479212199
694.0,0.005603521318915848
693.0,0.005526558093795703
692.0,0.0054603234445247265
691.0,0.005401045241710712
690.0,0.0053447707653656905
689.0,0.005293292266314659
688.0,0.005249969730876601
687.0,0.005214256577051448
686.0,0.005182999862914457
685.0,0.005154417962064963
684.0,0.00512782592362722
683.0,0.005101896256692055
682.0,0.0050768225897568665
681.0,0.005054795978055287
680.0,0.0050364618517610565
679.0,0.005020372035781271
678.0,0.005007495802158678
677.0,0.005003054336922084
676.0,0.005002937106889383
675.0,0.004997436512871908
674.0,0.004983345895144307
673.0,0.004961645849041668
672.0,0.0049193319565404
671.0,0.004827960043097934
670.0,0.004663516387419336
669.0,0.004438261801851079
668.0,0.004279679165335661
667.0,0.004376597162342599
666.0,0.004590229422200277
665.0,0.004733104055773524
664.0,0.004795417957433957
663.0,0.004805353894020555
662.0,0.0047842498982478485
661.0,0.004751636581266671
660.0,0.0047217137833947325
659.0,0.004697517125216953
658.0,0.004674572965976742
657.0,0.004652435995728194
656.0,0.004631345606886349
655.0,0.0046118496082100235
654.0,0.004596271390326705
653.0,0.004585650343829826
652.0,0.004574695822821879
651.0,0.004556927308868261
650.0,0.004534215745151353
649.0,0.004514961315450439
648.0,0.004500471358994051
647.0,0.00448355424253448
646.0,0.004462154581581405
645.0,0.004441470287925359
644.0,0.004424378856941861
643.0,0.004409497064796527
642.0,0.004396229711873923
641.0,0.00438511727376373
640.0,0.004372734289582969
639.0,0.004353065690647184
638.0,0.004326834116881178
637.0,0.004300788301304687
636.0,0.004276229558580576
635.0,0.00424988650335679
634.0,0.004225267435784866
633.0,0.004212074704639132
632.0,0.004212906977388535
631.0,0.004217577188563206
630.0,0.004213906978025702
629.0,0.0041987551830471315
628.0,0.0041734460568141315
627.0,0.00413658097506132
626.0,0.0040884299971107995
625.0,0.004033965330772091
624.0,0.003977380180042267
623.0,0.0039192179224403325
622.0,0.0038596095038953082
621.0,0.0038001273336703304
620.0,0.003742845177328984
619.0,0.003689743318925671
618.0,0.003642032888731565
617.0,0.003601779910953384
616.0,0.00357312368827216
615.0,0.003557917904219045
614.0,0.0035501746607822255
613.0,0.003539818861909195
612.0,0.003526400603435856
611.0,0.0035227267380555493
610.0,0.003538411032688942
609.0,0.0035633241105766586
608.0,0.003575585914233329
607.0,0.003565541943436384
606.0,0.0035469794874785484
605.0,0.003541388313958978
604.0,0.0035589323538943816
603.0,0.0035961038511655987
602.0,0.003639663445989481
601.0,0.0036691070113980644
600.0,0.0036642801840283904
599.0,0.0036224706277589057
598.0,0.003564310553181211
597.0,0.0035132908683379515
596.0,0.0034759856466391615
595.0,0.0034483528670303017
594.0,0.003429858665030645
593.0,0.00342078985017557
592.0,0.003413344239726999
591.0,0.0033965979143803157
590.0,0.0033684005143881507
589.0,0.003333287187190128
588.0,0.0032925641168767266
587.0,0.0032458503241939198
586.0,0.003197441291824421
585.0,0.0031517732483078067
584.0,0.0031052859505111084
583.0,0.0030502354949221155
582.0,0.0029803961560337247
581.0,0.0028904541904626003
580.0,0.0027812228338523004
579.0,0.002673311212905821
578.0,0.0025962848568721747
577.0,0.0025564172879350847
576.0,0.002534792104154848
575.0,0.0025132676749733476
574.0,0.002485292846782336
573.0,0.0024468211139694693
572.0,0.002396724965441184
571.0,0.002345317416437999
570.0,0.0023066866630093415
569.0,0.002281213565658989
568.0,0.0022601241058215447
567.0,0.0022405198957304827
566.0,0.002224423627157501
565.0,0.0022116535239098956
564.0,0.002210199696464761
563.0,0.0022389037689533086
562.0,0.0022974755350228743
561.0,0.002350919038959367
560.0,0.0023607003452461323
559.0,0.0023239016890728255
558.0,0.002273158558655188
557.0,0.002234864759729444
556.0,0.0022071275939535935
555.0,0.0021823242867161545
554.0,0.0021669001220442382
553.0,0.0021697178083458462
552.0,0.002186919135412882
551.0,0.0022019893610754925
550.0,0.0021904116957446804
