cm-1,A
4000.0,-3.8140822173016176e-05
3999.0,3.3596661670812645e-05
3998.0,9.998448433948866e-05
3997.0,0.00013392966940013696
3996.0,0.00011276759442800828
3995.0,4.0690459084775314e-05
3994.0,-4.840227620835601e-05
3993.0,-0.00010831884114870412
3992.0,-0.00010584727522014621
3991.0,-4.304762334002461e-05
3990.0,3.950603021522824e-05
3989.0,9.050312858212154e-05
3988.0,9.633774337408944e-05
3987.0,9.400490935710824e-05
3986.0,0.00012462449453331517
3985.0,0.00018661519436854752
3984.0,0.00023206530152557843
3983.0,0.00021608435752575733
3982.0,0.00014294568564965013
3981.0,5.368768010981717e-05
3980.0,-1.5797265588592905e-05
3979.0,-5.788075156305632e-05
3978.0,-7.670163340180646e-05
3977.0,-6.307664821129976e-05
3976.0,3.6407737542343624e-06
3975.0,0.0001288072362444631
3974.0,0.0002818365357484878
3973.0,0.0004044693814412334
3972.0,0.0004462169575262503
3971.0,0.0003932215479586559
3970.0,0.0002723699638872588
3969.0,0.00013215089456561357
3968.0,1.3848240424236841e-05
3967.0,-5.554688302637778e-05
3966.0,-6.060078948914296e-05
3965.0,-3.163802247932619e-06
3964.0,9.010067551574194e-05
3963.0,0.00017300241878241392
3962.0,0.00020861134798616813
3961.0,0.00019479122437226137
3960.0,0.00016068719843430074
3959.0,0.00014269181285797962
3958.0,0.0001680321261546486
3957.0,0.00024400187648843065
3956.0,0.0003555217472967307
3955.0,0.0004752584501706331
3954.0,0.0005764146702620155
3953.0,0.0006391823793668989
3952.0,0.0006488379136326858
3951.0,0.000605633606396338
3950.0,0.0005351168764055059
3949.0,0.0004889796328201657
3948.0,0.0005160776732778035
3947.0,0.0006283856476696228
3946.0,0.0007831308756628816
3945.0,0.000876318336500352
3944.0,0.0008260651749740946
3943.0,0.0006732022687389355
3942.0,0.0005345683524978898
3941.0,0.0004651839765487894
3940.0,0.00042843830768165897
3939.0,0.00038439835391731363
3938.0,0.00036323182800979733
3937.0,0.0004341263843365547
3936.0,0.000605652713235808
3935.0,0.0007981869362529209
3934.0,0.0009204958101326852
3933.0,0.000954520172942452
3932.0,0.0009401927967984647
3931.0,0.0008921941555339722
3930.0,0.0008179317179636651
3929.0,0.0007744495528267002
3928.0,0.0008034162575534364
3927.0,0.0008482380419022454
3926.0,0.0008255169979449707
3925.0,0.0007702564863358353
3924.0,0.0007806787833659289
3923.0,0.0008459049685861529
3922.0,0.0008740162231032503
3921.0,0.0008149616997030376
3920.0,0.0007022121753583188
3919.0,0.0005912674797898371
3918.0,0.0004927481370223708
3917.0,0.0004022984079103424
3916.0,0.0003407033373417855
3915.0,0.00031534795746146786
3914.0,0.0003014963354822939
3913.0,0.00026500659068407883
3912.0,0.0002198638538626692
3911.0,0.00021885933129221899
3910.0,0.0002973198495487173
3909.0,0.000457413839125417
3908.0,0.0006687316008608993
3907.0,0.0008588685003546553
3906.0,0.000941572675670483
3905.0,0.0009501940279317586
3904.0,0.0010408229234140248
3903.0,0.0012477579189869433
3902.0,0.0014102116662896638
3901.0,0.0013791283267001217
3900.0,0.001187720241350665
3899.0,0.000983240688256378
3898.0,0.0008521663974083451
3897.0,0.000785556343985137
3896.0,0.0007785934576064503
3895.0,0.000839832833409427
3894.0,0.0009111843918401035
3893.0,0.0008472280520907698
3892.0,0.0006375698869199634
3891.0,0.0004651081674071594
3890.0,0.0004910736816177365
3889.0,0.0007332554867206711
3888.0,0.0009649484737398778
3887.0,0.000896964440828913
3886.0,0.0006885857663345195
3885.0,0.0007989558585365518
3884.0,0.001268763530075147
3883.0,0.0016974406799681865
3882.0,0.0016867724329697816
3881.0,0.0012561954241628172
3880.0,0.0008425231116960586
3879.0,0.0007305071512986603
3878.0,0.000858708573488211
3877.0,0.0009933815721185836
3876.0,0.000890313256139994
3875.0,0.0006286034387167003
3874.0,0.0006410689309784144
3873.0,0.0011089553368881342
3872.0,0.0016160542962307734
3871.0,0.0016819458214717736
3870.0,0.0014660765648605101
3869.0,0.001452298334390996
3868.0,0.0017198793609441505
3867.0,0.0019491022618458665
3866.0,0.0018446694857642593
3865.0,0.0015019258731964412
3864.0,0.0012867566839718059
3863.0,0.0012585678753027898
3862.0,0.0011995293778476641
3861.0,0.0010160831522660727
3860.0,0.0007497535264311115
3859.0,0.00046427685190538175
3858.0,0.0002908169498848029
3857.0,0.00039933749414258757
3856.0,0.000694174070842267
3855.0,0.0006185203931011285
3854.0,0.00026615546409860255
3853.0,0.0005072964521050634
3852.0,0.0010913874481107613
3851.0,0.0013681834157067783
3850.0,0.0012882056132909629
3849.0,0.0010444776000057532
3848.0,0.0008537862792464827
3847.0,0.0008109759761727288
3846.0,0.0008730778458235005
3845.0,0.0009508021054623742
3844.0,0.001033493947379332
3843.0,0.0011850314439675875
3842.0,0.0014179339719604936
3841.0,0.001621651645313341
3840.0,0.0016979609599899982
3839.0,0.0016958835274043529
3838.0,0.0016872212946661882
3837.0,0.0016426393083036795
3836.0,0.0015531789662103258
3835.0,0.0014659714285050053
3834.0,0.0013680651659691932
3833.0,0.0012065334531356307
3832.0,0.0010230868737209358
3831.0,0.000940017153710419
3830.0,0.001019349037138012
3829.0,0.0011555833828257455
3828.0,0.0011599098494463915
3827.0,0.0010090390395762388
3826.0,0.0009341773711162979
3825.0,0.001150457285816274
3824.0,0.001559685644252394
3823.0,0.0016905713773995527
3822.0,0.001371270902467068
3821.0,0.0012512792070149908
3820.0,0.0016003623265313095
3819.0,0.0019742815795069342
3818.0,0.0019653985662351527
3817.0,0.0014579595600975738
3816.0,0.0008733349217235511
3815.0,0.0006547032191589015
3814.0,0.0006694698353443287
3813.0,0.0006117810008103332
3812.0,0.0004485831418003989
3811.0,0.00039488241439070365
3810.0,0.0005996694255447832
3809.0,0.000843800986321325
3808.0,0.0008133980700079169
3807.0,0.0006527594086227712
3806.0,0.0007764188726184125
3805.0,0.001295823204698338
3804.0,0.0018739855809541159
3803.0,0.0019607538336025732
3802.0,0.0015880776640539453
3801.0,0.0014022515523690296
3800.0,0.001565665766303187
3799.0,0.0017446140419088334
3798.0,0.0016787516792298941
3797.0,0.0014097083294752097
3796.0,0.0011818131324006988
3795.0,0.0010809101249996526
3794.0,0.0009805482430246077
3793.0,0.0007889617716178784
3792.0,0.0005632768758262446
3791.0,0.00042774472468184
3790.0,0.0004404810609597103
3789.0,0.0005570413434836368
3788.0,0.0006864021476266835
3787.0,0.0007474236342660525
3786.0,0.0007191411894612145
3785.0,0.0006828665142361873
3784.0,0.0007583396160769497
3783.0,0.0009653302997812046
3782.0,0.0011818973914461675
3781.0,0.0012282678196510895
3780.0,0.001096865940920857
3779.0,0.0009741648118578861
3778.0,0.0009467237836954991
3777.0,0.0009269361738725281
3776.0,0.0008404763935113174
3775.0,0.0007466131544149714
3774.0,0.0007902825348105233
3773.0,0.0009870799561117992
3772.0,0.0011399731126294213
3771.0,0.001109032442407597
3770.0,0.0010605662623869743
3769.0,0.0011977942527851204
3768.0,0.0014342599772427943
3767.0,0.0015327717039142078
3766.0,0.001425473718808371
3765.0,0.0013005189201145506
3764.0,0.0013539426915200412
3763.0,0.0015569832779021861
3762.0,0.0017188908765924525
3761.0,0.001720112527551494
3760.0,0.0016726877327625069
3759.0,0.0017171326025720401
3758.0,0.001793871646502655
3757.0,0.0018152408062663684
3756.0,0.0018455063041105104
3755.0,0.0019408175029360102
3754.0,0.002012580077435948
3753.0,0.001925231934592072
3752.0,0.0017774672489466775
3751.0,0.001919056667376148
3750.0,0.0022684918102901103
3749.0,0.0024868209878891115
3748.0,0.0026759724738470983
3747.0,0.0029162555599231456
3746.0,0.0028056218752920623
3745.0,0.002278505748073768
3744.0,0.0019801806799671735
3743.0,0.0021148997874826086
3742.0,0.0023047310185851525
3741.0,0.002320652784987583
3740.0,0.002261804625641484
3739.0,0.0023119750865239624
3738.0,0.002410291834240263
3737.0,0.0023981187667652558
3736.0,0.0024854319026754116
3735.0,0.002884131176390612
3734.0,0.003169815693677973
3733.0,0.002944432870267813
3732.0,0.0024305584917022702
3731.0,0.002055189701647442
3730.0,0.0019981615683014008
3729.0,0.0021173335868759444
3728.0,0.0021652235652222847
3727.0,0.0020982961572095435
3726.0,0.0020854925516333063
3725.0,0.002186548680766928
3724.0,0.002275088378464815
3723.0,0.0022743122452806696
3722.0,0.002255065122730455
3721.0,0.002279150732374064
3720.0,0.0022935433903613313
3719.0,0.002219516874505374
3718.0,0.0020805834670839674
3717.0,0.0020087239905042277
3716.0,0.0021096756650649234
3715.0,0.002352921918985215
3714.0,0.002609082126994201
3713.0,0.002808678960229141
3712.0,0.0030919863208206614
3711.0,0.0034481238271430502
3710.0,0.0035427530877597084
3709.0,0.0033115549759325487
3708.0,0.0029921648528214266
3707.0,0.002783510946874267
3706.0,0.002759973564206929
3705.0,0.0028831420595122476
3704.0,0.003030745220130435
3703.0,0.0030997340220299636
3702.0,0.003119264725768769
3701.0,0.0031690591315223053
3700.0,0.0032502792269170685
3699.0,0.003308219871271202
3698.0,0.0033015320930157707
3697.0,0.0032851175521157365
3696.0,0.0033814504594417557
3695.0,0.0036176949277314623
3694.0,0.0039040058232509504
3693.0,0.00415061474262804
3692.0,0.004330425026682454
3691.0,0.004467166062967602
3690.0,0.0046629148361083655
3689.0,0.0049472296109417425
3688.0,0.005144637824700255
3687.0,0.005164988835619664
3686.0,0.005054603754894252
3685.0,0.004874532554526152
3684.0,0.004736603491263384
3683.0,0.004770280216733939
3682.0,0.004962040501503533
3681.0,0.005200432852504164
3680.0,0.005512508758241188
3679.0,0.006044870403273627
3678.0,0.006696368062480874
3677.0,0.007037628049379364
3676.0,0.007171880779937434
3675.0,0.007549049776732051
3674.0,0.008020300577701865
3673.0,0.008396854085610115
3672.0,0.008541223168386193
3671.0,0.008394444373630934
3670.0,0.008399990458988307
3669.0,0.008736667640191034
3668.0,0.009008218360030514
3667.0,0.009040763466480072
3666.0,0.008931192944007389
3665.0,0.008819383892384495
3664.0,0.008828681350111976
3663.0,0.009004580533493659
3662.0,0.009310045964538336
3661.0,0.009696930338586292
3660.0,0.010149485177513904
3659.0,0.010627362542182621
3658.0,0.01102041013196414
3657.0,0.01132239933549056
3656.0,0.01170459968550135
3655.0,0.01224655580596404
3654.0,0.012898983461551777
3653.0,0.013547856604062061
3652.0,0.013996232753236089
3651.0,0.01417864006767984
3650.0,0.014612145427702016
3649.0,0.015625440129826508
3648.0,0.016418884233954056
3647.0,0.016553247310760823
3646.0,0.01643761721728654
3645.0,0.016395160461025106
3644.0,0.016489854339206862
3643.0,0.01669556945441529
3642.0,0.017018220982023106
3641.0,0.017447163784534918
3640.0,0.017895955223999803
3639.0,0.01829650971396982
3638.0,0.018684953289157705
3637.0,0.019113908735733896
3636.0,0.019526875244474506
3635.0,0.01983473311386607
3634.0,0.020123660166571477
3633.0,0.020615943858893766
3632.0,0.021411311067048584
3631.0,0.022249966756420943
3630.0,0.022818035210689484
3629.0,0.023351810601458398
3628.0,0.023955204491050236
3627.0,0.02433187558089513
3626.0,0.024488677258353832
3625.0,0.024599046502887918
3624.0,0.02482349687965126
3623.0,0.02526271343790419
3622.0,0.02586597239539002
3621.0,0.02651021260018827
3620.0,0.02719658341335211
3619.0,0.0279763915521099
3618.0,0.028696458023249716
3617.0,0.029226741563046242
3616.0,0.029610419492728968
3615.0,0.029906317026272826
3614.0,0.030185204999772182
3613.0,0.030524501311192817
3612.0,0.03092681953611051
3611.0,0.0313365998331739
3610.0,0.03170172556539806
3609.0,0.03204518791939758
3608.0,0.03245236407459381
3607.0,0.03290474869255355
3606.0,0.03330305041165095
3605.0,0.03363919379551454
3604.0,0.03397872286951668
3603.0,0.03438815151404196
3602.0,0.03491136040453295
3601.0,0.035562738086255964
3600.0,0.03627531527616591
3599.0,0.03692167819670401
3598.0,0.03743171016588133
3597.0,0.03782728115638749
3596.0,0.038159665768361765
3595.0,0.03846749680928437
3594.0,0.03876652217531829
3593.0,0.03906888793102723
3592.0,0.039426349647842474
3591.0,0.039881460680894834
3590.0,0.04038332869072825
3589.0,0.040873392413809106
3588.0,0.04148995096597796
3587.0,0.04228707226917053
3586.0,0.04296053232036784
3585.0,0.04332696644687477
3584.0,0.04348790349731957
3583.0,0.04360134067374784
3582.0,0.04379567367326994
3581.0,0.04413125575972662
3580.0,0.044583012882356554
3579.0,0.0450657008696647
3578.0,0.045518655237491296
3577.0,0.045954893832308136
3576.0,0.04642886552677696
3575.0,0.04696776358984715
3574.0,0.04754415660534248
3573.0,0.04811017498665475
3572.0,0.048666138805681124
3571.0,0.04926389806157926
3570.0,0.049929186387759825
3569.0,0.05062916734732031
3568.0,0.05140541627699885
3567.0,0.05229894679296289
3566.0,0.053065081827488265
3565.0,0.053477632307760044
3564.0,0.053625879294888774
3563.0,0.05368081051617162
3562.0,0.05377038351782978
3561.0,0.05399258845352444
3560.0,0.054380767906212775
3559.0,0.05488078110367448
3558.0,0.05540909593037852
3557.0,0.05592349832220808
3556.0,0.05642205209166072
3555.0,0.056907726237959616
3554.0,0.057391916870112934
3553.0,0.057920551179781635
3552.0,0.05851398252962927
3551.0,0.059108528113397424
3550.0,0.05962849696795029
3549.0,0.0600638919420312
3548.0,0.06047170461427014
3547.0,0.06093754175186897
3546.0,0.06149721736026034
3545.0,0.06209031806070657
3544.0,0.0626362248740186
3543.0,0.0631096046723121
3542.0,0.06351587131110242
3541.0,0.06387337725385758
3540.0,0.06422681268899266
3539.0,0.06463813943715015
3538.0,0.06514307961797196
3537.0,0.06571269104778263
3536.0,0.06626427151896164
3535.0,0.06674063701428826
3534.0,0.06716782036528147
3533.0,0.06761426725693978
3532.0,0.06811799146155148
3531.0,0.06866294199525887
3530.0,0.06921904460170002
3529.0,0.06979260501208283
3528.0,0.07041377772710032
3527.0,0.07106948263084895
3526.0,0.07168507773846604
3525.0,0.07218875292681956
3524.0,0.07257693416303453
3523.0,0.07291253736741884
3522.0,0.07326771103769153
3521.0,0.0736786316141884
3520.0,0.07414129201500225
3519.0,0.074635200200568
3518.0,0.07514324644219074
3517.0,0.07565061992577812
3516.0,0.07613963910103791
3515.0,0.07660401723413568
3514.0,0.07706477150032094
3513.0,0.07755698929960617
3512.0,0.078098073845747
3511.0,0.07867732265040227
3510.0,0.07927206950389842
3509.0,0.07985570818883318
3508.0,0.08039946050586691
3507.0,0.08089324486431453
3506.0,0.08136621227249428
3505.0,0.08188968641727247
3504.0,0.08253415311406107
3503.0,0.08325283299206938
3502.0,0.08387530550561019
3501.0,0.0843107046013018
3500.0,0.08464921992489621
3499.0,0.08503275533227335
3498.0,0.08551359680044016
3497.0,0.08603494645105234
3496.0,0.08652201545160239
3495.0,0.08697955931346883
3494.0,0.08748427435816461
3493.0,0.08808729344983703
3492.0,0.08874969903811276
3491.0,0.08938352354933583
3490.0,0.08993776741090086
3489.0,0.09042903221183866
3488.0,0.09089367137249062
3487.0,0.09133661546699681
3486.0,0.09174920750918689
3485.0,0.09215184445324287
3484.0,0.09258522313210012
3483.0,0.09307255219996557
3482.0,0.09360380146841144
3481.0,0.09414583815319529
3480.0,0.09466521994944598
3479.0,0.09515134785063134
3478.0,0.09562749353396237
3477.0,0.09613632309212777
3476.0,0.09669585627678041
3475.0,0.09726015206053748
3474.0,0.09775545050068693
3473.0,0.09816953521045277
3472.0,0.09856712052446921
3471.0,0.09900939139060125
3470.0,0.0994923473301647
3469.0,0.09997125238047207
3468.0,0.10041990139396152
3467.0,0.10084724636332687
3466.0,0.10127352041872563
3465.0,0.10172018660136423
3464.0,0.10221257104451421
3463.0,0.10276240250284545
3462.0,0.10334247257534308
3461.0,0.10389598322464072
3460.0,0.1043796173009183
3459.0,0.10479421926329117
3458.0,0.10517892753092434
3457.0,0.10558747727418988
3456.0,0.10605645369977662
3455.0,0.10657450629775912
3454.0,0.10708562355102176
3453.0,0.10754232102689525
3452.0,0.10795404964102646
3451.0,0.10836511346968626
3450.0,0.10879610240436353
3449.0,0.10923085580339645
3448.0,0.10965550091977577
3447.0,0.11007044521698267
3446.0,0.1104646379904625
3445.0,0.11082747354772492
3444.0,0.11117789621116043
3443.0,0.11154962030579856
3442.0,0.11195390971901614
3441.0,0.1123781920177532
3440.0,0.11282433022447627
3439.0,0.1133119113712757
3438.0,0.11382595918450258
3437.0,0.11430409726907437
3436.0,0.11470826515071576
3435.0,0.11508402652203797
3434.0,0.11550807259791787
3433.0,0.11598802355643505
3432.0,0.11645013927065972
3431.0,0.11682173734795027
3430.0,0.11710128370314468
3429.0,0.1173414410912347
3428.0,0.11758208005532421
3427.0,0.11781990550066714
3426.0,0.11804198814185561
3425.0,0.11827224797311363
3424.0,0.11856827248559847
3423.0,0.11896422994529784
3422.0,0.11942153330555247
3421.0,0.11985376958608288
3420.0,0.12020981773293384
3419.0,0.12051214707752843
3418.0,0.12080665584672853
3417.0,0.12110975830594929
3416.0,0.12142001766014786
3415.0,0.12174944315121647
3414.0,0.1221107619056972
3413.0,0.12248107780317316
3412.0,0.12280717940961185
3411.0,0.12305248318884843
3410.0,0.12322884878552527
3409.0,0.12338393058798851
3408.0,0.12356340060683832
3407.0,0.12378507834902674
3406.0,0.12404285949177732
3405.0,0.12433019657015573
3404.0,0.12465157131517807
3403.0,0.12500280056996227
3402.0,0.12534695777746815
3401.0,0.12563347789519078
3400.0,0.12584839203718864
3399.0,0.1260249980591616
3398.0,0.12619557268264137
3397.0,0.1263515294797938
3396.0,0.1264746143939171
3395.0,0.12659359005873075
3394.0,0.12677155338146126
3393.0,0.12702869340036319
3392.0,0.1273060096135401
3391.0,0.12752813816264616
3390.0,0.12767839896168887
3389.0,0.12778588848426078
3388.0,0.12786419335650287
3387.0,0.12789820014366596
3386.0,0.12788895625708627
3385.0,0.1278822906852814
3384.0,0.12793328562008052
3383.0,0.12805242410478568
3382.0,0.12819987737064228
3381.0,0.12832661091195036
3380.0,0.12841695933949987
3379.0,0.1284984274765982
3378.0,0.12860926849561566
3377.0,0.1287488888158144
3376.0,0.12886833532757871
3375.0,0.12892434726804589
3374.0,0.12893751203582884
3373.0,0.12897425898122802
3372.0,0.12906682479512174
3371.0,0.1291720754535707
3370.0,0.12921761088721795
3369.0,0.12917326021853165
3368.0,0.12907217115188427
3367.0,0.12898487879488876
3366.0,0.12898193708433844
3365.0,0.12908864109724724
3364.0,0.12924977694065967
3363.0,0.12935929661532464
3362.0,0.129354418656422
3361.0,0.12927134813591537
3360.0,0.12918495831517182
3359.0,0.12911424601093646
3358.0,0.12902910939731657
3357.0,0.12893195814114658
3356.0,0.12887012773330125
3355.0,0.12885314009914026
3354.0,0.1288127441372369
3353.0,0.1286832801049443
3352.0,0.12849172453927057
3351.0,0.12833450640405233
3350.0,0.12827406939976221
3349.0,0.12828192317246792
3348.0,0.12827980252049576
3347.0,0.12821639058585008
3346.0,0.1281033331062245
3345.0,0.1279891852724672
3344.0,0.12790017039227655
3343.0,0.12780740129213766
3342.0,0.12766306945876826
3341.0,0.1274655801142344
3340.0,0.12726784467810082
3339.0,0.1271167747296201
3338.0,0.12700817757178304
3337.0,0.1269125818360694
3336.0,0.1268180361858345
3335.0,0.12672134706022065
3334.0,0.12659511477863905
3333.0,0.12639578830208686
3332.0,0.12610392500161202
3331.0,0.12574249138511753
3330.0,0.12536248019456062
3329.0,0.12502287001210813
3328.0,0.12477239349172115
3327.0,0.1246269731594703
3326.0,0.12455811569363434
3325.0,0.12450956114325087
3324.0,0.12442603472276853
3323.0,0.12427173182112275
3322.0,0.12404502438694476
3321.0,0.12378923934749611
3320.0,0.12356882502190913
3319.0,0.12340978939464069
3318.0,0.12326736154436857
3317.0,0.1230685028491648
3316.0,0.12278432760770039
3315.0,0.12245251011917195
3314.0,0.12214048562364803
3313.0,0.12189857547882353
3312.0,0.12173477030129642
3311.0,0.12161578935102962
3310.0,0.12149430620091416
3309.0,0.12134653757406517
3308.0,0.12118072536931147
3307.0,0.12100600443286708
3306.0,0.1208133091451471
3305.0,0.12060169631859194
3304.0,0.12040027557218654
3303.0,0.12023600141372418
3302.0,0.12009114026584884
3301.0,0.11992326827749011
3300.0,0.11972113460830729
3299.0,0.11950827521659498
3298.0,0.11929363690101948
3297.0,0.11905577357461387
3296.0,0.11878860631636867
3295.0,0.11853211386893764
3294.0,0.11833645260741554
3293.0,0.11821118035019788
3292.0,0.11812370434583504
3291.0,0.11803207288205786
3290.0,0.11790052928904625
3289.0,0.11769831887628032
3288.0,0.11741784467594389
3287.0,0.11709989819158889
3286.0,0.11681396808826428
3285.0,0.1165920284424206
3284.0,0.11638940021220076
3283.0,0.11613286029120011
3282.0,0.11581184076673974
3281.0,0.11550195819043994
3280.0,0.11528625920684747
3279.0,0.11516920275495487
3278.0,0.11508216085975817
3277.0,0.11495930386066176
3276.0,0.11478441502412559
3275.0,0.11456825830998131
3274.0,0.11431472960374836
3273.0,0.11402808748352812
3272.0,0.11373240256620706
3271.0,0.11345843189681164
3270.0,0.11321464898684615
3269.0,0.11298225605273979
3268.0,0.1127343763014245
3267.0,0.11245506419324704
3266.0,0.11214955770909663
3265.0,0.11184310294810455
3264.0,0.11156220546542889
3263.0,0.11131282354586201
3262.0,0.11108221700196913
3261.0,0.1108578778425386
3260.0,0.11063104012326731
3259.0,0.11038542072273683
3258.0,0.11010259977934109
3257.0,0.10978354659532925
3256.0,0.10944619121090518
3255.0,0.1090965080197648
3254.0,0.10872538684019956
3253.0,0.10834496045627982
3252.0,0.10800124559326964
3251.0,0.10772902466935906
3250.0,0.10751042546709864
3249.0,0.10729579729384786
3248.0,0.10705507558349968
3247.0,0.10679369672567597
3246.0,0.10652830944775214
3245.0,0.10626401173061613
3244.0,0.10599120795271859
3243.0,0.10569285469197333
3242.0,0.10535584912229223
3241.0,0.10498143042310308
3240.0,0.10458332924118004
3239.0,0.10417674201693874
3238.0,0.10377863597936131
3237.0,0.10341719839920918
3236.0,0.10311722391165824
3235.0,0.10286464659012454
3234.0,0.10260743536357955
3233.0,0.10230944651588599
3232.0,0.10198844740071313
3231.0,0.10168519308367266
3230.0,0.10141026774441633
3229.0,0.10113936185592598
3228.0,0.1008475782689042
3227.0,0.10052832325809953
3226.0,0.10018813200218327
3225.0,0.0998409696225491
3224.0,0.09950054869857929
3223.0,0.09916483755401546
3222.0,0.0988169493500716
3221.0,0.09845049723440569
3220.0,0.09807960071796816
3219.0,0.0977126671066165
3218.0,0.09733631939108175
3217.0,0.0969419554939171
3216.0,0.09654575447548873
3215.0,0.09615992557757391
3214.0,0.09576332874893834
3213.0,0.09533285575286507
3212.0,0.0948922502698159
3211.0,0.09449219858211277
3210.0,0.09414525256767481
3209.0,0.09381261675304485
3208.0,0.09345971827538628
3207.0,0.09309546499123958
3206.0,0.09274380228917505
3205.0,0.0923987936223283
3204.0,0.09202352935110562
3203.0,0.09158602918402377
3202.0,0.09109127400461242
3201.0,0.09058316525876461
3200.0,0.0901129840372317
3199.0,0.08969681685618433
3198.0,0.08930573410307019
3197.0,0.08890643619701331
3196.0,0.0884988312871875
3195.0,0.08809347037859382
3194.0,0.08766916074748274
3193.0,0.08718991080298896
3192.0,0.08666386429938966
3191.0,0.08615026612762275
3190.0,0.08569329672228441
3189.0,0.08527288077632841
3188.0,0.0848386341225142
3187.0,0.08437281171121341
3186.0,0.08389824405779386
3185.0,0.0834360729956453
3184.0,0.08297954400803846
3183.0,0.0825107326778116
3182.0,0.08202613576219066
3181.0,0.08154157845775946
3180.0,0.08108068209282261
3179.0,0.08065647723637978
3178.0,0.08025461424709582
3177.0,0.07983960334938665
3176.0,0.07939050099830132
3175.0,0.07892634233194264
3174.0,0.07848302117817844
3173.0,0.07806499335690102
3172.0,0.07763232807894228
3171.0,0.07714428588781162
3170.0,0.076609155587148
3169.0,0.07607875135350674
3168.0,0.07559454543023077
3167.0,0.07515105194241341
3166.0,0.07471397753319786
3165.0,0.07425989658788305
3164.0,0.07379008937057635
3163.0,0.07331769779364634
3162.0,0.07285612557533332
3161.0,0.07241775153722589
3160.0,0.072008950780871
3159.0,0.07162030445980186
3158.0,0.07122900401062295
3157.0,0.0708148961692155
3156.0,0.07037011112660288
3155.0,0.06989484154888398
3154.0,0.06939707827171153
3153.0,0.06890212753360335
3152.0,0.06844880696619016
3151.0,0.06806160341766614
3150.0,0.06772743514691852
3149.0,0.06740609875949975
3148.0,0.06705973405388557
3147.0,0.06666831667709297
3146.0,0.06622841901338955
3145.0,0.06575394006179808
3144.0,0.0652761101025692
3143.0,0.06482525252144883
3142.0,0.06440548710024815
3141.0,0.0639946828522516
3140.0,0.06357223290119132
3139.0,0.0631406250123344
3138.0,0.06271639604311828
3137.0,0.06230768767447675
3136.0,0.06190957045229212
3135.0,0.06151629174579308
3134.0,0.0611256213208883
3133.0,0.06072978734299469
3132.0,0.06031698551813022
3131.0,0.059892140333431904
3130.0,0.05948449173149476
3129.0,0.059119057615332295
3128.0,0.05878235082539281
3127.0,0.05843097190841336
3126.0,0.05804070017893472
3125.0,0.0576348350374084
3124.0,0.05725469438620397
3123.0,0.05691156300474288
3122.0,0.056580742652546014
3121.0,0.05623826155782984
3120.0,0.05588411080462229
3119.0,0.0555262835814625
3118.0,0.05516214774378896
3117.0,0.05478800593027074
3116.0,0.054415916991320284
3115.0,0.05406629027168106
3114.0,0.0537436606836497
3113.0,0.05342876622895966
3112.0,0.05309753652732827
3111.0,0.05274298164437204
3110.0,0.05237942733711021
3109.0,0.052033145259791004
3108.0,0.05173084450716571
3107.0,0.0514866996365778
3106.0,0.05128788247208837
3105.0,0.05109197966021083
3104.0,0.050848767486042556
3103.0,0.050534130129077884
3102.0,0.05016794782400958
3101.0,0.049799956390671106
3100.0,0.049472602604721916
3099.0,0.04919249488508235
3098.0,0.048933368489732725
3097.0,0.04866027473546639
3096.0,0.04835285266837572
3095.0,0.04801434963509652
3094.0,0.04766305206564776
3093.0,0.04731682330305459
3092.0,0.04698621985165643
3091.0,0.04667826274187439
3090.0,0.04639827104898674
3089.0,0.04614344960622027
3088.0,0.04590067081038785
3087.0,0.04565805087320535
3086.0,0.04541666936327917
3085.0,0.04518139966535013
3084.0,0.04494174790142768
3083.0,0.0446757002674003
3082.0,0.04437653648408861
3081.0,0.04406378322236971
3080.0,0.04375772206002878
3079.0,0.04345536212765158
3078.0,0.0431468259502716
3077.0,0.04284262100275297
3076.0,0.042565176733860566
3075.0,0.042317335363075415
3074.0,0.04207745339640886
3073.0,0.04182885072918401
3072.0,0.04157640531577495
3071.0,0.04132845803808215
3070.0,0.04107811958978708
3069.0,0.040813504015456956
3068.0,0.040536393554796525
3067.0,0.04025684929250955
3066.0,0.03997683865588514
3065.0,0.039693653805610095
3064.0,0.039415894537711126
3063.0,0.03915942629285393
3062.0,0.03892241763084041
3061.0,0.038677677387902655
3060.0,0.038397511615713524
3059.0,0.03808352266404887
3058.0,0.03776659477344712
3057.0,0.03747400229602336
3056.0,0.037201643526998285
3055.0,0.03692358198069889
3054.0,0.036626743371455404
3053.0,0.03632766422634588
3052.0,0.036051404708338355
3051.0,0.03580244378927993
3050.0,0.035562004154841655
3049.0,0.03530833017095878
3048.0,0.03503317860785791
3047.0,0.03474240555960158
3046.0,0.0344508466659929
3045.0,0.03417710963769421
3044.0,0.03393257187973178
3043.0,0.033710772573776526
3042.0,0.03349431811320529
3041.0,0.03327320656768776
3040.0,0.03304988647427654
3039.0,0.032826054335034535
3038.0,0.03259474207265615
3037.0,0.03235144642368587
3036.0,0.03210500087978754
3035.0,0.03187253873308474
3034.0,0.031668500216078366
3033.0,0.03149822420588487
3032.0,0.03135110531420069
3031.0,0.031195589934836947
3030.0,0.03099571322609187
3029.0,0.03074779405971851
3028.0,0.030491744650994863
3027.0,0.030275094457025184
3026.0,0.030107153086913214
3025.0,0.02995219636221608
3024.0,0.02976915535408983
3023.0,0.029546604553818044
3022.0,0.02929736592222135
3021.0,0.029036318467472892
3020.0,0.028774656317841006
3019.0,0.028527159046245414
3018.0,0.028309560993665606
3017.0,0.028127907172883156
3016.0,0.027978278332081864
3015.0,0.027855761409504055
3014.0,0.02775422936787432
3013.0,0.02765698433904007
3012.0,0.02754113811953445
3011.0,0.027399800783508923
3010.0,0.027250088753991698
3009.0,0.027108878060904933
3008.0,0.026966920515660367
3007.0,0.02680169291287857
3006.0,0.026614729078017263
3005.0,0.02644389614388817
3004.0,0.026329849495982008
3003.0,0.026274403515523913
3002.0,0.0262401546992138
3001.0,0.02618537764760959
3000.0,0.026095027323526337
2999.0,0.02598462661012286
2998.0,0.025885374577197726
2997.0,0.025823747558574976
2996.0,0.025803542960786352
2995.0,0.025804588928649896
2994.0,0.02580280613131195
2993.0,0.025794711830680116
2992.0,0.02579978306581511
2991.0,0.0258389165759833
2990.0,0.025918065049441222
2989.0,0.026031637047971054
2988.0,0.02617311603017928
2987.0,0.026338954509174627
2986.0,0.026530721247670978
2985.0,0.026762811308693162
2984.0,0.027061785403285316
2983.0,0.027446863123981115
2982.0,0.027908761000186473
2981.0,0.028419608145602713
2980.0,0.028970754069905007
2979.0,0.02959378514982562
2978.0,0.030338973629628188
2977.0,0.031235955567359808
2976.0,0.03228290962279982
2975.0,0.0334694590876991
2974.0,0.03480382010500373
2973.0,0.03631729412375801
2972.0,0.03804848477736769
2971.0,0.04002319679836777
2970.0,0.04224133883069181
2969.0,0.04467916907934098
2968.0,0.047302012210684266
2967.0,0.050071284133367956
2966.0,0.05293355013066389
2965.0,0.055802865577767466
2964.0,0.058554999115697295
2963.0,0.06104029681083197
2962.0,0.06311790280162502
2961.0,0.06471635072148255
2960.0,0.06589118963377742
2959.0,0.06682587824855551
2958.0,0.06777479855404057
2957.0,0.06899095107539885
2956.0,0.07066904963782099
2955.0,0.07289986759070996
2954.0,0.07561817905599096
2953.0,0.07857774980665586
2952.0,0.08138162938754362
2951.0,0.08356071226915404
2950.0,0.08467284808199461
2949.0,0.0843926271367686
2948.0,0.08260328185555273
2947.0,0.07945468998426014
2946.0,0.07535122919800454
2945.0,0.07085519490680932
2944.0,0.0665205684269642
2943.0,0.06275192713189225
2942.0,0.059767809564275416
2941.0,0.05765154607325923
2940.0,0.056404903180025154
2939.0,0.05596798006186389
2938.0,0.05623862066266273
2937.0,0.057118420631702145
2936.0,0.05855388153637189
2935.0,0.06052893120463724
2934.0,0.06301546644947727
2933.0,0.06595115433453894
2932.0,0.06927105624497935
2931.0,0.07294077636106536
2930.0,0.07693399845616858
2929.0,0.08117777954224777
2928.0,0.08554726347485299
2927.0,0.08991638934189182
2926.0,0.09421340168807994
2925.0,0.09844606577532984
2924.0,0.10268812782026657
2923.0,0.10701736509715272
2922.0,0.11143752059341284
2921.0,0.11581896961738015
2920.0,0.1198839448058728
2919.0,0.12322068008634735
2918.0,0.12532532954331455
2917.0,0.1257359596637987
2916.0,0.12423375979050288
2915.0,0.12097820229418331
2914.0,0.11645450132359024
2913.0,0.11129442868307399
2912.0,0.10606709716816495
2911.0,0.10113836787200597
2910.0,0.09666740731600812
2909.0,0.09267296620997387
2908.0,0.08910090800514063
2907.0,0.08585354354514627
2906.0,0.08281674053952723
2905.0,0.0798949460031377
2904.0,0.0770294780277269
2903.0,0.07420317257051755
2902.0,0.0714315721006888
2901.0,0.06874966292339775
2900.0,0.06619230685938539
2899.0,0.06377892310817385
2898.0,0.06152337645963664
2897.0,0.05945147136018833
2896.0,0.05759438744971313
2895.0,0.055964805415857355
2894.0,0.054555975054334405
2893.0,0.05336303746453934
2892.0,0.05238880635774627
2891.0,0.051624161621599385
2890.0,0.05103848708930254
2889.0,0.05060129178382356
2888.0,0.05030294625850968
2887.0,0.05014580350294805
2886.0,0.05012421285405903
2885.0,0.05022568238538566
2884.0,0.05044994148893939
2883.0,0.050810174105872984
2882.0,0.05130657555816848
2881.0,0.05189855982379491
2880.0,0.05250211657549416
2879.0,0.053008451979167114
2878.0,0.05331432360984332
2877.0,0.05335817767015367
2876.0,0.053157428364436536
2875.0,0.052818989746413456
2874.0,0.05250118660552299
2873.0,0.05235088862876226
2872.0,0.05244584557373105
2871.0,0.05278047206120011
2870.0,0.053285195899338285
2869.0,0.053839506083797194
2868.0,0.0542627521169626
2867.0,0.0543124998241535
2866.0,0.053739106057663244
2865.0,0.05239232796229804
2864.0,0.05031651014212663
2863.0,0.047764099980780086
2862.0,0.04510741798562997
2861.0,0.04272443882462453
2860.0,0.0408977145551414
2859.0,0.039767070362323416
2858.0,0.039341367719470235
2857.0,0.03954429561468928
2856.0,0.04026494284490711
2855.0,0.04140573096821091
2854.0,0.04289369138840599
2853.0,0.04462844108871361
2852.0,0.04640060195616458
2851.0,0.04786083123690751
2850.0,0.04863678290252698
2849.0,0.048546882003097376
2848.0,0.04774911784677423
2847.0,0.0466815175095151
2846.0,0.045822495666035815
2845.0,0.04548094177947519
2844.0,0.0457298832372194
2843.0,0.04646522936458678
2842.0,0.04748503740306938
2841.0,0.048544049857660046
2840.0,0.04937916184215154
2839.0,0.04973023470961885
2838.0,0.04937307709979901
2837.0,0.04815610161534666
2836.0,0.04605103457532577
2835.0,0.043189095234229
2834.0,0.03984321963239862
2833.0,0.03635749876459247
2832.0,0.03303322939143756
2831.0,0.030060518650135183
2830.0,0.027516365737758165
2829.0,0.025400848177381963
2828.0,0.023674169790939243
2827.0,0.02227497725060534
2826.0,0.02113355376221611
2825.0,0.020181226959941626
2824.0,0.019358440750626062
2823.0,0.018628991033496346
2822.0,0.017990041027303755
2821.0,0.017451499216636485
2820.0,0.017002859441482582
2819.0,0.016605863748018136
2818.0,0.01622463982754057
2817.0,0.015855247588303832
2816.0,0.01551641935960665
2815.0,0.01522096462899699
2814.0,0.014967674379332194
2813.0,0.014750614614610143
2812.0,0.014560975494643854
2811.0,0.014378751996616443
2810.0,0.014173800500819577
2809.0,0.01392554267229043
2808.0,0.013640463121865355
2807.0,0.013346355254426226
2806.0,0.013067179718168299
2805.0,0.01280354222475844
2804.0,0.012539400678073315
2803.0,0.012265966299560017
2802.0,0.011993833520894295
2801.0,0.011740809604887811
2800.0,0.011516427029165527
2799.0,0.011325305073855707
2798.0,0.011176680408837856
2797.0,0.011073270138676173
2796.0,0.010992200287903136
2795.0,0.01089399992201866
2794.0,0.010757854071918576
2793.0,0.010597670513348072
2792.0,0.010436965490678771
2791.0,0.010281629953914321
2790.0,0.010126541954066115
2789.0,0.009978069603521555
2788.0,0.009853797490782204
2787.0,0.009759208246839327
2786.0,0.009676799641434418
2785.0,0.009581569866074866
2784.0,0.009461138045853324
2783.0,0.009319756380526881
2782.0,0.009169041918778787
2781.0,0.00902088312114037
2780.0,0.00888686277649975
2779.0,0.008775766558907787
2778.0,0.008687347904879014
2777.0,0.008610682027274219
2776.0,0.008533937435202015
2775.0,0.008458158827674523
2774.0,0.008396228196586112
2773.0,0.008355332211862658
2772.0,0.00832547556471632
2771.0,0.008288866358602051
2770.0,0.008236272321456354
2769.0,0.008169891780146293
2768.0,0.008094990403564973
2767.0,0.008015334039891714
2766.0,0.007935670420237757
2765.0,0.007862081814278808
2764.0,0.007798701905872228
2763.0,0.0077464291496872825
2762.0,0.00770111328066027
2761.0,0.007650394140855015
2760.0,0.00758053868433445
2759.0,0.007494873300948153
2758.0,0.007419874729287667
2757.0,0.007381251304896476
2756.0,0.007373524496594296
2755.0,0.007362812790849226
2754.0,0.007321600925927792
2753.0,0.007254035190103274
2752.0,0.0071868532944309085
2751.0,0.007142752263807908
2750.0,0.007126065184445696
2749.0,0.007125535560873843
2748.0,0.007124735644731971
2747.0,0.007111628285360763
2746.0,0.0070811930824296095
2745.0,0.0070336399548487655
2744.0,0.006976292053391613
2743.0,0.006927080895873286
2742.0,0.006906068496461132
2741.0,0.006917002300266076
2740.0,0.006943108617340063
2739.0,0.006966291395322158
2738.0,0.00698479594577236
2737.0,0.0070067682824274235
2736.0,0.007035614544869314
2735.0,0.00707091437346175
2734.0,0.007115944322794979
2733.0,0.007171351807085856
2732.0,0.007225530455398555
2731.0,0.007264024584317293
2730.0,0.007287060718435181
2729.0,0.00730838639278112
2728.0,0.007339638385845294
2727.0,0.00738475430391804
2726.0,0.007443246336080334
2725.0,0.007505371956575635
2724.0,0.0075473687905474665
2723.0,0.00754642368298503
2722.0,0.007501068080660818
2721.0,0.007427122194057147
2720.0,0.007336257760675679
2719.0,0.007230655317103485
2718.0,0.0071147449979492815
2717.0,0.006997267869618759
2716.0,0.006882250160481982
2715.0,0.006770258939191707
2714.0,0.006668069053515978
2713.0,0.006583037994685283
2712.0,0.006508215181035611
2711.0,0.006428480305905608
2710.0,0.006343115937356791
2709.0,0.006266122641310686
2708.0,0.006202120618308086
2707.0,0.006138998186081843
2706.0,0.0060687704569189
2705.0,0.005999647787545013
2704.0,0.00593973937573058
2703.0,0.005883495992712773
2702.0,0.005823676012481573
2701.0,0.005764700759618682
2700.0,0.00571479823478579
2699.0,0.0056745537636560105
2698.0,0.005641742599481669
2697.0,0.005618520535037353
2696.0,0.005603518604848131
2695.0,0.005582807849117631
2694.0,0.005538752165331434
2693.0,0.0054669053729950075
2692.0,0.005382731620174448
2691.0,0.005314871638061914
2690.0,0.0052899750483072425
2689.0,0.005313021541578226
2688.0,0.005357652741362183
2687.0,0.005385009666346853
2686.0,0.00537688603259815
2685.0,0.005346606256634042
2684.0,0.005318477138600315
2683.0,0.005306218049493644
2682.0,0.005311298062112231
2681.0,0.005327493502736319
2680.0,0.005340546798528047
2679.0,0.0053350728566505775
2678.0,0.005309960827182318
2677.0,0.005279944479214113
2676.0,0.005256782623935563
2675.0,0.005237838181837655
2674.0,0.0052183843885025335
2673.0,0.005203645156366188
2672.0,0.005198777723532174
2671.0,0.005195309941483262
2670.0,0.005179863337994897
2669.0,0.005154311311925181
2668.0,0.005138370562035062
2667.0,0.005152409129078806
2666.0,0.005201007237396319
2665.0,0.00527008558239823
2664.0,0.005335850110604672
2663.0,0.005379202664044926
2662.0,0.005396262512016038
2661.0,0.0053951279825975584
2660.0,0.0053832681303861004
2659.0,0.005362660277790384
2658.0,0.005335683253764072
2657.0,0.00530744006144731
2656.0,0.005278816903647862
2655.0,0.005244413987000085
2654.0,0.005200493464017278
2653.0,0.0051486471614608205
2652.0,0.005089265630845749
2651.0,0.005020621113352405
2650.0,0.004949861899732386
2649.0,0.004895275068603551
2648.0,0.004867941255962598
2647.0,0.004855650510415037
2646.0,0.004833630436974599
2645.0,0.004789830846535781
2644.0,0.0047337018073173726
2643.0,0.004681904804182401
2642.0,0.004640911734651047
2641.0,0.004603346851007037
2640.0,0.004557213074394273
2639.0,0.004497955790575698
2638.0,0.004432369956374133
2637.0,0.004371177144496484
2636.0,0.00432036980621783
2635.0,0.004281981245982446
2634.0,0.004259090598987638
2633.0,0.004251904339441506
2632.0,0.004249798571557926
2631.0,0.004236328070366937
2630.0,0.00420499233471853
2629.0,0.004165322152926557
2628.0,0.004131907829971186
2627.0,0.0041122239948893444
2626.0,0.004104713458578137
2625.0,0.004102029547472422
2624.0,0.004095330963075711
2623.0,0.004080726710201792
2622.0,0.004061977809001362
2621.0,0.004042766445463846
2620.0,0.004018531463086924
2619.0,0.003983022180102014
2618.0,0.003941601171087847
2617.0,0.003910114995407421
2616.0,0.0038993443010435025
2615.0,0.00390442933028022
2614.0,0.0039065992151105
2613.0,0.0038821225705546842
2612.0,0.0038182774464268114
2611.0,0.003730272749930913
2610.0,0.0036565649151436546
2609.0,0.003623572071986164
2608.0,0.0036165181761033368
2607.0,0.0035965056379708357
2606.0,0.0035430571611883375
2605.0,0.0034705405796956242
2604.0,0.0034074301833832967
2603.0,0.003371798044575919
2602.0,0.0033628255985841595
2601.0,0.0033611351166783253
2600.0,0.0033400931949097434
2599.0,0.003290597544636573
2598.0,0.00323378977929001
2597.0,0.003197200932123131
2596.0,0.0031804553794655124
2595.0,0.0031588046196262876
2594.0,0.003119817408550667
2593.0,0.003082600288996243
2592.0,0.003078897237414928
2591.0,0.003120687485240698
2590.0,0.0031837064367635443
2589.0,0.003219426074956183
2588.0,0.0031977387453548385
2587.0,0.003147565958819612
2586.0,0.003135724107642668
2585.0,0.0031902303504122813
2584.0,0.0032634771396790746
2583.0,0.0032927395186398067
2582.0,0.003275489936773638
2581.0,0.003251574251190781
2580.0,0.0032297245848597832
2579.0,0.003178722528270415
2578.0,0.0030871281524488875
2577.0,0.0029867903940187183
2576.0,0.002907744534517282
2575.0,0.0028477782653796484
2574.0,0.002798966580237574
2573.0,0.0027696750962854606
2572.0,0.0027627731999013755
2571.0,0.0027602254460265224
2570.0,0.002747832114237238
2569.0,0.0027342133289262756
2568.0,0.002729999221863401
2567.0,0.002726733637659015
2566.0,0.0027105045304910364
2565.0,0.00268072505745691
2564.0,0.0026433602902993475
2563.0,0.0026007673275307607
2562.0,0.0025592267664814113
2561.0,0.0025326327841438978
2560.0,0.002527532525950503
2559.0,0.0025332373468163944
2558.0,0.0025316554338613018
2557.0,0.002508752773686997
2556.0,0.002458798659691315
2555.0,0.002391964662098651
2554.0,0.002336362966207455
2553.0,0.0023160299115590165
2552.0,0.0023264578793994206
2551.0,0.0023453882317845754
2550.0,0.0023618240251086497
2549.0,0.0023763499359206342
2548.0,0.0023820806220772087
2547.0,0.0023721482033050756
2546.0,0.0023613762700637744
2545.0,0.002371381185837502
2544.0,0.002394520462276982
2543.0,0.0024027634694331343
2542.0,0.0023943292972280397
2541.0,0.0023988038809231015
2540.0,0.002427473876341495
2539.0,0.0024477434382169446
2538.0,0.002418726340695783
2537.0,0.0023323674080142145
2536.0,0.0022158275862562476
2535.0,0.002115349478454148
2534.0,0.0020778439667459886
2533.0,0.0021169719920314588
2532.0,0.0021880523950805132
2531.0,0.002222317130566881
2530.0,0.002196060087051145
2529.0,0.0021471941158649707
2528.0,0.002124139198141152
2527.0,0.0021446595033518057
2526.0,0.00220252680746097
2525.0,0.002275017642212311
2524.0,0.002315645687030126
2523.0,0.0022801441089251046
2522.0,0.002179051813588537
2521.0,0.0020759388408267483
2520.0,0.0020184608744924014
2519.0,0.0020010094254414327
2518.0,0.0020074018249327035
2517.0,0.0020475859503576504
2516.0,0.0021220659560042578
2515.0,0.0021859623910026344
2514.0,0.0021906824716280983
2513.0,0.002146516993252372
2512.0,0.002109434644742283
2511.0,0.0021120111877932324
2510.0,0.0021348498792738628
2509.0,0.0021431793834963265
2508.0,0.0021279312404257475
2507.0,0.002106325906695072
2506.0,0.0020950771183566182
2505.0,0.0020895292436558504
2504.0,0.00207056835863733
2503.0,0.0020351525144740677
2502.0,0.0020121633232726456
2501.0,0.0020316741917951243
2500.0,0.002082249050601337
2499.0,0.002121823925973116
2498.0,0.002132227838843403
2497.0,0.0021360825846005894
2496.0,0.0021526906593258115
2495.0,0.002166705626975211
2494.0,0.0021579443924736423
2493.0,0.002138934170564346
2492.0,0.0021393183065016256
2491.0,0.002163632908192447
2490.0,0.0021820062339549633
2489.0,0.0021586131863574796
2488.0,0.002084473988882047
2487.0,0.001991426115222613
2486.0,0.0019330068369145656
2485.0,0.0019337070763023952
2484.0,0.0019568468764418648
2483.0,0.001946659166472979
2482.0,0.0019043147645876612
2481.0,0.0018907655735543511
2480.0,0.0019422259232471572
2479.0,0.002015751171021003
2478.0,0.0020419807853397864
2477.0,0.002006779155592055
2476.0,0.0019539559000536317
2475.0,0.0019260605050427483
2474.0,0.001932251248121512
2473.0,0.0019634590496445973
2472.0,0.0020083888746794056
2471.0,0.0020526537948538995
2470.0,0.002081694558198349
2469.0,0.0020906254314047704
2468.0,0.0020859337788615567
2467.0,0.002080505342592149
2466.0,0.002089835605661165
2465.0,0.0021221399481788925
2464.0,0.002164719991425188
2463.0,0.0021915017310702527
2462.0,0.002192551867077562
2461.0,0.002184561043811462
2460.0,0.002184018222936196
2459.0,0.0021857039359328098
2458.0,0.0021823160458516633
2457.0,0.0021913876887463568
2456.0,0.0022401911270608175
2455.0,0.002324743577652668
2454.0,0.002399847448323128
2453.0,0.0024152693610812875
2452.0,0.0023589311831869954
2451.0,0.0022675785771510805
2450.0,0.002199695604749244
2449.0,0.002192342188904688
2448.0,0.002234582934483124
2447.0,0.0022819036543635417
2446.0,0.0022990748695896385
2445.0,0.002287551214380701
2444.0,0.002271757228500083
2443.0,0.002264898770622139
2442.0,0.002252907656949216
2441.0,0.0022118557974015185
2440.0,0.0021411815172027683
2439.0,0.0020773996538108884
2438.0,0.0020658890409991464
2437.0,0.0021140876961524987
2436.0,0.0021816220014584846
2435.0,0.002223589854875037
2434.0,0.0022311265756084254
2433.0,0.00222007010262297
2432.0,0.002198978855687243
2431.0,0.002170944749610422
2430.0,0.0021537459044924084
2429.0,0.0021673516834275555
2428.0,0.0022022451928970536
2427.0,0.002226276669847536
2426.0,0.00222447984740758
2425.0,0.0022085968116213814
2424.0,0.0021871362612096877
2423.0,0.0021538229113338835
2422.0,0.0021125603443172725
2421.0,0.0020875269923994544
2420.0,0.002095479637396076
2419.0,0.0021263924360162435
2418.0,0.0021609694376820403
2417.0,0.002189300837097814
2416.0,0.0022039831566055598
2415.0,0.0021951391426033658
2414.0,0.0021669227247189315
2413.0,0.0021444166817019333
2412.0,0.0021476401198686603
2411.0,0.0021657073524814783
2410.0,0.002168190870657752
2409.0,0.0021369659891529004
2408.0,0.0020802641615776836
2407.0,0.002022074650337135
2406.0,0.0019843459522874596
2405.0,0.001974188201072148
2404.0,0.001982903782620333
2403.0,0.001999289447969226
2402.0,0.002022384839699868
2401.0,0.002055252803047413
2400.0,0.0020893816119993357
2399.0,0.002105631959237201
2398.0,0.002091788167020176
2397.0,0.002053640440007414
2396.0,0.002011671478078447
2395.0,0.001991567079982731
2394.0,0.002007332388126541
2393.0,0.0020418670552130643
2392.0,0.002055420715218399
2391.0,0.0020309310936029875
2390.0,0.002004300038406501
2389.0,0.0020280557000922172
2388.0,0.0021070829700258957
2387.0,0.0021921485165546303
2386.0,0.0022365292468774973
2385.0,0.002236612231800336
2384.0,0.002215298362212364
2383.0,0.002188815903790821
2382.0,0.0021600391551314974
2381.0,0.002128679372418863
2380.0,0.0020927382061476474
2379.0,0.0020474113741957064
2378.0,0.001993956386208015
2377.0,0.0019385186140193525
2376.0,0.0018868194341648274
2375.0,0.0018579033629075245
2374.0,0.001898836565198632
2373.0,0.002050016627636076
2372.0,0.0022660450574645565
2371.0,0.0024216010180573375
2370.0,0.0024419451861150683
2369.0,0.00238793250379539
2368.0,0.002350805398639936
2367.0,0.0023253064945230237
2366.0,0.0022881013813694498
2365.0,0.002313384972105911
2364.0,0.0024709759329422988
2363.0,0.0027098257037956493
2362.0,0.0029117176010218177
2361.0,0.002973204890800979
2360.0,0.0029883857301717808
2359.0,0.002925375211888427
2358.0,0.0029655587035238317
2357.0,0.0036576609878879963
2356.0,0.0036582387375083576
2355.0,0.0037041991968841843
2354.0,0.003686144767150891
2353.0,0.0036741449085106936
2352.0,0.003642898149069415
2351.0,0.0035893117890823823
2350.0,0.00349237457739813
2349.0,0.003373437799746992
2348.0,0.003266143548067069
2347.0,0.0032461565865049766
2346.0,0.0033147458260138485
2345.0,0.0034803165977307484
2344.0,0.0034996951764155342
2343.0,0.0029702947448131244
2342.0,0.003092369445400475
2341.0,0.003170106285047785
2340.0,0.0033128149573321518
2339.0,0.0034339683068439876
2338.0,0.003537744632335754
2337.0,0.0035928309921078316
2336.0,0.0035979124269869016
2335.0,0.0035497744085061485
2334.0,0.0034853242119035435
2333.0,0.003435444054233709
2332.0,0.003417754069470551
2331.0,0.0034012047787985614
2330.0,0.003471430594244643
2329.0,0.0036416350654098414
2328.0,0.003944969833717227
2327.0,0.00430098523706119
2326.0,0.004649616039779938
2325.0,0.004891724611755001
2324.0,0.004901741855861038
2323.0,0.0046725172397147265
2322.0,0.004334935516702952
2321.0,0.0040915263523085285
2320.0,0.004010036129590846
2319.0,0.004020389925945002
2318.0,0.004038855705253074
2317.0,0.004011795115533775
2316.0,0.003950764691491722
2315.0,0.0038549157679067846
2314.0,0.003773492086939858
2313.0,0.003701737283660713
2312.0,0.0036408413779533038
2311.0,0.0035531492558940744
2310.0,0.0034830856729184904
2309.0,0.0034613229635786745
2308.0,0.003509768595101393
2307.0,0.003578674221500231
2306.0,0.00363727162936506
2305.0,0.0036549174090635414
2304.0,0.003631138581928698
2303.0,0.00357138765473351
2302.0,0.003523090041921236
2301.0,0.0035057829327919256
2300.0,0.0035135407661216365
2299.0,0.0035114890338230516
2298.0,0.0035179390152330556
2297.0,0.003551312917362673
2296.0,0.0036085477013739365
2295.0,0.0036440710682242913
2294.0,0.0036520404991711095
2293.0,0.0036608595791379076
2292.0,0.003702153288869755
2291.0,0.003775355258941818
2290.0,0.0038687861388355836
2289.0,0.003961308526750602
2288.0,0.004010002342322662
2287.0,0.00397861536002433
2286.0,0.0038787431729377037
2285.0,0.003763406671347856
2284.0,0.003662562266666342
2283.0,0.003570540135576736
2282.0,0.0034782688891244343
2281.0,0.003394687076757564
2280.0,0.0033265404930194176
2279.0,0.0032861637530018175
2278.0,0.003302217241745121
2277.0,0.0033767129335480865
2276.0,0.003435594417320496
2275.0,0.003385670872883763
2274.0,0.003238368953472092
2273.0,0.003105841191140843
2272.0,0.0030648420137414064
2271.0,0.003073862925599759
2270.0,0.003056244941300202
2269.0,0.003001439551557816
2268.0,0.0029564755906603332
2267.0,0.002962806052002676
2266.0,0.0030366432697100224
2265.0,0.003164063296090345
2264.0,0.0032877140420278336
2263.0,0.0033279343076408224
2262.0,0.0032532751626476505
2261.0,0.003112335684334792
2260.0,0.002983693358404471
2259.0,0.002914771215698459
2258.0,0.00289926164693579
2257.0,0.002880703640190616
2256.0,0.0027842133366395307
2255.0,0.0025973567366656125
2254.0,0.002420853795074932
2253.0,0.002378427193392273
2252.0,0.002477160537402676
2251.0,0.0026051142197282885
2250.0,0.002674555962660155
2249.0,0.0026990746244823427
2248.0,0.002729687769600613
2247.0,0.002782857392211739
2246.0,0.00285383001341406
2245.0,0.002931275811115608
2244.0,0.0029697452984315227
2243.0,0.0029111390977991183
2242.0,0.0027731856714484034
2241.0,0.0026715375224159797
2240.0,0.0027020127168370543
2239.0,0.0028290338226958332
2238.0,0.0029183841998593908
2237.0,0.0028667990782738585
2236.0,0.0026917757402666635
2235.0,0.0025149051356993697
2234.0,0.0024588957671747972
2233.0,0.0025344592525038366
2232.0,0.0026349014861678137
2231.0,0.0026626943623600124
2230.0,0.00263357681254317
2229.0,0.002613558316473003
2228.0,0.0026077205216988417
2227.0,0.0025880758311720175
2226.0,0.002592059899853338
2225.0,0.0026820086992154282
2224.0,0.0028155526688932596
2223.0,0.0028677178177764643
2222.0,0.00279503653998378
2221.0,0.002687843573388925
2220.0,0.0026414316528372804
2219.0,0.0026686823820390505
2218.0,0.002749849707245302
2217.0,0.0028658880033311813
2216.0,0.0029566659410793232
2215.0,0.0029470916303337242
2214.0,0.0028541695290232685
2213.0,0.0027846323135121863
2212.0,0.0027942457579831497
2211.0,0.0028331515802256153
2210.0,0.00285889579229829
2209.0,0.0029017227041148205
2208.0,0.0029730711909611613
2207.0,0.003005549403140353
2206.0,0.002948382551159051
2205.0,0.0028492917745076116
2204.0,0.0027809206429168162
2203.0,0.002745137033793422
2202.0,0.002699220000182968
2201.0,0.002621503742109818
2200.0,0.002512264428484645
2199.0,0.002384680554437593
2198.0,0.0022889068398780446
2197.0,0.0022869405446003886
2196.0,0.002370291039759261
2195.0,0.0024674235419087477
2194.0,0.0025519041643616274
2193.0,0.0026652023132440455
2192.0,0.0028068865381446566
2191.0,0.0028860666058348164
2190.0,0.00283263968399557
2189.0,0.0026927136149854317
2188.0,0.002568915483315654
2187.0,0.002516098975791416
2186.0,0.0025322344504896833
2185.0,0.002590623540749498
2184.0,0.0026358885967818217
2183.0,0.0026018351663949757
2182.0,0.0024729783105447507
2181.0,0.0022895223515141125
2180.0,0.002087117336788218
2179.0,0.001885569521291645
2178.0,0.0017357094438531467
2177.0,0.0016985324811771227
2176.0,0.00175910840302336
2175.0,0.0018407779044303297
2174.0,0.0019150572519126895
2173.0,0.0020247345921018873
2172.0,0.0022000696523471397
2171.0,0.002422939885174451
2170.0,0.002665705958754497
2169.0,0.002893678547752591
2168.0,0.0030511346484790917
2167.0,0.0031299787638844525
2166.0,0.0032350004437837416
2165.0,0.00348184113486692
2164.0,0.0038198382293491697
2163.0,0.00403819042743056
2162.0,0.003914126915623795
2161.0,0.0032880190291362747
2160.0,0.0021162710219400204
2159.0,0.0006488010826789568
2158.0,-0.000542787616282264
2157.0,-0.0009700599404135967
2156.0,-0.0006591556130362788
2155.0,-3.194313078234729e-05
2154.0,0.0005345691642365915
2153.0,0.0009043405885008206
2152.0,0.0010984479068781776
2151.0,0.0011776855402857078
2150.0,0.001227116694345809
2149.0,0.00130964744981872
2148.0,0.0013967937305927422
2147.0,0.0014186119547298114
2146.0,0.0013798608225101198
2145.0,0.001344046071104897
2144.0,0.0013142807470424014
2143.0,0.001222594069244113
2142.0,0.001038598798952625
2141.0,0.0008146158661872778
2140.0,0.0006274399310906209
2139.0,0.0005325711198700217
2138.0,0.0005492642751328568
2137.0,0.0006214367360892639
2136.0,0.0006314830908700582
2135.0,0.0005411917899582838
2134.0,0.00047051475834717217
2133.0,0.0005531271643415623
2132.0,0.0007643204042383542
2131.0,0.000981194391457031
2130.0,0.0011523362368502505
2129.0,0.0013054820506446586
2128.0,0.0014365821255494227
2127.0,0.0015065788250934779
2126.0,0.001537258571080336
2125.0,0.0016024705758271168
2124.0,0.0017144007652432954
2123.0,0.001808496843710458
2122.0,0.0018524051976851635
2121.0,0.001887507758364792
2120.0,0.0019524442524020626
2119.0,0.0020451232436400554
2118.0,0.002174147867369779
2117.0,0.0023607187956242257
2116.0,0.002564454032145852
2115.0,0.002683884637735549
2114.0,0.002670685954137779
2113.0,0.0025856772730870514
2112.0,0.0025145180738103327
2111.0,0.0024845533308591183
2110.0,0.002490272540718945
2109.0,0.002531803437942407
2108.0,0.002592437958343405
2107.0,0.0026331649783757584
2106.0,0.002641357069196639
2105.0,0.002644448799207176
2104.0,0.0026568126763227215
2103.0,0.0026634676084675026
2102.0,0.0026682796508327227
2101.0,0.0026981787159748106
2100.0,0.002735814203630804
2099.0,0.002704584740402965
2098.0,0.0025544662997237593
2097.0,0.0023250464871812484
2096.0,0.0021080238153173606
2095.0,0.001981714500289291
2094.0,0.0019892071024082405
2093.0,0.002118335020507508
2092.0,0.002287497482421869
2091.0,0.0023983914673240854
2090.0,0.002422281551466119
2089.0,0.0024109987048974452
2088.0,0.0024205973099122504
2087.0,0.0024689850483592232
2086.0,0.002554385483734609
2085.0,0.002653849548085972
2084.0,0.002704347970180724
2083.0,0.0026520140786050373
2082.0,0.002533089808727361
2081.0,0.0024499411480009103
2080.0,0.0024543710474702564
2079.0,0.0025002604962947885
2078.0,0.0025202402890630374
2077.0,0.0024922460737668685
2076.0,0.002425759309233107
2075.0,0.002342754369569522
2074.0,0.002279849434547627
2073.0,0.0022620861004446686
2072.0,0.002269813981615021
2071.0,0.002277758996787859
2070.0,0.002309330135963352
2069.0,0.0023903575500033095
2068.0,0.002475581517032007
2067.0,0.0024962593939882914
2066.0,0.0024648125231824095
2065.0,0.0024554294725001665
2064.0,0.002491142449273722
2063.0,0.0025298091054782833
2062.0,0.0025449778910586456
2061.0,0.0025305155861406275
2060.0,0.002463715083764605
2059.0,0.002358184846412439
2058.0,0.002306621750681549
2057.0,0.0023610394566833536
2056.0,0.002421345083291601
2055.0,0.0023858232614890674
2054.0,0.002372115523593131
2053.0,0.0026022623286914887
2052.0,0.0030568708144489204
2051.0,0.0034244803927374204
2050.0,0.0034341955681259475
2049.0,0.003131135597648821
2048.0,0.0027504805845915237
2047.0,0.0024335672148968197
2046.0,0.0022091996938889886
2045.0,0.0020936084163624405
2044.0,0.0020661328082272517
2043.0,0.002061255676370987
2042.0,0.002081396691170451
2041.0,0.0022157034712123615
2040.0,0.0024780408812233546
2039.0,0.002744661636249089
2038.0,0.002893906280725805
2037.0,0.0028788409312692142
2036.0,0.0026620603927889263
2035.0,0.0022363465006525487
2034.0,0.001748271664405467
2033.0,0.0014405466763529734
2032.0,0.0013868616303462395
2031.0,0.0014297513339068047
2030.0,0.0014215678796735782
2029.0,0.0013618684708256927
2028.0,0.0013060584762710323
2027.0,0.0013154863006764991
2026.0,0.0014919084884623202
2025.0,0.0018583137137629796
2024.0,0.002187607556835071
2023.0,0.002177861621855689
2022.0,0.0018282733279575854
2021.0,0.0014515287568639685
2020.0,0.0012881702767405378
2019.0,0.0012887610958128217
2018.0,0.0013033876052513508
2017.0,0.001270897135408683
2016.0,0.0011703858376875863
2015.0,0.0009972784141752055
2014.0,0.0008596915280771907
2013.0,0.0009194302043681096
2012.0,0.0011715182521816068
2011.0,0.0014190763573549085
2010.0,0.0015039190378589918
2009.0,0.0014166961218677943
2008.0,0.0011771210991206006
2007.0,0.0008015803689103896
2006.0,0.00043170237902219444
2005.0,0.000285926324354587
2004.0,0.0004050950244870852
2003.0,0.0006033994847374341
2002.0,0.0007060164658200865
2001.0,0.0006984270025879146
2000.0,0.0006532947408321166
1999.0,0.0006437617154031188
1998.0,0.0007396435815519988
1997.0,0.0009468634832894846
1996.0,0.001128368181952593
1995.0,0.001131394934532245
1994.0,0.0010034780572350896
1993.0,0.000965738773979959
1992.0,0.001111465264127406
1991.0,0.0012692651510636858
1990.0,0.0012947636756426412
1989.0,0.0012630303509758374
1988.0,0.0012959060950456277
1987.0,0.0014006293012326476
1986.0,0.0015323363492931528
1985.0,0.0016815409700495134
1984.0,0.00183745162896997
1983.0,0.0019649261590267237
1982.0,0.0020559545422920446
1981.0,0.00210478960554533
1980.0,0.002032061241702826
1979.0,0.0017656157001694622
1978.0,0.0014052549432470515
1977.0,0.0011367353112831777
1976.0,0.0009729415600551858
1975.0,0.0007994479354265796
1974.0,0.000640038307686067
1973.0,0.0006284139483643506
1972.0,0.000739643677203333
1971.0,0.0007953347350719861
1970.0,0.0007327555430945382
1969.0,0.0006460638402501018
1968.0,0.0005627629051721257
1967.0,0.00040212693040456404
1966.0,0.00020644172557777706
1965.0,0.00014047755034016425
1964.0,0.00020626831163308878
1963.0,0.00022236644954166717
1962.0,8.824370023037042e-05
1961.0,-0.00010061172107540306
1960.0,-0.00022256712487957907
1959.0,-0.0002538859592066524
1958.0,-0.00018214358358803118
1957.0,1.4795584038306334e-05
1956.0,0.00025273239948899763
1955.0,0.0003703444434585773
1954.0,0.00033190887339145335
1953.0,0.00027304042614077843
1952.0,0.00030298467187791676
1951.0,0.0003978393183939195
1950.0,0.0005032685470620412
1949.0,0.0005969795694734074
1948.0,0.0006347837646126333
1947.0,0.0005665034121716089
1946.0,0.00043923546687223386
1945.0,0.0003686213423758544
1944.0,0.0003749973639628481
1943.0,0.00035971113360265354
1942.0,0.0002807197175224373
1941.0,0.00021838882711371234
1940.0,0.00021056550785306214
1939.0,0.00020342530225135743
1938.0,0.00017956348195828767
1937.0,0.00019547903676114413
1936.0,0.00027181922104457443
1935.0,0.0003478123741626624
1934.0,0.00037526673317787797
1933.0,0.00036989544867232734
1932.0,0.00034617097499082855
1931.0,0.0002980548571183215
1930.0,0.00025915400128582674
1929.0,0.0002725186990800893
1928.0,0.00030278264175259294
1927.0,0.0002686620658372661
1926.0,0.00017716235485205456
1925.0,0.0001250074225399592
1924.0,0.00016278458375463027
1923.0,0.00024564577439110166
1922.0,0.0003317542989459206
1921.0,0.0004404928633096084
1920.0,0.0005569913831290185
1919.0,0.0005949632448182336
1918.0,0.0005228024131551357
1917.0,0.000437406445230699
1916.0,0.0004217835561388432
1915.0,0.00044755548432419325
1914.0,0.00046585423112366613
1913.0,0.00047755396760204506
1912.0,0.0004890683041019193
1911.0,0.00047823318865401363
1910.0,0.0004442796968533924
1909.0,0.0004268340008048773
1908.0,0.00044469842832387104
1907.0,0.000473695253184408
1906.0,0.0005123568396745008
1905.0,0.000583947534666136
1904.0,0.0006663051931992249
1903.0,0.0007047896353360261
1902.0,0.000690880664182582
1901.0,0.0006622057087877881
1900.0,0.0006280206458716242
1899.0,0.0005601222040447023
1898.0,0.00046831855177215
1897.0,0.00040780866720963363
1896.0,0.00038919104254071845
1895.0,0.0003563439321168523
1894.0,0.0002864569120263633
1893.0,0.0002302774077838042
1892.0,0.00022275879009200244
1891.0,0.00024424697688703203
1890.0,0.000281062352764036
1889.0,0.0003356972548653246
1888.0,0.00037527917645935197
1887.0,0.0003660187263763491
1886.0,0.00032868597824268716
1885.0,0.0003130750575739056
1884.0,0.0003257476987804516
1883.0,0.0003268405056932526
1882.0,0.00030700355969632545
1881.0,0.0003005186206902191
1880.0,0.00031758513180780166
1879.0,0.00032268161562167995
1878.0,0.000295467175326005
1877.0,0.00026010728887113153
1876.0,0.0002309794463661171
1875.0,0.00019383355449201917
1874.0,0.00015576522320432979
1873.0,0.00014433631026018658
1872.0,0.00014800957809437635
1871.0,0.00011876508935941923
1870.0,5.999538053161162e-05
1869.0,6.205456110947331e-05
1868.0,0.00013928019947779115
1867.0,0.00019005692961969792
1866.0,0.00020074403327594807
1865.0,0.0002242405267338125
1864.0,0.0002570529676272227
1863.0,0.0002585543488050643
1862.0,0.0002357362719737975
1861.0,0.0002404488731524133
1860.0,0.00027738161321733015
1859.0,0.000288431722698363
1858.0,0.00025087881888019776
1857.0,0.0002102956924705658
1856.0,0.00020208826723420743
1855.0,0.0002100590834962846
1854.0,0.00022452987723015766
1853.0,0.0002572358039033128
1852.0,0.00029816331941740523
1851.0,0.00030881850209968234
1850.0,0.00027793878575098634
1849.0,0.00024996231447229093
1848.0,0.00025707064415421313
1847.0,0.0002679044773100129
1846.0,0.0002341592504963542
1845.0,0.00015695321036365948
1844.0,7.961045733732939e-05
1843.0,2.6934208352633266e-05
1842.0,2.467185570111108e-05
1841.0,7.910949058774507e-05
1840.0,0.00014366465276700944
1839.0,0.0001708069961614486
1838.0,0.00017854603108221983
1837.0,0.0002146842113824321
1836.0,0.0002604933566710834
1835.0,0.0002583117392202846
1834.0,0.0002177407515920166
1833.0,0.00020197210992561714
1832.0,0.0002302001466714318
1831.0,0.00025604224504742284
1830.0,0.00026816187734733155
1829.0,0.00030559038142164265
1828.0,0.000352307087933745
1827.0,0.0003575115922167327
1826.0,0.00030665869912931674
1825.0,0.00025376631588172735
1824.0,0.00023787548429900088
1823.0,0.00022571654738477698
1822.0,0.00020293905792516322
1821.0,0.00019282429377921522
1820.0,0.00019056122409032215
1819.0,0.00015054602259642743
1818.0,7.434046042845296e-05
1817.0,3.89735611509318e-05
1816.0,8.42411937627182e-05
1815.0,0.00016385765906970972
1814.0,0.00023224059904394649
1813.0,0.0003021553923064247
1812.0,0.0003862857668472542
1811.0,0.00044194382476504465
1810.0,0.00044320286969236995
1809.0,0.00043264998765091137
1808.0,0.0004461879567518351
1807.0,0.000470595017406789
1806.0,0.0004913342552023826
1805.0,0.0005166058179073398
1804.0,0.0005399998597727567
1803.0,0.0005427049140323817
1802.0,0.000537125920497197
1801.0,0.0005725691206662931
1800.0,0.0006407281058263548
1799.0,0.000666837412751098
1798.0,0.0006461990821498582
1797.0,0.0006485222449808935
1796.0,0.0006995426845507386
1795.0,0.0007444178939991146
1794.0,0.0007251397030131881
1793.0,0.0006770698462189818
1792.0,0.0006840961542227495
1791.0,0.0007216546621477927
1790.0,0.0007483927583774473
1789.0,0.0007889052779018768
1788.0,0.0008364500391246144
1787.0,0.0008483729125049319
1786.0,0.0008153216700545235
1785.0,0.0007842789737878327
1784.0,0.0007859505006241724
1783.0,0.0008001843533157111
1782.0,0.0007998452708668528
1781.0,0.0008041805424507994
1780.0,0.0008349422796577921
1779.0,0.0008566073382995439
1778.0,0.0008543680652759586
1777.0,0.0008618826691068476
1776.0,0.0009048139813199151
1775.0,0.0009628648442643953
1774.0,0.0009950895219415536
1773.0,0.0010218110497382483
1772.0,0.0010891985835094222
1771.0,0.001110599657612417
1770.0,0.0010546425552722212
1769.0,0.0010209533378162114
1768.0,0.0010584336976105892
1767.0,0.0011294855141512137
1766.0,0.0011970806931446767
1765.0,0.0012754154710150844
1764.0,0.0013682374401074344
1763.0,0.0014457942129086198
1762.0,0.0014937153447264371
1761.0,0.0015407642867215406
1760.0,0.0015994398081586093
1759.0,0.0016433801810162353
1758.0,0.0016663383342916827
1757.0,0.0017243151839423732
1756.0,0.0018542591367358505
1755.0,0.001986643960121449
1754.0,0.0020643577838205147
1753.0,0.0021130609814025026
1752.0,0.002205579090430185
1751.0,0.0023750613119891024
1750.0,0.002578763160114239
1749.0,0.0027962801076937306
1748.0,0.003010748359978265
1747.0,0.0031519074622415573
1746.0,0.003205916042853459
1745.0,0.0032620734595334034
1744.0,0.0033872567978139078
1743.0,0.003541137376652635
1742.0,0.0036601090563081803
1741.0,0.00375050581798357
1740.0,0.003826438029642912
1739.0,0.0038578295759971373
1738.0,0.0038453416979868475
1737.0,0.003853934773545325
1736.0,0.0039021888435163037
1735.0,0.0039516075062967174
1734.0,0.0040323796438837215
1733.0,0.00416497476917386
1732.0,0.004342878432184352
1731.0,0.00452871454430348
1730.0,0.004672824047150764
1729.0,0.004798780324464665
1728.0,0.004936831227634406
1727.0,0.005068103716914237
1726.0,0.005176267110933039
1725.0,0.005306659594239692
1724.0,0.0055006190333289455
1723.0,0.0057127919643841785
1722.0,0.005891936901266144
1721.0,0.006050329098309576
1720.0,0.006194612208667797
1719.0,0.006269476760845598
1718.0,0.006321838129097713
1717.0,0.006590249280946902
1716.0,0.007075872080437796
1715.0,0.007520202111576965
1714.0,0.007816852640796595
1713.0,0.008039507208257463
1712.0,0.008267330355919717
1711.0,0.008507393534970422
1710.0,0.008750834830511972
1709.0,0.009028669716610847
1708.0,0.009371588340931023
1707.0,0.00975460789858215
1706.0,0.010152947541690637
1705.0,0.010558577388813006
1704.0,0.010901520093178008
1703.0,0.011156099997930246
1702.0,0.011377972422573327
1701.0,0.01174944815872525
1700.0,0.012437355333279842
1699.0,0.013069275222601286
1698.0,0.013481413246030038
1697.0,0.014048590698969451
1696.0,0.014919494622006011
1695.0,0.015682353213474665
1694.0,0.01616633306244485
1693.0,0.016594992663766635
1692.0,0.017069274562814454
1691.0,0.017589173190816754
1690.0,0.01815669078586198
1689.0,0.01876099988739437
1688.0,0.019308460979142832
1687.0,0.019726458882792338
1686.0,0.020060531537467792
1685.0,0.020711585274325105
1684.0,0.022022622536571366
1683.0,0.023077587440052158
1682.0,0.02355456597069096
1681.0,0.023992036661361897
1680.0,0.024559489560101053
1679.0,0.02512875280505458
1678.0,0.025590065949604855
1677.0,0.026033957321995784
1676.0,0.026648090461076884
1675.0,0.027422534919507933
1674.0,0.02806584928932189
1673.0,0.028522715840693394
1672.0,0.028981282816560046
1671.0,0.02955935699462669
1670.0,0.030283530252663594
1669.0,0.031011687345860607
1668.0,0.03155676589654109
1667.0,0.031922716284511043
1666.0,0.03220404710411489
1665.0,0.032510505336124915
1664.0,0.03295800732207863
1663.0,0.03358613786421683
1662.0,0.034221306668997684
1661.0,0.03469834305159104
1660.0,0.035089000344990455
1659.0,0.03544065196958324
1658.0,0.035723080567615285
1657.0,0.035911076634838696
1656.0,0.0360705218428791
1655.0,0.03623192666854269
1654.0,0.036569292464469036
1653.0,0.0372464617446975
1652.0,0.03759957385621505
1651.0,0.037682412001983835
1650.0,0.037768142582651446
1649.0,0.037807520721158824
1648.0,0.037912269441655426
1647.0,0.038199455017621085
1646.0,0.038366648146692495
1645.0,0.03827908966176807
1644.0,0.03819828466881799
1643.0,0.03817403511925394
1642.0,0.038124612320724054
1641.0,0.038032286068887235
1640.0,0.037940654823052436
1639.0,0.0378667029084741
1638.0,0.03777720220549672
1637.0,0.037668925591168544
1636.0,0.037578456052006035
1635.0,0.037364721404601474
1634.0,0.03697735159817311
1633.0,0.036615743732266164
1632.0,0.03633632456088154
1631.0,0.036078515966794955
1630.0,0.03577876361501067
1629.0,0.03540799600676601
1628.0,0.034999469819738026
1627.0,0.034599269404724936
1626.0,0.03420843809665732
1625.0,0.03378987401666554
1624.0,0.03329199260769429
1623.0,0.03270279417594369
1622.0,0.032095467340500436
1621.0,0.03156747968868641
1620.0,0.031134808821809155
1619.0,0.03071507971419432
1618.0,0.030174856991764268
1617.0,0.029447466424116164
1616.0,0.028703699086279046
1615.0,0.028139815163172766
1614.0,0.02771749160696299
1613.0,0.027311925714562868
1612.0,0.026866169344106603
1611.0,0.026396003951205393
1610.0,0.025923434552393515
1609.0,0.0254412022150408
1608.0,0.024954169716973798
1607.0,0.024502736925711747
1606.0,0.024111783217922057
1605.0,0.023763664372170035
1604.0,0.02343455186061261
1603.0,0.023110936302622374
1602.0,0.022783929126123148
1601.0,0.022450446163135258
1600.0,0.022120952634074507
1599.0,0.021810378881026986
1598.0,0.021518010570974275
1597.0,0.021231042247034832
1596.0,0.020945009585585032
1595.0,0.0206726606900882
1594.0,0.020423980681115315
1593.0,0.020192255762713916
1592.0,0.019973700845415707
1591.0,0.019779226428560368
1590.0,0.019613752645588556
1589.0,0.019462427078768694
1588.0,0.019315111488924067
1587.0,0.019182244022080804
1586.0,0.01907320503977512
1585.0,0.01897072889283392
1584.0,0.01886080480984429
1583.0,0.018755422661275264
1582.0,0.018668513776170768
1581.0,0.01859834150601328
1580.0,0.018536367477992834
1579.0,0.01847689892526384
1578.0,0.01841108820101089
1577.0,0.018347506965007688
1576.0,0.018303066924450394
1575.0,0.018271883470117364
1574.0,0.018272129084867823
1573.0,0.018304571079876476
1572.0,0.01833440726338363
1571.0,0.01834601642097279
1570.0,0.018364408086800135
1569.0,0.01837192082877267
1568.0,0.01833458057163325
1567.0,0.018303252406584872
1566.0,0.018312284788676306
1565.0,0.01832693536232047
1564.0,0.01832253921997178
1563.0,0.018292777695402353
1562.0,0.018274993683940647
1561.0,0.018269975014539672
1560.0,0.018221296714476636
1559.0,0.018348481586128767
1558.0,0.018485096976517644
1557.0,0.01837567520881739
1556.0,0.018301824522115536
1555.0,0.018289827543342164
1554.0,0.018270563095669847
1553.0,0.01824190880314117
1552.0,0.018210818201515058
1551.0,0.018185079664256733
1550.0,0.018163899169483074
1549.0,0.018143209760324745
1548.0,0.01809717428096026
1547.0,0.018015563154520877
1546.0,0.01789322848086028
1545.0,0.01776970928154719
1544.0,0.017703052019352874
1543.0,0.017667597119150034
1542.0,0.017557299772535968
1541.0,0.017368444130771717
1540.0,0.01717157551375423
1539.0,0.01689143590538924
1538.0,0.016626573483584803
1537.0,0.016502163895463745
1536.0,0.016428073689901623
1535.0,0.016279535477145363
1534.0,0.01600199245376849
1533.0,0.01569726118174099
1532.0,0.015466743692062405
1531.0,0.015290701885344316
1530.0,0.015120872686728636
1529.0,0.014923876373145822
1528.0,0.014697361168491716
1527.0,0.01446515561186473
1526.0,0.014256348220472632
1525.0,0.014091753174772213
1524.0,0.01395671114657742
1523.0,0.013785387045879127
1522.0,0.013571892452848185
1521.0,0.01341125599873608
1520.0,0.01331921390051341
1519.0,0.01324271342598415
1518.0,0.013116441280534765
1517.0,0.012929665233788003
1516.0,0.012726743183922386
1515.0,0.012518208537706195
1514.0,0.012306380749165343
1513.0,0.012089461820097507
1512.0,0.011867946940578047
1511.0,0.011642748141225574
1510.0,0.011430620791893553
1509.0,0.011246236457407036
1508.0,0.011134767525452942
1507.0,0.01108384977155238
1506.0,0.010903263656817635
1505.0,0.010699030643865588
1504.0,0.010642055221250467
1503.0,0.010639825801000272
1502.0,0.010618172677758338
1501.0,0.010594601130155892
1500.0,0.010593438700688768
1499.0,0.01057328186630745
1498.0,0.010503228360222293
1497.0,0.010472718753629727
1496.0,0.010524074449659318
1495.0,0.010573417393945739
1494.0,0.010605360215518052
1493.0,0.01064975441871873
1492.0,0.01067828791240117
1491.0,0.01063165360077007
1490.0,0.010555422085444355
1489.0,0.010580984795656924
1488.0,0.01066317829408608
1487.0,0.010683578537421166
1486.0,0.010680553013583814
1485.0,0.010737068992701077
1484.0,0.010861646973282044
1483.0,0.011016784053025745
1482.0,0.0112095891710072
1481.0,0.011481330127212495
1480.0,0.011799330965818582
1479.0,0.012108086598875432
1478.0,0.012471009954148116
1477.0,0.013037433628972198
1476.0,0.013842985228739588
1475.0,0.014777850437085863
1474.0,0.015950454064975493
1473.0,0.017721614418031495
1472.0,0.01971399954288572
1471.0,0.021197709446916436
1470.0,0.022366550070522823
1469.0,0.02360776854371038
1468.0,0.024987925651057563
1467.0,0.026525677007223865
1466.0,0.02839749139303481
1465.0,0.03068998213478326
1464.0,0.03281079983870111
1463.0,0.03416790005617076
1462.0,0.03494046761334027
1461.0,0.03544509376223393
1460.0,0.0357593893072868
1459.0,0.03584612443104058
1458.0,0.03585917728298323
1457.0,0.03601549124481844
1456.0,0.03607963566080816
1455.0,0.036010416390835964
1454.0,0.03595769093018609
1453.0,0.0357996230590943
1452.0,0.03539449958528841
1451.0,0.0347383660291244
1450.0,0.03384667525906023
1449.0,0.03255702325769405
1448.0,0.030760794363535494
1447.0,0.02882583841947397
1446.0,0.027205451590193823
1445.0,0.02591312092350421
1444.0,0.02477992365625321
1443.0,0.023775971162441463
1442.0,0.0229827253522969
1441.0,0.02242850466905671
1440.0,0.022068567680222556
1439.0,0.021869977248934424
1438.0,0.021833735712586958
1437.0,0.021879953228650665
1436.0,0.021761951648800838
1435.0,0.0213693520439134
1434.0,0.02081067249036695
1433.0,0.020125271248518043
1432.0,0.019332113858175345
1431.0,0.018551548002797014
1430.0,0.017910581601469997
1429.0,0.017433396258233768
1428.0,0.017094853094044585
1427.0,0.016891552401272297
1426.0,0.0167809524596632
1425.0,0.016682114137610057
1424.0,0.016572579200249116
1423.0,0.016491844136493714
1422.0,0.016437317895901183
1421.0,0.016341752305270803
1420.0,0.016164552232014483
1419.0,0.01599731698280904
1418.0,0.015938076348333642
1417.0,0.015926566321732498
1416.0,0.01589860812015549
1415.0,0.01585468638706339
1414.0,0.015784888540541674
1413.0,0.015660083636007797
1412.0,0.015473298061840113
1411.0,0.015263192269066746
1410.0,0.01505820303155949
1409.0,0.014845829029182415
1408.0,0.014614793293097554
1407.0,0.01437941684166591
1406.0,0.014128109912772212
1405.0,0.013814375220276308
1404.0,0.013470128651636961
1403.0,0.013199991102347732
1402.0,0.01301647681458748
1401.0,0.012819761049714128
1400.0,0.012539526118891593
1399.0,0.012238556134715948
1398.0,0.012003058545253534
1397.0,0.011799652867839742
1396.0,0.011578331570694076
1395.0,0.011379019107294358
1394.0,0.01122689301361076
1393.0,0.011091387214144568
1392.0,0.01098828199458611
1391.0,0.01095363034929732
1390.0,0.010967734888912874
1389.0,0.010993405459584018
1388.0,0.011104168632708005
1387.0,0.011477026733512252
1386.0,0.012149604441736468
1385.0,0.013061322368289507
1384.0,0.014329526436624634
1383.0,0.01619142660753807
1382.0,0.01880134794631934
1381.0,0.02225884806640375
1380.0,0.026725447162123585
1379.0,0.03209939969901136
1378.0,0.03756961907092996
1377.0,0.0418918326039627
1376.0,0.0439209227831809
1375.0,0.04262634186756864
1374.0,0.038049343706029505
1373.0,0.032263138799879
1372.0,0.027221857208711363
1371.0,0.02319277329909293
1370.0,0.019837392353664718
1369.0,0.01708312431213332
1368.0,0.01507036763612422
1367.0,0.013799163337757749
1366.0,0.01306735533125954
1365.0,0.012680064796224081
1364.0,0.012545391969204494
1363.0,0.012661524434734672
1362.0,0.012997958863029176
1361.0,0.01340147070801978
1360.0,0.013689506401064384
1359.0,0.013744071342457278
1358.0,0.013510435030999066
1357.0,0.012992736756726898
1356.0,0.01224903455208112
1355.0,0.011388646289155636
1354.0,0.01055370344196509
1353.0,0.009848301336779157
1352.0,0.009279801392003614
1351.0,0.008804822740552637
1350.0,0.008398590090818184
1349.0,0.008057239638061067
1348.0,0.007768617239820521
1347.0,0.007513581890661538
1346.0,0.007286562146454862
1345.0,0.0070872552053048155
1344.0,0.0069052641458841185
1343.0,0.006730143094643568
1342.0,0.006564550643641743
1341.0,0.0064178113352491555
1340.0,0.0062939077352856185
1339.0,0.006195126284889722
1338.0,0.006131876181245234
1337.0,0.006108537159232855
1336.0,0.006111505650149502
1335.0,0.006127365439592018
1334.0,0.006155635053591261
1333.0,0.006198525978074873
1332.0,0.00624950539949721
1331.0,0.006296102030560934
1330.0,0.006325149206904794
1329.0,0.00632303429280605
1328.0,0.006280873875118801
1327.0,0.006204255077686753
1326.0,0.006107948374479973
1325.0,0.005998806824822881
1324.0,0.005875003512651345
1323.0,0.005741988776689477
1322.0,0.005616743495098225
1321.0,0.005512129287921649
1320.0,0.005427201878916104
1319.0,0.00535464207203167
1318.0,0.005287769612645795
1317.0,0.00521939762161496
1316.0,0.005144833035062593
1315.0,0.005069024065269982
1314.0,0.005004568779868794
1313.0,0.004959866319403351
1312.0,0.004933687487170938
1311.0,0.004923737742496957
1310.0,0.004933529010115564
1309.0,0.0049715611571440315
1308.0,0.005047939771660459
1307.0,0.005164654295321975
1306.0,0.00529879661075555
1305.0,0.005402136048850977
1304.0,0.00543114150449152
1303.0,0.0053814631780316514
1302.0,0.005289236108192118
1301.0,0.005197762369277907
1300.0,0.005129692057533646
1299.0,0.00508706625858822
1298.0,0.005061679604436908
1297.0,0.0050397352450543
1296.0,0.005007083304189816
1295.0,0.004956568669670789
1294.0,0.004887579475104022
1293.0,0.004800770731143839
1292.0,0.004700257055419706
1291.0,0.004598079585864301
1290.0,0.004506356407418645
1289.0,0.0044253210991196425
1288.0,0.0043474525731271845
1287.0,0.004271916524703486
1286.0,0.004205799269042649
1285.0,0.004153264619683019
1284.0,0.004113655549152939
1283.0,0.0040879637576351525
1282.0,0.004077484490391355
1281.0,0.004076759327169709
1280.0,0.004076202893908825
1279.0,0.004071627302707397
1278.0,0.004065039591562285
1277.0,0.004057877461790602
1276.0,0.004050099385994091
1275.0,0.004044746514971689
1274.0,0.004047037677677985
1273.0,0.004059580474932295
1272.0,0.004082509511114376
1271.0,0.004115770064777676
1270.0,0.004156698334390649
1269.0,0.004198962281836374
1268.0,0.00423982609720658
1267.0,0.004285766917985165
1266.0,0.0043454896001458715
1265.0,0.004418659307609502
1264.0,0.004496372533012395
1263.0,0.004572121997164521
1262.0,0.00464891128560843
1261.0,0.004736687199516476
1260.0,0.004845676227605128
1259.0,0.004979153719653649
1258.0,0.005126911407983886
1257.0,0.005264166302874872
1256.0,0.005358939850214399
1255.0,0.005386811200716404
1254.0,0.005345862060691807
1253.0,0.005258790997430778
1252.0,0.005159540713432043
1251.0,0.005076201227479975
1250.0,0.005020754584494136
1249.0,0.00499059926661889
1248.0,0.004978800829982885
1247.0,0.00498031359654714
1246.0,0.004988965040168049
1245.0,0.004995477410877235
1244.0,0.004993767985174131
1243.0,0.004987270787944526
1242.0,0.0049847765142156785
1241.0,0.004990937456652486
1240.0,0.005003995658084371
1239.0,0.005020669647256854
1238.0,0.0050387305443220665
1237.0,0.00505500276992433
1236.0,0.005064869321261097
1235.0,0.005066136150645792
1234.0,0.0050622369820853864
1233.0,0.00505935785655778
1232.0,0.005060041097314569
1231.0,0.0050611234915689685
1230.0,0.005059418573747853
1229.0,0.005058540555450146
1228.0,0.005067176782053897
1227.0,0.005090176000317588
1226.0,0.005124448493793263
1225.0,0.0051650293314881995
1224.0,0.005210722133396028
1223.0,0.005259616305023812
1222.0,0.005303328734609265
1221.0,0.005331886108544195
1220.0,0.005342533347278465
1219.0,0.005338837153365108
1218.0,0.005322860604133204
1217.0,0.00529389163488324
1216.0,0.005254184871982913
1215.0,0.005209757416229853
1214.0,0.005164638572321533
1213.0,0.005120136801317822
1212.0,0.005081292475266933
1211.0,0.005057684336269439
1210.0,0.005054390679692629
1209.0,0.005067035309698414
1208.0,0.005088397061568942
1207.0,0.005115256424311029
1206.0,0.0051469847369717305
1205.0,0.005182258313751239
1204.0,0.005220119140469798
1203.0,0.00526159832801066
1202.0,0.005308743500153937
1201.0,0.00536388374766498
1200.0,0.005429253945197967
1199.0,0.005503998487053142
1198.0,0.005581961659901616
1197.0,0.00565593525975186
1196.0,0.005723756016523262
1195.0,0.005788736241942059
1194.0,0.005857124836509853
1193.0,0.0059380402620649135
1192.0,0.0060417988690733525
1191.0,0.006171582391430798
1190.0,0.006317518111418513
1189.0,0.006464035973275708
1188.0,0.006601967370943014
1187.0,0.006730852762803432
1186.0,0.006854578189005839
1185.0,0.006980302621870563
1184.0,0.007117791836995135
1183.0,0.007272300364253116
1182.0,0.007438418455936336
1181.0,0.007607035233634041
1180.0,0.007779281707583401
1179.0,0.007969566231739455
1178.0,0.008194265810655285
1177.0,0.00846104904229597
1176.0,0.008770060805287288
1175.0,0.00912289590545513
1174.0,0.009529057533925241
1173.0,0.010000988131899726
1172.0,0.01053609807089297
1171.0,0.011100323232609562
1170.0,0.011632805272753021
1169.0,0.012069828884380605
1168.0,0.012365861027951754
1167.0,0.012504456322069778
1166.0,0.01250488899663623
1165.0,0.012414642286018792
1164.0,0.012284650921702202
1163.0,0.012150754499644586
1162.0,0.012035015932608657
1161.0,0.011951200579850555
1160.0,0.011903331040535443
1159.0,0.011886123387931487
1158.0,0.011892918861052985
1157.0,0.01192164459973865
1156.0,0.011972300217506865
1155.0,0.012043448001586542
1154.0,0.012131533138827307
1153.0,0.012226928511210017
1152.0,0.012309167856058772
1151.0,0.012354451159757553
1150.0,0.012353856562293614
1149.0,0.012320623109318075
1148.0,0.012279734712290675
1147.0,0.012257092585699396
1146.0,0.012273695725522612
1145.0,0.012336346233065346
1144.0,0.012432135589774039
1143.0,0.01254150102843217
1142.0,0.012658212427634732
1141.0,0.012788204418751458
1140.0,0.012930322411070134
1139.0,0.013071952024749738
1138.0,0.013205210466495199
1137.0,0.013332475193826052
1136.0,0.013452626351080271
1135.0,0.013558247862736097
1134.0,0.013651698825064503
1133.0,0.013747100068474374
1132.0,0.013850216478649348
1131.0,0.01395217662048254
1130.0,0.014048575979420875
1129.0,0.014148445621064522
1128.0,0.014258082150724553
1127.0,0.014372548636765781
1126.0,0.01448904531168483
1125.0,0.0146100577208206
1124.0,0.014725622092376461
1123.0,0.014812577674597992
1122.0,0.014862599951680815
1121.0,0.014892772030080239
1120.0,0.014918973801607983
1119.0,0.014939129053392234
1118.0,0.014951959631592359
1117.0,0.01497003687236836
1116.0,0.015001476412431183
1115.0,0.015037120975791664
1114.0,0.01506854127522934
1113.0,0.015103246150907398
1112.0,0.015151598016628836
1111.0,0.01521484244186136
1110.0,0.01529465435690347
1109.0,0.015397269182989125
1108.0,0.015519223536630537
1107.0,0.01564590953712144
1106.0,0.01577109942140372
1105.0,0.01589679365826667
1104.0,0.016007262808356078
1103.0,0.016069468776993952
1102.0,0.01607100576141847
1101.0,0.016032458783069185
1100.0,0.015971331313607878
1099.0,0.015881303631951248
1098.0,0.015760369928906413
1097.0,0.015630441635270075
1096.0,0.01551073601072361
1095.0,0.015396543915293378
1094.0,0.015282072320205797
1093.0,0.015182588821242321
1092.0,0.015115188182221219
1091.0,0.015073407402182264
1090.0,0.015035911245099877
1089.0,0.014987337682357792
1088.0,0.014920449727566839
1087.0,0.014833971368082722
1086.0,0.014739327025664252
1085.0,0.014654113686204541
1084.0,0.014580354807471593
1083.0,0.014504150935199116
1082.0,0.014420246512741368
1081.0,0.014335708559857274
1080.0,0.014244167718196213
1079.0,0.01412293895164627
1078.0,0.013968285133073462
1077.0,0.013809411085271471
1076.0,0.013672063345490672
1075.0,0.013547338190015228
1074.0,0.013409879866019672
1073.0,0.013251175777494316
1072.0,0.013082523629355351
1071.0,0.012919234181544309
1070.0,0.012773875553669302
1069.0,0.012653102586226685
1068.0,0.01255034183954241
1067.0,0.01244962625625086
1066.0,0.012343416761259822
1065.0,0.012238531824547646
1064.0,0.01214116419848392
1063.0,0.012047551795673527
1062.0,0.011953108625394972
1061.0,0.01185882592379656
1060.0,0.01176411148224481
1059.0,0.011664547528371389
1058.0,0.011562143256474488
1057.0,0.011468110333943956
1056.0,0.011391216881196778
1055.0,0.011331591478504672
1054.0,0.011286910074402762
1053.0,0.011254205989365475
1052.0,0.011224347149057696
1051.0,0.011188520567379887
1050.0,0.011154432635518022
1049.0,0.011139961400049091
1048.0,0.011146000461033104
1047.0,0.011152001086129452
1046.0,0.011139190656047172
1045.0,0.01109992653847201
1044.0,0.011024565496193583
1043.0,0.010901957629033687
1042.0,0.01074146864586445
1041.0,0.010577542245603005
1040.0,0.010440858408760148
1039.0,0.010333339294928006
1038.0,0.010236707252664085
1037.0,0.010135787705269541
1036.0,0.01002622477280806
1035.0,0.009907522896692042
1034.0,0.009779189674881544
1033.0,0.009643778203911609
1032.0,0.0095104503612813
1031.0,0.009394011688338023
1030.0,0.009305480383157452
1029.0,0.009238929402320066
1028.0,0.009171803879285803
1027.0,0.009084953753901073
1026.0,0.008980401184140278
1025.0,0.008874108298684444
1024.0,0.008776549111612842
1023.0,0.00868898349639002
1022.0,0.00861219400122552
1021.0,0.00854509326716504
1020.0,0.008475929018430896
1019.0,0.008388098943147012
1018.0,0.008277938429019593
1017.0,0.008157120326752997
1016.0,0.008035818264396134
1015.0,0.007913916043096662
1014.0,0.007790542319245218
1013.0,0.007671580960805127
1012.0,0.00756390285768007
1011.0,0.007470553205797283
1010.0,0.007395193633310235
1009.0,0.007343810311471997
1008.0,0.007317844371469252
1007.0,0.007311331558954425
1006.0,0.00732017555756968
1005.0,0.007352828807273008
1004.0,0.007431491952029575
1003.0,0.007587201871221465
1002.0,0.007849956387586385
1001.0,0.00822432587447421
1000.0,0.008654576072833167
999.0,0.009013954638576713
998.0,0.009152746446473462
997.0,0.008982191777269475
996.0,0.008524445675213418
995.0,0.007893277733266188
994.0,0.007227865711280798
993.0,0.006627243360797917
992.0,0.006128813138675394
991.0,0.005730340009501775
990.0,0.00541591254567227
989.0,0.005165019643785705
988.0,0.004957152102903227
987.0,0.004781011866531237
986.0,0.004638241328573246
985.0,0.004535824875140039
984.0,0.004478578639407222
983.0,0.0044706523338234
982.0,0.004520005477647294
981.0,0.0046388028863964675
980.0,0.004840995563155745
979.0,0.005138444677738205
978.0,0.005533767681715568
977.0,0.0060105299003654425
976.0,0.006523245765711415
975.0,0.006990711888737788
974.0,0.0073021834729033105
973.0,0.007346370350233555
972.0,0.0070612468442866685
971.0,0.0064819412990990075
970.0,0.005739540316635639
969.0,0.004989458972870207
968.0,0.004331096199523486
967.0,0.0037907552431339416
966.0,0.003356128477798403
965.0,0.0030076176081739268
964.0,0.0027262947415952494
963.0,0.002494768489445685
962.0,0.002300725014270517
961.0,0.002136037400231258
960.0,0.0019913993844582287
959.0,0.0018568809698806948
958.0,0.0017292567994168125
957.0,0.0016136783626435874
956.0,0.001514387002000699
955.0,0.0014262937904146837
954.0,0.0013391558837759793
953.0,0.001249089538919024
952.0,0.0011623289157582876
951.0,0.001086678334166707
950.0,0.0010229471491771842
949.0,0.0009680948316702614
948.0,0.0009242511241725222
947.0,0.0008984705845067539
946.0,0.0008918017709524453
945.0,0.0008936163493920238
944.0,0.0008905503426832242
943.0,0.0008788099944082219
942.0,0.0008643801898393644
941.0,0.0008510313038743358
940.0,0.0008302015800254366
939.0,0.0007844517942686858
938.0,0.0007029771807647613
937.0,0.0005955125559839146
936.0,0.0004890936387756586
935.0,0.0004064460805129483
934.0,0.0003456656002164566
933.0,0.00028550077098871314
932.0,0.0002129070173452676
931.0,0.00013953941900357418
930.0,8.6994680744008e-05
929.0,6.185671849941697e-05
928.0,5.244271926945626e-05
927.0,4.5165046643660944e-05
926.0,3.447072975273045e-05
925.0,1.8599069341439928e-05
924.0,-3.417371054340382e-06
923.0,-2.6252526765545292e-05
922.0,-3.738669760651979e-05
921.0,-2.8823553914730793e-05
920.0,-7.550784208566405e-06
919.0,9.92808355990138e-06
918.0,1.2728363909518883e-05
917.0,2.859786935377126e-06
916.0,-1.100265791755331e-05
915.0,-2.202715130861753e-05
914.0,-2.6043824630606754e-05
913.0,-1.8844381454620127e-05
912.0,1.2678158625798602e-06
911.0,2.753332227037851e-05
910.0,4.678582888115006e-05
909.0,5.2159970431508995e-05
908.0,5.259738560604854e-05
907.0,6.857748673501883e-05
906.0,0.00012265199311024995
905.0,0.00023675944939104132
904.0,0.000429935427663463
903.0,0.0007028765202028685
902.0,0.0010191860101401232
901.0,0.0013100112954922364
900.0,0.0015032928186005743
899.0,0.0015519504415418533
898.0,0.001445503689533216
897.0,0.0012094034546652407
896.0,0.0009006726417763958
895.0,0.0005952443295067621
894.0,0.0003562492978611987
893.0,0.00020170218954432273
892.0,0.00010771783403404518
891.0,4.208103429073455e-05
890.0,-1.2924221905064731e-05
889.0,-6.340128483896257e-05
888.0,-0.00010850936804754699
887.0,-0.00013328049841992116
886.0,-0.00011115909359371047
885.0,-2.8673230353866083e-05
884.0,9.735340919696592e-05
883.0,0.0002380333756917246
882.0,0.000385337827208029
881.0,0.0005553550121706122
880.0,0.0007576205937942001
879.0,0.0009738962006181299
878.0,0.0011737219984390857
877.0,0.0013410642371863499
876.0,0.001476611457908077
875.0,0.0015813125179949955
874.0,0.0016460558757096944
873.0,0.0016510334467370862
872.0,0.0015707079972832449
871.0,0.0013919973575627059
870.0,0.0011384134441189565
869.0,0.0008691812681782939
868.0,0.000646760132604153
867.0,0.0005034546743514379
866.0,0.0004321768631214938
865.0,0.0004017246168601142
864.0,0.00038157239739763406
863.0,0.00035868597353755187
862.0,0.00033658521785466175
861.0,0.0003207545308438701
860.0,0.0003083288303201374
859.0,0.00029410691307859074
858.0,0.00028125978347268155
857.0,0.00027898802659580106
856.0,0.0002917170908306316
855.0,0.00031780479502400115
854.0,0.00035661730345085303
853.0,0.00040779498256282055
852.0,0.00046472008947102093
851.0,0.0005199185237655703
850.0,0.0005789435248196532
849.0,0.0006573896621135632
848.0,0.0007615847088926122
847.0,0.0008891890497437493
846.0,0.0010610471060502249
845.0,0.0013357222550915131
844.0,0.0017609614796337061
843.0,0.0022940402119588886
842.0,0.0027786870148502722
841.0,0.0030249942786398747
840.0,0.002935453214067907
839.0,0.0025726895347912004
838.0,0.002110834833822798
837.0,0.0017100940115557066
836.0,0.0014317997579650302
835.0,0.0012588754255386785
834.0,0.0011611853186141562
833.0,0.0011197041397374378
832.0,0.0011079259678010017
831.0,0.001091750053423126
830.0,0.0010630625425403911
829.0,0.00105000437868151
828.0,0.0010761901629847172
827.0,0.0011241296561709559
826.0,0.0011555757870964252
825.0,0.0011565304740509593
824.0,0.001144210117186531
823.0,0.001141966601500271
822.0,0.00116520120163352
821.0,0.001220614604085981
820.0,0.0013036430182453672
819.0,0.001401799089229893
818.0,0.0015093822005454761
817.0,0.0016351117447364963
816.0,0.0017932796294008353
815.0,0.0019932623714995212
814.0,0.0022347543003255303
813.0,0.0025005716954815335
812.0,0.002754097315519729
811.0,0.0029612709310420857
810.0,0.003119733473903402
809.0,0.0032468661952887792
808.0,0.003334291413762916
807.0,0.003341445040250718
806.0,0.0032483768882035254
805.0,0.003091205707898944
804.0,0.0029295453873574052
803.0,0.002797346030139723
802.0,0.0026957905469319615
801.0,0.0026156684058878457
800.0,0.0025529525200323755
799.0,0.002511058580530131
798.0,0.0024954626138814634
797.0,0.0024998904596772974
796.0,0.0024995256013942806
795.0,0.002472969324962635
794.0,0.0024310058253477727
793.0,0.0024045242683697864
792.0,0.00240376485230857
791.0,0.0024118465529330557
790.0,0.0024182413292986697
789.0,0.0024312320947521594
788.0,0.002451656202504572
787.0,0.0024619375261836635
786.0,0.002452978503433026
785.0,0.0024389764859382747
784.0,0.00243448170253412
783.0,0.002439705700844702
782.0,0.002458348871300326
781.0,0.0025038837274539358
780.0,0.002572905861417195
779.0,0.0026346428946430606
778.0,0.0026646721437779373
777.0,0.0026712829046606663
776.0,0.0026754135633697586
775.0,0.002686070946967725
774.0,0.0027076399661063073
773.0,0.0027472392840772776
772.0,0.0027983892456418524
771.0,0.002837651766931855
770.0,0.002854855713205543
769.0,0.002869061908371988
768.0,0.0028996973218981814
767.0,0.002941373261870304
766.0,0.0029818021021485487
765.0,0.003023699833570967
764.0,0.003073053536025022
763.0,0.00312503487223861
762.0,0.003176240207067565
761.0,0.003231483672339934
760.0,0.0032843865715499257
759.0,0.0033132106340247533
758.0,0.0033126729290150377
757.0,0.0033089149946061956
756.0,0.0033267007575716323
755.0,0.003361758247159511
754.0,0.003398457854503996
753.0,0.003430365512636511
752.0,0.0034473315709932957
751.0,0.0034314973166572234
750.0,0.0033921887507021298
749.0,0.003381043109537369
748.0,0.0034408908198129383
747.0,0.003547989621636303
746.0,0.003624549033228123
745.0,0.0036078412246397344
744.0,0.0035045677279196344
743.0,0.003389859380086291
742.0,0.0033557288364967977
741.0,0.0034357293365769384
740.0,0.003567864567167619
739.0,0.0036498736637910964
738.0,0.003640468053248077
737.0,0.0035900967398712694
736.0,0.003576974273033502
735.0,0.003647621387269137
734.0,0.003814967538529057
733.0,0.004061333767718021
732.0,0.004320084427250865
731.0,0.004494817635922507
730.0,0.004536657100573455
729.0,0.004485189091167109
728.0,0.004411599377833798
727.0,0.0043523676975642
726.0,0.004318131388699568
725.0,0.004326270298883612
724.0,0.0043914562881826845
723.0,0.004509201797083799
722.0,0.0046711667657638525
721.0,0.004867752112480299
720.0,0.005052192805207245
719.0,0.005142057209158592
718.0,0.005094887190740232
717.0,0.004950006079975734
716.0,0.004775358453126141
715.0,0.004608015188474163
714.0,0.004456877863768478
713.0,0.004327735403729358
712.0,0.004222253704680837
711.0,0.0041353496133381615
710.0,0.004074681782897698
709.0,0.004063415862174555
708.0,0.004108856121959353
707.0,0.004190518135563922
706.0,0.004293224848191047
705.0,0.0044259003495619835
704.0,0.004592232620451636
703.0,0.0047708341880956864
702.0,0.0049391642364043815
701.0,0.005086806296938459
700.0,0.005189181746123438
699.0,0.00520428821871281
698.0,0.005118761876693183
697.0,0.00495962539924389
696.0,0.004744529047722091
695.0,0.004470634518239737
694.0,0.004172223008300349
693.0,0.0039322723885823405
692.0,0.0037957550752725673
691.0,0.0037122241371540556
690.0,0.0036040636291651412
689.0,0.0034598399317907168
688.0,0.003324362189663071
687.0,0.0032267585225834866
686.0,0.0031682988077654343
685.0,0.0031520051152587637
684.0,0.0031688905415826855
683.0,0.003180425049639432
682.0,0.003157654620351509
681.0,0.0031176178351066675
680.0,0.003092311827214162
679.0,0.003087223865004759
678.0,0.0030902481168240577
677.0,0.00309879459938105
676.0,0.003104526514722785
675.0,0.003077845695227028
674.0,0.003014624116691577
673.0,0.002952252248808941
672.0,0.00290787259280733
671.0,0.0028458976814888792
670.0,0.0027253102700980393
669.0,0.00260027449244446
668.0,0.002600256610068831
667.0,0.0026869759419523957
666.0,0.0027182652082230335
665.0,0.002683295900861842
664.0,0.002627690389519162
663.0,0.0025652411907399544
662.0,0.002493320270135907
661.0,0.0024308948127009546
660.0,0.002402117094357656
659.0,0.002402489993498045
658.0,0.002410185236469957
657.0,0.002415948395743727
656.0,0.0024172336402953527
655.0,0.0024023191287302625
654.0,0.002375583377825667
653.0,0.0023515906443217147
652.0,0.0023142356502151643
651.0,0.0022302176504374674
650.0,0.0021167633079888573
649.0,0.002039584679155774
648.0,0.002025692477622125
647.0,0.0020396570454252784
646.0,0.002056061533226166
645.0,0.002082943455043007
644.0,0.002098521536188988
643.0,0.002046843243276905
642.0,0.0019276836148638087
641.0,0.0018131385615981765
640.0,0.0017406472166756996
639.0,0.001664159161545914
638.0,0.001547235122342696
637.0,0.0014307862628768764
636.0,0.0013636677233699254
635.0,0.0013339588891353588
634.0,0.0013154601909591765
633.0,0.0013160602534789297
632.0,0.0013247580413714294
631.0,0.0012789451380169
630.0,0.0011456107695518858
629.0,0.000979712879390339
628.0,0.0008497539368710824
627.0,0.0007620249041079864
626.0,0.0006983328357328747
625.0,0.0006692877787091434
624.0,0.0006834762766545141
623.0,0.0007131232666899821
622.0,0.0007395675466101773
621.0,0.0007827617770954746
620.0,0.0008405313899684831
619.0,0.0008552338955128136
618.0,0.0007927929373972853
617.0,0.0006942539704614878
616.0,0.0005954161238009674
615.0,0.0004766389005659878
614.0,0.0003464956575901894
613.0,0.0002781959896367321
612.0,0.00030451457953578967
611.0,0.00035205955305593617
610.0,0.00033988540513107957
609.0,0.000288807728413696
608.0,0.00026334299739213043
607.0,0.0002672397588540307
606.0,0.00026539544449470306
605.0,0.0002466779911050841
604.0,0.000204527207584293
603.0,0.00012098763853229944
602.0,2.4296058437661e-05
601.0,-1.4551482418894562e-05
600.0,5.048567755242678e-06
