cm-1,A
4000.0,0.00025868691169231295
3999.0,0.00025029745867635603
3998.0,0.00024871240586127764
3997.0,0.00026980615243858133
3996.0,0.00030543632560225877
3995.0,0.0003410770947230358
3994.0,0.0003697160862629733
3993.0,0.00039156356097294447
3992.0,0.00040867823159473904
3991.0,0.00043109325629759774
3990.0,0.00048044817308359874
3989.0,0.0005677989336518715
3988.0,0.0006685213758916616
3987.0,0.0007294040120113168
3986.0,0.0007198543106248026
3985.0,0.0006623215486147196
3984.0,0.0006045631615874199
3983.0,0.0005724329149359784
3982.0,0.0005547776423662702
3981.0,0.0005383887490494196
3980.0,0.0005312319013827038
3979.0,0.000542248358196312
3978.0,0.0005563704001785908
3977.0,0.0005451110848112444
3976.0,0.0005033069154384909
3975.0,0.00045765551422041187
3974.0,0.0004369728667874854
3973.0,0.0004429903531234817
3972.0,0.0004607335653476572
3971.0,0.00048239161723435215
3970.0,0.0005152449666962662
3969.0,0.0005732727531243499
3968.0,0.0006547158950642659
3967.0,0.0007353789569543461
3966.0,0.0007806373348698695
3965.0,0.0007751034497687935
3964.0,0.0007401309616963964
3963.0,0.0007151489054109282
3962.0,0.0007243474501060615
3961.0,0.0007561042866633698
3960.0,0.0007820555375004958
3959.0,0.0007861033316168627
3958.0,0.0007611625042831479
3957.0,0.0007177611103688251
3956.0,0.000684827941882047
3955.0,0.0006857130521953627
3954.0,0.0007092350458417045
3953.0,0.0007134336495781685
3952.0,0.0006645349889085887
3951.0,0.0005738676505694612
3950.0,0.0005008104354381317
3949.0,0.0004983250078765466
3948.0,0.000547589246559216
3947.0,0.0005862478219302069
3946.0,0.0005935176860454071
3945.0,0.0005875428785262764
3944.0,0.0005985624428573259
3943.0,0.0006511866992656907
3942.0,0.0007186142291513808
3941.0,0.0007711623309185813
3940.0,0.0008349299832766722
3939.0,0.0009185534535639636
3938.0,0.0009739207902519317
3937.0,0.0009664216366877753
3936.0,0.0009196503428300063
3935.0,0.000882890553133126
3934.0,0.0008801009159173459
3933.0,0.0009056048834429997
3932.0,0.0009337576925734412
3931.0,0.0009320551754591062
3930.0,0.0009089298270804767
3929.0,0.0008992397745138654
3928.0,0.0008997583124878343
3927.0,0.0008814738248373397
3926.0,0.0008313298510898392
3925.0,0.0007761798609817946
3924.0,0.0007414551264539005
3923.0,0.0007299917045154587
3922.0,0.0007499720841373072
3921.0,0.0007569817371289134
3920.0,0.0007132201258675929
3919.0,0.0007121138424347074
3918.0,0.0008606861959138301
3917.0,0.0011104611629286468
3916.0,0.001308135924184983
3915.0,0.0013964677111876276
3914.0,0.0014359764705018942
3913.0,0.0014502710699938336
3912.0,0.0014120477927958104
3911.0,0.0013297270691552078
3910.0,0.0012166867716538123
3909.0,0.0010651034635313626
3908.0,0.0008464575247090615
3907.0,0.0005850867178210546
3906.0,0.0003813027279515029
3905.0,0.00035738529068099186
3904.0,0.0004700523783441135
3903.0,0.0005095729196679796
3902.0,0.0004553534239729994
3901.0,0.0004935475583925622
3900.0,0.0006719414578134574
3899.0,0.0008464818127351865
3898.0,0.0009329165946679388
3897.0,0.001004644335889207
3896.0,0.0010873233854606693
3895.0,0.0010876295456074578
3894.0,0.0009929864372706081
3893.0,0.0009536556765160568
3892.0,0.0010522737428479037
3891.0,0.0010670671528999719
3890.0,0.0008393257952951261
3889.0,0.0006854730399094766
3888.0,0.0008072727702960073
3887.0,0.001011994002552825
3886.0,0.0011322077665169906
3885.0,0.0011027681439543912
3884.0,0.0009328836162414221
3883.0,0.000860593224082526
3882.0,0.0009407876530697383
3881.0,0.0009954980407693283
3880.0,0.0009042757245290311
3879.0,0.0006756030456089661
3878.0,0.0005563345042526619
3877.0,0.0006528735258615173
3876.0,0.0006990372982666568
3875.0,0.0005338844948503257
3874.0,0.00028010179439736304
3873.0,0.00010812721466377457
3872.0,0.00012425204607477577
3871.0,0.00028217278742658424
3870.0,0.0003610715208030291
3869.0,0.00017766164951732173
3868.0,-2.9311145925932976e-05
3867.0,0.00012644394563107568
3866.0,0.0004367813401501496
3865.0,0.0005555058928552942
3864.0,0.0005567190307055327
3863.0,0.0005564730633531008
3862.0,0.00057524812511001
3861.0,0.0006344400648371727
3860.0,0.0006744882326271118
3859.0,0.0006453860202791574
3858.0,0.0005338272081503285
3857.0,0.00037595397533463407
3856.0,0.00023678531759917297
3855.0,0.00026604394447164725
3854.0,0.0007231722091052067
3853.0,0.0011177553090507056
3852.0,0.0006439591361678677
3851.0,0.0002668554344283377
3850.0,0.0006627814257955417
3849.0,0.0011491270556337869
3848.0,0.0013011071021396489
3847.0,0.0012304416150580725
3846.0,0.0010935953083791295
3845.0,0.000931349847149768
3844.0,0.0007539017851768289
3843.0,0.0005335230838990037
3842.0,0.00025719693121296135
3841.0,2.161497068012432e-05
3840.0,-5.0759898367339605e-05
3839.0,6.973085735837602e-05
3838.0,0.00020843037539437727
3837.0,0.0002099640589919733
3836.0,0.00020229664307754329
3835.0,0.0003845893140993023
3834.0,0.0007155861607728146
3833.0,0.0010206131622255527
3832.0,0.0011774930851650672
3831.0,0.0011772185991695563
3830.0,0.0011162915419841196
3829.0,0.0010957657580652322
3828.0,0.001106596034322095
3827.0,0.001061990748144048
3826.0,0.0009020721617405915
3825.0,0.0006937713133617171
3824.0,0.0005686411333525885
3823.0,0.0005013490122064418
3822.0,0.00044649011949425825
3821.0,0.0004259574597646285
3820.0,0.00017604191735779426
3819.0,-4.0827853918586564e-05
3818.0,0.0002685971197934797
3817.0,0.0007867450429652936
3816.0,0.0010504009448045384
3815.0,0.0009589523612929952
3814.0,0.0008759220627755635
3813.0,0.001160183519256253
3812.0,0.0015248184641480926
3811.0,0.0015678975456942165
3810.0,0.0013690977292642637
3809.0,0.0012177996825318148
3808.0,0.001249235764107612
3807.0,0.0013133581668681193
3806.0,0.0011481432275715902
3805.0,0.0008780274101327082
3804.0,0.0007656577045687437
3803.0,0.0006493596644358544
3802.0,0.00045351635748099126
3801.0,0.0002303972413177605
3800.0,-5.662523121013343e-05
3799.0,1.5511081322870863e-05
3798.0,0.0005475397432818774
3797.0,0.001046292679868336
3796.0,0.0012422529990763315
3795.0,0.0012371182914445175
3794.0,0.001287768010441652
3793.0,0.0014745039808607395
3792.0,0.0016523146065375834
3791.0,0.0017226471127296046
3790.0,0.0017157741529038014
3789.0,0.0016574510576573358
3788.0,0.0015534539742309986
3787.0,0.0014515515146080577
3786.0,0.0014258542585770407
3785.0,0.001464470473200437
3784.0,0.0014668014312610716
3783.0,0.00140134019302759
3782.0,0.0013445468306767143
3781.0,0.0013368823769263217
3780.0,0.0013902958685112021
3779.0,0.0014886076710794813
3778.0,0.0015509084323520367
3777.0,0.0016071135124654306
3776.0,0.0016916177148128108
3775.0,0.001690548327189957
3774.0,0.0015574155902302593
3773.0,0.0014225073194387573
3772.0,0.0014101325940336774
3771.0,0.0014825935283268416
3770.0,0.0014849481982524032
3769.0,0.0013285730964214726
3768.0,0.0011589689600083265
3767.0,0.0011732803241356283
3766.0,0.0013215935448537331
3765.0,0.0014343815163001233
3764.0,0.00144932571191386
3763.0,0.0014463333226893142
3762.0,0.0014303727638715752
3761.0,0.0012727521155566019
3760.0,0.0010267457632696343
3759.0,0.0008947933831265039
3758.0,0.0008735318729910227
3757.0,0.0008357953623942314
3756.0,0.0007586851810944667
3755.0,0.0006408083890933635
3754.0,0.00040209660884764754
3753.0,2.9255588866689084e-05
3752.0,-0.0001149016021025817
3751.0,0.0003090068010094991
3750.0,0.0006886835148955106
3749.0,0.0005274557259129097
3748.0,0.0003375059828917532
3747.0,0.0005506530654698932
3746.0,0.001061453909334684
3745.0,0.0016191461516492228
3744.0,0.0017640018095569205
3743.0,0.0013462016244464934
3742.0,0.0011691337180875503
3741.0,0.0014520801249482134
3740.0,0.0015450880712639349
3739.0,0.00125481112459616
3738.0,0.0008279869203908898
3737.0,0.0004474094782790449
3736.0,0.00019403748848138044
3735.0,0.0001285177096660325
3734.0,0.0002442129547826832
3733.0,0.0005620178642249574
3732.0,0.0009673630558161351
3731.0,0.0012655701910712308
3730.0,0.0014911803064849522
3729.0,0.001734010744721722
3728.0,0.0019221145025521934
3727.0,0.001985569291411572
3726.0,0.001993788884458216
3725.0,0.0020305381044883634
3724.0,0.0020953211908667944
3723.0,0.0021046012981538586
3722.0,0.00203019914886928
3721.0,0.0019585145910677236
3720.0,0.001982509953731452
3719.0,0.0020977583887944163
3718.0,0.0022061849766783713
3717.0,0.0022420367786919458
3716.0,0.0022335325109750816
3715.0,0.002209669539049321
3714.0,0.0021122802393399144
3713.0,0.0019583730314756
3712.0,0.001994526830311609
3711.0,0.0022504506800923928
3710.0,0.0024028073137702883
3709.0,0.002482850275835002
3708.0,0.0026866897871557645
3707.0,0.0029530988059895936
3706.0,0.0031573615219184638
3705.0,0.0032740345075126663
3704.0,0.0033260769878748686
3703.0,0.003339823070523961
3702.0,0.003361803160827799
3701.0,0.003398998042074357
3700.0,0.0034573428346188597
3699.0,0.0036000759569557615
3698.0,0.0037962043118067333
3697.0,0.003925474541657745
3696.0,0.0039640704584592255
3695.0,0.003972708397917649
3694.0,0.003942981328667651
3693.0,0.003790500944042854
3692.0,0.003559401787747896
3691.0,0.0035707661273000823
3690.0,0.004046124685894434
3689.0,0.004531089294667916
3688.0,0.0045169172481848464
3687.0,0.004372169572849807
3686.0,0.004606246635051593
3685.0,0.005117001156210509
3684.0,0.005538465537731126
3683.0,0.00572046066580896
3682.0,0.005757825794282647
3681.0,0.005760060841724412
3680.0,0.005712455279039096
3679.0,0.005589555878019486
3678.0,0.005502902554425488
3677.0,0.005584111325603754
3676.0,0.005859168489608446
3675.0,0.0058939492522814465
3674.0,0.005558673239524217
3673.0,0.0057195929532918134
3672.0,0.006518676513926458
3671.0,0.007359335822207753
3670.0,0.008034616316793473
3669.0,0.008308605629828762
3668.0,0.00830651507563271
3667.0,0.00858733488743942
3666.0,0.009127728814851044
3665.0,0.009622855058992422
3664.0,0.0100094665880039
3663.0,0.010346938861002084
3662.0,0.010656235688216545
3661.0,0.010924049301983341
3660.0,0.011173352582226424
3659.0,0.011469181987236109
3658.0,0.011864043707338885
3657.0,0.012324495989058371
3656.0,0.012662627367154278
3655.0,0.012716984804998737
3654.0,0.01265765240845845
3653.0,0.01258967552436796
3652.0,0.012342879406670663
3651.0,0.0120413131087758
3650.0,0.01245818672560349
3649.0,0.01358756411956214
3648.0,0.01426080602277697
3647.0,0.014503331214000258
3646.0,0.015011078310964147
3645.0,0.015818299529151574
3644.0,0.01666544411442231
3643.0,0.017370961970442907
3642.0,0.017944322848347367
3641.0,0.0184835075442715
3640.0,0.019041667891360498
3639.0,0.019574902329595124
3638.0,0.019997857257737388
3637.0,0.02032184966064741
3636.0,0.020663545164781544
3635.0,0.02107280355396899
3634.0,0.021480920854581056
3633.0,0.02182962925533394
3632.0,0.0222036318375538
3631.0,0.02270732205131701
3630.0,0.023479070031634415
3629.0,0.02453524597263801
3628.0,0.025212702390193253
3627.0,0.02543128853438939
3626.0,0.0259681629422765
3625.0,0.02675781786160144
3624.0,0.02731488112382601
3623.0,0.027540549259889274
3622.0,0.027574351417887014
3621.0,0.027602341238506724
3620.0,0.02783004055138001
3619.0,0.02830073067444849
3618.0,0.028776450410823776
3617.0,0.029223781429417093
3616.0,0.029818169576618307
3615.0,0.030552410062266683
3614.0,0.031305361238192365
3613.0,0.03196819480454841
3612.0,0.032516051434698136
3611.0,0.03306505697809753
3610.0,0.03371520113151002
3609.0,0.03443093706381913
3608.0,0.03508872691817803
3607.0,0.035564818833903486
3606.0,0.03593389989738504
3605.0,0.036392231183368345
3604.0,0.03699081500817008
3603.0,0.03767191791634088
3602.0,0.03837234180260432
3601.0,0.038998486062558076
3600.0,0.03945271931870303
3599.0,0.03974878444371083
3598.0,0.04000661535332689
3597.0,0.040326253761364304
3596.0,0.04075807506406047
3595.0,0.04128811956456018
3594.0,0.041836585320110926
3593.0,0.0423587779445851
3592.0,0.042912559839470794
3591.0,0.04353705559216471
3590.0,0.04419546337109959
3589.0,0.04486974688869366
3588.0,0.04557673777961942
3587.0,0.04613619459362553
3586.0,0.04642261856674758
3585.0,0.046736747954443485
3584.0,0.04728227876385217
3583.0,0.04791846352810997
3582.0,0.048503079221729285
3581.0,0.04902276532155
3580.0,0.04952274683875963
3579.0,0.050042293265882734
3578.0,0.050609500474180405
3577.0,0.051221735597850454
3576.0,0.05183712735443062
3575.0,0.05239477773619867
3574.0,0.05287065251253963
3573.0,0.05329955577916792
3572.0,0.053730523365664126
3571.0,0.05416812711938492
3570.0,0.054573689796861176
3569.0,0.05492946796360426
3568.0,0.05532476605387536
3567.0,0.0558172577527261
3566.0,0.05625453998609573
3565.0,0.056647292092011345
3564.0,0.05720018855273703
3563.0,0.05790278461757559
3562.0,0.058627687404179854
3561.0,0.05933236105059877
3560.0,0.060009290013358065
3559.0,0.060631373187882295
3558.0,0.061197125856464724
3557.0,0.06175335275467222
3556.0,0.062336788566677986
3555.0,0.06292777288668255
3554.0,0.06346098595654329
3553.0,0.06390066585979834
3552.0,0.06429702294560138
3551.0,0.06475992904384223
3550.0,0.06535993576836126
3549.0,0.06604915273780455
3548.0,0.06670951965239971
3547.0,0.067290624024207
3546.0,0.06783472007659341
3545.0,0.06837846969411937
3544.0,0.06893032207212588
3543.0,0.06951430089223581
3542.0,0.0701559079058328
3541.0,0.07084745390447028
3540.0,0.0715413213772722
3539.0,0.0721775862839426
3538.0,0.07272439297417392
3537.0,0.07321052267939224
3536.0,0.07370398280312683
3535.0,0.07425185932320152
3534.0,0.07484537636638268
3533.0,0.07542877879204402
3532.0,0.07594149040618965
3531.0,0.07637169001582655
3530.0,0.0767765561997083
3529.0,0.07722615667310136
3528.0,0.07773864415091841
3527.0,0.07828291967826691
3526.0,0.0788393660227065
3525.0,0.0794203036698507
3524.0,0.08004213642148354
3523.0,0.08070122914845163
3522.0,0.08138348538447072
3521.0,0.08208367960461359
3520.0,0.08278553241011904
3519.0,0.08344565273917784
3518.0,0.08403487182830718
3517.0,0.08457998296901795
3516.0,0.08513004618140023
3515.0,0.08569077908546134
3514.0,0.0862286909011026
3513.0,0.08673922924223378
3512.0,0.08727458595763175
3511.0,0.08787830575013011
3510.0,0.08851160463447218
3509.0,0.0890762342146382
3508.0,0.0895295104382206
3507.0,0.08992666522481595
3506.0,0.09034104363493557
3505.0,0.09081810690559758
3504.0,0.09140762386834682
3503.0,0.09213103723428005
3502.0,0.09292254648781605
3501.0,0.09369114318145282
3500.0,0.09439706027268918
3499.0,0.09504101325023845
3498.0,0.09563435805670835
3497.0,0.09617598311945545
3496.0,0.09665998438736484
3495.0,0.09711570293306418
3494.0,0.09760968858169546
3493.0,0.0981830085595331
3492.0,0.09880343653570602
3491.0,0.09940385182135628
3490.0,0.09995936835550119
3489.0,0.10050364532318942
3488.0,0.10107128334753838
3487.0,0.10165283460497437
3486.0,0.10222330388525146
3485.0,0.10278709871462385
3484.0,0.10337160461309411
3483.0,0.10398879642036006
3482.0,0.10460778792680595
3481.0,0.10517150120451454
3480.0,0.10566323241811244
3479.0,0.10614012343289957
3478.0,0.10667807846374992
3477.0,0.10729717195839085
3476.0,0.1079476560478344
3475.0,0.10856100213165407
3474.0,0.1091184797436611
3473.0,0.1096599502203643
3472.0,0.11022225877969115
3471.0,0.11080185762463629
3470.0,0.1113864072578922
3469.0,0.11198368404677302
3468.0,0.11259741170415885
3467.0,0.11320361614885191
3466.0,0.11377962779133584
3465.0,0.11433613304200003
3464.0,0.11488750995485965
3463.0,0.11541117343264337
3462.0,0.11587412710621027
3461.0,0.11629532517976658
3460.0,0.11674557304723007
3459.0,0.11727701466759824
3458.0,0.11787445364011674
3457.0,0.11847968901698483
3456.0,0.11904638945939408
3455.0,0.11957371997830339
3454.0,0.12009723299656928
3453.0,0.12064328737943385
3452.0,0.12119478104972746
3451.0,0.12171318875659486
3450.0,0.12218821317707072
3449.0,0.1226394023437987
3448.0,0.12307859254916335
3447.0,0.12349799945544387
3446.0,0.12391503423531243
3445.0,0.12438469168701101
3444.0,0.12491628932559629
3443.0,0.1254344202130887
3442.0,0.1258811032640671
3441.0,0.12631257559695813
3440.0,0.1268383973454258
3439.0,0.127483447536407
3438.0,0.12815772360620173
3437.0,0.12875427495879282
3436.0,0.12923756820797158
3435.0,0.12964618475094616
3434.0,0.13004950888787037
3433.0,0.13050456662759347
3432.0,0.131016992505833
3431.0,0.13152548637784053
3430.0,0.13195574867594173
3429.0,0.1323029671894855
3428.0,0.1326396933599005
3427.0,0.13303403666589675
3426.0,0.13348898738973167
3425.0,0.13396368694150096
3424.0,0.13441564103999462
3423.0,0.13480693970723176
3422.0,0.13510728887415796
3421.0,0.1353332313956741
3420.0,0.1355672436501837
3419.0,0.13589668218153667
3418.0,0.1363381826915475
3417.0,0.1368388154852693
3416.0,0.1373310192808459
3415.0,0.13776851099605822
3414.0,0.13813557088158904
3413.0,0.13845672763950728
3412.0,0.1387880249646946
3411.0,0.13916604993039253
3410.0,0.1395659702962012
3409.0,0.13993274735890582
3408.0,0.14025010566541057
3407.0,0.14055146574035038
3406.0,0.1408641097279585
3405.0,0.14117599890259544
3404.0,0.14146596930032493
3403.0,0.14174280801107905
3402.0,0.1420369741469679
3401.0,0.14236111868986331
3400.0,0.14268754167297365
3399.0,0.14296261487411244
3398.0,0.14315319459297055
3397.0,0.1432914083905144
3396.0,0.143459616466559
3395.0,0.14370967606328192
3394.0,0.14400953894085014
3393.0,0.14428789162480019
3392.0,0.144520362847506
3391.0,0.14474489600205703
3390.0,0.1449920119723433
3389.0,0.1452302622867813
3388.0,0.14539102983782226
3387.0,0.14543157716284777
3386.0,0.14537087216067937
3385.0,0.14528301695537923
3384.0,0.1452631345224209
3383.0,0.14538103562702884
3382.0,0.14564378782955867
3381.0,0.14598889661055078
3380.0,0.1463139439685837
3379.0,0.14653317003124952
3378.0,0.14663266174952153
3377.0,0.14667141366539377
3376.0,0.1467141055322458
3375.0,0.1467672652779229
3374.0,0.14680124672213812
3373.0,0.1468226849395494
3372.0,0.14688428010142057
3371.0,0.14701181792308546
3370.0,0.1471569498378389
3369.0,0.14724416403916252
3368.0,0.14723794758928233
3367.0,0.14714776797160192
3366.0,0.14700529655903696
3365.0,0.14686647082464263
3364.0,0.14679613986850054
3363.0,0.14680536741301103
3362.0,0.14682419426522816
3361.0,0.14677954337043278
3360.0,0.1466881809738993
3359.0,0.14662821633449513
3358.0,0.1466274783941684
3357.0,0.1466271922715894
3356.0,0.14655655807008539
3355.0,0.1464046832937159
3354.0,0.14621483576807837
3353.0,0.14604530641604865
3352.0,0.14594571616993088
3351.0,0.14593123144053266
3350.0,0.14595469559933466
3349.0,0.14592796708973613
3348.0,0.14579489567430728
3347.0,0.14557455422396265
3346.0,0.14532643698809394
3345.0,0.14509571657824422
3344.0,0.144903872347716
3343.0,0.14476797152546622
3342.0,0.14469717937595125
3341.0,0.144667155415381
3340.0,0.14461591621133307
3339.0,0.14447812886653924
3338.0,0.1442313629163273
3337.0,0.14391272619544349
3336.0,0.14358763116286552
3335.0,0.14329780934453729
3334.0,0.14304016325353977
3333.0,0.14279074329115513
3332.0,0.1425366571028508
3331.0,0.14228411127520021
3330.0,0.1420477674961917
3329.0,0.14183703004210652
3328.0,0.14164427082128475
3327.0,0.1414448452043441
3326.0,0.14121952471059288
3325.0,0.14097866932715616
3324.0,0.1407475825514735
3323.0,0.14052377717906905
3322.0,0.14027140767630655
3321.0,0.1399679494853381
3320.0,0.13963418537666708
3319.0,0.13930548889128824
3318.0,0.13899633152563504
3317.0,0.1387087425004579
3316.0,0.1384507782045442
3315.0,0.13821929698900687
3314.0,0.13798145953412833
3313.0,0.13770480953026235
3312.0,0.1374005802677665
3311.0,0.1371105478084071
3310.0,0.13685360333066948
3309.0,0.13660842990218125
3308.0,0.13634775338056515
3307.0,0.1360678725698837
3306.0,0.1357823770826386
3305.0,0.13550536973100233
3304.0,0.13524376833525684
3303.0,0.13499234128256776
3302.0,0.13473609751524698
3301.0,0.13446727928341967
3300.0,0.1341935529285991
3299.0,0.13392201727082576
3298.0,0.13364848350920921
3297.0,0.13337501809518199
3296.0,0.13312172863360747
3295.0,0.13289991661850992
3294.0,0.13268616214449863
3293.0,0.13244537714924545
3292.0,0.13217110823377567
3291.0,0.1318800731707686
3290.0,0.13157560764950127
3289.0,0.13124464852398826
3288.0,0.13089015910944793
3287.0,0.13054133777869917
3286.0,0.13022573550407318
3285.0,0.12994565969339422
3284.0,0.12968360617528724
3283.0,0.12941793685171293
3282.0,0.12913592276877345
3281.0,0.12884535650496934
3280.0,0.1285694453411147
3279.0,0.12831911790481115
3278.0,0.12807582331993514
3277.0,0.12780967429869622
3276.0,0.1275039506550822
3275.0,0.12715508550750937
3274.0,0.12676987850232366
3273.0,0.12638172182555926
3272.0,0.1260483568403369
3271.0,0.12580590261804842
3270.0,0.12563459744027664
3269.0,0.12548570215230162
3268.0,0.12532617267948123
3267.0,0.12513882618664518
3266.0,0.12490269566381715
3265.0,0.1246100908607272
3264.0,0.12429322279334527
3263.0,0.12399364770021445
3262.0,0.12370693956751955
3261.0,0.12339236514795954
3260.0,0.12303736497759352
3259.0,0.12267978639950708
3258.0,0.12235914627571545
3257.0,0.12207006851746313
3256.0,0.12177051688074492
3255.0,0.12142186863957599
3254.0,0.12101934271775769
3253.0,0.12059921800272005
3252.0,0.12021562581836202
3251.0,0.11989493787605468
3250.0,0.11961194521795603
3249.0,0.11931490849302168
3248.0,0.11896552096652813
3247.0,0.11855230010184832
3246.0,0.11809282654682515
3245.0,0.11764439185179129
3244.0,0.11728219621135479
3243.0,0.1170272948751141
3242.0,0.11681225809906613
3241.0,0.11654889366314926
3240.0,0.11621479695840962
3239.0,0.11584484956753356
3238.0,0.11546102339899961
3237.0,0.11506292922156237
3236.0,0.11467903082571312
3235.0,0.11436044268313936
3234.0,0.11410026358974833
3233.0,0.11381138896645825
3232.0,0.11342134268854105
3231.0,0.11295723926068946
3230.0,0.11250255825234105
3229.0,0.11209391840886793
3228.0,0.11169746957703632
3227.0,0.11127437288195761
3226.0,0.11083313277284693
3225.0,0.11041181215320228
3224.0,0.11003047772069299
3223.0,0.10966947641915419
3222.0,0.10928751656405963
3221.0,0.1088605728807013
3220.0,0.10840589515533153
3219.0,0.10796192492941646
3218.0,0.10754346923323656
3217.0,0.10712536361494872
3216.0,0.10667189433049916
3215.0,0.10617799592228597
3214.0,0.10568070308156799
3213.0,0.1052290191636646
3212.0,0.10483774238898927
3211.0,0.10446816780176368
3210.0,0.10405905985067034
3209.0,0.10358454217308184
3208.0,0.1030766178558959
3207.0,0.10258121445461102
3206.0,0.10210514156243482
3205.0,0.10162524410561644
3204.0,0.10113924199438214
3203.0,0.1006769923045764
3202.0,0.10025438100081036
3201.0,0.09984117801782033
3200.0,0.09939248656837035
3199.0,0.09890048689929329
3198.0,0.09839743338269268
3197.0,0.09790918650313643
3196.0,0.09742350541313488
3195.0,0.09691404439517816
3194.0,0.09638201929312168
3193.0,0.0958575579377259
3192.0,0.09535802087847821
3191.0,0.0948589528264766
3190.0,0.09432323692119209
3189.0,0.09375619322737618
3188.0,0.09321022588362382
3187.0,0.09272415284904569
3186.0,0.09227383849580761
3185.0,0.09179716799228811
3184.0,0.09126046675154494
3183.0,0.09068761693442448
3182.0,0.09012823736744438
3181.0,0.08961063738100347
3180.0,0.08912194660206368
3179.0,0.08862214648400997
3178.0,0.08808103907930835
3177.0,0.08751222910115196
3176.0,0.08696457898783697
3175.0,0.08647083016533352
3174.0,0.08601226833583057
3173.0,0.08554252648578146
3172.0,0.08503768250909774
3171.0,0.08451034574737468
3170.0,0.08397974918513863
3169.0,0.08344632003091819
3168.0,0.08290129374514198
3167.0,0.08234882640761525
3166.0,0.08181020369212043
3165.0,0.08130769266065958
3164.0,0.08084346623905268
3163.0,0.08039123930522848
3162.0,0.07991306779703403
3161.0,0.07939246893535461
3160.0,0.0788509988520558
3159.0,0.07832768213988042
3158.0,0.07784381027828448
3157.0,0.07739254233523049
3156.0,0.07695625942970458
3155.0,0.0765203432559351
3154.0,0.07607053955140325
3153.0,0.07559482002856772
3152.0,0.07509758584478105
3151.0,0.0746018401375874
3150.0,0.07412732965063756
3149.0,0.07367252845526857
3148.0,0.07322559360867913
3147.0,0.07278439521443347
3146.0,0.07235279426151514
3145.0,0.07192126262491932
3144.0,0.07146714212631242
3143.0,0.07097912456552208
3142.0,0.07047160084320493
3141.0,0.06997140194803822
3140.0,0.06949748112080832
3139.0,0.06905520154836119
3138.0,0.06864067209098618
3137.0,0.0682411441731727
3136.0,0.0678341192823929
3135.0,0.067396801865012
3134.0,0.06692264358405318
3133.0,0.06642835826440294
3132.0,0.06594389645891258
3131.0,0.06549526827621213
3130.0,0.0650923123432639
3129.0,0.06472505223646112
3128.0,0.06437079759985494
3127.0,0.06401045541639414
3126.0,0.0636378866474331
3125.0,0.06324792964353743
3124.0,0.06282465633798572
3123.0,0.06235975298576753
3122.0,0.06188017560645262
3121.0,0.06143624873148162
3120.0,0.06105349122116615
3119.0,0.060708222972688665
3118.0,0.060357962391742466
3117.0,0.05998580272662454
3116.0,0.05960628505383371
3115.0,0.05923808830862051
3114.0,0.05888472077905407
3113.0,0.05853767558558583
3112.0,0.058184843655448536
3111.0,0.05781620289790628
3110.0,0.05743217129398237
3109.0,0.05704990124527549
3108.0,0.056696834318057956
3107.0,0.05639247112573251
3106.0,0.05613060951329022
3105.0,0.055873905669383536
3104.0,0.05557366351661314
3103.0,0.055207221982161644
3102.0,0.05479521766875681
3101.0,0.05437689657345711
3100.0,0.05397460608527674
3099.0,0.05359504499372597
3098.0,0.05325650158837223
3097.0,0.05298424856972506
3096.0,0.052767183321313305
3095.0,0.05254214502401387
3094.0,0.05224979649478298
3093.0,0.051900356765970275
3092.0,0.05155944729829066
3091.0,0.05126887726068473
3090.0,0.05099896128146865
3089.0,0.05068622279831934
3088.0,0.050307467737713704
3087.0,0.04990621715400976
3086.0,0.04954467136566819
3085.0,0.049239030373952525
3084.0,0.04895368397196111
3083.0,0.04865304735787677
3082.0,0.048343116053779764
3081.0,0.04805289798465965
3080.0,0.04778513968061322
3079.0,0.04750919350325747
3078.0,0.047206373610259485
3077.0,0.04689707494550479
3076.0,0.046609517042660836
3075.0,0.046339685393563146
3074.0,0.04606136655798627
3073.0,0.04576772420293359
3072.0,0.04548171891796198
3071.0,0.04522485052575914
3070.0,0.04498837496742905
3069.0,0.044738689018387026
3068.0,0.0444446168565766
3067.0,0.044099530659910895
3066.0,0.043728424395703805
3065.0,0.04337588198019544
3064.0,0.04307643945870469
3063.0,0.04282723795520363
3062.0,0.04259164173048937
3061.0,0.042333368302838896
3060.0,0.042045358157367325
3059.0,0.04174703086220747
3058.0,0.041458359550661586
3057.0,0.041182817899071356
3056.0,0.04091318144558033
3055.0,0.04064533821085326
3054.0,0.04038188966240982
3053.0,0.04012354873595252
3052.0,0.03986302733341493
3051.0,0.03959009204857279
3050.0,0.039300154394735436
3049.0,0.0389961319952564
3048.0,0.03868441089044565
3047.0,0.03837358466891166
3046.0,0.03807746847584971
3045.0,0.03781295803334667
3044.0,0.037587781741613396
3043.0,0.037387362557836784
3042.0,0.03717955138038418
3041.0,0.036938135531955366
3040.0,0.03666316893004214
3039.0,0.03637867008597598
3038.0,0.03610934183719387
3037.0,0.03586058981021443
3036.0,0.035622272666766576
3035.0,0.03538723117875646
3034.0,0.035157664643923454
3033.0,0.03492946511259088
3032.0,0.03468208971729052
3031.0,0.034400917018745765
3030.0,0.0341100403338462
3029.0,0.03386342480927211
3028.0,0.03369258296314819
3027.0,0.0335737990846147
3026.0,0.03344988367783612
3025.0,0.03327827409081932
3024.0,0.033058588207281206
3023.0,0.03282073471524405
3022.0,0.0325954165658107
3021.0,0.032391175543596294
3020.0,0.03219183496661244
3019.0,0.031977380210088585
3018.0,0.031747974034935705
3017.0,0.03152590215391668
3016.0,0.031333754735732626
3015.0,0.031177683003005024
3014.0,0.031051212635902388
3013.0,0.030941082266856688
3012.0,0.030824482002639167
3011.0,0.030679949636302502
3010.0,0.03051559944585192
3009.0,0.030374745391790022
3008.0,0.03029397576243265
3007.0,0.030259606713058156
3006.0,0.0302215797904486
3005.0,0.030146194416796515
3004.0,0.03004283176021081
3003.0,0.02993804460578554
3002.0,0.0298440861283166
3001.0,0.029761751481300384
3000.0,0.02969497221322906
2999.0,0.02964558140531995
2998.0,0.029602784955202882
2997.0,0.029557184570848175
2996.0,0.029524992241442435
2995.0,0.029541339859281177
2994.0,0.029624335340719836
2993.0,0.029752496861803878
2992.0,0.02988375318968653
2991.0,0.029993543895405754
2990.0,0.030093070879844114
2989.0,0.030221521387062775
2988.0,0.03042268442162168
2987.0,0.030720119491972103
2986.0,0.031101699388266672
2985.0,0.03152824592642227
2984.0,0.03196774794981663
2983.0,0.03242686231650254
2982.0,0.032950953548349114
2981.0,0.03359022919700291
2980.0,0.0343681003084786
2979.0,0.03528481506125532
2978.0,0.03634579241103132
2977.0,0.03757712410190028
2976.0,0.039011239055288804
2975.0,0.04067026929798262
2974.0,0.04257450664204286
2973.0,0.044760055338477864
2972.0,0.04727128645656028
2971.0,0.05012714150648276
2970.0,0.05330391954907256
2969.0,0.05676251636192824
2968.0,0.06048830981348911
2967.0,0.06448950686881204
2966.0,0.06874889295465383
2965.0,0.07317716308481464
2964.0,0.07759545147653167
2963.0,0.08174605145296233
2962.0,0.08533968584873675
2961.0,0.0881570947849116
2960.0,0.0901526190102836
2959.0,0.09146930749531663
2958.0,0.09238381595135883
2957.0,0.09324739703804225
2956.0,0.09442181660445861
2955.0,0.09617429162536989
2954.0,0.09854472591041893
2953.0,0.10128738914124578
2952.0,0.10392154219562387
2951.0,0.10584197582660672
2950.0,0.10645401363694837
2949.0,0.10531846285611908
2948.0,0.1022973155548004
2947.0,0.09760355740321619
2946.0,0.09173017359323188
2945.0,0.0853266081919824
2944.0,0.07905472760643417
2943.0,0.0734555831249454
2942.0,0.06886457490677274
2941.0,0.06540365922804856
2940.0,0.06304314801365134
2939.0,0.06168866833902377
2938.0,0.06124512939037701
2937.0,0.061631362690567175
2936.0,0.06276681957855448
2935.0,0.0645666392133344
2934.0,0.06695086278808668
2933.0,0.06985912691126824
2932.0,0.07324620504073157
2931.0,0.07705080524530092
2930.0,0.08115967395387969
2929.0,0.08540659588415339
2928.0,0.08962505494525111
2927.0,0.09369773514209499
2926.0,0.09756624037524941
2925.0,0.10123472525207283
2924.0,0.10477596367872202
2923.0,0.10828727305089444
2922.0,0.11179940241646358
2921.0,0.11519703552916598
2920.0,0.11821105499089914
2919.0,0.12046671105518324
2918.0,0.12156502404444897
2917.0,0.12122023775333486
2916.0,0.11940831359218529
2915.0,0.11641174859723971
2914.0,0.112700466705512
2913.0,0.10876591481658777
2912.0,0.10498981477498727
2911.0,0.10158153641420084
2910.0,0.09858667585995406
2909.0,0.09592895373799215
2908.0,0.09346894164243892
2907.0,0.09105597270445327
2906.0,0.08857775990945388
2905.0,0.08598530670682906
2904.0,0.08328093690307953
2903.0,0.08049021462882448
2902.0,0.07764475165301032
2901.0,0.07478586292670585
2900.0,0.07196348977019296
2899.0,0.06923503550848328
2898.0,0.06666495824460932
2897.0,0.06432283868747468
2896.0,0.062271565526543025
2895.0,0.060544407160411894
2894.0,0.05913580350546341
2893.0,0.05801323800368248
2892.0,0.0571409433031455
2891.0,0.05649665647457257
2890.0,0.05606972320822098
2889.0,0.055842576736855366
2888.0,0.055781014601862425
2887.0,0.05585429557783896
2886.0,0.056060870971919266
2885.0,0.056424464523410316
2884.0,0.056960718325215924
2883.0,0.0576570133087779
2882.0,0.05847758970799538
2881.0,0.05935831836425762
2880.0,0.06018732922224712
2879.0,0.060810957435109156
2878.0,0.061100010816740075
2877.0,0.0610270186340543
2876.0,0.060683287009381685
2875.0,0.060232101545383686
2874.0,0.059853147104330054
2873.0,0.059712079052546274
2872.0,0.05991805717239096
2871.0,0.06046775640559677
2870.0,0.06122033995854231
2869.0,0.0619273965358959
2868.0,0.06228150074945954
2867.0,0.06196225251906539
2866.0,0.060697268931556525
2865.0,0.058353579569435876
2864.0,0.05502140345991896
2863.0,0.05102067252260643
2862.0,0.046806935615867934
2861.0,0.04284082806422093
2860.0,0.03945452001338257
2859.0,0.03678372681742087
2858.0,0.034799416871564494
2857.0,0.033400093018866955
2856.0,0.03247979408845545
2855.0,0.0319550514711616
2854.0,0.03176828061369387
2853.0,0.03188297314263917
2852.0,0.03228084149087689
2851.0,0.032953000316170905
2850.0,0.03390122209741497
2849.0,0.03514397556362527
2848.0,0.03671037515997247
2847.0,0.03862115356873983
2846.0,0.040874608945626875
2845.0,0.04344474957191434
2844.0,0.046279208943117434
2843.0,0.04928074419415381
2842.0,0.052282056251257036
2841.0,0.055043951174670654
2840.0,0.057278382597771155
2839.0,0.058684514092901756
2838.0,0.05899375162106994
2837.0,0.058029911256931264
2836.0,0.05577940017726017
2835.0,0.052430741939856335
2834.0,0.048352167505873574
2833.0,0.04401617550820189
2832.0,0.039856198737433735
2831.0,0.03615422374945574
2830.0,0.033014265587750564
2829.0,0.030422740165510404
2828.0,0.02832287543320854
2827.0,0.026636722775708204
2826.0,0.025266931707016636
2825.0,0.024119866775484906
2824.0,0.02313968481284192
2823.0,0.022310382199445488
2822.0,0.02162151366016247
2821.0,0.02103826993860014
2820.0,0.020515839582099165
2819.0,0.020031355380159255
2818.0,0.01958843296355559
2817.0,0.019194333941954633
2816.0,0.018845778030716204
2815.0,0.01853310865045656
2814.0,0.01824412090900442
2813.0,0.017962290534232313
2812.0,0.0176737510665586
2811.0,0.017381424349017727
2810.0,0.017099777346129184
2809.0,0.016829725574046935
2808.0,0.016552597974018503
2807.0,0.01625683375480484
2806.0,0.015957615277358863
2805.0,0.015678250443950017
2804.0,0.015421015583738774
2803.0,0.01516884596176909
2802.0,0.014908585733648306
2801.0,0.014640253884815733
2800.0,0.014371861148189941
2799.0,0.014121314138941733
2798.0,0.013916685348626567
2797.0,0.013774861753510228
2796.0,0.013678348905475228
2795.0,0.013584348812935293
2794.0,0.013459715937600451
2793.0,0.013299370343020296
2792.0,0.013115601826949808
2791.0,0.012925255850736526
2790.0,0.012744351935155475
2789.0,0.012580263957598828
2788.0,0.012426610544439276
2787.0,0.012274606435493343
2786.0,0.012127858715415257
2785.0,0.01199503152945959
2784.0,0.01187118844774273
2783.0,0.011740879364820489
2782.0,0.011599243727943874
2781.0,0.011455678432251374
2780.0,0.011316623098569062
2779.0,0.011180206310195142
2778.0,0.011049219692137563
2777.0,0.010932780140400687
2776.0,0.010832204209705685
2775.0,0.010741212532234555
2774.0,0.010663925203821983
2773.0,0.010614804348053281
2772.0,0.010591862552177514
2771.0,0.010566147207573947
2770.0,0.010510232038547736
2769.0,0.010427452237714399
2768.0,0.010342727057733746
2767.0,0.010272161695414044
2766.0,0.01021316925551985
2765.0,0.01015729749643768
2764.0,0.01010052642369182
2763.0,0.010042512813074108
2762.0,0.00998361569288143
2761.0,0.009923290873271314
2760.0,0.009859455687874415
2759.0,0.00979298815527952
2758.0,0.009732583164817303
2757.0,0.009687556330555748
2756.0,0.00965321889971119
2755.0,0.009611269850554478
2754.0,0.009549513941461137
2753.0,0.009474762338856961
2752.0,0.009401914269989303
2751.0,0.009336990261912549
2750.0,0.009278331917337942
2749.0,0.009228704746848709
2748.0,0.009197385901943503
2747.0,0.009190499405007801
2746.0,0.009202032836272526
2745.0,0.009214771000168152
2744.0,0.009212526369141799
2743.0,0.009196159521294104
2742.0,0.009186714057118538
2741.0,0.009204666716150531
2740.0,0.009242769069783796
2739.0,0.009268901717318992
2738.0,0.00926112188274813
2737.0,0.009234395118684308
2736.0,0.00922566715276142
2735.0,0.00925505970683723
2734.0,0.009309990163641623
2733.0,0.009364397229161303
2732.0,0.00940670979786057
2731.0,0.00944718688253418
2730.0,0.009502455756662557
2729.0,0.009577823298757074
2728.0,0.00966420702207187
2727.0,0.009748711302722677
2726.0,0.009823244819582553
2725.0,0.00988201070367003
2724.0,0.009915915812493794
2723.0,0.009914686497830867
2722.0,0.00987341156608589
2721.0,0.009793042806476518
2720.0,0.009676083782801223
2719.0,0.009526958865855554
2718.0,0.009357143182288395
2717.0,0.009186467223904213
2716.0,0.009036258064160434
2715.0,0.008917161876675456
2714.0,0.008820541769147087
2713.0,0.008723136733701013
2712.0,0.008607251381067882
2711.0,0.008480110722763898
2710.0,0.008367775215691606
2709.0,0.008286891680212289
2708.0,0.00822795781564562
2707.0,0.008170212542648908
2706.0,0.00810310564291124
2705.0,0.00802688884930842
2704.0,0.007942972196835462
2703.0,0.007855590169633697
2702.0,0.007776881723861878
2701.0,0.007716610266609436
2700.0,0.007670101617340807
2699.0,0.007627991180062153
2698.0,0.007593894353049789
2697.0,0.007578471048350138
2696.0,0.007577802427583295
2695.0,0.007572054780919094
2694.0,0.007547994352107149
2693.0,0.007509976075145616
2692.0,0.007467717351127289
2691.0,0.0074259008479241615
2690.0,0.007388945845335706
2689.0,0.0073637708615248414
2688.0,0.007350615410451236
2687.0,0.007339757091642556
2686.0,0.007322845306049603
2685.0,0.007301287890918364
2684.0,0.007279612267259244
2683.0,0.0072572783565213765
2682.0,0.007231859066692847
2681.0,0.007204815836717824
2680.0,0.007179558426014903
2679.0,0.007157899837979488
2678.0,0.0071418380274453136
2677.0,0.007134748428458511
2676.0,0.007136124596978962
2675.0,0.00713632936394165
2674.0,0.007120196016462144
2673.0,0.007078530579906031
2672.0,0.007018583487438412
2671.0,0.006963355116332831
2670.0,0.006936374649928209
2669.0,0.006943504763429223
2668.0,0.006970793469575482
2667.0,0.007000451425652407
2666.0,0.007023497116789875
2665.0,0.007035797157186971
2664.0,0.007032053238370044
2663.0,0.007011805644501917
2662.0,0.006985507730631735
2661.0,0.006965176315085322
2660.0,0.00695201621688257
2659.0,0.006939508857417035
2658.0,0.006923039001658656
2657.0,0.006898448285653898
2656.0,0.006857657216127893
2655.0,0.0067973832949760685
2654.0,0.006728449480369163
2653.0,0.00666574505148127
2652.0,0.00661165949966732
2651.0,0.006559775766795942
2650.0,0.006510087503490691
2649.0,0.006467371071869926
2648.0,0.006428326522197891
2647.0,0.006385274081771929
2646.0,0.0063418882948648395
2645.0,0.006310031194950527
2644.0,0.006289347878062417
2643.0,0.006263585507818921
2642.0,0.006219879363249765
2641.0,0.00615977140464363
2640.0,0.006090581177134002
2639.0,0.006019042949158376
2638.0,0.005955036535570753
2637.0,0.005907476902219274
2636.0,0.005871430381458363
2635.0,0.005831543457750436
2634.0,0.005782989414119888
2633.0,0.005737956203356681
2632.0,0.005707397746171134
2631.0,0.0056870076991366245
2630.0,0.005666349273361312
2629.0,0.005642872621934569
2628.0,0.005622019324949121
2627.0,0.00560962626026765
2626.0,0.005605110137674461
2625.0,0.005595671503441847
2624.0,0.005561315917955819
2623.0,0.0054976972661506295
2622.0,0.005432343642791455
2621.0,0.005402800662895247
2620.0,0.005414894348005656
2619.0,0.005436259647900489
2618.0,0.005433755552988049
2617.0,0.005403749172882466
2616.0,0.005361274853184885
2615.0,0.005314680837058421
2614.0,0.005261212049361446
2613.0,0.0051982398285875
2612.0,0.0051289730849005885
2611.0,0.005061358758919261
2610.0,0.005006487339874479
2609.0,0.004971994807545975
2608.0,0.004950886974031812
2607.0,0.004920332945995237
2606.0,0.004857298560089699
2605.0,0.0047586602108608935
2604.0,0.004647863492798359
2603.0,0.004561053637132951
2602.0,0.00452100340501134
2601.0,0.0045198252630743825
2600.0,0.004531152941010147
2599.0,0.004538638711978525
2598.0,0.004543708574724131
2597.0,0.0045477074828378875
2596.0,0.004545412741484337
2595.0,0.004541882381118233
2594.0,0.004553821570949629
2593.0,0.004580194012180776
2592.0,0.0045925945273236875
2591.0,0.004574516857473373
2590.0,0.0045509665872347825
2589.0,0.004555594660763033
2588.0,0.004584954159471664
2587.0,0.004613153216427369
2586.0,0.0046353921012676795
2585.0,0.00466235547735946
2584.0,0.004681552767933803
2583.0,0.004664136952078763
2582.0,0.004610979256055721
2581.0,0.004555411915853028
2580.0,0.004513640209755306
2579.0,0.0044671741139840305
2578.0,0.004405090393078683
2577.0,0.004351576217839628
2576.0,0.00433144799367645
2575.0,0.004331207895168461
2574.0,0.0043152952158439385
2573.0,0.004268987723803832
2572.0,0.004210236335950448
2571.0,0.004167492955789011
2570.0,0.004156622454755707
2569.0,0.004171227669471089
2568.0,0.004185954622191712
2567.0,0.004174902824726301
2566.0,0.00413210706277562
2565.0,0.004070319241952204
2564.0,0.004001783110819521
2563.0,0.003929697064423821
2562.0,0.003857645382771325
2561.0,0.0037952213409176584
2560.0,0.0037507835824707237
2559.0,0.0037263077287911467
2558.0,0.003720373468323896
2557.0,0.003729644245859833
2556.0,0.0037479851161778986
2555.0,0.00376827368592593
2554.0,0.003780543186225425
2553.0,0.0037662237185724892
2552.0,0.003707614896436563
2551.0,0.003613670974926129
2550.0,0.0035257649590394735
2549.0,0.0034845634988144533
2548.0,0.003497744832968567
2547.0,0.0035473479725259497
2546.0,0.0036123498932005517
2545.0,0.0036701430723087925
2544.0,0.0036960975546889326
2543.0,0.003686677063315111
2542.0,0.0036719727759393916
2541.0,0.003681090604823719
2540.0,0.0037014315799317075
2539.0,0.0036937246316219173
2538.0,0.0036417138746767
2537.0,0.003567916363023432
2536.0,0.0035060749164609
2535.0,0.0034757169093025714
2534.0,0.003476908155608452
2533.0,0.003490499316552528
2532.0,0.003489350119516915
2531.0,0.003467215398082502
2530.0,0.0034504711833206886
2529.0,0.003465194356489536
2528.0,0.0035018788854752087
2527.0,0.003530721438561158
2526.0,0.003540727161672496
2525.0,0.003542212761235085
2524.0,0.0035402228960232213
2523.0,0.003528194265679725
2522.0,0.0035021794917979815
2521.0,0.0034628901416755664
2520.0,0.003411298982604477
2519.0,0.003359058646636227
2518.0,0.003331538193932569
2517.0,0.0033406095130858824
2516.0,0.003365829408482043
2515.0,0.0033815404610552033
2514.0,0.003387383421507976
2513.0,0.0033909667639635335
2512.0,0.003379659902487561
2511.0,0.003338675757294556
2510.0,0.0032832693356268
2509.0,0.0032430028317556665
2508.0,0.003224748599816379
2507.0,0.0032194448932692027
2506.0,0.003230934826678592
2505.0,0.0032636748093883994
2504.0,0.003293321449905283
2503.0,0.0032877609056934124
2502.0,0.003253048364256814
2501.0,0.0032242840623126446
2500.0,0.003214926148291136
2499.0,0.003209080096658788
2498.0,0.0031998146501422
2497.0,0.003197327587589627
2496.0,0.0031981825256424483
2495.0,0.003184640074906802
2494.0,0.003160831421081656
2493.0,0.003153394179065787
2492.0,0.0031638384018346233
2491.0,0.0031519376793462507
2490.0,0.0030842562630071573
2489.0,0.002978234778855135
2488.0,0.0028829569957680374
2487.0,0.0028300511109683613
2486.0,0.0028148853131011076
2485.0,0.0028165028096678256
2484.0,0.002827268003503502
2483.0,0.0028623719665673386
2482.0,0.002934613581181277
2481.0,0.003019729946194697
2480.0,0.003067417134925435
2479.0,0.003060089399845763
2478.0,0.0030383357635874377
2477.0,0.003046336144296165
2476.0,0.0030736666104458463
2475.0,0.00308043444278005
2474.0,0.0030599191247802516
2473.0,0.003038406117918777
2472.0,0.0030253146848871456
2471.0,0.0030046985913823564
2470.0,0.0029734146598394424
2469.0,0.002948652154093664
2468.0,0.002933338482222076
2467.0,0.0029080399084697637
2466.0,0.0028656167651199935
2465.0,0.002827371766265641
2464.0,0.0028172195329546957
2463.0,0.0028400725422121063
2462.0,0.0028873697375681384
2461.0,0.002942702803453168
2460.0,0.002982497362849563
2459.0,0.002993483067606275
2458.0,0.0029898435674996534
2457.0,0.00299375192624868
2456.0,0.0030023094575668185
2455.0,0.0029958146207608176
2454.0,0.002975396593301974
2453.0,0.002967385294288565
2452.0,0.002989066709324507
2451.0,0.003030951241127038
2450.0,0.003072886409124939
2449.0,0.0030992371223815766
2448.0,0.003101910525238071
2447.0,0.0030876283251303187
2446.0,0.0030776610010528277
2445.0,0.00308255219700125
2444.0,0.003085095017901446
2443.0,0.003067547338129611
2442.0,0.003044068188003195
2441.0,0.003041392023582515
2440.0,0.0030564446279163302
2439.0,0.003059569544191923
2438.0,0.0030339985878557354
2437.0,0.0029890410439939777
2436.0,0.0029427454597518417
2435.0,0.002915474749831927
2434.0,0.0029299621714111252
2433.0,0.0029886490598231385
2432.0,0.003056189138390482
2431.0,0.0030900439668504662
2430.0,0.0030835869189211264
2429.0,0.0030600798182807074
2428.0,0.003037845333230888
2427.0,0.003024588697280318
2426.0,0.0030288530766191327
2425.0,0.003046779644507448
2424.0,0.00305198128024406
2423.0,0.0030299194639169186
2422.0,0.0030072910499383413
2421.0,0.0030137553179481096
2420.0,0.0030307155901946005
2419.0,0.003017813889694079
2418.0,0.002977917590143415
2417.0,0.0029528266160227423
2416.0,0.002959917585440304
2415.0,0.0029748368700764512
2414.0,0.002978168334627754
2413.0,0.0029802093775876904
2412.0,0.0029936490045405838
2411.0,0.0030143181852068175
2410.0,0.0030344019934001655
2409.0,0.0030474065680246663
2408.0,0.003039985817757893
2407.0,0.003007066666617023
2406.0,0.002972864866388978
2405.0,0.002967718695427704
2404.0,0.002987014220433582
2403.0,0.003001332313506418
2402.0,0.0030018128959704913
2401.0,0.0030040044512078578
2400.0,0.003009730485563339
2399.0,0.0029999497392477537
2398.0,0.0029694430573605625
2397.0,0.0029390675654491164
2396.0,0.002929374894563752
2395.0,0.002945145899193122
2394.0,0.002982879360959992
2393.0,0.0030275788281213995
2392.0,0.003047999115140535
2391.0,0.0030261659170622113
2390.0,0.0029897624980536634
2389.0,0.002985595921058633
2388.0,0.003022175678998439
2387.0,0.0030688457475943824
2386.0,0.003108580176334349
2385.0,0.003155523580092233
2384.0,0.003215355657929414
2383.0,0.003260571245143818
2382.0,0.003257941213024998
2381.0,0.0031984992661013363
2380.0,0.003093348237215557
2379.0,0.0029666574109401237
2378.0,0.002862763964419699
2377.0,0.0028261024063467297
2376.0,0.0028516641191805793
2375.0,0.002884760843859406
2374.0,0.002894268822562423
2373.0,0.002904234094825366
2372.0,0.002933738350626658
2371.0,0.0029485067853238364
2370.0,0.0029162950862820823
2369.0,0.00286494642337302
2368.0,0.0028481600880308497
2367.0,0.002890675270464194
2366.0,0.002994000748862938
2365.0,0.0031215930432197956
2364.0,0.0031622219960939124
2363.0,0.0030225994598205375
2362.0,0.002809778121216096
2361.0,0.0027531276455986806
2360.0,0.0028915901839531265
2359.0,0.0030486849433209538
2358.0,0.00307950650688335
2357.0,0.002991698773297305
2356.0,0.002864670193559259
2355.0,0.002733515340209965
2354.0,0.002662929245743075
2353.0,0.0026982022947449704
2352.0,0.0028110744474706996
2351.0,0.0029218048452943285
2350.0,0.00295416176222858
2349.0,0.0029450190640382405
2348.0,0.002981009311681842
2347.0,0.0031342408134597028
2346.0,0.0034027403081666684
2345.0,0.003637868432290945
2344.0,0.0036843394353615116
2343.0,0.003486951328393793
2342.0,0.0032118292424947927
2341.0,0.003024822935288556
2340.0,0.002964868715342579
2339.0,0.002996158433652059
2338.0,0.003050291129537758
2337.0,0.0030936774117578253
2336.0,0.003065763666865242
2335.0,0.002958604083743
2334.0,0.0028080745030394346
2333.0,0.002713298402770697
2332.0,0.0026900644929350043
2331.0,0.002753054931734381
2330.0,0.0028905092349571517
2329.0,0.003185172011468947
2328.0,0.003605947501314524
2327.0,0.004084243635490565
2326.0,0.0045185043187457065
2325.0,0.004814258939858068
2324.0,0.004899184878457616
2323.0,0.004736935331112699
2322.0,0.004430517275389986
2321.0,0.0041275555979115655
2320.0,0.003902775185414085
2319.0,0.0037652689594005083
2318.0,0.003690637515413689
2317.0,0.0036853191925906846
2316.0,0.0036821933030734425
2315.0,0.0036581564722363903
2314.0,0.003622589916252798
2313.0,0.0036608567790047683
2312.0,0.00375579757956445
2311.0,0.0038527929700777497
2310.0,0.003883441578153183
2309.0,0.0038630141644532216
2308.0,0.003799281767098529
2307.0,0.0037299463488171033
2306.0,0.0036997356965645764
2305.0,0.003752129443936851
2304.0,0.0038397334170903975
2303.0,0.003894590231611911
2302.0,0.0038983586280095343
2301.0,0.003911763244467939
2300.0,0.0039480591885927285
2299.0,0.0039788798398648125
2298.0,0.003985142300109506
2297.0,0.0040157272543177224
2296.0,0.004093418095858338
2295.0,0.004192573057394389
2294.0,0.004275828624903556
2293.0,0.004345869804052374
2292.0,0.004405732006641935
2291.0,0.0044386736031019865
2290.0,0.004442980749854172
2289.0,0.004440567172262617
2288.0,0.004430208433244257
2287.0,0.004370048182863149
2286.0,0.004247540720006318
2285.0,0.004111132686272828
2284.0,0.0040165015634171216
2283.0,0.003969388786308396
2282.0,0.003952663125483396
2281.0,0.003953050485969352
2280.0,0.003945607802031739
2279.0,0.0038952941689388417
2278.0,0.0038094503751991784
2277.0,0.003739184368983066
2276.0,0.003700472534715866
2275.0,0.0036488259941868132
2274.0,0.0035592913843026067
2273.0,0.0034807982593832317
2272.0,0.0034650687114954498
2271.0,0.0034955936038672
2270.0,0.0035265333448171454
2269.0,0.0035473326103227665
2268.0,0.003567451882504845
2267.0,0.0035750699407320168
2266.0,0.003551929221006687
2265.0,0.003502542092934052
2264.0,0.0034374463183214133
2263.0,0.0033588451163536035
2262.0,0.003284525674492606
2261.0,0.003250120351036639
2260.0,0.003266505517146383
2259.0,0.003298672886887961
2258.0,0.0033068416091532747
2257.0,0.003276430280479327
2256.0,0.003211824601036169
2255.0,0.0031359913013107206
2254.0,0.0030896008411683005
2253.0,0.003088572867538676
2252.0,0.0030857513857983484
2251.0,0.003033369838088068
2250.0,0.002961450798566745
2249.0,0.0029366411350035837
2248.0,0.0029494203462472487
2247.0,0.0029266935633011065
2246.0,0.002851160223442751
2245.0,0.0027897124968103686
2244.0,0.0027973724547689905
2243.0,0.0028704386099565556
2242.0,0.0029973433947507937
2241.0,0.003163000344421452
2240.0,0.003301054409836678
2239.0,0.0033336067143443318
2238.0,0.0032800808519201333
2237.0,0.0032377659750655557
2236.0,0.0032421800802669353
2235.0,0.003233510725828521
2234.0,0.0031748438242695104
2233.0,0.0031048205164195173
2232.0,0.003056033201530915
2231.0,0.0030269838296393785
2230.0,0.003050942895764922
2229.0,0.0031719062947301695
2228.0,0.0033125143679380857
2227.0,0.0032946950287653168
2226.0,0.003055282008460116
2225.0,0.002746507805603815
2224.0,0.0025608276706515307
2223.0,0.0025389087106691493
2222.0,0.0026146454508340342
2221.0,0.0027397055382126123
2220.0,0.0028881642160808597
2219.0,0.0030140705718277893
2218.0,0.0030851919696341422
2217.0,0.003120119313637937
2216.0,0.003150091412956482
2215.0,0.0031807018456091692
2214.0,0.003211007952430744
2213.0,0.0032350363664197055
2212.0,0.0032149038653194765
2211.0,0.0031185392893060774
2210.0,0.0029847686767932773
2209.0,0.002877693287347968
2208.0,0.0027892602232720805
2207.0,0.0026849814116060044
2206.0,0.0026315007078999164
2205.0,0.0027379196814445094
2204.0,0.0029534286755771755
2203.0,0.003074309146232335
2202.0,0.002999888427280835
2201.0,0.0028557893755013788
2200.0,0.0028151288460865898
2199.0,0.00290537264833418
2198.0,0.003041549785448964
2197.0,0.0031365438368422364
2196.0,0.0031334789327474607
2195.0,0.0030409510333067502
2194.0,0.002983034980293547
2193.0,0.003100623394477312
2192.0,0.0033505908745538895
2191.0,0.003527218057723164
2190.0,0.0035231533060395637
2189.0,0.0034404878075104716
2188.0,0.0033917080139065753
2187.0,0.003327284408348535
2186.0,0.003157787632326835
2185.0,0.0029232484698501825
2184.0,0.002731665746253282
2183.0,0.0026212560905072664
2182.0,0.0025798120931860174
2181.0,0.0026172790609228
2180.0,0.0027265698989283427
2179.0,0.002845989029713516
2178.0,0.0029194882940147614
2177.0,0.0029314438336845564
2176.0,0.002865457591551951
2175.0,0.0027150400469577174
2174.0,0.0025603088241627383
2173.0,0.002530477503672989
2172.0,0.0026537465227819686
2171.0,0.0028438920282435874
2170.0,0.003038608244769275
2169.0,0.0032340581150310122
2168.0,0.003376446228993571
2167.0,0.0033673114584948025
2166.0,0.0032304339240184212
2165.0,0.0031450731588695026
2164.0,0.0032253293770475445
2163.0,0.003356617780703173
2162.0,0.0032974215460804266
2161.0,0.00285065989164466
2160.0,0.0019730969667978424
2159.0,0.0008827029421826095
2158.0,2.0511657548448634e-05
2157.0,-0.00028772316696756405
2156.0,-0.00012932253091178114
2155.0,0.0001705739974462725
2154.0,0.0004219503568493548
2153.0,0.0006241911323823546
2152.0,0.0007748036673105316
2151.0,0.0008192102098845061
2150.0,0.0007949918461649885
2149.0,0.0008329927395406184
2148.0,0.0009750804148448921
2147.0,0.001129515355382815
2146.0,0.0012316541571759118
2145.0,0.0013090223311921997
2144.0,0.001370958845664201
2143.0,0.001379242263952863
2142.0,0.0013570507640238362
2141.0,0.0013994372343839254
2140.0,0.0015296761690342343
2139.0,0.0016444979205966865
2138.0,0.0016285419013609983
2137.0,0.001445094857925048
2136.0,0.0011226125115508068
2135.0,0.0007524830353704437
2134.0,0.0004988338949699343
2133.0,0.0004915656315007084
2132.0,0.0006864537376908047
2131.0,0.0009161510213135471
2130.0,0.0010834455243763196
2129.0,0.0012185376053604469
2128.0,0.0013673930416362476
2127.0,0.0015183027100513094
2126.0,0.0016539251186394454
2125.0,0.0017844061416104756
2124.0,0.001905408330774214
2123.0,0.0019922287479189307
2122.0,0.002054833631153818
2121.0,0.002134732839219244
2120.0,0.002235107319443488
2119.0,0.002316931784345637
2118.0,0.002372539649806939
2117.0,0.0024354123178889067
2116.0,0.0025046048560614376
2115.0,0.0025280382303972887
2114.0,0.0024802671162332452
2113.0,0.002398043084874588
2112.0,0.0023249883411520507
2111.0,0.002280719195966935
2110.0,0.00228880957783646
2109.0,0.0023585267692595785
2108.0,0.0024294499992206183
2107.0,0.002419436309153453
2106.0,0.0023465200132208857
2105.0,0.0023281216962103782
2104.0,0.00243060447444991
2103.0,0.0025919011515616428
2102.0,0.002711311351335355
2101.0,0.002747794362477699
2100.0,0.0027072651087125697
2099.0,0.00260766132986715
2098.0,0.0024827027319989795
2097.0,0.002369958608353757
2096.0,0.0022705341198583926
2095.0,0.002172001885094059
2094.0,0.0021041259527257994
2093.0,0.0021067530119112526
2092.0,0.002154896314706059
2091.0,0.0021934335259052085
2090.0,0.002233741162502906
2089.0,0.002331799737004645
2088.0,0.0024730463480402576
2087.0,0.002577750951394069
2086.0,0.002619203919597614
2085.0,0.0026431400300466336
2084.0,0.0026667752552803183
2083.0,0.002661497098666274
2082.0,0.002647755793433063
2081.0,0.002698202079410278
2080.0,0.0028081025824705907
2079.0,0.0028633249086017286
2078.0,0.002786867567924459
2077.0,0.0026338925440564614
2076.0,0.0025006537397191404
2075.0,0.0024203023712081303
2074.0,0.002388097203204585
2073.0,0.0024032187463291312
2072.0,0.0024381735325507982
2071.0,0.0024445973965550993
2070.0,0.0024239064868881465
2069.0,0.0024218252958908173
2068.0,0.002438453152497917
2067.0,0.0024272801040254675
2066.0,0.0023969802900705925
2065.0,0.00241111152528055
2064.0,0.0024550201366965703
2063.0,0.002420021482054222
2062.0,0.002265332245594403
2061.0,0.002088582278162494
2060.0,0.002007910222682414
2059.0,0.0020489807835153535
2058.0,0.002157935921939652
2057.0,0.0022480497084881364
2056.0,0.0022395889091393973
2055.0,0.002168965857618771
2054.0,0.002240802256667152
2053.0,0.002617801256353653
2052.0,0.0031486440293839305
2051.0,0.0034572292624290295
2050.0,0.003347928823980548
2049.0,0.0030218769669581565
2048.0,0.0027907508144254674
2047.0,0.0027036415329105036
2046.0,0.0026170157432703453
2045.0,0.0024454403782654
2044.0,0.002204482306258867
2043.0,0.0019403482301068712
2042.0,0.001744118758415288
2041.0,0.001724166277998676
2040.0,0.001854598194331597
2039.0,0.001981278471806135
2038.0,0.0020332888062813436
2037.0,0.002072678957014135
2036.0,0.0021032645833447762
2035.0,0.0020087799827796524
2034.0,0.0017557912386597394
2033.0,0.0014791638874191273
2032.0,0.001267969048941854
2031.0,0.0010453781723630446
2030.0,0.0007649909478041794
2029.0,0.0005441031731889717
2028.0,0.0005068292834849657
2027.0,0.0006356135014237882
2026.0,0.0008402005637124087
2025.0,0.0010198936211208958
2024.0,0.001047467742699698
2023.0,0.0008682575503121231
2022.0,0.0006309559191729761
2021.0,0.0005465104364112496
2020.0,0.0006076450953496904
2019.0,0.0006381907699891913
2018.0,0.0006165662588324293
2017.0,0.0007133139673851942
2016.0,0.0009574927790365335
2015.0,0.001162033560185066
2014.0,0.0012289719239938592
2013.0,0.0012384695714172662
2012.0,0.0012296543793507346
2011.0,0.0011240341048002016
2010.0,0.0009253980290920627
2009.0,0.0007870831842148859
2008.0,0.0007812873299829603
2007.0,0.0007938853512359897
2006.0,0.0007466633872581217
2005.0,0.0007134432097742486
2004.0,0.0007561398411975253
2003.0,0.0008406055783664336
2002.0,0.0009588658689328662
2001.0,0.0011550206059607246
2000.0,0.0013890661465422172
1999.0,0.0015391308335615576
1998.0,0.0015663096948224742
1997.0,0.0015417847558313771
1996.0,0.001491286366451461
1995.0,0.001372929010212934
1994.0,0.0012388932640289855
1993.0,0.001252918668012148
1992.0,0.0014369477491740705
1991.0,0.0015727483115279266
1990.0,0.0015187642148418374
1989.0,0.001379894078638086
1988.0,0.0012977179894628885
1987.0,0.0012838555855809023
1986.0,0.0013064028732347045
1985.0,0.0013877336700548737
1984.0,0.0015366754302543462
1983.0,0.001698403453196857
1982.0,0.0018267083470297452
1981.0,0.0018996807409352955
1980.0,0.0018449647287897286
1979.0,0.0016067859718074892
1978.0,0.001308975403257613
1977.0,0.0011553159604776463
1976.0,0.001114982682374149
1975.0,0.0009600833705921214
1974.0,0.000635200579998811
1973.0,0.0003346086308860597
1972.0,0.00019126557706720536
1971.0,0.000130668300952952
1970.0,8.289759331023828e-05
1969.0,0.00011042754255758963
1968.0,0.00024683161473511837
1967.0,0.00038321973576637406
1966.0,0.00043482480328037234
1965.0,0.0004589862784608886
1964.0,0.0005086749916760631
1963.0,0.0005512757938384098
1962.0,0.0005571460246406859
1961.0,0.0005171068212968373
1960.0,0.0003837215301228092
1959.0,0.00014808896469380007
1958.0,-4.3157417697645474e-05
1957.0,-1.6544887827852905e-05
1956.0,0.00018372384016897758
1955.0,0.00034282816552721947
1954.0,0.0003702561540140633
1953.0,0.0003747434101905157
1952.0,0.00043727405924447085
1951.0,0.0004980762292660359
1950.0,0.0005030791207292467
1949.0,0.00048315590925437316
1948.0,0.0004526745519713753
1947.0,0.00037310062081350137
1946.0,0.0002561098360679802
1945.0,0.00018180146733912605
1944.0,0.00018356827964575583
1943.0,0.00022618717592721538
1942.0,0.00030812356036119336
1941.0,0.00045226050806972736
1940.0,0.0005990268707542278
1939.0,0.0006560508256262162
1938.0,0.0006390855956060353
1937.0,0.0006519253001188853
1936.0,0.000716356498203865
1935.0,0.0007461064450230365
1934.0,0.0007141772280344225
1933.0,0.0007048298092342733
1932.0,0.0007563529476487779
1931.0,0.0007884963710708284
1930.0,0.0007492083150877772
1929.0,0.000689672707060645
1928.0,0.0006566677310260905
1927.0,0.0006247517318307285
1926.0,0.0005724873576399233
1925.0,0.0005409946404724252
1924.0,0.0005521210308872486
1923.0,0.0005616810422240547
1922.0,0.0005346394601640088
1921.0,0.0005057955557774582
1920.0,0.0004990575908727157
1919.0,0.0005002689909544744
1918.0,0.0005305982924933307
1917.0,0.0006151324068075072
1916.0,0.0006937966071735972
1915.0,0.0006867631875528692
1914.0,0.0005994537089635162
1913.0,0.0005212624345612173
1912.0,0.0005127457670372399
1911.0,0.0005522073817897136
1910.0,0.0006141190925308421
1909.0,0.0006985580227721459
1908.0,0.0007716811492735711
1907.0,0.000780443787768864
1906.0,0.0007332120818519553
1905.0,0.0006986640122497725
1904.0,0.0006962304942392202
1903.0,0.0006789455841527347
1902.0,0.0006210887221313689
1901.0,0.000548221201705259
1900.0,0.0004837738581169593
1899.0,0.0004360410755164981
1898.0,0.0004330787112875082
1897.0,0.0005019352713310759
1896.0,0.0005892119632134633
1895.0,0.0006019825922018479
1894.0,0.0005468292731844713
1893.0,0.0005129573299449009
1892.0,0.0005175512217104254
1891.0,0.0004951406945229106
1890.0,0.00043174883499933923
1889.0,0.00039819387059429915
1888.0,0.00042022371359298673
1887.0,0.00044699426321077765
1886.0,0.0004530957570426631
1885.0,0.000468263045686385
1884.0,0.0004995368953441533
1883.0,0.0005048790453392946
1882.0,0.00047089717740895977
1881.0,0.00043040465717002793
1880.0,0.00040050150251432545
1879.0,0.00037511222339377693
1878.0,0.0003753509390490785
1877.0,0.00043200957428931566
1876.0,0.000498108411867112
1875.0,0.00047800875917988067
1874.0,0.0003696048197082719
1873.0,0.00027756243319408376
1872.0,0.0002622504357824289
1871.0,0.0002745618230393118
1870.0,0.00026295327930510987
1869.0,0.00026096552385329336
1868.0,0.0002789834226232682
1867.0,0.00026618063017069295
1866.0,0.00024379321874191343
1865.0,0.00026853299918712815
1864.0,0.0003360930682109074
1863.0,0.00039296316126749184
1862.0,0.0004162098159351147
1861.0,0.0004367236584720024
1860.0,0.00046702491842896213
1859.0,0.00047109649339873816
1858.0,0.0004358328279913824
1857.0,0.00040040826588254416
1856.0,0.0003866061176158108
1855.0,0.0003648034471301692
1854.0,0.00031707865151042237
1853.0,0.00026929757526243225
1852.0,0.0002408359478553849
1851.0,0.00022382008382171238
1850.0,0.00020798061559267338
1849.0,0.00021365699146710785
1848.0,0.00024683262866142044
1847.0,0.0002768067702318359
1846.0,0.00029200691461036665
1845.0,0.00033301243248449737
1844.0,0.0003953763379046845
1843.0,0.00038667816617421144
1842.0,0.0003182558478416202
1841.0,0.00026710317326212305
1840.0,0.0002468325232230662
1839.0,0.00023645362857896554
1838.0,0.00023471310698252733
1837.0,0.00026501937967941987
1836.0,0.00031224494455367935
1835.0,0.0003290614808663006
1834.0,0.00030647935328611186
1833.0,0.0002797698527600965
1832.0,0.00027234381613361184
1831.0,0.00028314068954491257
1830.0,0.0003096939869595939
1829.0,0.0003406277112490378
1828.0,0.0003598415540274108
1827.0,0.0003567030332893284
1826.0,0.0003331047889977921
1825.0,0.00033032762786341366
1824.0,0.00034958007100853385
1823.0,0.00035216214191140325
1822.0,0.0003459899768806661
1821.0,0.0003571280037117353
1820.0,0.0003705104867535781
1819.0,0.0003390702313260303
1818.0,0.00027241586661889993
1817.0,0.00024755341121992787
1816.0,0.00028270087055563614
1815.0,0.00031785544648433727
1814.0,0.00032356766427024523
1813.0,0.00033703686560282095
1812.0,0.0003889714298774575
1811.0,0.00043562209184280776
1810.0,0.00045081284712512925
1809.0,0.0004805199629454239
1808.0,0.0005366332974924464
1807.0,0.0005731942440458742
1806.0,0.0005803660464530837
1805.0,0.0006051567887027463
1804.0,0.0006696317678175716
1803.0,0.0007390436331642337
1802.0,0.0007868718339259164
1801.0,0.0008284673546132895
1800.0,0.0008695708916541755
1799.0,0.000875669588691405
1798.0,0.0008554563696146281
1797.0,0.0008582847179202683
1796.0,0.0009005954608353318
1795.0,0.0009462535784889822
1794.0,0.0009670383022620231
1793.0,0.0009936682209241384
1792.0,0.001041347426740051
1791.0,0.001033320784255365
1790.0,0.0009790939714811324
1789.0,0.0009533592216982426
1788.0,0.0009576459923345093
1787.0,0.0009547755013155647
1786.0,0.0009387406112165591
1785.0,0.0009334778962207784
1784.0,0.0009335598236332237
1783.0,0.0009125033845550651
1782.0,0.0008784242267739621
1781.0,0.0008718474277470416
1780.0,0.0009079836511602245
1779.0,0.0009244930114314194
1778.0,0.0008999755658903059
1777.0,0.000873695057285971
1776.0,0.0008803319452668746
1775.0,0.0009134926565646613
1774.0,0.0009442309582036253
1773.0,0.0010066392682860823
1772.0,0.0011146720407520998
1771.0,0.0011431092044936826
1770.0,0.00109100576189355
1769.0,0.0010674839332605497
1768.0,0.001094502969166669
1767.0,0.0011186069354141596
1766.0,0.0011226976226478163
1765.0,0.0011498504403242636
1764.0,0.00121790857786462
1763.0,0.001296050650030957
1762.0,0.0013491236149888826
1761.0,0.0013833241329173906
1760.0,0.0014416520213737759
1759.0,0.0015082648213270511
1758.0,0.001551823142186201
1757.0,0.0015844100786385922
1756.0,0.001626418462448488
1755.0,0.0016665936316412567
1754.0,0.0016935249074481991
1753.0,0.0017161243991254838
1752.0,0.0017685960900248746
1751.0,0.0018521672989934143
1750.0,0.0019218408336988263
1749.0,0.002006929390964143
1748.0,0.0021230365528851682
1747.0,0.0022033221026932816
1746.0,0.002228300557606461
1745.0,0.002268331226007984
1744.0,0.0023713183118603343
1743.0,0.002476814039127859
1742.0,0.0025331399292968047
1741.0,0.0026002762375068877
1740.0,0.002739133953800193
1739.0,0.002881376793432665
1738.0,0.0029633102882447495
1737.0,0.0030430200939705098
1736.0,0.0031605270470062554
1735.0,0.003331834844743483
1734.0,0.0035525110773223425
1733.0,0.0037029009714973655
1732.0,0.003805400356988946
1731.0,0.003884585573897913
1730.0,0.003919645417688791
1729.0,0.003970715222517967
1728.0,0.0040756803975332805
1727.0,0.004194809149944936
1726.0,0.004284960665052889
1725.0,0.004387320950732003
1724.0,0.0045671535644951616
1723.0,0.004782525864014521
1722.0,0.004966604618237087
1721.0,0.005127421065951263
1720.0,0.0052935334068379865
1719.0,0.005460204784944118
1718.0,0.0056823795105671645
1717.0,0.006063606394170622
1716.0,0.006491438588562845
1715.0,0.006778587894089744
1714.0,0.006927952733742908
1713.0,0.007069767746347806
1712.0,0.007269788936430462
1711.0,0.007489429934395227
1710.0,0.007692346248135428
1709.0,0.00790612184971703
1708.0,0.008173170006446377
1707.0,0.00848715721867997
1706.0,0.008837040997962557
1705.0,0.00923680664775513
1704.0,0.009652915024468325
1703.0,0.010051403440875557
1702.0,0.010422441019456117
1701.0,0.010922228586648947
1700.0,0.011639895081381146
1699.0,0.012223470039275996
1698.0,0.01262933115754569
1697.0,0.01317365700353356
1696.0,0.013952071209420523
1695.0,0.01458806234872749
1694.0,0.014964300916149167
1693.0,0.015304308437712525
1692.0,0.01570325135272585
1691.0,0.01617809979795143
1690.0,0.016722428709799866
1689.0,0.0173076960242131
1688.0,0.01787316415070352
1687.0,0.018376330255129317
1686.0,0.01881090393358852
1685.0,0.019489500333490558
1684.0,0.020631452912971616
1683.0,0.021491833672333285
1682.0,0.021967112876663905
1681.0,0.02245027748770301
1680.0,0.023012397931291752
1679.0,0.02357688045023791
1678.0,0.024084176001369664
1677.0,0.024597853489473392
1676.0,0.025227046181102386
1675.0,0.02591316174643626
1674.0,0.026453858914349846
1673.0,0.026875357553694565
1672.0,0.02731517159360563
1671.0,0.027812096614236892
1670.0,0.028374889712090533
1669.0,0.028961321330944458
1668.0,0.02951037251641566
1667.0,0.02998722405931352
1666.0,0.0303863772184534
1665.0,0.03076863387545773
1664.0,0.03122346327483167
1663.0,0.03174550716532118
1662.0,0.03219563573676701
1661.0,0.03253506593653023
1660.0,0.0328620698709112
1659.0,0.03318032350863998
1658.0,0.03345522934734575
1657.0,0.03373429863929741
1656.0,0.034105046244427714
1655.0,0.03453798726333404
1654.0,0.03484148979668744
1653.0,0.03486599303146494
1652.0,0.03484704253243615
1651.0,0.03504304701451798
1650.0,0.03522500062897939
1649.0,0.035284794201678654
1648.0,0.03531822130071183
1647.0,0.035315955276033345
1646.0,0.035188439717466956
1645.0,0.03512606974610695
1644.0,0.035216877917705953
1643.0,0.03530870271347886
1642.0,0.035303500336405544
1641.0,0.03521405446003852
1640.0,0.03512840268160174
1639.0,0.03508818178566107
1638.0,0.03502678849065987
1637.0,0.03480356996687429
1636.0,0.034329121977708786
1635.0,0.033770114674919326
1634.0,0.0333847244245911
1633.0,0.03319143871707632
1632.0,0.03304846729445061
1631.0,0.032863210563586424
1630.0,0.0325762846948614
1629.0,0.03216062540912796
1628.0,0.03167906854615781
1627.0,0.03125388134060627
1626.0,0.030918166219129413
1625.0,0.030565693262641226
1624.0,0.030042623263353996
1623.0,0.029325697822819415
1622.0,0.028649827209679103
1621.0,0.028219605772059952
1620.0,0.027986287361736577
1619.0,0.027778748422800634
1618.0,0.027389981944750928
1617.0,0.026671464912258948
1616.0,0.025816794536835056
1615.0,0.02517235060221711
1614.0,0.024746377033624943
1613.0,0.024375309848866576
1612.0,0.02397469952662034
1611.0,0.02353604244222096
1610.0,0.023073707044959972
1609.0,0.022597743020261303
1608.0,0.022132353294779295
1607.0,0.02171134470710058
1606.0,0.021341600450805586
1605.0,0.020989155611008933
1604.0,0.020628890341043517
1603.0,0.020260367968346394
1602.0,0.0198967810751306
1601.0,0.019549471658971276
1600.0,0.01922374161002821
1599.0,0.01892314492937705
1598.0,0.018640383726512118
1597.0,0.018353655710887574
1596.0,0.018042820027259522
1595.0,0.017717095840255388
1594.0,0.017412745170244503
1593.0,0.01714796165326589
1592.0,0.016908464353073104
1591.0,0.01667997451779211
1590.0,0.01646659449919143
1589.0,0.01627000485226867
1588.0,0.016080189818507198
1587.0,0.01589252221398828
1586.0,0.01571835080557311
1585.0,0.015562400199379038
1584.0,0.015417652315892108
1583.0,0.015282624892833267
1582.0,0.0151533756342919
1581.0,0.01503390170717385
1580.0,0.014942606346947336
1579.0,0.014900122301327257
1578.0,0.014895717234886356
1577.0,0.014892385876229111
1576.0,0.014818823757078759
1575.0,0.014680582930335952
1574.0,0.014594261527257537
1573.0,0.014572581755503581
1572.0,0.014557508310842928
1571.0,0.014517659207933867
1570.0,0.014464337103240459
1569.0,0.014411904650180243
1568.0,0.014386523123010683
1567.0,0.014413515952721036
1566.0,0.014462818420646204
1565.0,0.014498804588148295
1564.0,0.014528760511677844
1563.0,0.014578230342637197
1562.0,0.014669073777632234
1561.0,0.014727035263573447
1560.0,0.014708636930440208
1559.0,0.014789217020618493
1558.0,0.014870295081412587
1557.0,0.014957263482849068
1556.0,0.015090234400455625
1555.0,0.01515039455520711
1554.0,0.015153550681641589
1553.0,0.015154956703666383
1552.0,0.015162590526164973
1551.0,0.015155588343086179
1550.0,0.015144102021324012
1549.0,0.015170543130553462
1548.0,0.015232659762204778
1547.0,0.015295956199730034
1546.0,0.015327727482595251
1545.0,0.0153642018135248
1544.0,0.015439424685843434
1543.0,0.015505374345092082
1542.0,0.015509422132156406
1541.0,0.015521874665375968
1540.0,0.015533928243260792
1539.0,0.015441167917473828
1538.0,0.015392586616860309
1537.0,0.015423894383310838
1536.0,0.015425879029080772
1535.0,0.01536683919796688
1534.0,0.015273261879413524
1533.0,0.015191272482648004
1532.0,0.015138454315904944
1531.0,0.015116622263274732
1530.0,0.015105847207190534
1529.0,0.015095349947383731
1528.0,0.01508007879408359
1527.0,0.015037839677573429
1526.0,0.014974097259195462
1525.0,0.014936209270222784
1524.0,0.014937598424476957
1523.0,0.01492453790331276
1522.0,0.014905356576894683
1521.0,0.01491757927371093
1520.0,0.014913167519640103
1519.0,0.014878140712614233
1518.0,0.014830008899111194
1517.0,0.014827740838925192
1516.0,0.014865203679768312
1515.0,0.014881426528154777
1514.0,0.014889227596933011
1513.0,0.014891320885324008
1512.0,0.014874569777000392
1511.0,0.014805303901516732
1510.0,0.014705075981853746
1509.0,0.01461609417107457
1508.0,0.014669442373784963
1507.0,0.014864638396893531
1506.0,0.014906267827601308
1505.0,0.014927786099571756
1504.0,0.015009234798762393
1503.0,0.015020464315809865
1502.0,0.014993115593583961
1501.0,0.014998742279082038
1500.0,0.015060224427591334
1499.0,0.015132986595140972
1498.0,0.015215426245441897
1497.0,0.015386839630524125
1496.0,0.015585817650936234
1495.0,0.015667178659593967
1494.0,0.015664082808651933
1493.0,0.015663556713451564
1492.0,0.015683561872659405
1491.0,0.015727389189311006
1490.0,0.015872689197753347
1489.0,0.01614670006761097
1488.0,0.01640246761166221
1487.0,0.01655513710691105
1486.0,0.016679174229398245
1485.0,0.01683531707372206
1484.0,0.017011008922898804
1483.0,0.017188760647051726
1482.0,0.017409033324848115
1481.0,0.017717973054467158
1480.0,0.01805605644331265
1479.0,0.018351166896187064
1478.0,0.018657514969286897
1477.0,0.019099014201771028
1476.0,0.01968171659629686
1475.0,0.020317950674619566
1474.0,0.021220686184945405
1473.0,0.022906457752807273
1472.0,0.025013246290949767
1471.0,0.0266490932557253
1470.0,0.027934444330408738
1469.0,0.029261792012008618
1468.0,0.03071829936716853
1467.0,0.032366990988478374
1466.0,0.03446608897057178
1465.0,0.03714795524452475
1464.0,0.03969274206663735
1463.0,0.0413626790581818
1462.0,0.04236480641376908
1461.0,0.0430925371999032
1460.0,0.04370212779027517
1459.0,0.044225507621584406
1458.0,0.04500436438918874
1457.0,0.0461501512025366
1456.0,0.046757500163043905
1455.0,0.04674622712542993
1454.0,0.046647751997712025
1453.0,0.04650009625467057
1452.0,0.0461733397545889
1451.0,0.04557392019950394
1450.0,0.044659445799303386
1449.0,0.04322981101210975
1448.0,0.04113645311632708
1447.0,0.03877887385028496
1446.0,0.03671164526836122
1445.0,0.03499226516883367
1444.0,0.033455154559243264
1443.0,0.03209098950158222
1442.0,0.03100872142551462
1441.0,0.030236656647508853
1440.0,0.029717762800920533
1439.0,0.029418429014872682
1438.0,0.02934821894994788
1437.0,0.029405655630297116
1436.0,0.029251671738249094
1435.0,0.028737800875397276
1434.0,0.028012562554712996
1433.0,0.027143102012938528
1432.0,0.026174459217583684
1431.0,0.025265860573026853
1430.0,0.024565656546953286
1429.0,0.02407852991397439
1428.0,0.023738002429543225
1427.0,0.023515370925838996
1426.0,0.02336020008135593
1425.0,0.023190640018410806
1424.0,0.02300303498447535
1423.0,0.022873202410847827
1422.0,0.022822182579231666
1421.0,0.02276491204148676
1420.0,0.022635902364082437
1419.0,0.022490250864481844
1418.0,0.022376738337484554
1417.0,0.022252961444963918
1416.0,0.022105299507748255
1415.0,0.021962486781170888
1414.0,0.021821254236963215
1413.0,0.021643178101085445
1412.0,0.021415129664258688
1411.0,0.02117520584084827
1410.0,0.0209402891570917
1409.0,0.02068087909270448
1408.0,0.02038376276453306
1407.0,0.020080331036965413
1406.0,0.019778876663056114
1405.0,0.019433339908007767
1404.0,0.019067339693308077
1403.0,0.018780849916968916
1402.0,0.018577975496969573
1401.0,0.018353049735834102
1400.0,0.018052168562359673
1399.0,0.01775520688494918
1398.0,0.017530016452004308
1397.0,0.017312608790627432
1396.0,0.017055451291820473
1395.0,0.01683164585262634
1394.0,0.01667490861956481
1393.0,0.016527978959679713
1392.0,0.016394185953639864
1391.0,0.016326326087724292
1390.0,0.016332747334377024
1389.0,0.01639440020411302
1388.0,0.016601728056999217
1387.0,0.017141465693894235
1386.0,0.01803573067104536
1385.0,0.019231412773072845
1384.0,0.020909778128035218
1383.0,0.02336858965056305
1382.0,0.02675215752419572
1381.0,0.031097409428587526
1380.0,0.03651793582861339
1379.0,0.042845719893306676
1378.0,0.049101854400289975
1377.0,0.05382256244617864
1376.0,0.05568533642262216
1375.0,0.053539226207946405
1374.0,0.04760614851361958
1373.0,0.04050798333914429
1372.0,0.034502251957867415
1371.0,0.029751958666951676
1370.0,0.02577254662629371
1369.0,0.02245734152248978
1368.0,0.01999267590069625
1367.0,0.018414133616815327
1366.0,0.017498280587896924
1365.0,0.017002325677187933
1364.0,0.016799803811418504
1363.0,0.016878772501789388
1362.0,0.01720080077109852
1361.0,0.017588542344283566
1360.0,0.01783409037708267
1359.0,0.017808839789363966
1358.0,0.01745892724068094
1357.0,0.016788824741072766
1356.0,0.015856009852812752
1355.0,0.01478242927781585
1354.0,0.013736179408093886
1353.0,0.012837945816917561
1352.0,0.012092322527996312
1351.0,0.01145220786773294
1350.0,0.0108983931364445
1349.0,0.010427151397362548
1348.0,0.01001883142487104
1347.0,0.009649970590188194
1346.0,0.009321282164055488
1345.0,0.009039379433347327
1344.0,0.008795467425044765
1343.0,0.008576903121397415
1342.0,0.008380406873470442
1341.0,0.008202351929294721
1340.0,0.008031761835861176
1339.0,0.007870738608531005
1338.0,0.007746284005708563
1337.0,0.00766996630580279
1336.0,0.007620534162267467
1335.0,0.007582199225313883
1334.0,0.007560299897679333
1333.0,0.007559983188566034
1332.0,0.007573258584830928
1331.0,0.007586995698667873
1330.0,0.007584617218627026
1329.0,0.007542351209646492
1328.0,0.007443529325727777
1327.0,0.007296395886720526
1326.0,0.007121913074950956
1325.0,0.006930592753445023
1324.0,0.006730599137589655
1323.0,0.006542809409950062
1322.0,0.006386415075301797
1321.0,0.006253895453934781
1320.0,0.006121415504245942
1319.0,0.005980124978244178
1318.0,0.00583882446758233
1317.0,0.005701094196323421
1316.0,0.005564928734241645
1315.0,0.005439092077494295
1314.0,0.005336097157312177
1313.0,0.005254140103247646
1312.0,0.00518766089057829
1311.0,0.005151730858807163
1310.0,0.005172877501496335
1309.0,0.005266143909091589
1308.0,0.005433055698603665
1307.0,0.005661098271029858
1306.0,0.005903305205684592
1305.0,0.006075125400675082
1304.0,0.006104413478907186
1303.0,0.005989733463967249
1302.0,0.005798399849586706
1301.0,0.005605879936256594
1300.0,0.0054534754362364265
1299.0,0.005352905767169361
1298.0,0.005297813838031792
1297.0,0.005263341520228363
1296.0,0.005217925792178325
1295.0,0.005144945636088099
1294.0,0.005043925793047577
1293.0,0.004917882276210379
1292.0,0.004775775922618674
1291.0,0.004640482768781089
1290.0,0.00453381370516516
1289.0,0.004455514190011906
1288.0,0.004391619585452302
1287.0,0.004337119518365587
1286.0,0.004294059421143711
1285.0,0.004256278688782221
1284.0,0.0042150250824473
1283.0,0.004172903451038001
1282.0,0.004136796387938872
1281.0,0.00410308337016212
1280.0,0.004065933751897309
1279.0,0.004033727552119471
1278.0,0.004020172247692534
1277.0,0.004024590634542793
1276.0,0.0040351256119160895
1275.0,0.004045852733388502
1274.0,0.004057468066572497
1273.0,0.004068883466406836
1272.0,0.004081449526908275
1271.0,0.004105540435385911
1270.0,0.004149087342867317
1269.0,0.004205209190358472
1268.0,0.004263188637996513
1267.0,0.004323126832141932
1266.0,0.004390260425820039
1265.0,0.00446500170255059
1264.0,0.004548692635902548
1263.0,0.004650341375650039
1262.0,0.004777388973458073
1261.0,0.004927623010429153
1260.0,0.00509893918704284
1259.0,0.005294543327803755
1258.0,0.00550373442443659
1257.0,0.005686617250873945
1256.0,0.005791281835313709
1255.0,0.005786727121807318
1254.0,0.005678613368811564
1253.0,0.0055011732203690145
1252.0,0.0053029300499432275
1251.0,0.005131988937792299
1250.0,0.005013352249250633
1249.0,0.004937501154448007
1248.0,0.004880913958772206
1247.0,0.004831704955833625
1246.0,0.004787664169349485
1245.0,0.004743708132150519
1244.0,0.004697912383269064
1243.0,0.004662215316949343
1242.0,0.004649693960098716
1241.0,0.004655466817767686
1240.0,0.004663206314279623
1239.0,0.004665028306029901
1238.0,0.004664291340845655
1237.0,0.004665252079184529
1236.0,0.004671215440159733
1235.0,0.0046871678783726965
1234.0,0.0047128342326615575
1233.0,0.004737946745808496
1232.0,0.004753456845340023
1231.0,0.004761574296380114
1230.0,0.004767721090820434
1229.0,0.0047716250305198556
1228.0,0.004775808831895751
1227.0,0.004793889291625797
1226.0,0.004838190976345847
1225.0,0.004904620342457953
1224.0,0.004979738663340373
1223.0,0.005056062561425894
1222.0,0.005130743188740598
1221.0,0.005196341063115473
1220.0,0.005243282813083066
1219.0,0.005267326561689449
1218.0,0.0052681659695874225
1217.0,0.005246546973734206
1216.0,0.0052085030555974465
1215.0,0.005164857770362456
1214.0,0.005120019342587288
1213.0,0.005070392600145884
1212.0,0.0050203886012988915
1211.0,0.004987123214625485
1210.0,0.004978783048207839
1209.0,0.00498133806472786
1208.0,0.004978533589343458
1207.0,0.004972712172606196
1206.0,0.0049743528496491215
1205.0,0.004983879085961339
1204.0,0.004998501916712571
1203.0,0.005024961215568415
1202.0,0.005068333008246656
1201.0,0.0051175259682636354
1200.0,0.005158323058457991
1199.0,0.0051936670957604195
1198.0,0.005236010142773759
1197.0,0.005286719355887261
1196.0,0.005338868219392371
1195.0,0.005395049295001765
1194.0,0.0054655986064955885
1193.0,0.005551448034884504
1192.0,0.005644284756313008
1191.0,0.005743494201280501
1190.0,0.005859329628508766
1189.0,0.005996754800713383
1188.0,0.006146411242483631
1187.0,0.006294718869732369
1186.0,0.006437317289136258
1185.0,0.006581025888118387
1184.0,0.006736644455362274
1183.0,0.006910826900849685
1182.0,0.0071012822829163505
1181.0,0.007299335014023398
1180.0,0.007499676707099636
1179.0,0.007708859783388006
1178.0,0.007945948695768465
1177.0,0.008238311100095097
1176.0,0.008616068811739094
1175.0,0.00910337904117621
1174.0,0.0097093860920658
1173.0,0.010428349495140356
1172.0,0.011242502525686135
1171.0,0.012111169120611123
1170.0,0.01295610888750822
1169.0,0.013669736117204925
1168.0,0.014150134340450708
1167.0,0.014345123621405331
1166.0,0.014278717083369263
1165.0,0.014033111718264248
1164.0,0.013699684908015018
1163.0,0.013348791248333807
1162.0,0.01303184601356721
1161.0,0.012784079418728979
1160.0,0.012616709241939906
1159.0,0.012516739203030942
1158.0,0.012461982196212133
1157.0,0.01243622936612564
1156.0,0.012430228544811236
1155.0,0.012434584899902033
1154.0,0.012437637046386549
1153.0,0.012428378483763707
1152.0,0.012397187028683573
1151.0,0.012334561540135049
1150.0,0.012233860601117696
1149.0,0.012097718739281001
1148.0,0.011941577473972283
1147.0,0.011789192940948233
1146.0,0.011660461621041465
1145.0,0.01156217566954526
1144.0,0.011491668002107325
1143.0,0.01144536942260431
1142.0,0.011418085694127816
1141.0,0.011397934547278037
1140.0,0.011372005917312113
1139.0,0.011339219679850607
1138.0,0.011311082066309451
1137.0,0.011297138583411952
1136.0,0.0112957054388228
1135.0,0.01130092926519025
1134.0,0.011311616970042758
1133.0,0.011328877448441816
1132.0,0.01135115813537087
1131.0,0.011377252611397767
1130.0,0.011409970841639958
1129.0,0.01145115816037097
1128.0,0.011495456376417346
1127.0,0.0115341675234778
1126.0,0.011564861312696913
1125.0,0.011593288236789581
1124.0,0.011625870875741705
1123.0,0.011662680076404648
1122.0,0.01169688084039771
1121.0,0.011720095211600823
1120.0,0.011731127447365708
1119.0,0.011741327482436819
1118.0,0.011767144710285376
1117.0,0.011813199492395735
1116.0,0.011866161157888418
1115.0,0.011910403475897651
1114.0,0.011947412543861634
1113.0,0.011993396687816547
1112.0,0.012057923500370576
1111.0,0.012133096146295309
1110.0,0.01220851916289905
1109.0,0.012292573665980192
1108.0,0.012409110918325653
1107.0,0.012568523193410806
1106.0,0.012746327905364566
1105.0,0.012896864647027193
1104.0,0.012989121046425346
1103.0,0.013025560419087208
1102.0,0.013027161952804019
1101.0,0.01300706906411253
1100.0,0.012963819842105272
1099.0,0.012896772950376566
1098.0,0.012815515670618456
1097.0,0.012730014585855855
1096.0,0.012642097062480224
1095.0,0.012550958619776564
1094.0,0.012460389914251278
1093.0,0.012378273109455832
1092.0,0.01231620419947366
1091.0,0.012287362669462357
1090.0,0.012291802125805305
1089.0,0.012304468740089756
1088.0,0.012293342666265868
1087.0,0.012253517351435449
1086.0,0.012210207096205412
1085.0,0.012182972549147422
1084.0,0.012161634428922052
1083.0,0.012124097665528678
1082.0,0.012062063065809793
1081.0,0.011979771539287292
1080.0,0.011882439461018475
1079.0,0.011778634172559477
1078.0,0.011681053701737748
1077.0,0.011591817812645986
1076.0,0.011497520005157913
1075.0,0.011388834933339427
1074.0,0.011274436401098351
1073.0,0.011167329396358849
1072.0,0.011070313033879457
1071.0,0.010983994772697847
1070.0,0.010913887901426604
1069.0,0.010857209115379959
1068.0,0.010795881463070055
1067.0,0.010716817779620372
1066.0,0.010630934519178202
1065.0,0.01056103308357309
1064.0,0.010518809604596883
1063.0,0.01050077364309647
1062.0,0.010494596468959234
1061.0,0.010481444984591748
1060.0,0.010444889727077564
1059.0,0.010389324337972194
1058.0,0.010340251053128614
1057.0,0.01031631119290085
1056.0,0.010312246684633649
1055.0,0.010318268434399983
1054.0,0.010340700108111282
1053.0,0.010387293435762814
1052.0,0.010444467910474351
1051.0,0.010493343825587493
1050.0,0.010543237386168126
1049.0,0.010620748136301664
1048.0,0.010725676197001377
1047.0,0.010823990811510163
1046.0,0.010883846717456496
1045.0,0.010896425142479255
1044.0,0.010863348236717713
1043.0,0.010787328856484507
1042.0,0.010679873136430588
1041.0,0.010561205872088968
1040.0,0.01044656530702532
1039.0,0.010341082614826743
1038.0,0.010247266789855148
1037.0,0.010166559287095932
1036.0,0.010093348592852644
1035.0,0.010017535297391002
1034.0,0.009935010556002648
1033.0,0.00984875318875375
1032.0,0.009759977479778234
1031.0,0.009666770862672012
1030.0,0.009572510096222998
1029.0,0.00948692693431261
1028.0,0.009415015231317596
1027.0,0.00934930999094748
1026.0,0.00927587998174978
1025.0,0.009186866437551799
1024.0,0.009087312548277961
1023.0,0.008990566269533484
1022.0,0.008905278810472667
1021.0,0.008826916244202017
1020.0,0.008745557968977993
1019.0,0.008660869677463628
1018.0,0.008582362925546008
1017.0,0.008514586230811683
1016.0,0.008451959464239472
1015.0,0.008391214780755562
1014.0,0.008337900693534052
1013.0,0.008294641477615317
1012.0,0.008254243768140015
1011.0,0.008214275666663676
1010.0,0.008189148780543335
1009.0,0.008195258775399738
1008.0,0.008230917816373202
1007.0,0.008286208838370359
1006.0,0.008372021228892568
1005.0,0.00852626201768128
1004.0,0.008790590143911536
1003.0,0.009194632628630722
1002.0,0.009761170149086631
1001.0,0.010493053600894
1000.0,0.01131648739397298
999.0,0.012038117682199069
998.0,0.012406105745653227
997.0,0.012259683193648497
996.0,0.01163111772514586
995.0,0.010710116918473237
994.0,0.009718025149648823
993.0,0.00880168533256799
992.0,0.008016262865987986
991.0,0.0073696462082057
990.0,0.006856661176248308
989.0,0.006463582091177082
988.0,0.006170091891455832
987.0,0.005957413356641315
986.0,0.0058103505396320775
985.0,0.005716518049452703
984.0,0.005673077133682754
983.0,0.005691815347797974
982.0,0.005792292503924771
981.0,0.0059958541041296096
980.0,0.006330944972708887
979.0,0.006831946723791723
978.0,0.007516833704867984
977.0,0.008362084602230476
976.0,0.009292779801845362
975.0,0.010177887082213698
974.0,0.010831401964894124
973.0,0.011050938652349716
972.0,0.01070803945815674
971.0,0.009842138196651393
970.0,0.008664508571073978
969.0,0.007441443679715488
968.0,0.006363422069724976
967.0,0.005506703218193975
966.0,0.004865112228440577
965.0,0.004387946727535015
964.0,0.004010168523814745
963.0,0.003682035664562081
962.0,0.0033859665747480675
961.0,0.0031271576209927817
960.0,0.0029106518550146565
959.0,0.0027272440050529045
958.0,0.0025560183186147892
957.0,0.002379711707938787
956.0,0.0022006350052937683
955.0,0.0020385022510348034
954.0,0.001907160153637932
953.0,0.0017975920885754046
952.0,0.00169126251241993
951.0,0.001584495529524589
950.0,0.001488667324069562
949.0,0.0014103928088234196
948.0,0.0013454331157140703
947.0,0.0012927629417342438
946.0,0.0012624897383405886
945.0,0.0012654071675059237
944.0,0.0012993939920142063
943.0,0.0013456547815299414
942.0,0.0013749271530948057
941.0,0.0013619290814438217
940.0,0.0013005502794394448
939.0,0.0012049513376318783
938.0,0.001094310413490623
937.0,0.0009809411080955992
936.0,0.0008745791036521601
935.0,0.0007855308469803431
934.0,0.0007131459706626337
933.0,0.0006419484625954149
932.0,0.000562671015617475
931.0,0.0004889157024699012
930.0,0.00043931230608502785
929.0,0.0004113440539729573
928.0,0.00038857027840856137
927.0,0.0003663304169554578
926.0,0.00035225987232335824
925.0,0.00034582321308112944
924.0,0.00033609369696352594
923.0,0.0003191472976200038
922.0,0.00030088659979404103
921.0,0.000282722450406633
920.0,0.00026081634937129283
919.0,0.00023985130416380972
918.0,0.00023067223191607263
917.0,0.00023239115271537353
916.0,0.0002325238268337127
915.0,0.0002269839606836646
914.0,0.00022452427553540377
913.0,0.0002284445220270149
912.0,0.00023030231863709928
911.0,0.00022772588360608047
910.0,0.00023373442855027446
909.0,0.0002615490610784147
908.0,0.00031339689404669135
907.0,0.00039026352562580337
906.0,0.0004987932249350749
905.0,0.0006421997998032631
904.0,0.0008184945298378692
903.0,0.0010342591397661562
902.0,0.0013010071142323526
901.0,0.0015986939574686911
900.0,0.001850627257150678
899.0,0.001957300081284752
898.0,0.0018664317638155386
897.0,0.001607903997844667
896.0,0.0012678135002941252
895.0,0.0009413534574901038
894.0,0.0006948430209572799
893.0,0.0005415057181132037
892.0,0.00044643012438065274
891.0,0.00036727082142205304
890.0,0.0002969089010448258
889.0,0.00026377380230143896
888.0,0.00029352022178282845
887.0,0.00038142528187058884
886.0,0.0005045874806529922
885.0,0.0006508322662930107
884.0,0.0008278839278885487
883.0,0.001051039608758842
882.0,0.0013322640044724499
881.0,0.0016771967301618656
880.0,0.002077713254986492
879.0,0.0025013059688067784
878.0,0.0028995676742526733
877.0,0.0032375825821245076
876.0,0.003509127166776066
875.0,0.0037174573799119703
874.0,0.003844857540034847
873.0,0.0038448000273980827
872.0,0.003669604087503286
871.0,0.0033171199888560286
870.0,0.0028539526971355957
869.0,0.00238343909505314
868.0,0.001987634784700149
867.0,0.001699187739459285
866.0,0.0015132394637620943
865.0,0.0014103804651012658
864.0,0.0013688845811072048
863.0,0.0013689705401821895
862.0,0.0013993864191200016
861.0,0.0014613322499938807
860.0,0.0015569861578553171
859.0,0.001671221095175644
858.0,0.0017733992818689658
857.0,0.00184178867675709
856.0,0.0018766585366571213
855.0,0.0018827529122866348
854.0,0.001850714668565961
853.0,0.0017712037812851432
852.0,0.0016639424942605507
851.0,0.0015761429468056226
850.0,0.0015461159185522072
849.0,0.0015788372368529206
848.0,0.001666229228962049
847.0,0.0018276904571057923
846.0,0.002128604331023177
845.0,0.002657186584302272
844.0,0.0034534713862672123
843.0,0.004408766138147106
842.0,0.005226337641663116
841.0,0.005552061937836143
840.0,0.005224305751628466
839.0,0.00441380724776309
838.0,0.0034903610852595537
837.0,0.0027421635508651787
836.0,0.002235814127963205
835.0,0.0019041302169587188
834.0,0.0016844179091817825
833.0,0.0015509407398384672
832.0,0.0014760338676733705
831.0,0.0014235069710384369
830.0,0.0013765391601338328
829.0,0.0013365045514919464
828.0,0.0012969968908003587
827.0,0.0012482484465510726
826.0,0.001204167328037008
825.0,0.001193632882216961
824.0,0.0012251576457230628
823.0,0.0012877845788682035
822.0,0.0013787064048227105
821.0,0.001497096709288567
820.0,0.0016177878445893835
819.0,0.0017057755569085294
818.0,0.0017601884171680252
817.0,0.0018209458603824398
816.0,0.0019296626647947214
815.0,0.002101954445511412
814.0,0.0023373924312786974
813.0,0.0026318754337860337
812.0,0.0029650272262698105
811.0,0.0032878026131973395
810.0,0.0035403539549246285
809.0,0.003682093884831629
808.0,0.0037019969825864106
807.0,0.0036144827342511378
806.0,0.0034549575808205807
805.0,0.0032677022677971464
804.0,0.003088624599108143
803.0,0.002940010501972661
802.0,0.0028341587602087152
801.0,0.0027705092569445568
800.0,0.002732735590838635
799.0,0.002700771641970655
798.0,0.0026673866228160564
797.0,0.002636812911159119
796.0,0.002611571314817894
795.0,0.0025916473090336935
794.0,0.0025806448216366996
793.0,0.002577332968622531
792.0,0.0025654314278684524
791.0,0.002530585151122717
790.0,0.0024873025583352533
789.0,0.002469216645089773
788.0,0.0024882245551809193
787.0,0.002519051783333729
786.0,0.0025297467725501725
785.0,0.002514651141299583
784.0,0.002491063942803025
783.0,0.002475651290832423
782.0,0.002473629633964001
781.0,0.0024844842628958703
780.0,0.0025098753200629743
779.0,0.0025537998704958237
778.0,0.002611675919455804
777.0,0.0026595792894272934
776.0,0.00266661665516588
775.0,0.002628656952446018
774.0,0.002579980281110273
773.0,0.0025561044236794284
772.0,0.002555425565238148
771.0,0.0025574424879675137
770.0,0.002567705564379137
769.0,0.002614089606015571
768.0,0.0026967704078568328
767.0,0.0027699070179395234
766.0,0.002785312415461365
765.0,0.002738855648083797
764.0,0.0026678210322901887
763.0,0.002621869972366006
762.0,0.002641623503609091
761.0,0.0027408878314877302
760.0,0.0028915659778542616
759.0,0.0030324936673816957
758.0,0.0031050277791008253
757.0,0.0030866337983222643
756.0,0.0030000797335607114
755.0,0.0029039926726980095
754.0,0.002864663834324547
753.0,0.0029056113455332745
752.0,0.002984247150504025
751.0,0.0030436651555524434
750.0,0.0030847885682541154
749.0,0.0031567733866141243
748.0,0.0032726861928232057
747.0,0.003372878652406836
746.0,0.0033927579314289857
745.0,0.003340361351315064
744.0,0.0032800729848610766
743.0,0.0032580051901314362
742.0,0.003270070335674523
741.0,0.0032906710899740753
740.0,0.003307708288115444
739.0,0.0033280205087640354
738.0,0.0033607605964928455
737.0,0.003398848798669755
736.0,0.0034178101395059314
735.0,0.003402200181785591
734.0,0.0033725915930026204
733.0,0.003367368724497357
732.0,0.0033936970618058428
731.0,0.0034179426090666792
730.0,0.003410893161720118
729.0,0.0033812134229514526
728.0,0.0033529879230571012
727.0,0.0033334518240849646
726.0,0.0033218943263475242
725.0,0.00332904416284667
724.0,0.003365200990740117
723.0,0.003422592201337643
722.0,0.003486346922083019
721.0,0.003551131266223341
720.0,0.0036130168481877598
719.0,0.003660676596399657
718.0,0.003694402596645524
717.0,0.003741413983552041
716.0,0.003833772475700239
715.0,0.0039706225556820525
714.0,0.004105890240231287
713.0,0.004176198524233135
712.0,0.004144559533554082
711.0,0.004025375701608779
710.0,0.0038716948866491414
709.0,0.0037313054969738274
708.0,0.003616190703806383
707.0,0.0035198504702582817
706.0,0.003449970664365514
705.0,0.003422070834748745
704.0,0.0034268249895600747
703.0,0.0034322819352825516
702.0,0.003420995029084866
701.0,0.0033978891450625534
700.0,0.0033604355881938705
699.0,0.003292023654886879
698.0,0.003194027759405256
697.0,0.0030971054663874557
696.0,0.0030271911033240874
695.0,0.0029846090946773172
694.0,0.0029646019115970937
693.0,0.0029702226802186607
692.0,0.0029940882289040995
691.0,0.0030128791323040353
690.0,0.00301414445761718
689.0,0.0030076478457141294
688.0,0.0029978343158091267
687.0,0.002969761454018255
686.0,0.0029165792896246844
685.0,0.0028509248504034156
684.0,0.0027774590200845724
683.0,0.0026858913471136496
682.0,0.002580118284050314
681.0,0.002487127083763495
680.0,0.002427987573506582
679.0,0.002403605592132166
678.0,0.0024085806728654444
677.0,0.0024365326447941017
676.0,0.0024595433920748186
675.0,0.0024490376080211936
674.0,0.0024259671976887866
673.0,0.002430498421798318
672.0,0.0024508089741552518
671.0,0.0024138203846204263
670.0,0.002262536809014285
669.0,0.0019856241121224798
668.0,0.0016735936175221143
667.0,0.0015976826052143261
666.0,0.0017926680727475518
665.0,0.0020376018734068226
664.0,0.002212860786391154
663.0,0.002272320839855648
662.0,0.002220390629074996
661.0,0.002127664451771885
660.0,0.0020551228773188664
659.0,0.0019957926527017535
658.0,0.0019184008720755652
657.0,0.0018401608756847161
656.0,0.001797555854636701
655.0,0.001791108663104845
654.0,0.0018006230442189283
653.0,0.0018232828843123584
652.0,0.001862634206690552
651.0,0.0018985696175390122
650.0,0.001903388415466313
649.0,0.0018738808186021978
648.0,0.001819306964903348
647.0,0.0017418336122479484
646.0,0.001656931439068067
645.0,0.0015991244432945056
644.0,0.001579860991091215
643.0,0.0015622906260527765
642.0,0.001500525934418774
641.0,0.0013865540925865616
640.0,0.0012421638813739123
639.0,0.0010945301073918522
638.0,0.0009755423716814836
637.0,0.0009158203926032497
636.0,0.0009181706492350228
635.0,0.000950665832030663
634.0,0.0009824503790389419
633.0,0.001008480944965983
632.0,0.0010236760387952945
631.0,0.0010093539300481819
630.0,0.0009686024285564983
629.0,0.0009348259340358281
628.0,0.0009181227953769001
627.0,0.0008820745814183094
626.0,0.0008054675569905967
625.0,0.0007306819543568127
624.0,0.000708872521646562
623.0,0.0007254235887983115
622.0,0.0007243179838395189
621.0,0.0006812540753874177
620.0,0.0006093893300552072
619.0,0.0005212459925546566
618.0,0.0004314255940979714
617.0,0.00038093461604468346
616.0,0.00041064146287357606
615.0,0.0005073335479874423
614.0,0.0006066251777891336
613.0,0.0006431950098066096
612.0,0.0005848006962656631
611.0,0.0004514937923536834
610.0,0.0003202455011965359
609.0,0.00026875523370516186
608.0,0.0002920614493836064
607.0,0.0003023814594289645
606.0,0.00023692494756626103
605.0,0.0001377117503541421
604.0,9.408185302895583e-05
603.0,0.0001428475339704527
602.0,0.0002463267082712141
601.0,0.00033318434525638624
600.0,0.0003398371432653431
