cm-1,A
4000.0,0.00041366158722725387
3999.0,0.00042517229122974445
3998.0,0.00043351796241469526
3997.0,0.0004311765854108753
3996.0,0.0004203298749889961
3995.0,0.00041104945616644243
3994.0,0.0004132234804636269
3993.0,0.0004288098858206155
3992.0,0.0004491304188374858
3991.0,0.00046063285566828004
3990.0,0.00045407448522877627
3989.0,0.0004314315623375289
3988.0,0.00040415910955031095
3987.0,0.00038525045175075937
3986.0,0.0003821844324988135
3985.0,0.0003947943236342875
3984.0,0.00041717280771840426
3983.0,0.0004403977657229034
3982.0,0.0004571191998676519
3981.0,0.00046549975557969047
3980.0,0.00046960137204977125
3979.0,0.0004743117420903946
3978.0,0.00047967142371511365
3977.0,0.0004815287076636364
3976.0,0.00047617141459895137
3975.0,0.00046378347874935326
3974.0,0.00044676619282683016
3973.0,0.0004272675324438872
3972.0,0.00040871708841325335
3971.0,0.00039737889009288535
3970.0,0.00039918886902351176
3969.0,0.0004141528148080616
3968.0,0.0004351069396238659
3967.0,0.0004520414341418564
3966.0,0.0004582258479427048
3965.0,0.000453344695006666
3964.0,0.00044282907704899484
3963.0,0.0004345235856704748
3962.0,0.00043330224832668755
3961.0,0.00043748163992358546
3960.0,0.00044081094083506917
3959.0,0.0004387980253496933
3958.0,0.00043222710122847946
3957.0,0.0004254411102921514
3956.0,0.0004225437690606301
3955.0,0.0004238365627311806
3954.0,0.0004262193026523253
3953.0,0.000425932667323106
3952.0,0.00042168944194532934
3951.0,0.0004159842872666997
3950.0,0.0004128498450219325
3949.0,0.0004145864722051055
3948.0,0.0004195783404423374
3947.0,0.0004245946604543027
3946.0,0.00042881713793412697
3945.0,0.0004356356645893761
3944.0,0.0004490757137415025
3943.0,0.00046708160162406377
3942.0,0.00048273604463031647
3941.0,0.000490882238759956
3940.0,0.000490886652315208
3939.0,0.0004854436246671922
3938.0,0.0004772267525811132
3937.0,0.00046651845997406857
3936.0,0.0004524696565696728
3935.0,0.00043534183387238163
3934.0,0.00041816945884925647
3933.0,0.0004071783613131205
3932.0,0.00040882329977289466
3931.0,0.00042398236506507696
3930.0,0.00044403179454684184
3929.0,0.0004538757502906155
3928.0,0.0004425677805521512
3927.0,0.0004143564683393669
3926.0,0.00038729852435097486
3925.0,0.00037855451145077336
3924.0,0.0003912153978499753
3923.0,0.0004168486798956457
3922.0,0.0004450904302359133
3921.0,0.0004666116852941858
3920.0,0.0004745513951677316
3919.0,0.0004688077069028803
3918.0,0.0004592052044866909
3917.0,0.00045893363092694363
3916.0,0.0004716415973428144
3915.0,0.0004904923870517571
3914.0,0.0005060925009407772
3913.0,0.000512211789730479
3912.0,0.0005075254003168955
3911.0,0.0004953531186127832
3910.0,0.00048156942108169517
3909.0,0.0004691423853183808
3908.0,0.0004563949802828095
3907.0,0.0004414944607014622
3906.0,0.00043011880220116374
3905.0,0.0004323697758523465
3904.0,0.0004505393905440353
3903.0,0.000474362474093168
3902.0,0.0004888862565107248
3901.0,0.0004877482703382614
3900.0,0.0004761377627184014
3899.0,0.0004630130360451393
3898.0,0.00045483393625588486
3897.0,0.0004531437320288909
3896.0,0.00045482829017047424
3895.0,0.0004569240372590581
3894.0,0.00046011663187146097
3893.0,0.0004689876339089602
3892.0,0.00048315663237653004
3891.0,0.0004929807184597655
3890.0,0.0004912295052579055
3889.0,0.0004797310665734754
3888.0,0.0004703422623890173
3887.0,0.0004767388701537884
3886.0,0.0004946006918609669
3885.0,0.000504520117642413
3884.0,0.0004984050952298589
3883.0,0.0004867382642600054
3882.0,0.00048424859277371494
3881.0,0.00049149841254229
3880.0,0.0004943488493876055
3879.0,0.0004839867242743196
3878.0,0.0004638333015132014
3877.0,0.0004437561522269756
3876.0,0.00043738863844603186
3875.0,0.00045032637892231456
3874.0,0.00047009778624737715
3873.0,0.0004797047948808715
3872.0,0.0004804087679214403
3871.0,0.00048691029411624385
3870.0,0.0004966418988847567
3869.0,0.0004909148556088213
3868.0,0.00046506958817651685
3867.0,0.0004370608457342298
3866.0,0.000429053341699028
3865.0,0.00044174636295543895
3864.0,0.0004562504056535325
3863.0,0.00046215053583841567
3862.0,0.000464579182341378
3861.0,0.00047187813284720005
3860.0,0.0004881976559586883
3859.0,0.0005119361479807071
3858.0,0.00053576967790297
3857.0,0.0005480593473695635
3856.0,0.0005455191372809641
3855.0,0.0005483856126811001
3854.0,0.0005646522362251021
3853.0,0.0005687808467317759
3852.0,0.0005511086010817864
3851.0,0.0005281032292576036
3850.0,0.0005122625691998145
3849.0,0.0004998023167013812
3848.0,0.0004788159187256839
3847.0,0.0004461896212585631
3846.0,0.00041215297374684015
3845.0,0.0003913005342713509
3844.0,0.0003897298069930361
3843.0,0.00039854791288967853
3842.0,0.00040449503594710765
3841.0,0.00040932842655040744
3840.0,0.0004300928400963221
3839.0,0.0004741078560636077
3838.0,0.0005247951734165053
3837.0,0.0005572333108670973
3836.0,0.0005631242373984571
3835.0,0.000553267990934748
3834.0,0.0005436427211256288
3833.0,0.0005428382536259953
3832.0,0.0005456868885809006
3831.0,0.0005404141381698876
3830.0,0.0005211965190870371
3829.0,0.0004927731064171418
3828.0,0.00046691670561831893
3827.0,0.00045333059378298876
3826.0,0.0004511747668761875
3825.0,0.00045289085470270126
3824.0,0.0004570160573108882
3823.0,0.0004765464389632286
3822.0,0.0005197773791295504
3821.0,0.0005595121946638858
3820.0,0.0005654678771041509
3819.0,0.0005405404447198104
3818.0,0.0005110527543059809
3817.0,0.000500104490782839
3816.0,0.0005009166566702049
3815.0,0.0004928876682970163
3814.0,0.0004750476778999258
3813.0,0.0004640479652702734
3812.0,0.0004693962928581279
3811.0,0.0004830359056365904
3810.0,0.0004912513658866116
3809.0,0.0004958523726865775
3808.0,0.0005111243132906848
3807.0,0.0005368246922383935
3806.0,0.0005545551194609418
3805.0,0.0005516469478990416
3804.0,0.0005364782898570346
3803.0,0.0005331393106559554
3802.0,0.000547546041241424
3801.0,0.0005582316809963986
3800.0,0.0005535851122777497
3799.0,0.0005433979087464036
3798.0,0.0005414387414894282
3797.0,0.0005486915835743826
3796.0,0.000554766911698309
3795.0,0.0005530315977471687
3794.0,0.0005461459311181113
3793.0,0.0005387414140231622
3792.0,0.0005319254823575922
3791.0,0.000526426157691456
3790.0,0.0005240715879007635
3789.0,0.0005241042465522531
3788.0,0.0005226365170730972
3787.0,0.0005183630465097067
3786.0,0.000515124455893228
3785.0,0.0005162735595278813
3784.0,0.0005182729846382379
3783.0,0.0005158381228106274
3782.0,0.0005108294045672629
3781.0,0.0005132334720897463
3780.0,0.000529422758008752
3779.0,0.0005518688084604091
3778.0,0.0005663125980340813
3777.0,0.0005648603927314382
3776.0,0.0005499754170228016
3775.0,0.0005288580525725528
3774.0,0.0005081378209505721
3773.0,0.000495211647846655
3772.0,0.0004995709261421738
3771.0,0.0005209381748847994
3770.0,0.000540085896944455
3769.0,0.0005373295747451731
3768.0,0.0005168672104364485
3767.0,0.0005021179022348544
3766.0,0.0005098536074329243
3765.0,0.000531749504188418
3764.0,0.000544550621349613
3763.0,0.0005366622711896626
3762.0,0.0005182924763728564
3761.0,0.0005078295500601084
3760.0,0.0005123375966190145
3759.0,0.0005255703450469586
3758.0,0.0005392543561249532
3757.0,0.0005481758400881314
3756.0,0.0005514295892140569
3755.0,0.0005542910292887886
3754.0,0.0005677753903773329
3753.0,0.0006006649369003022
3752.0,0.0006467486465894373
3751.0,0.0006860709753800805
3750.0,0.0007069745836392541
3749.0,0.0007130234870811381
3748.0,0.0007097003787063011
3747.0,0.0007041316768353861
3746.0,0.0007117988289120259
3745.0,0.0007224677975832421
3744.0,0.0007013288327255003
3743.0,0.0006517043702811386
3742.0,0.0006081744113673807
3741.0,0.0005894517819454586
3740.0,0.0005828323227061814
3739.0,0.0005606673323739634
3738.0,0.000515935930641438
3737.0,0.0004729120135587221
3736.0,0.00046131669271533976
3735.0,0.0004891663190816102
3734.0,0.0005432730060335312
3733.0,0.0006017976625968357
3732.0,0.0006422166096375168
3731.0,0.0006525541520497173
3730.0,0.000637263021406106
3729.0,0.0006107557469842216
3728.0,0.0005869991498425198
3727.0,0.0005688021531710238
3726.0,0.00055130742353572
3725.0,0.0005372287747593841
3724.0,0.0005371185566408402
3723.0,0.0005542035142351927
3722.0,0.0005763642669955355
3721.0,0.0005875332317435997
3720.0,0.0005827717901990053
3719.0,0.000572381957435615
3718.0,0.0005712552242225391
3717.0,0.0005833545972044063
3716.0,0.0006007596439835724
3715.0,0.0006159029899905166
3714.0,0.000629666142806454
3713.0,0.0006497920459752422
3712.0,0.00067883061191621
3711.0,0.0007080500805362773
3710.0,0.0007257674211239549
3709.0,0.0007256780213189715
3708.0,0.0007102623605920624
3707.0,0.0006866918311886523
3706.0,0.0006620491824084705
3705.0,0.0006418919269488962
3704.0,0.0006312165653417625
3703.0,0.0006330803410438165
3702.0,0.0006431493412899485
3701.0,0.0006508664092518526
3700.0,0.0006483831395153572
3699.0,0.0006380616704061706
3698.0,0.0006308421584064693
3697.0,0.0006347347699320932
3696.0,0.0006467068438105218
3695.0,0.000659472128420187
3694.0,0.0006698499540329853
3693.0,0.00067988205083182
3692.0,0.0006956196404194377
3691.0,0.0007249422500804153
3690.0,0.0007662700147621311
3689.0,0.0008003051010997814
3688.0,0.0008107108333004602
3687.0,0.0008019422657200923
3686.0,0.0007901451004478706
3685.0,0.0007886082359605563
3684.0,0.0007984321083660268
3683.0,0.0008091488132027827
3682.0,0.0008128181307921799
3681.0,0.0008127436450755682
3680.0,0.0008155181441540918
3679.0,0.0008221201715281059
3678.0,0.0008350009382080779
3677.0,0.0008669168551177198
3676.0,0.0009103575165570414
3675.0,0.0009384693803013767
3674.0,0.0009515335180666086
3673.0,0.0009677600856038511
3672.0,0.0009998593990467586
3671.0,0.0010423241754560866
3670.0,0.0010663186901065061
3669.0,0.0010603476324307296
3668.0,0.001048002910354115
3667.0,0.001050476010951815
3666.0,0.001068113524167797
3665.0,0.0010882338635191016
3664.0,0.0010979439185451858
3663.0,0.0010963512484147985
3662.0,0.00109580285120204
3661.0,0.001107554125687652
3660.0,0.0011310450704741088
3659.0,0.0011591293730459958
3658.0,0.001190406194778075
3657.0,0.0012274951335837024
3656.0,0.0012657774951218362
3655.0,0.0012980821811061469
3654.0,0.0013209708153177021
3653.0,0.0013327500961457768
3652.0,0.0013313180072794025
3651.0,0.0013162490312442691
3650.0,0.001298597986312247
3649.0,0.0013013286530263557
3648.0,0.0013358774171681694
3647.0,0.0013904245706909744
3646.0,0.0014512880295664689
3645.0,0.0015144550975835776
3644.0,0.0015760103302685483
3643.0,0.0016257144868280782
3642.0,0.0016544542290380178
3641.0,0.0016652118780083
3640.0,0.001671844572100365
3639.0,0.001686002042508317
3638.0,0.0017091988200083775
3637.0,0.0017381829253491458
3636.0,0.0017727153327178813
3635.0,0.001815693517146741
3634.0,0.001867878307100944
3633.0,0.0019265490629874504
3632.0,0.0019855806741992353
3631.0,0.002036691834983125
3630.0,0.002067062462345672
3629.0,0.0020624524797632233
3628.0,0.002043558038859038
3627.0,0.002049736820485915
3626.0,0.0020875640683583403
3625.0,0.0021396189484997295
3624.0,0.0021890765373949687
3623.0,0.0022325366354379013
3622.0,0.0022786045148847685
3621.0,0.0023313341940731204
3620.0,0.0023744663750439126
3619.0,0.0023864891802794232
3618.0,0.0023762441002680994
3617.0,0.0023764029185963584
3616.0,0.0024091742438122473
3615.0,0.0024725602376261657
3614.0,0.002545722555762811
3613.0,0.002606351636370674
3612.0,0.0026472070055879628
3611.0,0.0026745026174418056
3610.0,0.0026947205123520022
3609.0,0.002709796516292375
3608.0,0.002721382971859522
3607.0,0.002735686584413978
3606.0,0.002759661280239425
3605.0,0.0027944717158440604
3604.0,0.002837344846654006
3603.0,0.0028850722054720632
3602.0,0.002934392032884846
3601.0,0.0029812069649479862
3600.0,0.0030228858071463726
3599.0,0.0030623504518983774
3598.0,0.0031049458362203456
3597.0,0.003149872528901257
3596.0,0.0031887483227715624
3595.0,0.0032141521541494238
3594.0,0.003229143604212932
3593.0,0.003248773453600057
3592.0,0.003286629816549873
3591.0,0.0033416746125640396
3590.0,0.003399162378522941
3589.0,0.0034387450643464084
3588.0,0.00344734976486137
3587.0,0.003435656614680668
3586.0,0.0034307575435751888
3585.0,0.0034472745576349783
3584.0,0.003481222320155103
3583.0,0.003524389052256309
3582.0,0.0035722212713522085
3581.0,0.0036212079011059325
3580.0,0.0036664570594775294
3579.0,0.003705951853031671
3578.0,0.003743017737472121
3577.0,0.0037803792629657156
3576.0,0.0038136745524788695
3575.0,0.00383762749932977
3574.0,0.0038583730391728117
3573.0,0.0038936400552786266
3572.0,0.0039558473569752586
3571.0,0.004035962307529918
3570.0,0.004106617718357018
3569.0,0.004139276856029019
3568.0,0.004123318351390585
3567.0,0.004080448412332717
3566.0,0.004053337119549325
3565.0,0.0040682349329958
3564.0,0.004119908104809618
3563.0,0.004188833126647761
3562.0,0.004257980930498393
3561.0,0.004317981837571904
3560.0,0.004367277710915584
3559.0,0.004411360633346261
3558.0,0.004458381267734382
3557.0,0.004511518973404575
3556.0,0.004564565674536005
3555.0,0.004606559730997695
3554.0,0.004631836470801394
3553.0,0.004645839198519898
3552.0,0.004661891576034495
3551.0,0.004691242297906402
3550.0,0.004735586647426485
3549.0,0.004787264944020713
3548.0,0.004834315899155634
3547.0,0.004868449140322142
3546.0,0.004891637565397134
3545.0,0.004913598292366091
3544.0,0.004941622949949644
3543.0,0.004975198400183367
3542.0,0.005011132601515027
3541.0,0.005049871812601591
3540.0,0.005094952289799823
3539.0,0.005147077794702453
3538.0,0.005199413339789887
3537.0,0.005239918766501954
3536.0,0.005262203712968595
3535.0,0.005273527828039702
3534.0,0.005288696183313201
3533.0,0.005317020706613191
3532.0,0.005356058130418853
3531.0,0.0053970220193813295
3530.0,0.005433439729219991
3529.0,0.005464353401275884
3528.0,0.005492693958208681
3527.0,0.005522630274641091
3526.0,0.0055559243901708785
3525.0,0.0055881956024580876
3524.0,0.005611934410839356
3523.0,0.005627294866393161
3522.0,0.005646921606460802
3521.0,0.005685266640786615
3520.0,0.005744650768972684
3519.0,0.005813683370605964
3518.0,0.005877490937172652
3517.0,0.005927449448987345
3516.0,0.005963649941451201
3515.0,0.005992557770444319
3514.0,0.006022110310319255
3513.0,0.006055855189432602
3512.0,0.0060892815792136816
3511.0,0.006113856545716872
3510.0,0.006127564237491921
3509.0,0.0061402260580209755
3508.0,0.006165867894979046
3507.0,0.006209447300937644
3506.0,0.006261210470446691
3505.0,0.006303043420242673
3504.0,0.006321903306951318
3503.0,0.0063222054970375465
3502.0,0.006324386252684792
3501.0,0.006346855160315291
3500.0,0.006391606383258294
3499.0,0.0064476584135230814
3498.0,0.006502583796130372
3497.0,0.006549204446337111
3496.0,0.00658588769988104
3495.0,0.006616428598879477
3494.0,0.00665027761090454
3493.0,0.006697327634658252
3492.0,0.006758591331773414
3491.0,0.006822685515369945
3490.0,0.006873219980652109
3489.0,0.006900803454045362
3488.0,0.006909837441832746
3487.0,0.006914968517418148
3486.0,0.006930074143296579
3485.0,0.00695855841863245
3484.0,0.006992407489389296
3483.0,0.007021294990756508
3482.0,0.00704381006780451
3481.0,0.007068957790907759
3480.0,0.007106326540636878
3479.0,0.007156253498845022
3478.0,0.007209823023398269
3477.0,0.007256888905453325
3476.0,0.007293428742567661
3475.0,0.007322857062593207
3474.0,0.0073519906029799725
3473.0,0.007385724309630082
3472.0,0.007425051124546061
3471.0,0.007468453743501394
3470.0,0.007512719647426707
3469.0,0.007552676799797271
3468.0,0.007583989884215289
3467.0,0.0076091039071028675
3466.0,0.0076384463849481395
3465.0,0.007681647183523783
3464.0,0.007736531816399361
3463.0,0.0077888910419270235
3462.0,0.00782513272113034
3461.0,0.00784473858045056
3460.0,0.007859923203330618
3459.0,0.007885057774761768
3458.0,0.00792717919011914
3457.0,0.007983809355404346
3456.0,0.008046354536267293
3455.0,0.00810484926940206
3454.0,0.00815235036684872
3453.0,0.008188577920324925
3452.0,0.008220179248990933
3451.0,0.008255376224037976
3450.0,0.008295726681433246
3449.0,0.008333117577057007
3448.0,0.008357480948378248
3447.0,0.008369826222386073
3446.0,0.00838445450888702
3445.0,0.0084143710582453
3444.0,0.008458493156952742
3443.0,0.00850615299539655
3442.0,0.00854983676759899
3441.0,0.00858939444893698
3440.0,0.008625815218126194
3439.0,0.00865759017825485
3438.0,0.008685609665721863
3437.0,0.008715867534974893
3436.0,0.008752677054612763
3435.0,0.008791475015596364
3434.0,0.008822149570537672
3433.0,0.00883926078851103
3432.0,0.008846999364349378
3431.0,0.008855566368720452
3430.0,0.008874403204869458
3429.0,0.008907430922323996
3428.0,0.008952459786953745
3427.0,0.009004558056962313
3426.0,0.009060065707349815
3425.0,0.009116738548911282
3424.0,0.009170651771943431
3423.0,0.009215118976746844
3422.0,0.009244609221967005
3421.0,0.009260125816977861
3420.0,0.00926972620759242
3419.0,0.009282831660416886
3418.0,0.009303505073254437
3417.0,0.00932876554576593
3416.0,0.009353343212813236
3415.0,0.009375868244807692
3414.0,0.009399118011153906
3413.0,0.00942423350558538
3412.0,0.009448212889865314
3411.0,0.00946962076471224
3410.0,0.009493943817206448
3409.0,0.009528759566137407
3408.0,0.009573893201543672
3407.0,0.0096202776055187
3406.0,0.009658721947056007
3405.0,0.00968605974247673
3404.0,0.009703120244458978
3403.0,0.009712179281940073
3402.0,0.009718822044322178
3401.0,0.009731811240550664
3400.0,0.009756055716462098
3399.0,0.009786878658065061
3398.0,0.0098148541233555
3397.0,0.009836087588752854
3396.0,0.009854905983049354
3395.0,0.009876317118393384
3394.0,0.009899395060361041
3393.0,0.0099205562884959
3392.0,0.009941132978132788
3391.0,0.009967300944165003
3390.0,0.010001500680207439
3389.0,0.010037099025439932
3388.0,0.010064182641605681
3387.0,0.01007970956575713
3386.0,0.010089496076424091
3385.0,0.010100365885691742
3384.0,0.010114036634045758
3383.0,0.010129909423823948
3382.0,0.010148872426075359
3381.0,0.010170129434093943
3380.0,0.010187120394310013
3379.0,0.010192451603998192
3378.0,0.010187595978728337
3377.0,0.010183716713084006
3376.0,0.010191329142994384
3375.0,0.010211655816868495
3374.0,0.010238771144646506
3373.0,0.010266735099386647
3372.0,0.010292942721379022
3371.0,0.0103174695059582
3370.0,0.010341824921795114
3369.0,0.0103668400116936
3368.0,0.010389659381700986
3367.0,0.010404121576977258
3366.0,0.01040628077415802
3365.0,0.010398359925346488
3364.0,0.010385358999363265
3363.0,0.010369783140580789
3362.0,0.010353020508916526
3361.0,0.010340874191557988
3360.0,0.010342652567987675
3359.0,0.010361741650755311
3358.0,0.010388910438631188
3357.0,0.010408197762369684
3356.0,0.010410535633561134
3355.0,0.010401291855090042
3354.0,0.010394613141437208
3353.0,0.010400842650130781
3352.0,0.010418634750707288
3351.0,0.010437546952846034
3350.0,0.010447555850835592
3349.0,0.010446754812128402
3348.0,0.01044136741035377
3347.0,0.010439492550914472
3346.0,0.010444831879147909
3345.0,0.010455120032795015
3344.0,0.010465038886141767
3343.0,0.0104702689902724
3342.0,0.010469635964475626
3341.0,0.010464888169578718
3340.0,0.010459212626052357
3339.0,0.010455399282214214
3338.0,0.01045416634257059
3337.0,0.010453692451492845
3336.0,0.010451487258233482
3335.0,0.01044732741816172
3334.0,0.0104437773599353
3333.0,0.010443239367044305
3332.0,0.010445188623997056
3331.0,0.010446915966867526
3330.0,0.010445881148673782
3329.0,0.010440164428733141
3328.0,0.010428067627135856
3327.0,0.010409836100726776
3326.0,0.010389344055210156
3325.0,0.010370922451630703
3324.0,0.010353978543380049
3323.0,0.010334314923711625
3322.0,0.010312573134768275
3321.0,0.01029776940824577
3320.0,0.010298315986860044
3319.0,0.010310761313003453
3318.0,0.010321232151227013
3317.0,0.010317812624076255
3316.0,0.01029854329877232
3315.0,0.010268544040784824
3314.0,0.010234735946435102
3313.0,0.010204694391166235
3312.0,0.010185019201202582
3311.0,0.010175900404218077
3310.0,0.01016946457133635
3309.0,0.010158195733273463
3308.0,0.010144448892459792
3307.0,0.010137364448778307
3306.0,0.010140129918847388
3305.0,0.010144729570603752
3304.0,0.0101411907086037
3303.0,0.01012871656367409
3302.0,0.010114768573912152
3301.0,0.010104870067252117
3300.0,0.010096568121304585
3299.0,0.010083435757472092
3298.0,0.010062758959333075
3297.0,0.01003865926792278
3296.0,0.010018597296159186
3295.0,0.010006832863463256
3294.0,0.01000022777065094
3293.0,0.009990412071222936
3292.0,0.009971442445603345
3291.0,0.009946069503996253
3290.0,0.009923968615770115
3289.0,0.009913559796076587
3288.0,0.009915794930266899
3287.0,0.009925156618632627
3286.0,0.009934771420151828
3285.0,0.009939698307203048
3284.0,0.009937012345269816
3283.0,0.009925435452620467
3282.0,0.009905974778759642
3281.0,0.009881984256072398
3280.0,0.009857320688513384
3279.0,0.00983406232544968
3278.0,0.00981249092207129
3277.0,0.009793374350637762
3276.0,0.009779104416389855
3275.0,0.009771245824145782
3274.0,0.009767353414877163
3273.0,0.009762276756001907
3272.0,0.009753541794954622
3271.0,0.009743848456750278
3270.0,0.009736881302474354
3269.0,0.009732176777574899
3268.0,0.009726423354070176
3267.0,0.009718943696828245
3266.0,0.009712367889408916
3265.0,0.009707023424856364
3264.0,0.009698203165282455
3263.0,0.009681876622043895
3262.0,0.009661354680903664
3261.0,0.009645096049786774
3260.0,0.00963800680252077
3259.0,0.00963695015758169
3258.0,0.009634759031529825
3257.0,0.00962638448737375
3256.0,0.009610849667886442
3255.0,0.009590011970487618
3254.0,0.009567202493701
3253.0,0.009545583636793921
3252.0,0.009526176571234867
3251.0,0.009508290133913102
3250.0,0.009492593548155697
3249.0,0.009482080499263227
3248.0,0.009478172160620925
3247.0,0.009477054624000317
3246.0,0.009472325984590857
3245.0,0.009461121081285103
3244.0,0.009445560567548568
3243.0,0.009428297140974908
3242.0,0.009409482431040443
3241.0,0.009389011397372403
3240.0,0.009368849953651769
3239.0,0.009350922714438631
3238.0,0.00933438545846847
3237.0,0.009317303020217315
3236.0,0.009300296854315267
3235.0,0.009286475943267904
3234.0,0.009277773535103288
3233.0,0.009272511235327945
3232.0,0.009266185924098547
3231.0,0.009253906341573784
3230.0,0.0092334064889562
3229.0,0.009207628149153536
3228.0,0.009183490678553783
3227.0,0.009165654507965408
3226.0,0.00915145394219513
3225.0,0.009133865110561046
3224.0,0.009109228404360818
3223.0,0.009079590563464907
3222.0,0.0090473409984492
3221.0,0.009011185508542359
3220.0,0.008969961333534783
3219.0,0.008928387378501613
3218.0,0.008895500644591856
3217.0,0.00887646766072635
3216.0,0.00886657314578429
3215.0,0.00885319597183526
3214.0,0.00882448344546019
3213.0,0.008778571988003725
3212.0,0.008726050278991499
3211.0,0.008682898625473607
3210.0,0.008659203410823447
3209.0,0.00865326675716988
3208.0,0.008655533661755765
3207.0,0.008656660431057055
3206.0,0.008651279658066622
3205.0,0.008636556567286484
3204.0,0.008611019449606792
3203.0,0.008576078960994575
3202.0,0.008536710697412202
3201.0,0.008498287090648808
3200.0,0.008462150508041352
3199.0,0.008425041254433732
3198.0,0.00838369320944728
3197.0,0.008339792311250519
3196.0,0.008299299897217855
3195.0,0.008266614425434506
3194.0,0.008240657214267188
3193.0,0.008217316083995296
3192.0,0.008194044935747189
3191.0,0.008170242833010549
3190.0,0.008144178918908522
3189.0,0.008112762522394243
3188.0,0.008075424763682157
3187.0,0.00803601090378111
3186.0,0.007999186898812245
3185.0,0.007966109218880774
3184.0,0.007934661067590613
3183.0,0.007902511556922936
3182.0,0.007868673420960202
3181.0,0.007833202930225875
3180.0,0.007796930260823813
3179.0,0.007761091217301836
3178.0,0.007726376940636104
3177.0,0.007692910394374102
3176.0,0.007661392619483388
3175.0,0.0076328268632899765
3174.0,0.007606485136336983
3173.0,0.007580250966359574
3172.0,0.007554580258377163
3171.0,0.007533779837044098
3170.0,0.007519887512665392
3169.0,0.007505923656266291
3168.0,0.00747905294200267
3167.0,0.007432120520819459
3166.0,0.007370730273564427
3165.0,0.007308608853147145
3164.0,0.007257331767352903
3163.0,0.00722003869006139
3162.0,0.007192307624325547
3161.0,0.007167086035106838
3160.0,0.007139300769526632
3159.0,0.0071074212034144355
3158.0,0.007071986462118715
3157.0,0.007034108494147171
3156.0,0.006996171843933078
3155.0,0.006962184348577043
3154.0,0.006934565443803847
3153.0,0.006910455664663256
3152.0,0.006883383111204385
3151.0,0.006849289924566736
3150.0,0.006809696577431557
3149.0,0.00676899660104312
3148.0,0.0067308092445808616
3147.0,0.006697188126632043
3146.0,0.006668394408534506
3145.0,0.006642127294849505
3144.0,0.00661539963633175
3143.0,0.006588247410290367
3142.0,0.0065627844401716755
3141.0,0.006537281193489295
3140.0,0.006504856501425635
3139.0,0.0064616366829407966
3138.0,0.006413921088453939
3137.0,0.006372781378951167
3136.0,0.006342513363788559
3135.0,0.006318096250404619
3134.0,0.006292925768706325
3133.0,0.006264945624589653
3132.0,0.006234893841613061
3131.0,0.006202772208412886
3130.0,0.006168443827601121
3129.0,0.00613318296543327
3128.0,0.006098567649242605
3127.0,0.006065525863156023
3126.0,0.006035203447658298
3125.0,0.006008278647569743
3124.0,0.0059822977453070445
3123.0,0.005952241689252654
3122.0,0.00591566395361612
3121.0,0.005875121047667229
3120.0,0.005834193242616097
3119.0,0.005794274032008865
3118.0,0.005757072836178046
3117.0,0.005726420385359526
3116.0,0.005703633047514325
3115.0,0.0056831876952133376
3114.0,0.005657832179440113
3113.0,0.005627523875187232
3112.0,0.0055983713671707
3111.0,0.0055728346881346235
3110.0,0.005546080559689978
3109.0,0.005513664191468543
3108.0,0.005479133129028803
3107.0,0.005450554640613631
3106.0,0.005431149425830287
3105.0,0.005416152604752806
3104.0,0.005397717102811592
3103.0,0.005370972382387649
3102.0,0.005336165614484852
3101.0,0.0052972137465837725
3100.0,0.005259062378298103
3099.0,0.005225093135854852
3098.0,0.005195582480323531
3097.0,0.005168083714384747
3096.0,0.00513951980081442
3095.0,0.005108810015961624
3094.0,0.005077953949944605
3093.0,0.005050107803173529
3092.0,0.005026172780871577
3091.0,0.0050036279333161085
3090.0,0.004979017120824572
3089.0,0.004950938955513108
3088.0,0.004920168316658216
3087.0,0.004888198546809251
3086.0,0.004857438632404999
3085.0,0.004831857985980259
3084.0,0.004814745096979941
3083.0,0.004805093538423531
3082.0,0.004797412737207302
3081.0,0.0047858539919769984
3080.0,0.004767737418965824
3079.0,0.004743314258709348
3078.0,0.00471445981987582
3077.0,0.004684474044056754
3076.0,0.004657218513906857
3075.0,0.004634239233985831
3074.0,0.004613032027217372
3073.0,0.0045895451045534705
3072.0,0.004562130410677196
3071.0,0.004532551444922535
3070.0,0.004503736980861639
3069.0,0.004477464227188909
3068.0,0.004453761007714896
3067.0,0.0044309960022337015
3066.0,0.004406303554056355
3065.0,0.004377108341593678
3064.0,0.004343497207876281
3063.0,0.004309586620608543
3062.0,0.004282128064826549
3061.0,0.004266616976308955
3060.0,0.004263260002326969
3059.0,0.00426558934454093
3058.0,0.0042634966095804385
3057.0,0.004248961276334717
3056.0,0.004220125392777218
3055.0,0.004181249122743873
3054.0,0.004139381499258354
3053.0,0.004100950830999062
3052.0,0.004069942362002662
3051.0,0.004046963398130499
3050.0,0.004029048948165378
3049.0,0.004010860529125265
3048.0,0.003987839577723401
3047.0,0.0039598099802341255
3046.0,0.003931595651254621
3045.0,0.003909182986873014
3044.0,0.0038938674911339066
3043.0,0.003880150536827845
3042.0,0.0038601512249055977
3041.0,0.0038303885376723664
3040.0,0.0037947879918688275
3039.0,0.0037612765719161594
3038.0,0.003735535963055898
3037.0,0.0037170504570720837
3036.0,0.0037000194397383366
3035.0,0.0036788446998428388
3034.0,0.0036540366608822554
3033.0,0.003631892467028045
3032.0,0.0036169586752105125
3031.0,0.0036051724029229964
3030.0,0.003587457143020412
3029.0,0.0035610817330132332
3028.0,0.00353371549412166
3027.0,0.0035146492160194904
3026.0,0.0035040071629232664
3025.0,0.003494003495532406
3024.0,0.0034794533630228947
3023.0,0.003462520537774759
3022.0,0.0034468555028186283
3021.0,0.003431006536761418
3020.0,0.0034108440801242784
3019.0,0.003386080554128409
3018.0,0.0033613011453773535
3017.0,0.0033410662704748515
3016.0,0.0033261971791484417
3015.0,0.003314552308342634
3014.0,0.003302654505068971
3013.0,0.0032864367553557283
3012.0,0.003263582635712691
3011.0,0.003237224013273161
3010.0,0.003215812523340329
3009.0,0.0032063347444671385
3008.0,0.0032066854693325593
3007.0,0.003206163217184388
3006.0,0.0031942710615199383
3005.0,0.003169814691362234
3004.0,0.003141324142606754
3003.0,0.003118818193812638
3002.0,0.003105788452829498
3001.0,0.0030984031612161854
3000.0,0.0030914935504174016
2999.0,0.003083350598343183
2998.0,0.0030747413206985708
2997.0,0.003065220498866355
2996.0,0.0030526371861824813
2995.0,0.003036489717984211
2994.0,0.0030198292365005803
2993.0,0.0030069124676148917
2992.0,0.0029995309016636446
2991.0,0.002996212481995998
2990.0,0.002993664258501161
2989.0,0.00298844163642039
2988.0,0.0029787123254486803
2987.0,0.002966272187363206
2986.0,0.002956427164961148
2985.0,0.0029537919944764117
2984.0,0.002958016281243732
2983.0,0.002964401938301814
2982.0,0.0029686078794255912
2981.0,0.0029695529822270045
2980.0,0.0029679494877085967
2979.0,0.002964698526385857
2978.0,0.002962040351705047
2977.0,0.0029646134460667873
2976.0,0.00297683530251733
2975.0,0.002998419429013759
2974.0,0.0030236409566167352
2973.0,0.003045452209140567
2972.0,0.003060639372883232
2971.0,0.00307142004946583
2970.0,0.0030824418992342166
2969.0,0.003096196809212453
2968.0,0.0031107918173244875
2967.0,0.003122520826029726
2966.0,0.00313059890513264
2965.0,0.0031389031922833635
2964.0,0.003152585551068651
2963.0,0.003173439321962334
2962.0,0.0031984517165379142
2961.0,0.0032216025958416343
2960.0,0.00323646676249155
2959.0,0.0032389566989432053
2958.0,0.0032303073434568853
2957.0,0.003216883047017297
2956.0,0.0032045808910280446
2955.0,0.0031927986345151437
2954.0,0.0031761031292248873
2953.0,0.003152719124704904
2952.0,0.0031282490354161458
2951.0,0.003108923446227915
2950.0,0.0030935676740443453
2949.0,0.0030763486831235152
2948.0,0.003056990852890211
2947.0,0.0030436357734337735
2946.0,0.003044026796302934
2945.0,0.00305685454304322
2944.0,0.00307505959331212
2943.0,0.0030952618045624334
2942.0,0.0031203519299672277
2941.0,0.0031533456049934517
2940.0,0.0031928950690628703
2939.0,0.0032360479667956654
2938.0,0.0032821698105058536
2937.0,0.0033322522817821523
2936.0,0.003386660408831892
2935.0,0.003445944448771377
2934.0,0.0035115227697011236
2933.0,0.003582967737654397
2932.0,0.003656049111975297
2931.0,0.0037265818228143788
2930.0,0.003795287991832424
2929.0,0.0038654872930986373
2928.0,0.0039366990839075945
2927.0,0.004004943776290572
2926.0,0.004070973708493465
2925.0,0.004143552339443033
2924.0,0.004230229539228315
2923.0,0.0043253636457508205
2922.0,0.004410703418226629
2921.0,0.004468665110490976
2920.0,0.004493242478229093
2919.0,0.004487383312131538
2918.0,0.004451849443340744
2917.0,0.004379717262088233
2916.0,0.004263382748586309
2915.0,0.004106130877751966
2914.0,0.003924386735422702
2913.0,0.0037383887271342873
2912.0,0.0035613770603534194
2911.0,0.003398870967512135
2910.0,0.003255435663575068
2909.0,0.0031373787964454067
2908.0,0.003047277027663543
2907.0,0.002978499186362064
2906.0,0.00291851577705985
2905.0,0.0028575779751686637
2904.0,0.002794626380123076
2903.0,0.0027351727772055483
2902.0,0.002684942925963956
2901.0,0.002644413417863079
2900.0,0.002607574278900761
2899.0,0.0025664451557404467
2898.0,0.0025172159685158233
2897.0,0.0024628856036766284
2896.0,0.0024107108551822453
2895.0,0.0023679275244346387
2894.0,0.0023384693649631458
2893.0,0.0023206821212522215
2892.0,0.0023074633160471134
2891.0,0.0022909641514133974
2890.0,0.002268789363345298
2889.0,0.00224425652410857
2888.0,0.0022201369381376493
2887.0,0.0021947461938340326
2886.0,0.0021657120430182224
2885.0,0.0021351665177867917
2884.0,0.0021082174249015518
2883.0,0.002087701416014757
2882.0,0.0020732496606494792
2881.0,0.0020643411678509527
2880.0,0.002061242937453921
2879.0,0.0020629151144447785
2878.0,0.002066701886649484
2877.0,0.002070608247341126
2876.0,0.0020738899685240134
2875.0,0.002075447890423049
2874.0,0.0020739390799679657
2873.0,0.0020698256324264267
2872.0,0.0020649786724310296
2871.0,0.0020596813795043197
2870.0,0.0020520978735536818
2869.0,0.0020419392127315437
2868.0,0.002033246710615911
2867.0,0.0020321582610723613
2866.0,0.0020426912273483542
2865.0,0.002064308558082119
2864.0,0.00209217829376138
2863.0,0.002120277752973613
2862.0,0.0021469893444563625
2861.0,0.0021787163525004644
2860.0,0.0022250459413169373
2859.0,0.0022891704641362135
2858.0,0.002365465114639224
2857.0,0.002447923720301128
2856.0,0.0025382371300621907
2855.0,0.002641325511750816
2854.0,0.002754029482047961
2853.0,0.002859820217170321
2852.0,0.00293328335984982
2851.0,0.0029490705805562036
2850.0,0.0028904190706570566
2849.0,0.0027586473560047937
2848.0,0.0025772994500633125
2847.0,0.002383715414407465
2846.0,0.002209526533518273
2845.0,0.002066645945409213
2844.0,0.001949307925633078
2843.0,0.0018468485837791941
2842.0,0.0017553441053291567
2841.0,0.0016784774735583586
2840.0,0.0016202289220060206
2839.0,0.0015777825804307605
2838.0,0.0015416766324465746
2837.0,0.0015035273898535433
2836.0,0.0014629825063706306
2835.0,0.001426306693641329
2834.0,0.0013980496267261872
2833.0,0.0013754746389801553
2832.0,0.001352700090084924
2831.0,0.0013285707404610254
2830.0,0.001307427227397582
2829.0,0.0012920521440759653
2828.0,0.0012789557977726078
2827.0,0.0012627026159082273
2826.0,0.001243197868518619
2825.0,0.001225828896692149
2824.0,0.0012150152292283898
2823.0,0.0012103290103960295
2822.0,0.0012084207806296963
2821.0,0.0012059849782431519
2820.0,0.0012003850143075321
2819.0,0.001190383803002329
2818.0,0.0011782299786985626
2817.0,0.0011687892673372421
2816.0,0.0011642921282049245
2815.0,0.001161080259746707
2814.0,0.001153556643094674
2813.0,0.0011403809660999228
2812.0,0.001124352821771281
2811.0,0.00110735726710372
2810.0,0.0010891818831742532
2809.0,0.001071577071488474
2808.0,0.0010598284329758124
2807.0,0.0010578322851451803
2806.0,0.001063467283090179
2805.0,0.0010708171739510655
2804.0,0.0010752598238702256
2803.0,0.0010746205291338282
2802.0,0.0010668453949303546
2801.0,0.0010503853511634367
2800.0,0.0010276635624814749
2799.0,0.0010052494841078744
2798.0,0.000988852247552791
2797.0,0.000978782707286954
2796.0,0.0009717139247144002
2795.0,0.0009658190247618505
2794.0,0.000962210698195846
2793.0,0.0009617013618418086
2792.0,0.0009623505367590192
2791.0,0.0009615012622185936
2790.0,0.0009592047352054568
2789.0,0.0009581748068353832
2788.0,0.0009604306214947489
2787.0,0.0009647517857938547
2786.0,0.0009675676233128038
2785.0,0.0009656454383627526
2784.0,0.000957631282627258
2783.0,0.000944295382120385
2782.0,0.0009284751549616514
2781.0,0.0009143379222373604
2780.0,0.0009054174661224602
2779.0,0.0009023483342103318
2778.0,0.0009025022062404584
2777.0,0.0009022265737932027
2776.0,0.0008992959356584689
2775.0,0.0008934449786573255
2774.0,0.000885378405268822
2773.0,0.0008761235962590232
2772.0,0.0008674662705624794
2771.0,0.0008619571863012238
2770.0,0.0008611618187847564
2769.0,0.0008636590043859921
2768.0,0.0008654307417128226
2767.0,0.0008628226671974037
2766.0,0.0008551807623191974
2765.0,0.0008445570615904059
2764.0,0.0008335764074901913
2763.0,0.0008245442859483242
2762.0,0.0008199048677228304
2761.0,0.0008216309732206304
2760.0,0.0008291063244357526
2759.0,0.0008382108233786168
2758.0,0.0008435918332669169
2757.0,0.0008422195832043754
2756.0,0.0008346499491718392
2755.0,0.0008237909968430049
2754.0,0.0008132179286195328
2753.0,0.0008058402588121292
2752.0,0.0008026524102958382
2751.0,0.0008022472324127946
2750.0,0.0008020960457653346
2749.0,0.0008005715950356377
2748.0,0.0007973705549485276
2747.0,0.0007924732485058948
2746.0,0.0007860932712523377
2745.0,0.0007799001352460518
2744.0,0.0007765111824735405
2743.0,0.0007762696885585216
2742.0,0.0007754306056149375
2741.0,0.0007692724698403484
2740.0,0.0007569633605498385
2739.0,0.0007421732905719778
2738.0,0.0007291466042932413
2737.0,0.0007195636127517548
2736.0,0.0007133563577378611
2735.0,0.0007105231937116895
2734.0,0.0007109641308722871
2733.0,0.0007140456929108723
2732.0,0.0007195885003865208
2731.0,0.0007278671536374499
2730.0,0.0007371329676898689
2729.0,0.000742995050533244
2728.0,0.0007429695246592483
2727.0,0.0007408103619021408
2726.0,0.0007427003798997566
2725.0,0.0007484877891260407
2724.0,0.0007503681152057633
2723.0,0.0007421187273293826
2722.0,0.0007268252422670731
2721.0,0.0007129015315193621
2720.0,0.0007044137804785705
2719.0,0.0006989747220736903
2718.0,0.0006938734916797835
2717.0,0.0006900636190912364
2716.0,0.0006893416643950856
2715.0,0.0006908336666534255
2714.0,0.0006921725872021668
2713.0,0.0006921284951570755
2712.0,0.0006903529627300717
2711.0,0.0006859956957639396
2710.0,0.0006786367228164364
2709.0,0.0006701387860411865
2708.0,0.0006638473118091147
2707.0,0.0006615803371270632
2706.0,0.0006622770065931626
2705.0,0.0006635847321956135
2704.0,0.0006639714055291789
2703.0,0.0006630745515952835
2702.0,0.000660721327602748
2701.0,0.0006564596899449481
2700.0,0.0006501966397728625
2699.0,0.000642843694965383
2698.0,0.0006356757355132899
2697.0,0.0006291128473401963
2696.0,0.0006229564286395487
2695.0,0.0006180582194729731
2694.0,0.0006165589334206115
2693.0,0.0006193186365176263
2692.0,0.0006237549320721501
2691.0,0.0006255851863873576
2690.0,0.0006226737232091411
2689.0,0.0006162812565251785
2688.0,0.0006091411066994027
2687.0,0.0006036821541408063
2686.0,0.0006019748689501071
2685.0,0.0006054091043019575
2684.0,0.0006134491003105808
2683.0,0.0006233237595057728
2682.0,0.0006312692964529801
2681.0,0.0006337897546295396
2680.0,0.0006288669300943853
2679.0,0.0006180083388319529
2678.0,0.0006070314690920161
2677.0,0.0006025343597139938
2676.0,0.0006061780894312422
2675.0,0.0006137211672673504
2674.0,0.0006198751961457763
2673.0,0.0006225078352224307
2672.0,0.0006215989897624353
2671.0,0.0006168248091796671
2670.0,0.0006085504342958051
2669.0,0.0005997455909438578
2668.0,0.0005945105325057141
2667.0,0.000594965953595529
2666.0,0.0006010358060533007
2665.0,0.0006122456799706004
2664.0,0.0006276319242331344
2663.0,0.0006444577564423706
2662.0,0.0006594051347324832
2661.0,0.0006716425724210249
2660.0,0.0006829182843408264
2659.0,0.000694175137140202
2658.0,0.0007036817772499031
2657.0,0.0007093661404718955
2656.0,0.0007118681685467984
2655.0,0.0007141820060075789
2654.0,0.0007189801153108087
2653.0,0.0007268722513742293
2652.0,0.0007365051578642885
2651.0,0.0007454986801766216
2650.0,0.0007515851020578304
2649.0,0.0007536068769641853
2648.0,0.0007516647105128365
2647.0,0.0007465796304541825
2646.0,0.0007399522126846744
2645.0,0.0007344218841396055
2644.0,0.0007322008860007796
2643.0,0.0007324263334552498
2642.0,0.0007313298644509606
2641.0,0.0007267745425244401
2640.0,0.0007220691525685524
2639.0,0.0007231278125347065
2638.0,0.0007313784942432457
2637.0,0.0007414350501879956
2636.0,0.0007468960123036938
2635.0,0.0007470465114056712
2634.0,0.0007461063428791171
2633.0,0.0007470087671574388
2632.0,0.0007486627563051831
2631.0,0.0007492484516824284
2630.0,0.0007492008920068776
2629.0,0.0007493288477744842
2628.0,0.0007482553877655971
2627.0,0.0007442474336061527
2626.0,0.0007384020039090957
2625.0,0.0007334665298451386
2624.0,0.000729824666699476
2623.0,0.0007251817235599684
2622.0,0.0007184255995767182
2621.0,0.000711443679934309
2620.0,0.0007063528852978155
2619.0,0.0007028738636845251
2618.0,0.0006996650059448823
2617.0,0.000696933982458042
2616.0,0.0006965814548629639
2615.0,0.0007003588544456127
2614.0,0.0007081211874862065
2613.0,0.000716906585503872
2612.0,0.0007218676444837766
2611.0,0.0007198061376250277
2610.0,0.0007121773542382857
2609.0,0.0007034525936428135
2608.0,0.0006967009810328707
2607.0,0.0006928493636469356
2606.0,0.0006936372101377887
2605.0,0.0007010098204474127
2604.0,0.000711932595092176
2603.0,0.0007177669481231549
2602.0,0.0007122388303117525
2601.0,0.0006982187355147208
2600.0,0.0006837976773866924
2599.0,0.0006736680256590765
2598.0,0.0006675591115324837
2597.0,0.0006649267071082062
2596.0,0.0006662415049509372
2595.0,0.0006698682082209164
2594.0,0.0006721604633240656
2593.0,0.0006719642808065779
2592.0,0.0006720812247788327
2591.0,0.0006750873357275146
2590.0,0.0006801283463512105
2589.0,0.0006847777855268368
2588.0,0.0006875738854328601
2587.0,0.0006875813710067011
2586.0,0.0006840888062020387
2585.0,0.0006786309631254547
2584.0,0.0006755521806429326
2583.0,0.0006782798256574076
2582.0,0.0006852621956321091
2581.0,0.0006905407686692107
2580.0,0.0006879566704995133
2579.0,0.0006748005421936767
2578.0,0.0006534274483144056
2577.0,0.0006307931415612343
2576.0,0.0006148735507595966
2575.0,0.0006094546253103652
2574.0,0.0006123437083330461
2573.0,0.0006191063162896784
2572.0,0.0006276619069751999
2571.0,0.0006382985015102901
2570.0,0.0006503610069248716
2569.0,0.0006610872560975111
2568.0,0.0006678130883929678
2567.0,0.0006696993406185281
2566.0,0.0006668390629917593
2565.0,0.0006592958147394122
2564.0,0.0006485490121397164
2563.0,0.0006391650120674467
2562.0,0.0006368383337209634
2561.0,0.0006432558825712107
2560.0,0.0006532245096576561
2559.0,0.0006581960174208809
2558.0,0.0006532065915021211
2557.0,0.0006403288180977433
2556.0,0.0006259334707793211
2555.0,0.0006155632639724954
2554.0,0.0006113497860593022
2553.0,0.0006126646399308867
2552.0,0.0006176468283675127
2551.0,0.0006241980094493489
2550.0,0.0006302651369244526
2549.0,0.0006334494028718983
2548.0,0.0006311252227128699
2547.0,0.0006226621000647496
2546.0,0.0006119079463126566
2545.0,0.0006052389060971971
2544.0,0.0006051056527885784
2543.0,0.0006066683245176156
2542.0,0.0006032219171163405
2541.0,0.0005947097280543672
2540.0,0.0005885524091830805
2539.0,0.0005917641209042271
2538.0,0.0006042351584613286
2537.0,0.0006199725006301448
2536.0,0.0006325962875220866
2535.0,0.000638578570729407
2534.0,0.0006370044533296297
2533.0,0.0006284620194165682
2532.0,0.0006146249445261307
2531.0,0.0005986604730083371
2530.0,0.0005859890901077987
2529.0,0.0005831305316275068
2528.0,0.000592713032233797
2527.0,0.0006084737036193339
2526.0,0.000617810018997663
2525.0,0.0006124533282616925
2524.0,0.0005967410498327449
2523.0,0.0005837587699788901
2522.0,0.0005833248337456314
2521.0,0.0005944594380764744
2520.0,0.0006082422152246216
2519.0,0.0006157994425611674
2518.0,0.0006137729640013798
2517.0,0.0006048874743856596
2516.0,0.0005949468388106885
2515.0,0.000588049628841076
2514.0,0.0005831032672713267
2513.0,0.0005753380552072613
2512.0,0.0005622259743222369
2511.0,0.0005475457788672744
2510.0,0.0005386998724687926
2509.0,0.0005401775565473072
2508.0,0.0005502564097532123
2507.0,0.0005636013820188319
2506.0,0.0005757050737557448
2505.0,0.0005845092319925929
2504.0,0.0005892778588245492
2503.0,0.0005896796110423275
2502.0,0.0005864092592038532
2501.0,0.0005819215308364626
2500.0,0.0005794637184926531
2499.0,0.0005807672814762928
2498.0,0.0005848574137711103
2497.0,0.0005895379296848898
2496.0,0.0005936733904581152
2495.0,0.0005971128889609907
2494.0,0.0005986865335012968
2493.0,0.000596272904994078
2492.0,0.0005899769042622715
2491.0,0.0005836055689175167
2490.0,0.0005809595956908052
2489.0,0.0005813215990254825
2488.0,0.0005804703013125198
2487.0,0.0005756647562613938
2486.0,0.0005677278900604025
2485.0,0.00055898183654017
2484.0,0.0005519387099744268
2483.0,0.0005498085380920855
2482.0,0.0005545913363343093
2481.0,0.0005631859686248569
2480.0,0.0005684267278077252
2479.0,0.0005662116282465113
2478.0,0.0005595178219672515
2477.0,0.0005536043701595757
2476.0,0.0005498847388144918
2475.0,0.0005470946097833332
2474.0,0.000545814636643874
2473.0,0.0005479562791083879
2472.0,0.0005532782924439166
2471.0,0.000560402879973209
2470.0,0.0005703274018983794
2469.0,0.0005845134601843222
2468.0,0.0005994876273210472
2467.0,0.0006079570216680316
2466.0,0.0006068263458612307
2465.0,0.0006007155454691951
2464.0,0.0005958825484399739
2463.0,0.0005936820750907974
2462.0,0.0005920399632656227
2461.0,0.0005905108504711385
2460.0,0.0005907628922393917
2459.0,0.0005933932200153984
2458.0,0.0005972058753819994
2457.0,0.0006017112993571242
2456.0,0.0006085326050186133
2455.0,0.0006196055604937221
2454.0,0.0006341149846675414
2453.0,0.0006472052170004716
2452.0,0.0006525206381396647
2451.0,0.0006474969511723038
2450.0,0.000636067921382586
2449.0,0.0006247277259565303
2448.0,0.000616265358674778
2447.0,0.0006095142786310251
2446.0,0.0006048164157489103
2445.0,0.0006057432402082709
2444.0,0.0006134041910066253
2443.0,0.0006219511406033242
2442.0,0.0006228236251273967
2441.0,0.0006126329696110569
2440.0,0.0005952139050379901
2439.0,0.0005773351468999261
2438.0,0.0005646025812635889
2437.0,0.0005604277390998995
2436.0,0.0005658338400205187
2435.0,0.0005790584078428243
2434.0,0.0005961210287011296
2433.0,0.0006123734150057796
2432.0,0.0006240649504381123
2431.0,0.0006295254765766506
2430.0,0.0006292246841561915
2429.0,0.0006241110524627622
2428.0,0.0006144224335995131
2427.0,0.0006015382301526251
2426.0,0.0005897867961464444
2425.0,0.0005828147560049304
2424.0,0.0005779468008932483
2423.0,0.0005688147211174499
2422.0,0.0005556270101067876
2421.0,0.00054773919873441
2420.0,0.0005515836280165852
2419.0,0.0005602104957506458
2418.0,0.0005613777672606234
2417.0,0.0005541572459955634
2416.0,0.0005504028672609681
2415.0,0.0005591433995239498
2414.0,0.0005761915062553918
2413.0,0.0005915682525230585
2412.0,0.0006008434025968542
2411.0,0.0006043559623827293
2410.0,0.0006001572242867175
2409.0,0.0005853292494075908
2408.0,0.0005637425015873889
2407.0,0.0005457467409444293
2406.0,0.0005378547964073995
2405.0,0.0005369047088068402
2404.0,0.0005366049825275102
2403.0,0.0005359746787321852
2402.0,0.0005379040840595196
2401.0,0.0005420057803948423
2400.0,0.0005437086854991182
2399.0,0.0005406692629547907
2398.0,0.0005361657561829742
2397.0,0.0005344186741813626
2396.0,0.0005352549654620122
2395.0,0.0005359029907283252
2394.0,0.000536333505532525
2393.0,0.0005396095922432686
2392.0,0.0005470452393155523
2391.0,0.0005555029704616951
2390.0,0.0005601687009428633
2389.0,0.0005587248367321528
2388.0,0.000552698651446192
2387.0,0.0005463230041421795
2386.0,0.0005442923359100807
2385.0,0.0005483927579756638
2384.0,0.0005548127476181261
2383.0,0.0005561128088265348
2382.0,0.0005475272348415733
2381.0,0.000531042962313674
2380.0,0.0005127194237408722
2379.0,0.0004970954652243184
2378.0,0.00048569728256094567
2377.0,0.00047956633553990896
2376.0,0.00047953308420522003
2375.0,0.00048365275392329293
2374.0,0.000487657008431905
2373.0,0.0004896153274765797
2372.0,0.0004913011373887166
2371.0,0.0004922492532567184
2370.0,0.00048636956108728704
2369.0,0.00047044314856187024
2368.0,0.0004543376493126933
2367.0,0.0004546725320387333
2366.0,0.0004759393667909148
2365.0,0.000503933928169
2364.0,0.0005207070575404794
2363.0,0.0005210785048227508
2362.0,0.0005125349124048732
2361.0,0.0005026008429162953
2360.0,0.0004950888107005884
2359.0,0.0004957738533219945
2358.0,0.0005086630645796534
2357.0,0.0005280424852613606
2356.0,0.0005384858785995355
2355.0,0.000528034026343904
2354.0,0.0005015241854465315
2353.0,0.0004773831001895475
2352.0,0.0004729425064531092
2351.0,0.0004893772910725117
2350.0,0.000515217518027226
2349.0,0.000539068206448056
2348.0,0.0005549931750328181
2347.0,0.0005645490236670042
2346.0,0.0005708053806621702
2345.0,0.0005752464719150636
2344.0,0.0005787197797768215
2343.0,0.0005835545828278765
2342.0,0.0005933943014823487
2341.0,0.0006052002812992096
2340.0,0.0006125275862058351
2339.0,0.0006110832832288733
2338.0,0.0006036631453535168
2337.0,0.0005984015671297961
2336.0,0.000601691123393063
2335.0,0.0006111109837074088
2334.0,0.0006165633372755982
2333.0,0.0006103372681637916
2332.0,0.0005961934630913078
2331.0,0.0005860042433343131
2330.0,0.000589613651113056
2329.0,0.0006135053919950139
2328.0,0.0006617280042082751
2327.0,0.000739337600155241
2326.0,0.0008396063193523648
2325.0,0.0009394534845993049
2324.0,0.0010052892109905886
2323.0,0.0010144984556023774
2322.0,0.0009736202545080545
2321.0,0.0009110387492959509
2320.0,0.0008562728428735663
2319.0,0.0008231458666495458
2318.0,0.0008107063811388025
2317.0,0.0008089592874330149
2316.0,0.0008054849662711773
2315.0,0.0007929567311900934
2314.0,0.0007743437300541909
2313.0,0.000761813431618361
2312.0,0.0007649288673244074
2311.0,0.0007828142518880596
2310.0,0.000803428384742645
2309.0,0.0008142190642583156
2308.0,0.0008102163833701169
2307.0,0.0007982249734866544
2306.0,0.0007904014300939208
2305.0,0.0007952749855353883
2304.0,0.0008112191409711551
2303.0,0.0008302930847672314
2302.0,0.000845647417529334
2301.0,0.0008567522056937482
2300.0,0.000867011393595351
2299.0,0.0008795233763496465
2298.0,0.0008924800540717003
2297.0,0.000899896576658233
2296.0,0.0008966659633878462
2295.0,0.0008862509287230261
2294.0,0.0008794427897764905
2293.0,0.0008849748796792614
2292.0,0.0009018108229569921
2291.0,0.0009240403330064591
2290.0,0.0009495159394054386
2289.0,0.0009790719040604172
2288.0,0.001008484742784637
2287.0,0.0010280215299401643
2286.0,0.001031792811680203
2285.0,0.0010229483282880294
2284.0,0.0010084186238636583
2283.0,0.0009926400911169074
2282.0,0.0009788801554487178
2281.0,0.0009707414735812938
2280.0,0.000968287895993146
2279.0,0.0009659608290320213
2278.0,0.000959125448171149
2277.0,0.0009504905748762499
2276.0,0.0009460663637249258
2275.0,0.0009464048541348545
2274.0,0.0009455001667555392
2273.0,0.0009378631877397495
2272.0,0.0009232703030725366
2271.0,0.0009057089032850824
2270.0,0.0008905488538210576
2269.0,0.0008828585598429109
2268.0,0.0008847867608421028
2267.0,0.0008929862997407627
2266.0,0.0008991150819144225
2265.0,0.0008949004082180141
2264.0,0.0008790797625791732
2263.0,0.0008611463238905558
2262.0,0.0008560797367831131
2261.0,0.0008715676007578719
2260.0,0.0008994926443701471
2259.0,0.0009214791887410942
2258.0,0.0009225138173141923
2257.0,0.0008983329069551792
2256.0,0.0008559236600329641
2255.0,0.0008134068892084583
2254.0,0.0007960108720074948
2253.0,0.0008185113114236575
2252.0,0.0008677056000390503
2251.0,0.0009104509998140051
2250.0,0.0009248570147780463
2249.0,0.000917374396291436
2248.0,0.0009068446958189762
2247.0,0.0009002984450368327
2246.0,0.0008928500181785428
2245.0,0.0008835551342239093
2244.0,0.0008785509125365838
2243.0,0.0008797158319232523
2242.0,0.0008808405013681851
2241.0,0.0008773781665762419
2240.0,0.0008731021284559153
2239.0,0.0008742845335611834
2238.0,0.0008823829571853256
2237.0,0.0008943917743663955
2236.0,0.0009063911216165071
2235.0,0.0009141688562701611
2234.0,0.0009133499339958987
2233.0,0.0009026954579524945
2232.0,0.0008877590929765078
2231.0,0.000879110857454811
2230.0,0.0008839200850676621
2229.0,0.0008976576896727209
2228.0,0.0009063322043714923
2227.0,0.0009018347936735404
2226.0,0.0008934079151752257
2225.0,0.0008982877703249223
2224.0,0.0009200899864063533
2223.0,0.0009432818232737712
2222.0,0.0009509931385109957
2221.0,0.000940016914202867
2220.0,0.0009153730865857817
2219.0,0.0008802652450893961
2218.0,0.0008414169745790284
2217.0,0.0008168553886661511
2216.0,0.0008240480000290822
2215.0,0.0008592043507351415
2214.0,0.0008973617428213643
2213.0,0.0009151914207242217
2212.0,0.0009092542128462267
2211.0,0.0008936361348921859
2210.0,0.0008850141286308226
2209.0,0.0008905479060360633
2208.0,0.0009045023114773489
2207.0,0.0009155054161638855
2206.0,0.0009204737988635287
2205.0,0.0009293512800639401
2204.0,0.0009511667647942627
2203.0,0.0009781523494657674
2202.0,0.0009915445599426305
2201.0,0.0009834301462731908
2200.0,0.0009661290034567696
2199.0,0.0009565270151216528
2198.0,0.0009575863636194558
2197.0,0.0009593789081618076
2196.0,0.00095409657749795
2195.0,0.0009448110782790335
2194.0,0.0009396941624898548
2193.0,0.000941331243507394
2192.0,0.0009445802811708493
2191.0,0.0009451986118521294
2190.0,0.0009472118372873392
2189.0,0.0009576636694652021
2188.0,0.0009753485378391777
2187.0,0.0009908683692410165
2186.0,0.0009989566536282035
2185.0,0.0010036164595387013
2184.0,0.0010073174611193389
2183.0,0.001003381165721474
2182.0,0.0009872947758231367
2181.0,0.000969649935970414
2180.0,0.0009666569612180832
2179.0,0.0009794000818557917
2178.0,0.00099265689088698
2177.0,0.0009939817964674965
2176.0,0.0009862235605595235
2175.0,0.0009807934428541353
2174.0,0.0009861710171324134
2173.0,0.0010053691726845753
2172.0,0.0010377384922963314
2171.0,0.0010783679162854412
2170.0,0.0011179598674556674
2169.0,0.0011474397552407938
2168.0,0.0011650857561884007
2167.0,0.0011799647433242374
2166.0,0.0012081465832853137
2165.0,0.0012608056121403552
2164.0,0.0013271026009146697
2163.0,0.0013658557807613323
2162.0,0.0013197009076964786
2161.0,0.0011503367699580841
2160.0,0.0008785128229465712
2159.0,0.0005936009458556472
2158.0,0.00040538243925424916
2157.0,0.0003606301708344022
2156.0,0.00041424709750236227
2155.0,0.0004881193563933655
2154.0,0.0005410566126999111
2153.0,0.0005775108904284248
2152.0,0.0006093427908685483
2151.0,0.0006308794245781634
2150.0,0.0006338764566287565
2149.0,0.0006285079478521323
2148.0,0.0006329732264841076
2147.0,0.0006480793727281477
2146.0,0.0006556749429721989
2145.0,0.0006418783508767775
2144.0,0.0006116401310569304
2143.0,0.0005804217580131393
2142.0,0.000559524949096389
2141.0,0.0005506722952911437
2140.0,0.0005479913533945845
2139.0,0.0005422966222800082
2138.0,0.0005262074922868878
2137.0,0.000496456934827309
2136.0,0.0004532198569238371
2135.0,0.0004014021843094514
2134.0,0.0003551690280073287
2133.0,0.00033480585962765777
2132.0,0.00035267036033997517
2131.0,0.0004024318263473183
2130.0,0.0004646067033831703
2129.0,0.00051930001606419
2128.0,0.0005544397476110264
2127.0,0.0005677489957396839
2126.0,0.0005676758861351641
2125.0,0.0005708863011518253
2124.0,0.0005922453349702556
2123.0,0.0006328791313888061
2122.0,0.0006795623740763549
2121.0,0.0007156563085128016
2120.0,0.0007332532904785786
2119.0,0.0007364768293808924
2118.0,0.000737067381465767
2117.0,0.0007459976135528592
2116.0,0.0007659303917525331
2115.0,0.0007899520540444399
2114.0,0.0008094094213568615
2113.0,0.0008227986428148661
2112.0,0.0008353570095363417
2111.0,0.000850338552012729
2110.0,0.0008645316718013037
2109.0,0.0008735174155953435
2108.0,0.0008777162945706955
2107.0,0.0008801434151927785
2106.0,0.0008806353528732108
2105.0,0.0008763673943218104
2104.0,0.0008676915629680217
2103.0,0.0008594588291582407
2102.0,0.0008554113351319573
2101.0,0.0008541790946146988
2100.0,0.0008527743055984201
2099.0,0.0008513111672467667
2098.0,0.0008492375129940719
2097.0,0.0008383128317591244
2096.0,0.000806392831490665
2095.0,0.0007530072555773089
2094.0,0.0006978909528256891
2093.0,0.0006674098808953567
2092.0,0.0006728160114186605
2091.0,0.0007052921235189517
2090.0,0.000749107439457908
2089.0,0.0007936533023540938
2088.0,0.0008332150964085005
2087.0,0.0008626992654100549
2086.0,0.000878465336241871
2085.0,0.0008820842940476885
2084.0,0.0008804732162442943
2083.0,0.000881752846344676
2082.0,0.0008906606811613949
2081.0,0.0009059367682914646
2080.0,0.0009212270734565663
2079.0,0.0009308518899709017
2078.0,0.0009342618278260653
2077.0,0.0009338305923425467
2076.0,0.0009297500930792889
2075.0,0.0009212572667812651
2074.0,0.0009120226076829325
2073.0,0.0009072848783858499
2072.0,0.0009056427796938065
2071.0,0.000899553740022837
2070.0,0.0008859294438236899
2069.0,0.0008706045773918211
2068.0,0.0008605381662582479
2067.0,0.0008579658404013195
2066.0,0.0008646336338290502
2065.0,0.0008833766635540765
2064.0,0.0009104488753523933
2063.0,0.0009329107103047204
2062.0,0.0009395424384094673
2061.0,0.0009308116889409621
2060.0,0.0009160024062905162
2059.0,0.0009046737248636981
2058.0,0.0009017228975495938
2057.0,0.0009038459705779688
2056.0,0.0009001963772973409
2055.0,0.000888410718819063
2054.0,0.0008928868956540331
2053.0,0.000948209100166437
2052.0,0.001052628628092198
2051.0,0.001151214906538942
2050.0,0.001181506161254274
2049.0,0.0011356448653512007
2048.0,0.001063442865130506
2047.0,0.0010103579811263446
2046.0,0.0009797067402641788
2045.0,0.0009628424071327663
2044.0,0.0009713269026804564
2043.0,0.0010174371556336305
2042.0,0.001082497478295572
2041.0,0.001127432752519016
2040.0,0.001131749209185341
2039.0,0.0011066373509774237
2038.0,0.0010724083373800622
2037.0,0.001039204265708403
2036.0,0.0010067331529577043
2035.0,0.0009690369198668265
2034.0,0.0009188511508822867
2033.0,0.0008579394470918532
2032.0,0.0008063077050343418
2031.0,0.0007936675596155912
2030.0,0.0008354584254979538
2029.0,0.0009133647265379995
2028.0,0.0009817336836791138
2027.0,0.0009999020727555384
2026.0,0.0009644451801945019
2025.0,0.0009113127713288389
2024.0,0.0008857738297845091
2023.0,0.0009044690969388237
2022.0,0.0009447423865725776
2021.0,0.0009680309332772837
2020.0,0.000954540709765941
2019.0,0.0009193711943326046
2018.0,0.000897954655699906
2017.0,0.0009133999594127136
2016.0,0.0009535131712537436
2015.0,0.0009828669002687335
2014.0,0.0009760909956391354
2013.0,0.0009353729034116066
2012.0,0.0008805280215407765
2011.0,0.0008292022628315804
2010.0,0.0007884496393652757
2009.0,0.0007564989195393625
2008.0,0.0007263116934548597
2007.0,0.0006936697904385814
2006.0,0.0006685956975116739
2005.0,0.0006697046204210803
2004.0,0.0007025613259130621
2003.0,0.0007509368027793497
2002.0,0.0007932007834782405
2001.0,0.0008211456929886064
2000.0,0.0008361204890325047
1999.0,0.0008395614797850311
1998.0,0.0008342838055708208
1997.0,0.0008290982735184153
1996.0,0.0008317567180787399
1995.0,0.0008401434574347881
1994.0,0.000847673177060341
1993.0,0.00085499753214515
1992.0,0.0008698582016910143
1991.0,0.0008960510402954238
1990.0,0.0009291609079786303
1989.0,0.0009629630721927863
1988.0,0.0009939554468934516
1987.0,0.0010205741197384204
1986.0,0.0010438920715765175
1985.0,0.0010683670587574704
1984.0,0.001097412959767764
1983.0,0.0011292426363244724
1982.0,0.0011588875042940609
1981.0,0.0011806684829675355
1980.0,0.0011810166739727227
1979.0,0.0011401408449829558
1978.0,0.00105256220581832
1977.0,0.0009463411353002908
1976.0,0.0008646887732941274
1975.0,0.0008263160740276589
1974.0,0.0008177551736852927
1973.0,0.0008193044908947291
1972.0,0.0008228489329154303
1971.0,0.0008252493462285109
1970.0,0.0008187124057112769
1969.0,0.0007957398778774383
1968.0,0.0007595460946084752
1967.0,0.0007235727314987865
1966.0,0.0007005785066471831
1965.0,0.0006935027660229239
1964.0,0.0006957107548294167
1963.0,0.0006968654050929396
1962.0,0.0006880044145270263
1961.0,0.0006637472848553372
1960.0,0.0006244979833198351
1959.0,0.000579942649796615
1958.0,0.0005485059297027442
1957.0,0.0005464505154487407
1956.0,0.0005725630663335527
1955.0,0.0006062052656730202
1954.0,0.0006241633507745422
1953.0,0.0006185168804859857
1952.0,0.00060167324502989
1951.0,0.000593247442717013
1950.0,0.0006046793395296443
1949.0,0.0006312242435459691
1948.0,0.0006532223122948024
1947.0,0.0006517569381340201
1946.0,0.0006294446709430925
1945.0,0.0006116912704541112
1944.0,0.0006201765874749363
1943.0,0.0006448062001818497
1942.0,0.0006517695643631153
1941.0,0.0006238682904124936
1940.0,0.0005789163213417069
1939.0,0.000546176536155469
1938.0,0.0005385471047684828
1937.0,0.0005458471372753128
1936.0,0.0005489268926604279
1935.0,0.0005386598277645965
1934.0,0.0005214184019797924
1933.0,0.0005083030920049827
1932.0,0.0005039137331850201
1931.0,0.0005010484614539758
1930.0,0.0004907195615550909
1929.0,0.000474602934113619
1928.0,0.0004607319505591449
1927.0,0.0004555129524763401
1926.0,0.0004563019743912193
1925.0,0.00045974126031815137
1924.0,0.0004653123372360706
1923.0,0.0004706442772464013
1922.0,0.00047253143279026824
1921.0,0.0004740616004884413
1920.0,0.000484743251241356
1919.0,0.0005113333866034467
1918.0,0.0005440940661627013
1917.0,0.0005639697035354995
1916.0,0.0005609464501689075
1915.0,0.0005396291927937612
1914.0,0.0005134533073202864
1913.0,0.0004964575738540321
1912.0,0.0004959451020794678
1911.0,0.0005062366746240121
1910.0,0.000513438218760288
1909.0,0.0005086941929171116
1908.0,0.0004958004905716172
1907.0,0.0004891598035290932
1906.0,0.0004964975081230437
1905.0,0.0005136221200119367
1904.0,0.000527742178254547
1903.0,0.0005258160124102112
1902.0,0.000506272054543384
1901.0,0.0004807048457451241
1900.0,0.0004609848947836091
1899.0,0.0004511142422031572
1898.0,0.000447611384978194
1897.0,0.00044862739880373217
1896.0,0.0004560766512629618
1895.0,0.00046838535331199737
1894.0,0.00047793916898609956
1893.0,0.00047791516961811446
1892.0,0.0004695223276871478
1891.0,0.00046235375256571676
1890.0,0.0004654241356615306
1889.0,0.0004765630272796429
1888.0,0.0004833725696099675
1887.0,0.0004774836410404382
1886.0,0.0004657318415459067
1885.0,0.0004625698372551283
1884.0,0.0004717565619300968
1883.0,0.0004801009256930574
1882.0,0.00047548907938077154
1881.0,0.00046283946994975277
1880.0,0.0004557383757160114
1879.0,0.0004610912237464846
1878.0,0.0004738741198593435
1877.0,0.0004840506998388531
1876.0,0.00048667719144196203
1875.0,0.00048150989265147853
1874.0,0.0004689270887629105
1873.0,0.00045185313193135706
1872.0,0.0004370956599622529
1871.0,0.00043326008706858225
1870.0,0.00044544513113570867
1869.0,0.00046844811555328135
1868.0,0.0004890842404920455
1867.0,0.0004963609092937773
1866.0,0.0004879739306730404
1865.0,0.0004703950689566009
1864.0,0.00045343151671789613
1863.0,0.0004436544097917466
1862.0,0.0004424612755279391
1861.0,0.00044761990661160747
1860.0,0.00045450874263155245
1859.0,0.00045859997806743246
1858.0,0.0004587287461255997
1857.0,0.00045710630927712787
1856.0,0.0004556700097667392
1855.0,0.00045436519086222043
1854.0,0.0004532856373047041
1853.0,0.0004557562824861896
1852.0,0.00045846090987191235
1851.0,0.0004578251867752178
1850.0,0.0004555112084390807
1849.0,0.00045388222172190447
1848.0,0.000450227089320473
1847.0,0.0004425115055133411
1846.0,0.00044080222471342393
1845.0,0.0004570377093619458
1844.0,0.00048051628765463585
1843.0,0.00048773254482556113
1842.0,0.000473373493801086
1841.0,0.00045172715156688965
1840.0,0.0004378355092407539
1839.0,0.00043566075363722927
1838.0,0.00043702991210962125
1837.0,0.0004377429754274729
1836.0,0.00044032237899561467
1835.0,0.0004426524542240922
1834.0,0.0004368535115621759
1833.0,0.00042009176630891735
1832.0,0.00040145720681951646
1831.0,0.00040203490056986906
1830.0,0.00042775064914386617
1829.0,0.0004562392285842044
1828.0,0.0004660005106257532
1827.0,0.00046070627151487457
1826.0,0.0004597234656034375
1825.0,0.0004698861914257124
1824.0,0.0004801777869770931
1823.0,0.00048108922852066894
1822.0,0.0004749639761641116
1821.0,0.00046653885993877683
1820.0,0.00045425355108899914
1819.0,0.0004361987186323784
1818.0,0.0004152656458989971
1817.0,0.00040137900307598363
1816.0,0.0004012550490529566
1815.0,0.0004085329465840627
1814.0,0.00041370129329629983
1813.0,0.0004131700965752806
1812.0,0.00041407659273929947
1811.0,0.00042237129877714154
1810.0,0.0004323448802702841
1809.0,0.00043855447095968555
1808.0,0.0004436841583774074
1807.0,0.000450632388987878
1806.0,0.00045625379569571266
1805.0,0.00045643388756814595
1804.0,0.00045323649443887914
1803.0,0.0004516847053258708
1802.0,0.0004579377908283461
1801.0,0.00046774020667342004
1800.0,0.00047234792550633967
1799.0,0.0004671833519487085
1798.0,0.0004537077419166194
1797.0,0.0004359919749266141
1796.0,0.0004171078386375973
1795.0,0.0004021325340963202
1794.0,0.00040590985991653764
1793.0,0.00043675778200971823
1792.0,0.00047815587099536185
1791.0,0.0005019294988143128
1790.0,0.000499189270470799
1789.0,0.0004821162447474469
1788.0,0.00046734025490273543
1787.0,0.0004634755006215647
1786.0,0.00047038850985850575
1785.0,0.00047868838215891574
1784.0,0.00048046731868850857
1783.0,0.00046465856976234663
1782.0,0.000475330323252031
1781.0,0.00047621403675725954
1780.0,0.00047225115499148756
1779.0,0.00047378974916051754
1778.0,0.00047967900005086534
1777.0,0.00048570097105044116
1776.0,0.0004985237318376227
1775.0,0.0005065096770762595
1774.0,0.0005336143130709077
1773.0,0.0004408754924909167
1772.0,0.00047854631841342263
1771.0,0.000530518846489757
1770.0,0.0005316200479770844
1769.0,0.0005273502186545309
1768.0,0.00053108925970067
1767.0,0.0005455542758449226
1766.0,0.0005502293062478017
1765.0,0.0005435902468143744
1764.0,0.0005438242858059759
1763.0,0.000569923968948673
1762.0,0.0006168314816836927
1761.0,0.0006548967035606504
1760.0,0.0006695511546513369
1759.0,0.000669571941518093
1758.0,0.0006790842905004258
1757.0,0.0007120925633325224
1756.0,0.0007515734169522408
1755.0,0.0007767085836303255
1754.0,0.0007891894745843809
1753.0,0.0008111275327424322
1752.0,0.0008598073608762503
1751.0,0.0009304911043877791
1750.0,0.0010024377880396597
1749.0,0.0010676744942827933
1748.0,0.0011276173352454768
1747.0,0.001183107809358388
1746.0,0.0012404899893903873
1745.0,0.0013046205805073456
1744.0,0.001377163808120383
1743.0,0.0014551909943420283
1742.0,0.0015385338195630955
1741.0,0.0016369228366251952
1740.0,0.0017559068383102914
1739.0,0.0018703032701918067
1738.0,0.0019517718608974334
1737.0,0.002003361159315259
1736.0,0.0020687605292276875
1735.0,0.0021984270146961447
1734.0,0.002367227735137412
1733.0,0.002510131204339733
1732.0,0.002621520084252426
1731.0,0.0027281790212758963
1730.0,0.002847926357057618
1729.0,0.0029784986939920028
1728.0,0.003107127866371175
1727.0,0.0032308638658198508
1726.0,0.0033552567582240188
1725.0,0.003478092491228203
1724.0,0.0036011888054155424
1723.0,0.0037314314914478055
1722.0,0.003868409979652988
1721.0,0.004002740623687454
1720.0,0.004127563964133872
1719.0,0.004240066040530475
1718.0,0.004315158115661649
1717.0,0.004341206637997696
1716.0,0.0043612363537667235
1715.0,0.0043968235600124386
1714.0,0.004424829800491172
1713.0,0.004427214663144346
1712.0,0.00440470656604683
1711.0,0.0043553756522708535
1710.0,0.004269574292850843
1709.0,0.004146123754423671
1708.0,0.003992929406301748
1707.0,0.003812498372628359
1706.0,0.0035971952838889515
1705.0,0.0033734107325240066
1704.0,0.00319742445081056
1703.0,0.0030763293173213953
1702.0,0.0029768001583994116
1701.0,0.0028471634379961743
1700.0,0.0026678776910290984
1699.0,0.0025197432647201426
1698.0,0.0024328398041913247
1697.0,0.00238293808251935
1696.0,0.0023539442390880876
1695.0,0.0023279604396051197
1694.0,0.002311007552386063
1693.0,0.002308932932754563
1692.0,0.0023228646337030557
1691.0,0.0023490525221073776
1690.0,0.002376656447269711
1689.0,0.002400830087182597
1688.0,0.0024174838149293625
1687.0,0.0024282749945174213
1686.0,0.0024488798713601274
1685.0,0.0024943833677753204
1684.0,0.0025329982548473787
1683.0,0.0025494306476678183
1682.0,0.002569576511003586
1681.0,0.002606309636968971
1680.0,0.002656781181244082
1679.0,0.0027047779331396135
1678.0,0.0027416514977670514
1677.0,0.0027756459769803115
1676.0,0.0028106149084803364
1675.0,0.0028329661330749674
1674.0,0.0028507849274686903
1673.0,0.002879196580954825
1672.0,0.002917919645094637
1671.0,0.0029548799270429937
1670.0,0.002978404675702
1669.0,0.002998572115616753
1668.0,0.003033628750827853
1667.0,0.0030809732781950944
1666.0,0.003130457095231856
1665.0,0.003180731403799588
1664.0,0.003233156193697103
1663.0,0.003270934524856272
1662.0,0.0032886611627209327
1661.0,0.0033094155359022037
1660.0,0.0033466390042532616
1659.0,0.0033965555958295115
1658.0,0.0034503983226587555
1657.0,0.0035000264479353167
1656.0,0.003532559734638556
1655.0,0.0035543685604260545
1654.0,0.0035594743253506956
1653.0,0.0035099507514205603
1652.0,0.003488992410158141
1651.0,0.0035410721408287086
1650.0,0.003603016526270317
1649.0,0.003651222002971516
1648.0,0.003684509387326364
1647.0,0.0036850107924081277
1646.0,0.003656355660970245
1645.0,0.003644944364395604
1644.0,0.003668187021618143
1643.0,0.0037040495336211343
1642.0,0.0037365917980934273
1641.0,0.0037634064077134545
1640.0,0.003785611087490753
1639.0,0.0038024312968933218
1638.0,0.0038076035188993555
1637.0,0.003795399522113812
1636.0,0.0037492239938909473
1635.0,0.003686354598923517
1634.0,0.003656550986558225
1633.0,0.003665714295354529
1632.0,0.0036902141492253845
1631.0,0.0037090029994901663
1630.0,0.003708333037361328
1629.0,0.003686508151535813
1628.0,0.003652729962239794
1627.0,0.003618791529850504
1626.0,0.0035940771667359764
1625.0,0.0035771708025409705
1624.0,0.0035552474579552164
1623.0,0.0035150817790949264
1622.0,0.0034724538079611406
1621.0,0.0034517894801384817
1620.0,0.003446869831591255
1619.0,0.003438726284669093
1618.0,0.0034153490903041806
1617.0,0.0033739460388426522
1616.0,0.0033274461331544588
1615.0,0.0032977505615209377
1614.0,0.003284971297682985
1613.0,0.0032777104887593464
1612.0,0.003266438399921245
1611.0,0.003240138753679576
1610.0,0.0032001069581925716
1609.0,0.0031595973343077986
1608.0,0.003125352853976771
1607.0,0.0030917562428273535
1606.0,0.0030596443818453217
1605.0,0.003033269560647649
1604.0,0.0030075217633450777
1603.0,0.0029750862772469637
1602.0,0.0029371377816151544
1601.0,0.002901357978062718
1600.0,0.0028702527559546316
1599.0,0.0028411227696834725
1598.0,0.00281410775985426
1597.0,0.002791312906924487
1596.0,0.0027718052284779085
1595.0,0.002751943660116559
1594.0,0.0027323974952496036
1593.0,0.0027171834815055127
1592.0,0.002704971005969875
1591.0,0.0026887583412735297
1590.0,0.0026663710991781065
1589.0,0.0026432678926403145
1588.0,0.0026233004947836557
1587.0,0.0026045207976225023
1586.0,0.0025859534124425677
1585.0,0.0025733670790246284
1584.0,0.002564151398729316
1583.0,0.002551176876248408
1582.0,0.0025357634917381714
1581.0,0.0025235817069663067
1580.0,0.0025099561639582574
1579.0,0.002486113513802585
1578.0,0.002454827754668823
1577.0,0.0024234600978471745
1576.0,0.0023868217074624193
1575.0,0.0023448478434782848
1574.0,0.002309951599305594
1573.0,0.00228080430505765
1572.0,0.002253766221351551
1571.0,0.0022278621793686898
1570.0,0.0021957729567692558
1569.0,0.002157544754524571
1568.0,0.002119172161038945
1567.0,0.0020843027370170872
1566.0,0.002054473675725934
1565.0,0.0020350258414984545
1564.0,0.0020194289793814373
1563.0,0.002001180245036541
1562.0,0.0019761127020552108
1561.0,0.0019576542845184826
1560.0,0.0019520049198948237
1559.0,0.00192644555505312
1558.0,0.0018838880836623546
1557.0,0.001869576863989727
1556.0,0.001867288716857735
1555.0,0.0018635683638158706
1554.0,0.001861136515674175
1553.0,0.0018529971189047653
1552.0,0.0018354771776719382
1551.0,0.0018143831744444664
1550.0,0.0017942681770814679
1549.0,0.0017761480586517423
1548.0,0.0017592485198966745
1547.0,0.0017423585137463877
1546.0,0.00172470867406366
1545.0,0.0017021247447864666
1544.0,0.001668445031501094
1543.0,0.0016259391561776898
1542.0,0.0015814739636067394
1541.0,0.0015502064542013687
1540.0,0.001540837726439922
1539.0,0.0015460904546081447
1538.0,0.0015579392835437724
1537.0,0.0015617044115808676
1536.0,0.0015519565994445484
1535.0,0.0015393029425661807
1534.0,0.0015329571870413895
1533.0,0.0015232898822827331
1532.0,0.0015063521146828993
1531.0,0.0014890879416649243
1530.0,0.001473932401347003
1529.0,0.001462797363549631
1528.0,0.001457575199562003
1527.0,0.0014559581468002528
1526.0,0.0014512469389215675
1525.0,0.0014358028324176232
1524.0,0.001411009342594708
1523.0,0.0013946160612252603
1522.0,0.0014004227934736528
1521.0,0.0014115865936608876
1520.0,0.0014082542394839017
1519.0,0.0013943618528323729
1518.0,0.0013866055454576547
1517.0,0.0013924023981913322
1516.0,0.0013982526668759295
1515.0,0.001392185946242489
1514.0,0.0013812899951213674
1513.0,0.0013765195447338853
1512.0,0.0013828726532271482
1511.0,0.0013935359331854475
1510.0,0.0013977021993333268
1509.0,0.0013946909734574965
1508.0,0.001407695582029042
1507.0,0.001451172925960278
1506.0,0.0014934604506688703
1505.0,0.0015178978736191356
1504.0,0.0015220301312149796
1503.0,0.0015042269582557733
1502.0,0.0014718009405809728
1501.0,0.001433145905354437
1500.0,0.0013941384619998512
1499.0,0.0013605366052688182
1498.0,0.0013352693590706118
1497.0,0.0013110975154332026
1496.0,0.001283862155390228
1495.0,0.0012567523262685132
1494.0,0.0012326143761226295
1493.0,0.0012130565728696817
1492.0,0.0012036715469697615
1491.0,0.0012066280022004936
1490.0,0.0012137111324852345
1489.0,0.0012159822305719697
1488.0,0.0012177430220627985
1487.0,0.0012229662388207557
1486.0,0.0012272146169244591
1485.0,0.001231686005233345
1484.0,0.0012364167621195079
1483.0,0.0012437192390035276
1482.0,0.0012568698969503446
1481.0,0.0012757105629733574
1480.0,0.0012972435673173225
1479.0,0.0013188445834294556
1478.0,0.0013404272292016873
1477.0,0.001360478435291321
1476.0,0.0013778537682716343
1475.0,0.0013918316763320599
1474.0,0.00141164758314641
1473.0,0.0014448294819789233
1472.0,0.0014825637651272442
1471.0,0.0015138034014975583
1470.0,0.0015366421997161771
1469.0,0.0015535168003716526
1468.0,0.0015678093141288148
1467.0,0.0015792085517397246
1466.0,0.001586620614498446
1465.0,0.0015883434055857203
1464.0,0.0015829698809890522
1463.0,0.0015793843203153134
1462.0,0.001583852514853397
1461.0,0.0015955340705236017
1460.0,0.0016095242187067057
1459.0,0.0016284510253475933
1458.0,0.0016601181068412294
1457.0,0.0016910709484351345
1456.0,0.0017024671224997122
1455.0,0.0016998434352638214
1454.0,0.0016941021119917053
1453.0,0.0016898691588904686
1452.0,0.0016873133805609597
1451.0,0.0016824827715194017
1450.0,0.0016728016199542791
1449.0,0.0016577096746647761
1448.0,0.001641216789538018
1447.0,0.0016263644196029769
1446.0,0.0016188316549547118
1445.0,0.001618175352260969
1444.0,0.0016181095146349835
1443.0,0.0016167930262970761
1442.0,0.0016146789353262171
1441.0,0.0016121891164994884
1440.0,0.0016080152300651349
1439.0,0.0016048567828639815
1438.0,0.0016027618450944843
1437.0,0.0015923752038841908
1436.0,0.0015687386027222077
1435.0,0.0015461936390913644
1434.0,0.0015345835351271457
1433.0,0.0015309693326129108
1432.0,0.0015299911710294082
1431.0,0.0015278802977144535
1430.0,0.0015250289426815438
1429.0,0.0015235462300992953
1428.0,0.001526622253978354
1427.0,0.0015328772089117618
1426.0,0.0015430376608233133
1425.0,0.001557366829899144
1424.0,0.001571423550139122
1423.0,0.0015861109419407428
1422.0,0.0016071527894992179
1421.0,0.0016390023276956593
1420.0,0.0016772706061328768
1419.0,0.0017128131540001183
1418.0,0.0017456792194624248
1417.0,0.0017831376158553396
1416.0,0.0018286262251788993
1415.0,0.0018852383406027175
1414.0,0.0019580145721857685
1413.0,0.0020467546339737034
1412.0,0.0021407972338500715
1411.0,0.0022232488086042015
1410.0,0.002280379498477085
1409.0,0.0023060598675797247
1408.0,0.002300355654585971
1407.0,0.0022607538978938906
1406.0,0.0021851068113002766
1405.0,0.002077107522756808
1404.0,0.0019523116180825643
1403.0,0.0018366663894523795
1402.0,0.0017440744493590408
1401.0,0.0016686581071532398
1400.0,0.0015969593939489973
1399.0,0.0015247558562136968
1398.0,0.0014589673783899294
1397.0,0.0014025674700310347
1396.0,0.0013507729155085154
1395.0,0.0012992333741189024
1394.0,0.0012512830735284816
1393.0,0.0012108372126408118
1392.0,0.0011772331937711903
1391.0,0.0011497906611746096
1390.0,0.0011278893505690145
1389.0,0.0011079464208037218
1388.0,0.0010860182743146585
1387.0,0.0010624972889054212
1386.0,0.001041778092217418
1385.0,0.0010258719915633918
1384.0,0.0010128979380209532
1383.0,0.0010023645986150553
1382.0,0.0009939002951380126
1381.0,0.0009866333583275658
1380.0,0.0009797083882995285
1379.0,0.0009720610826758245
1378.0,0.0009635724554524349
1377.0,0.0009560117189211334
1376.0,0.0009519208351634592
1375.0,0.0009509128453999462
1374.0,0.0009493203663553259
1373.0,0.0009434848358514114
1372.0,0.0009343423393909291
1371.0,0.0009239844684180946
1370.0,0.00091316436672384
1369.0,0.0009006288210722045
1368.0,0.0008850636236956656
1367.0,0.0008688336073848708
1366.0,0.0008547651495243223
1365.0,0.0008421780170552191
1364.0,0.0008278871918883212
1363.0,0.000810115029483281
1362.0,0.0007906772215922841
1361.0,0.0007736015476066962
1360.0,0.0007621612411708287
1359.0,0.0007575240900020432
1358.0,0.0007590840449936337
1357.0,0.0007645148049145371
1356.0,0.0007711218687215808
1355.0,0.0007781120477011354
1354.0,0.0007871714822261669
1353.0,0.0008006996033164768
1352.0,0.0008216540584145412
1351.0,0.0008502155314735569
1350.0,0.0008850565613141917
1349.0,0.0009257275041818884
1348.0,0.0009738510668707654
1347.0,0.001032758335839544
1346.0,0.0011040972098397977
1345.0,0.001186067461892157
1344.0,0.0012747374093960348
1343.0,0.0013670061141985055
1342.0,0.0014607861314586607
1341.0,0.0015519081769685972
1340.0,0.001630740709237272
1339.0,0.0016843902156437303
1338.0,0.0017038355819063108
1337.0,0.0016869249663460399
1336.0,0.001636079211405656
1335.0,0.0015566058734590828
1334.0,0.0014560773845306556
1333.0,0.001343301321567115
1332.0,0.0012283261876352262
1331.0,0.0011223013399364208
1330.0,0.0010341325545274226
1329.0,0.0009661887252011784
1328.0,0.0009158494998987245
1327.0,0.000880013028729604
1326.0,0.0008567747634184591
1325.0,0.0008428691478204156
1324.0,0.0008330665327735704
1323.0,0.0008237787258683499
1322.0,0.0008146406862055431
1321.0,0.0008066116724602921
1320.0,0.0008005092736018586
1319.0,0.0007976448070477283
1318.0,0.0007990496304169229
1317.0,0.0008036639683486309
1316.0,0.0008093030777337254
1315.0,0.0008156340435580671
1314.0,0.0008241686670122348
1313.0,0.0008351869834824918
1312.0,0.0008471143794668071
1311.0,0.0008594734961375212
1310.0,0.0008742651542579911
1309.0,0.0008929992391549927
1308.0,0.0009145585684112918
1307.0,0.0009364580596419299
1306.0,0.0009577180134202612
1305.0,0.0009787502056979272
1304.0,0.0009997309437121719
1303.0,0.0010211181645170076
1302.0,0.0010446336205851823
1301.0,0.00107240325094069
1300.0,0.0011052545356269473
1299.0,0.001142887216383042
1298.0,0.001184616495325644
1297.0,0.0012290752758293661
1296.0,0.0012737995515779538
1295.0,0.0013167467803512816
1294.0,0.0013581418054608451
1293.0,0.0013994720230984781
1292.0,0.0014409220826921173
1291.0,0.001480800965745066
1290.0,0.0015173093024705162
1289.0,0.0015500645910438635
1288.0,0.0015803274241020524
1287.0,0.0016106009075858756
1286.0,0.0016432214609572366
1285.0,0.0016780236370404194
1284.0,0.0017118767655107995
1283.0,0.0017416234144095387
1282.0,0.0017670190898214514
1281.0,0.001790476143363117
1280.0,0.0018149645166518156
1279.0,0.0018434808348813604
1278.0,0.0018787627005149641
1277.0,0.0019212186531642216
1276.0,0.001968118895369891
1275.0,0.002017087990488688
1274.0,0.0020698886234466977
1273.0,0.0021304146622834626
1272.0,0.002199606719824199
1271.0,0.002274775995222674
1270.0,0.002353360621905317
1269.0,0.0024340929943087904
1268.0,0.0025143266507761447
1267.0,0.002590305977672967
1266.0,0.0026612417214967442
1265.0,0.002729810407373295
1264.0,0.0027973279799381264
1263.0,0.0028612327230122196
1262.0,0.0029183582034255696
1261.0,0.0029680215835663393
1260.0,0.0030105594455930606
1259.0,0.003045725821242581
1258.0,0.0030737946860036032
1257.0,0.003096085213426623
1256.0,0.003114215535873364
1255.0,0.0031311137746531698
1254.0,0.0031524330911836215
1253.0,0.0031838478613059017
1252.0,0.0032262621441990114
1251.0,0.0032756364013812674
1250.0,0.0033274588618352474
1249.0,0.003379342344165007
1248.0,0.0034299920096382023
1247.0,0.0034790879340317517
1246.0,0.0035280615976015636
1245.0,0.0035775964129595135
1244.0,0.0036243585463711023
1243.0,0.0036632617861055254
1242.0,0.003692689547704002
1241.0,0.0037139494208843667
1240.0,0.0037262156376882405
1239.0,0.0037265519040463524
1238.0,0.0037153387732022144
1237.0,0.0036974663356727734
1236.0,0.0036771669847220486
1235.0,0.0036547570933119066
1234.0,0.0036286593716854092
1233.0,0.0035976303973958733
1232.0,0.003561173216372884
1231.0,0.0035208625762359457
1230.0,0.003480873001203257
1229.0,0.003444146442046726
1228.0,0.0034085705415931415
1227.0,0.0033695843537348523
1226.0,0.003325555190302373
1225.0,0.0032777223408135643
1224.0,0.0032260698546001205
1223.0,0.003168663785683315
1222.0,0.0031042104354305055
1221.0,0.0030322392128659006
1220.0,0.002952066189701997
1219.0,0.002864992407438017
1218.0,0.0027760917461957324
1217.0,0.002690061381258049
1216.0,0.002606419155945935
1215.0,0.0025221380086500864
1214.0,0.002437804034705312
1213.0,0.0023577097354189865
1212.0,0.0022849007140146034
1211.0,0.002219284128664194
1210.0,0.0021594544741638452
1209.0,0.002103048412699647
1208.0,0.0020462600380900574
1207.0,0.0019869989536977235
1206.0,0.0019287708159740078
1205.0,0.0018781496628528416
1204.0,0.0018376774952653767
1203.0,0.0018034664879069693
1202.0,0.0017701724043868651
1201.0,0.001736367109503206
1200.0,0.0017044475149613119
1199.0,0.0016769735886286983
1198.0,0.0016538450922718912
1197.0,0.0016323774356988294
1196.0,0.00161025285099918
1195.0,0.0015887669887972933
1194.0,0.00157222182357119
1193.0,0.0015630374549232746
1192.0,0.0015586824874580358
1191.0,0.001554968160028172
1190.0,0.0015510107809083538
1189.0,0.001548596356066528
1188.0,0.0015477484456636525
1187.0,0.0015464113245818238
1186.0,0.0015448467986903807
1185.0,0.0015470046367366433
1184.0,0.0015558330234923265
1183.0,0.001569311571644431
1182.0,0.001583027746862968
1181.0,0.0015955771556835133
1180.0,0.001609481519188724
1179.0,0.0016271545497760988
1178.0,0.0016475337513542016
1177.0,0.0016668017000557342
1176.0,0.0016814382180646435
1175.0,0.0016902787895697077
1174.0,0.0016941649405168126
1173.0,0.001693937833358698
1172.0,0.0016892236189415505
1171.0,0.0016796332960088032
1170.0,0.0016665578957394457
1169.0,0.001652951952444135
1168.0,0.001641738546925853
1167.0,0.0016351694710482591
1166.0,0.0016349691751098194
1165.0,0.001641531478363407
1164.0,0.001652799620330121
1163.0,0.0016649372624424038
1162.0,0.0016748237161018464
1161.0,0.0016820563848590282
1160.0,0.0016887936379267761
1159.0,0.0016980262216609973
1158.0,0.0017115747219151292
1157.0,0.0017291342239756208
1156.0,0.0017492477137423042
1155.0,0.0017710274795767183
1154.0,0.0017942908961751827
1153.0,0.0018183574826961461
1152.0,0.0018423347856867632
1151.0,0.0018669967655589848
1150.0,0.0018945336714145536
1149.0,0.001925469519145764
1148.0,0.0019578226107806874
1147.0,0.001990881550702077
1146.0,0.002027872339680035
1145.0,0.0020725650970119976
1144.0,0.002124435561129222
1143.0,0.0021794610622838566
1142.0,0.0022346471028442277
1141.0,0.0022893795204386247
1140.0,0.002343528736398499
1139.0,0.002397564929882256
1138.0,0.002453984515161408
1137.0,0.0025149753303629913
1136.0,0.002578582320994084
1135.0,0.0026407165577809863
1134.0,0.0027015421180882396
1133.0,0.002766488445403853
1132.0,0.0028399945851919897
1131.0,0.0029210899513337834
1130.0,0.003005810796936915
1129.0,0.003091028592671576
1128.0,0.0031750929812671986
1127.0,0.0032578479726694644
1126.0,0.003341279092510181
1125.0,0.0034273454427227335
1124.0,0.0035140806500649413
1123.0,0.00359653271915687
1122.0,0.0036722657409292052
1121.0,0.00374305475545021
1120.0,0.003810735114944022
1119.0,0.0038742991917802387
1118.0,0.00393079126986509
1117.0,0.003975710384792195
1116.0,0.004003605087691744
1115.0,0.004013216963620445
1114.0,0.00401199443102421
1113.0,0.0040109184987253245
1112.0,0.004015639630308936
1111.0,0.00402739718948569
1110.0,0.004050646730596399
1109.0,0.004092209577043571
1108.0,0.004152446782900925
1107.0,0.004223707446979469
1106.0,0.0042986777485784855
1105.0,0.004375008046771642
1104.0,0.004451196569328365
1103.0,0.004524753856098713
1102.0,0.004596245317794801
1101.0,0.004668299216760148
1100.0,0.00473800834288806
1099.0,0.004796422230853776
1098.0,0.004838698631257861
1097.0,0.004869468751923547
1096.0,0.004895351396791064
1095.0,0.004917478915274325
1094.0,0.004933666068901223
1093.0,0.004942558577521828
1092.0,0.004942959621014876
1091.0,0.004933633902594441
1090.0,0.004916250258647026
1089.0,0.004895137919620301
1088.0,0.004872975547664212
1087.0,0.004849679948038275
1086.0,0.004825098904881743
1085.0,0.004798993735444356
1084.0,0.00476928824315449
1083.0,0.004734696129130799
1082.0,0.004697703969565217
1081.0,0.004659949694109842
1080.0,0.004616213938175445
1079.0,0.004558727094559787
1078.0,0.004486621076297632
1077.0,0.004405928696483462
1076.0,0.004321628383989468
1075.0,0.004235035341522506
1074.0,0.004147020300832234
1073.0,0.004057755269131085
1072.0,0.003964772955715675
1071.0,0.0038670770508934726
1070.0,0.0037697437410906245
1069.0,0.0036787945493307658
1068.0,0.003593060155215235
1067.0,0.003506625419402754
1066.0,0.003417656555862094
1065.0,0.0033291740673269017
1064.0,0.0032424043162275415
1063.0,0.0031551327614858325
1062.0,0.003066324705591777
1061.0,0.002977695401475608
1060.0,0.0028912185598315323
1059.0,0.0028094678480555966
1058.0,0.002737555787788978
1057.0,0.002679762767890364
1056.0,0.0026339392742489383
1055.0,0.00259290681179318
1054.0,0.00255206345845191
1053.0,0.0025134778696835306
1052.0,0.002482719686016655
1051.0,0.002463835501790191
1050.0,0.0024565659984653113
1049.0,0.0024557059995632337
1048.0,0.002453867702656795
1047.0,0.0024470872662256905
1046.0,0.002436246841879679
1045.0,0.0024212554567103212
1044.0,0.002396937219690346
1043.0,0.00235793832343811
1042.0,0.002305369268499944
1041.0,0.0022449236717505994
1040.0,0.002180615910217792
1039.0,0.002114623695834728
1038.0,0.002050859022293345
1037.0,0.0019930075065748387
1036.0,0.0019396474656237957
1035.0,0.0018863147891604445
1034.0,0.001832695683384088
1033.0,0.0017834910217000765
1032.0,0.0017419244761530091
1031.0,0.0017070251817093464
1030.0,0.0016786020418267213
1029.0,0.0016610295457297687
1028.0,0.0016604019535736095
1027.0,0.0016811558377607195
1026.0,0.0017273501984043683
1025.0,0.0018041176878008536
1024.0,0.0019142743341015933
1023.0,0.0020541512371851744
1022.0,0.0022150060919667166
1021.0,0.002387522650501745
1020.0,0.0025620115650064894
1019.0,0.0027246578260245713
1018.0,0.0028570661046140463
1017.0,0.002940805807430655
1016.0,0.002962650461629107
1015.0,0.002918437643629473
1014.0,0.0028147556752847205
1013.0,0.0026666268215946166
1012.0,0.0024929417085225226
1011.0,0.002313000689144306
1010.0,0.002142933940436704
1009.0,0.00199144524880133
1008.0,0.0018594077246251242
1007.0,0.0017447440147610018
1006.0,0.0016465866675035947
1005.0,0.0015643679470457063
1004.0,0.0014956448148029352
1003.0,0.0014371180172046403
1002.0,0.0013866910485372708
1001.0,0.0013430949240192352
1000.0,0.0013046530606011693
999.0,0.001269808554319188
998.0,0.0012378208174753948
997.0,0.0012077845853361263
996.0,0.0011783119921267796
995.0,0.0011495307423426992
994.0,0.0011238763683451584
993.0,0.0011031115469459065
992.0,0.0010858671366244113
991.0,0.001070147970521031
990.0,0.0010571927339765998
989.0,0.0010507109207155117
988.0,0.0010530113500395975
987.0,0.0010635994145672763
986.0,0.001080345483868503
985.0,0.0010996248838712826
984.0,0.001116249248305157
983.0,0.001126577792199311
982.0,0.0011323489999937957
981.0,0.0011390256795678322
980.0,0.0011496608901909108
979.0,0.0011623822335889147
978.0,0.0011742806853573245
977.0,0.0011853357209374786
976.0,0.0011972417242570766
975.0,0.0012100444751196033
974.0,0.001221364257548221
973.0,0.0012282630629426579
972.0,0.0012291549320229693
971.0,0.001224290796397414
970.0,0.0012145394569143377
969.0,0.0011996046721208836
968.0,0.0011784486283320473
967.0,0.001152115825926948
966.0,0.001124253561361819
965.0,0.0010969381924057645
964.0,0.0010676950399453396
963.0,0.001033330681684224
962.0,0.0009955046492617298
961.0,0.0009593507844447798
960.0,0.000927095537743211
959.0,0.0008961886856902279
958.0,0.0008638528161922219
957.0,0.0008307361280496801
956.0,0.0007996587801730043
955.0,0.0007730840364262033
954.0,0.0007520411434579039
953.0,0.0007350662687540879
952.0,0.0007178343174127765
951.0,0.0006965260430796454
950.0,0.0006726206717016917
949.0,0.0006521547889041404
948.0,0.0006392942224251019
947.0,0.0006326685779349452
946.0,0.0006285509789331096
945.0,0.0006247849492380195
944.0,0.0006200340967156071
943.0,0.0006121171845728905
942.0,0.0006001208985242704
941.0,0.0005867642542737646
940.0,0.0005759164917094211
939.0,0.0005682430744632127
938.0,0.0005613304195115412
937.0,0.0005535845186780146
936.0,0.0005458933413367562
935.0,0.000539508487609206
934.0,0.0005340708260525911
933.0,0.0005278960863792405
932.0,0.0005189896437936845
931.0,0.0005061063756342961
930.0,0.0004903487033633852
929.0,0.0004755279598673719
928.0,0.00046520183875217746
927.0,0.0004590165583408107
926.0,0.00045339728068352625
925.0,0.00044616518573916655
924.0,0.0004388584738115461
923.0,0.00043387134356609523
922.0,0.000431062537045725
921.0,0.0004284986526759491
920.0,0.0004252022927481564
919.0,0.00042148580235552217
918.0,0.0004174604768453049
917.0,0.0004132057526087002
916.0,0.00041017792537641293
915.0,0.00041034962439873753
914.0,0.00041331454376197937
913.0,0.00041593108332921617
912.0,0.0004159983795146984
911.0,0.0004152547830106419
910.0,0.00041753941885046037
909.0,0.00042464786217586803
908.0,0.00043520217771516267
907.0,0.00044697079616549105
906.0,0.00045868618357345205
905.0,0.0004695554269285862
904.0,0.00047852963027404335
903.0,0.0004849678396379991
902.0,0.0004894595745661809
901.0,0.0004932562461827982
900.0,0.0004970108064342998
899.0,0.0005002652975830437
898.0,0.0005020531732733266
897.0,0.0005020329058333902
896.0,0.0005010427134478556
895.0,0.000500143551010691
894.0,0.0004989441717381539
893.0,0.0004960829192501616
892.0,0.0004924484964534618
891.0,0.0004925724945592375
890.0,0.0005003886879221104
889.0,0.0005139383253130515
888.0,0.0005271115368936123
887.0,0.0005374486305235085
886.0,0.0005498439176403059
885.0,0.0005713462779072449
884.0,0.0006046327535066244
883.0,0.0006481100204616525
882.0,0.0006997766424048848
881.0,0.0007580906398280149
880.0,0.0008206805823003133
879.0,0.0008859071375604017
878.0,0.0009553143356599214
877.0,0.0010305827067763037
876.0,0.001106764496437446
875.0,0.0011709808431708008
874.0,0.0012089971273432833
873.0,0.0012120933507672508
872.0,0.0011793147695931326
871.0,0.0011176684399169987
870.0,0.0010407194969763475
869.0,0.0009629421011702424
868.0,0.0008934793750796797
867.0,0.0008356357133682132
866.0,0.0007903456266932724
865.0,0.0007575788165051535
864.0,0.0007355101879144713
863.0,0.0007215512873521106
862.0,0.0007148311974516795
861.0,0.000715925467272469
860.0,0.0007242246658488753
859.0,0.000737454575632474
858.0,0.0007535220885010075
857.0,0.0007705265347714642
856.0,0.0007850166552407624
855.0,0.000793371619987574
854.0,0.00079635808300073
853.0,0.0008000548434742472
852.0,0.0008104442687081623
851.0,0.0008279880409680317
850.0,0.0008481297170505647
849.0,0.000865755538098016
848.0,0.0008783353037261675
847.0,0.0008860431797828171
846.0,0.0008901780729519857
845.0,0.0008913734286247368
844.0,0.000889225105004074
843.0,0.000883910477849421
842.0,0.0008772248107141133
841.0,0.000870836156713085
840.0,0.000864439586195503
839.0,0.000856982161553698
838.0,0.0008486257583354708
837.0,0.0008398931396253664
836.0,0.0008302166727029532
835.0,0.0008196018847154755
834.0,0.0008104296555135296
833.0,0.0008045790896020037
832.0,0.0007994822970318421
831.0,0.0007904776362628308
830.0,0.0007773539708439011
829.0,0.0007652807426750821
828.0,0.0007581927581689473
827.0,0.0007540720851379314
826.0,0.000748266283594341
825.0,0.0007393772516773658
824.0,0.0007307811623440831
823.0,0.0007279998994432501
822.0,0.0007343530117741321
821.0,0.0007472507798624167
820.0,0.0007597791455644454
819.0,0.0007679182603738495
818.0,0.0007746931159924243
817.0,0.0007849222319217483
816.0,0.000797718135627826
815.0,0.0008077479624899811
814.0,0.0008128496570904858
813.0,0.0008159154510493948
812.0,0.0008193079119816083
811.0,0.0008222821431328724
810.0,0.0008248956994328645
809.0,0.0008297596702995522
808.0,0.0008378725526319267
807.0,0.0008463706730811927
806.0,0.0008524948063219533
805.0,0.000856724888568625
804.0,0.0008602664748868297
803.0,0.0008627550501519813
802.0,0.0008646463954440319
801.0,0.0008692027531334435
800.0,0.0008799739734018834
799.0,0.0008982607851394792
798.0,0.0009242935996077702
797.0,0.0009582147680168292
796.0,0.0009978134954523885
795.0,0.0010370398958406014
794.0,0.0010686181330147376
793.0,0.0010873283011501593
792.0,0.0010910345304411765
791.0,0.0010816693857568851
790.0,0.0010657663944848668
789.0,0.001050497323505645
788.0,0.0010379455485604295
787.0,0.0010259248950141723
786.0,0.0010146047026162734
785.0,0.0010083313167353171
784.0,0.001009641180943092
783.0,0.0010153091820119448
782.0,0.001020388658910559
781.0,0.0010232020151671553
780.0,0.0010245442825559986
779.0,0.0010250693757577522
778.0,0.0010256372755897115
777.0,0.0010276926884017355
776.0,0.001031392924033103
775.0,0.001035270117064209
774.0,0.0010385651242412097
773.0,0.0010413948250584991
772.0,0.0010423892505152894
771.0,0.0010399611715658274
770.0,0.0010367205594307527
769.0,0.0010381018260208373
768.0,0.0010447466476689602
767.0,0.0010506579458933844
766.0,0.001051368449013581
765.0,0.00104961967351389
764.0,0.0010499941272044187
763.0,0.0010521654089067716
762.0,0.0010532152732421213
761.0,0.001053235680948254
760.0,0.001054397580013053
759.0,0.0010567646351928813
758.0,0.001058938852060892
757.0,0.0010609239177473023
756.0,0.0010627128018897035
755.0,0.001061831484179149
754.0,0.001056312508506449
753.0,0.0010493789695064314
752.0,0.0010476450732457405
751.0,0.0010545386881068487
750.0,0.00106747923439603
749.0,0.0010811866328504834
748.0,0.001092337916037992
747.0,0.0011017361574860419
746.0,0.0011133295013434756
745.0,0.0011307921837084571
744.0,0.00115489481343194
743.0,0.0011854468035948093
742.0,0.001225422939012435
741.0,0.00128033357853212
740.0,0.0013532389161692638
739.0,0.0014437413871157007
738.0,0.0015523781239616683
737.0,0.0016814929084203434
736.0,0.0018294876499302557
735.0,0.001987980612209129
734.0,0.002147493701025193
733.0,0.002303555149514538
732.0,0.0024564879814043474
731.0,0.0026101135137976622
730.0,0.0027724301132883355
729.0,0.0029509857743825092
728.0,0.003142375025375072
727.0,0.0033297801590579735
726.0,0.003493794880333536
725.0,0.0036209283668848487
724.0,0.0036997841949430376
723.0,0.003717811420503118
722.0,0.0036700515393706746
721.0,0.003569290454332928
720.0,0.0034419401474286033
719.0,0.003311767047965421
718.0,0.0031882072401366226
717.0,0.0030683493136899644
716.0,0.002945975367296562
715.0,0.0028195500828121023
714.0,0.0026959366501652883
713.0,0.002586727994649537
712.0,0.0024986133018747893
711.0,0.0024276344649550663
710.0,0.0023642324760050995
709.0,0.0023028863095626256
708.0,0.002245271222361068
707.0,0.002195951938681621
706.0,0.0021578273331789833
705.0,0.0021302354506955606
704.0,0.002108158687116928
703.0,0.0020835190090057144
702.0,0.002049742362010572
701.0,0.002005704424217882
700.0,0.0019548618287178097
699.0,0.0019020396658876604
698.0,0.0018526527761031546
697.0,0.0018126527895582396
696.0,0.0017857947325565313
695.0,0.0017708121135753064
694.0,0.0017622886552232883
693.0,0.001754134975335529
692.0,0.0017421706083165824
691.0,0.0017256051251988125
690.0,0.0017082464568410351
689.0,0.0016963059197527609
688.0,0.0016921962100212378
687.0,0.0016915436332516124
686.0,0.0016883319005526086
685.0,0.00168138784226803
684.0,0.001674005199355252
683.0,0.0016697820807447142
682.0,0.0016705006487965656
681.0,0.001674673070970461
680.0,0.001676413548092804
679.0,0.0016694302518360789
678.0,0.0016552503337613727
677.0,0.0016439043874383586
676.0,0.0016422131384234602
675.0,0.0016449575499624305
674.0,0.0016427265866073844
673.0,0.0016354814736497885
672.0,0.0016333346014723205
671.0,0.0016411331709742087
670.0,0.001648657197833689
669.0,0.0016339289683754941
668.0,0.0015971424665030091
667.0,0.0015751684303780262
666.0,0.0015821229164956325
665.0,0.0016001342648082357
664.0,0.0016129749311522023
663.0,0.0016151643161704094
662.0,0.0016137449508261967
661.0,0.0016178637678330113
660.0,0.0016230970019732072
659.0,0.001619000534654792
658.0,0.0016082420209276443
657.0,0.0016051668091467968
656.0,0.0016139294832746218
655.0,0.0016232782986887627
654.0,0.001625337234538113
653.0,0.001626133204514707
652.0,0.0016317128267489033
651.0,0.0016359441156209432
650.0,0.0016300222439087895
649.0,0.001615105115452764
648.0,0.0015974848529333595
647.0,0.0015796785220089397
646.0,0.0015628155149676934
645.0,0.0015490664159081087
644.0,0.0015370543999677759
643.0,0.0015229920900919382
642.0,0.0015102997797267238
641.0,0.0015086155805929544
640.0,0.0015173580363448502
639.0,0.0015198403652310916
638.0,0.0015035662001750155
637.0,0.001478364545917263
636.0,0.001463626145651925
635.0,0.0014667036147078603
634.0,0.00148176813240392
633.0,0.0015005268841173933
632.0,0.0015128879710375014
631.0,0.0015038943686522554
630.0,0.0014659784065233152
629.0,0.0014113652897089404
628.0,0.0013621133877904854
627.0,0.0013327263847993085
626.0,0.001326929097426076
625.0,0.0013436745911167263
624.0,0.0013748335711461761
623.0,0.0013973522274259918
622.0,0.0013834502101562644
621.0,0.0013264209721890962
620.0,0.001249810682588487
619.0,0.0011900414070443654
618.0,0.0011667905762669678
617.0,0.001165968521171443
616.0,0.0011568195850398845
615.0,0.0011269294926723739
614.0,0.001097199194460702
613.0,0.001097780953519444
612.0,0.0011354551925355687
611.0,0.0011911049430962856
610.0,0.0012435629212329581
609.0,0.0012862728989228886
608.0,0.0013160176545874598
607.0,0.0013204638638288878
606.0,0.0012911288356892755
605.0,0.0012404804242975927
604.0,0.0011962953047645482
603.0,0.0011838310396459855
602.0,0.0012110082717352285
601.0,0.001261583536832827
600.0,0.0013022866900576167
599.0,0.001305953100150802
598.0,0.0012773712160721478
597.0,0.0012470841906841055
596.0,0.001235652186323204
595.0,0.0012351646992305766
594.0,0.0012261655003137912
593.0,0.0012021951531271755
592.0,0.0011713872922843416
591.0,0.0011430778671113395
590.0,0.0011185140065545136
589.0,0.0010903032786083655
588.0,0.0010520112462745418
587.0,0.0010117665261647263
586.0,0.0009892921161872674
585.0,0.0009897669437489176
584.0,0.000988273219517573
583.0,0.0009521044996950467
582.0,0.0008767840316969522
581.0,0.0007857959021485179
580.0,0.0006966587043542912
579.0,0.0006071108344996873
578.0,0.000513822305091549
577.0,0.000432766044528971
576.0,0.0004015326447474052
575.0,0.00045225469664584694
574.0,0.0005591433818502335
573.0,0.0006387643415887842
572.0,0.0006264244768292362
571.0,0.0005440711189495088
570.0,0.00048011208471621623
569.0,0.0004770893263111053
568.0,0.0004838213109410647
567.0,0.0004429115648705239
566.0,0.000374247975388607
565.0,0.0003358034585488382
564.0,0.0003430374903865092
563.0,0.0003777139857927391
562.0,0.0004359372943717782
561.0,0.0005191001518663296
560.0,0.0005925755631950077
559.0,0.0006019556585860038
558.0,0.0005470990548299259
557.0,0.0004940204754111202
556.0,0.0004934959870084065
555.0,0.0005283545911200565
554.0,0.0005457927723147185
553.0,0.0005169150643704891
552.0,0.0004542469444429524
551.0,0.00039758944360824286
550.0,0.0003829739909147747
