cm-1,A
4000.0,0.003982410043190554
3999.0,0.003992860080372124
3998.0,0.004004724597841846
3997.0,0.004012549180644895
3996.0,0.004016525493424497
3995.0,0.004022336361515749
3994.0,0.004033037008436407
3993.0,0.004043409090562115
3992.0,0.00404416716991212
3991.0,0.0040328471821976415
3990.0,0.004018058899901731
3989.0,0.004012208224900821
3988.0,0.004019800794921964
3987.0,0.004032497777410375
3986.0,0.004036854503362179
3985.0,0.0040261137567667365
3984.0,0.0040064626818778655
3983.0,0.003991334516332237
3982.0,0.003988108231432712
3981.0,0.0039929025917577335
3980.0,0.003996535234396056
3979.0,0.003994714233092702
3978.0,0.0039913873758158
3977.0,0.003991973783399504
3976.0,0.0039973903069914505
3975.0,0.004004668509848731
3974.0,0.004011923091586226
3973.0,0.004020532082261531
3972.0,0.004031532007615957
3971.0,0.004042484271780049
3970.0,0.004049552544639825
3969.0,0.004051507268633432
3968.0,0.004050389753243443
3967.0,0.004048263939206731
3966.0,0.004043857911631367
3965.0,0.004034005138794875
3964.0,0.004018711733774261
3963.0,0.00400368933943133
3962.0,0.003997338590768966
3961.0,0.004003123499363233
3960.0,0.004016342247567572
3959.0,0.004029458516197331
3958.0,0.004037832742358151
3957.0,0.004040022826790589
3956.0,0.004034234768222958
3955.0,0.004018776246209144
3954.0,0.003995782015385375
3953.0,0.003972159265208192
3952.0,0.003955979080127734
3951.0,0.0039531675438076366
3950.0,0.003966421871724232
3949.0,0.003993700579112424
3948.0,0.004027712311302122
3947.0,0.004057722463526346
3946.0,0.0040749002271494575
3945.0,0.004076383987275365
3944.0,0.0040683893302825725
3943.0,0.004064166427529673
3942.0,0.004071791287149038
3941.0,0.004085551057630171
3940.0,0.004091429574910191
3939.0,0.004080890720802201
3938.0,0.004059231384751119
3937.0,0.004038591302118261
3936.0,0.004024039679375652
3935.0,0.004010078796096109
3934.0,0.003990868146306322
3933.0,0.003972065702900324
3932.0,0.003968764112004045
3931.0,0.003990179398557626
3930.0,0.004031513057216418
3929.0,0.004079211152840285
3928.0,0.004118868904451413
3927.0,0.004138557985232031
3926.0,0.004132311878175488
3925.0,0.004106692607175158
3924.0,0.004076260122848798
3923.0,0.004050040167412506
3922.0,0.0040280650757991456
3921.0,0.004010440453403672
3920.0,0.004002803794345055
3919.0,0.004010168027728535
3918.0,0.0040303938795425995
3917.0,0.004056570407002545
3916.0,0.004082464077708023
3915.0,0.004101288383189317
3914.0,0.00410711925153895
3913.0,0.004099648184518752
3912.0,0.004084832871777042
3911.0,0.004069120116217214
3910.0,0.004053172765470222
3909.0,0.004034675550897717
3908.0,0.004012479394826024
3907.0,0.003987032795314998
3906.0,0.003960104868641209
3905.0,0.003940520869750339
3904.0,0.003942973731152404
3903.0,0.003972877124125208
3902.0,0.004016955255551203
3901.0,0.004053547000836413
3900.0,0.004073666400246481
3899.0,0.004084719137978495
3898.0,0.0040952641725238515
3897.0,0.004103913839899253
3896.0,0.004105843055333306
3895.0,0.004100882861216127
3894.0,0.004092154416921696
3893.0,0.004078645275505843
3892.0,0.004058144727590311
3891.0,0.004037818705898166
3890.0,0.004029602278380532
3889.0,0.004036575885962713
3888.0,0.004044804887654887
3887.0,0.004038290355903336
3886.0,0.004026085224907048
3885.0,0.004030662417250712
3884.0,0.004053338863292472
3883.0,0.0040750049386508716
3882.0,0.00407719778841655
3881.0,0.0040599731495086664
3880.0,0.004041849184955066
3879.0,0.004036314642269273
3878.0,0.004039410212188223
3877.0,0.00403605002126269
3876.0,0.004013195023869501
3875.0,0.003979983070109029
3874.0,0.003965591411878876
3873.0,0.003984501873568207
3872.0,0.004013008901435202
3871.0,0.004014558561299626
3870.0,0.003991843100972264
3869.0,0.003981081560411058
3868.0,0.00399792439507937
3867.0,0.004021689742167909
3866.0,0.004029882816082794
3865.0,0.0040292018130827
3864.0,0.004038110504421068
3863.0,0.004052833362116605
3862.0,0.004056958314422173
3861.0,0.004043400173323084
3860.0,0.004015180979366332
3859.0,0.00398214260996266
3858.0,0.003958316861100171
3857.0,0.0039558728974288665
3856.0,0.0039678374091951145
3855.0,0.0039727309449592105
3854.0,0.00398076843867084
3853.0,0.004014360783539327
3852.0,0.004057143385168018
3851.0,0.004083890310101047
3850.0,0.004088926492573641
3849.0,0.0040815925210787255
3848.0,0.004074587240782669
3847.0,0.004070916805460914
3846.0,0.004064370622275612
3845.0,0.004048438990759264
3844.0,0.00402474893608228
3843.0,0.0040046367060830035
3842.0,0.004000095175305976
3841.0,0.004009944442184033
3840.0,0.00402040636509993
3839.0,0.004023254794737284
3838.0,0.004025261161314731
3837.0,0.004038157806363965
3836.0,0.0040640261961697585
3835.0,0.00409519412866511
3834.0,0.004118910689634012
3833.0,0.004123574629633905
3832.0,0.004108387408334739
3831.0,0.004083348734844798
3830.0,0.004059578586708561
3829.0,0.00403924802816794
3828.0,0.004016781242062562
3827.0,0.0039933739857921455
3826.0,0.003985639007562732
3825.0,0.004007925088900686
3824.0,0.0040488507759031895
3823.0,0.00407283023526638
3822.0,0.004059709800712687
3821.0,0.00403722003409647
3820.0,0.004041054226738358
3819.0,0.0040740792795117935
3818.0,0.004107596462639136
3817.0,0.004115162977069175
3816.0,0.004111347061283814
3815.0,0.004123613547617943
3814.0,0.00414582856240139
3813.0,0.0041517933709611255
3812.0,0.004133859370527341
3811.0,0.004112479624897956
3810.0,0.004111563081162814
3809.0,0.004124411243943522
3808.0,0.004121735133206051
3807.0,0.004095839573900563
3806.0,0.0040726818486945355
3805.0,0.004076889963824933
3804.0,0.004100109173633361
3803.0,0.0041078516531476645
3802.0,0.004089439877282308
3801.0,0.0040743384161805035
3800.0,0.00408347340012655
3799.0,0.004107856904995497
3798.0,0.004127933187226455
3797.0,0.0041369755398222565
3796.0,0.00414494173386938
3795.0,0.004159374482865703
3794.0,0.004174917863726052
3793.0,0.004183842302774397
3792.0,0.004186588750262765
3791.0,0.004188127065599286
3790.0,0.0041900673044407465
3789.0,0.004190581210278328
3788.0,0.00418915565555555
3787.0,0.004186868667518094
3786.0,0.004184320590739125
3785.0,0.004182991394195767
3784.0,0.004187551371501009
3783.0,0.004201162213569805
3782.0,0.004220964837102997
3781.0,0.004240577852959008
3780.0,0.004258337263922809
3779.0,0.004277671245553494
3778.0,0.0042979933929962995
3777.0,0.004311180876565639
3776.0,0.004308533989783631
3775.0,0.004293115854075856
3774.0,0.004281063586552432
3773.0,0.004282460198669769
3772.0,0.0042875283262230465
3771.0,0.0042828754992771684
3770.0,0.004274799129267746
3769.0,0.0042803541629083995
3768.0,0.0043021084828718855
3767.0,0.004325311381372809
3766.0,0.004338476362823048
3765.0,0.004348290447690749
3764.0,0.004367156106735213
3763.0,0.004390885664921977
3762.0,0.004401206743918004
3761.0,0.004390705154413252
3760.0,0.004373911075636708
3759.0,0.004364423048930701
3758.0,0.004357912399147925
3757.0,0.004347752772802994
3756.0,0.0043365871159022455
3755.0,0.004327188153709163
3754.0,0.004317435657704493
3753.0,0.00431062605590538
3752.0,0.004318202787592634
3751.0,0.0043367116859274885
3750.0,0.004347497362024
3749.0,0.004352821933012032
3748.0,0.004374239021844295
3747.0,0.004411692306114502
3746.0,0.004429198886440749
3745.0,0.004420532002213096
3744.0,0.004434255782965612
3743.0,0.00448362723828157
3742.0,0.004528898743113081
3741.0,0.004538279908070365
3740.0,0.004515660080575998
3739.0,0.0044911111668421945
3738.0,0.004488539891746348
3737.0,0.004515302043120635
3736.0,0.004570286486563477
3735.0,0.004638334968017069
3734.0,0.004690912826433639
3733.0,0.004707308480810324
3732.0,0.004694938228343518
3731.0,0.004680694718645656
3730.0,0.00468161015802679
3729.0,0.004688736457433423
3728.0,0.004680253616178028
3727.0,0.004653108429491996
3726.0,0.004631860710972369
3725.0,0.004639065386567621
3724.0,0.0046745324328052625
3723.0,0.0047242685735039164
3722.0,0.004775289301357852
3721.0,0.004819040567268183
3720.0,0.004850430999405269
3719.0,0.0048689668848813945
3718.0,0.00488072699420452
3717.0,0.004897866141456211
3716.0,0.0049273977715402735
3715.0,0.004963061948346883
3714.0,0.004992761403333648
3713.0,0.005013284110922764
3712.0,0.005034644970166986
3711.0,0.0050670715874722005
3710.0,0.005111770654419749
3709.0,0.005161146431058548
3708.0,0.005203042131118563
3707.0,0.005232267203520425
3706.0,0.0052561435097528055
3705.0,0.005286431361524588
3704.0,0.00532938442929873
3703.0,0.005383225655993353
3702.0,0.005441631099017207
3701.0,0.005497280429552885
3700.0,0.005545197179335148
3699.0,0.005582708840928738
3698.0,0.005609852248573296
3697.0,0.00563573759794413
3696.0,0.00567499697707134
3695.0,0.005730946707303855
3694.0,0.005792015634031707
3693.0,0.005847471739884315
3692.0,0.0059010714012415685
3691.0,0.0059673385043656985
3690.0,0.0060544300874895264
3689.0,0.0061508171025648995
3688.0,0.006236750060083617
3687.0,0.006308711927101971
3686.0,0.006377667782851898
3685.0,0.006451633435254968
3684.0,0.006532488087624127
3683.0,0.006621838306275356
3682.0,0.006716868975408732
3681.0,0.00680951976359108
3680.0,0.006898782645976853
3679.0,0.006994752661925504
3678.0,0.007101074054701832
3677.0,0.007204470948795429
3676.0,0.007304090296829994
3675.0,0.007414855900189504
3674.0,0.007540836296508174
3673.0,0.007675648194916139
3672.0,0.007805675885203093
3671.0,0.00793268151149172
3670.0,0.008085681114132885
3669.0,0.008268278335975831
3668.0,0.008446952560739195
3667.0,0.008601162346578015
3666.0,0.008739455619980987
3665.0,0.00888347167366785
3664.0,0.009046436955494296
3663.0,0.009222889764694528
3662.0,0.009396523845680307
3661.0,0.00955833646512418
3660.0,0.00971389954254868
3659.0,0.009875419772042439
3658.0,0.010050015844878458
3657.0,0.010234988448893886
3656.0,0.010423591199011296
3655.0,0.010614629763442303
3654.0,0.010817351453029457
3653.0,0.011038165519521177
3652.0,0.011269669282619101
3651.0,0.01150073725463396
3650.0,0.011727042618605507
3649.0,0.011948018505486265
3648.0,0.012168079306483972
3647.0,0.012393760224671244
3646.0,0.012627171293609303
3645.0,0.01286529735829782
3644.0,0.013102114175489126
3643.0,0.013335596584384575
3642.0,0.013573157970190146
3641.0,0.013824979729346803
3640.0,0.014090018729269446
3639.0,0.014357540472150692
3638.0,0.014620734794410985
3637.0,0.014880195918406405
3636.0,0.015136460971880646
3635.0,0.015389733299919474
3634.0,0.015649683830628227
3633.0,0.015930074073124852
3632.0,0.01622971005744408
3631.0,0.01652382938140598
3630.0,0.01678678510372631
3629.0,0.01702679306946585
3628.0,0.017271700661792958
3627.0,0.01753671513346293
3626.0,0.017820054030470555
3625.0,0.018112080453592312
3624.0,0.018405965130097932
3623.0,0.01870237170715219
3622.0,0.019005747247912215
3621.0,0.019316737941168134
3620.0,0.019626622000254793
3619.0,0.019920327053866784
3618.0,0.020195958684452297
3617.0,0.02047214822556094
3616.0,0.020765492174427955
3615.0,0.021074868532568694
3614.0,0.021387650161007517
3613.0,0.02169102561703954
3612.0,0.02197886756298357
3611.0,0.02225516656880341
3610.0,0.022530716237416905
3609.0,0.02281416253091619
3608.0,0.023104846147187063
3607.0,0.02339869940376929
3606.0,0.023699167053121216
3605.0,0.02401186579981299
3604.0,0.024333781291187635
3603.0,0.024655077874414098
3602.0,0.024967720916895593
3601.0,0.025270568507035022
3600.0,0.025564830688601946
3599.0,0.025849873237078522
3598.0,0.026127792837077918
3597.0,0.0264050882529928
3596.0,0.026686265823100852
3595.0,0.026971076955608866
3594.0,0.027258970054609033
3593.0,0.027551045457576688
3592.0,0.02784962257386658
3591.0,0.028158253583208864
3590.0,0.028478058885514655
3589.0,0.02880029493567512
3588.0,0.029105982058472292
3587.0,0.029387185269221454
3586.0,0.02966391902067505
3585.0,0.02996129041118221
3584.0,0.030282767926694154
3583.0,0.03061625874410291
3582.0,0.030951104090602345
3581.0,0.03128043746865858
3580.0,0.031597313894048545
3579.0,0.031898785059158635
3578.0,0.03219363988947775
3577.0,0.03249600998898296
3576.0,0.032810863942797135
3575.0,0.03313179798106279
3574.0,0.033451021529773486
3573.0,0.03376476269685507
3572.0,0.034071547649724074
3571.0,0.034372356646894024
3570.0,0.03466904601379682
3569.0,0.034958324256503075
3568.0,0.03523201027008635
3567.0,0.035493866404115816
3566.0,0.03577021042176519
3565.0,0.036086486767655225
3564.0,0.03644024488977169
3563.0,0.036808482137841624
3562.0,0.03717073991732413
3561.0,0.03751834032611975
3560.0,0.037850428969976826
3559.0,0.03817136041928804
3558.0,0.03848984077131407
3557.0,0.03881373977800138
3556.0,0.039144042951358225
3555.0,0.03947476278506728
3554.0,0.03979691841448851
3553.0,0.040103402681321954
3552.0,0.0403966753625791
3551.0,0.040693544328761135
3550.0,0.041014107794347686
3549.0,0.041361855191937205
3548.0,0.04171885721355058
3547.0,0.04206392714155698
3546.0,0.04239237553285683
3545.0,0.042711986116819874
3544.0,0.04302736292687119
3543.0,0.04333969815495293
3542.0,0.04365624432186317
3541.0,0.04398702067057048
3540.0,0.0443331370574337
3539.0,0.04468587498585381
3538.0,0.045034238074306884
3537.0,0.04536919171302941
3536.0,0.04568754001322718
3535.0,0.045999168805657444
3534.0,0.046323835629728034
3533.0,0.04667212989618343
3532.0,0.04703341315028344
3531.0,0.04738861016698164
3530.0,0.047730956739345215
3529.0,0.04806649767736294
3528.0,0.04840050765692739
3527.0,0.04873458628427006
3526.0,0.049072469868993204
3525.0,0.04941620273231221
3524.0,0.04975858008897227
3523.0,0.050091082808959735
3522.0,0.05041726163908767
3521.0,0.05074792841694275
3520.0,0.05108652781163077
3519.0,0.05142961402935641
3518.0,0.051778146901072124
3517.0,0.052136854452802306
3516.0,0.052502983992652345
3515.0,0.05286637866681529
3514.0,0.05322075305194261
3513.0,0.05356733934535439
3512.0,0.05390945573060621
3511.0,0.05425122179050613
3510.0,0.05459905720310262
3509.0,0.0549566409683858
3508.0,0.05532016572390622
3507.0,0.05568389568315623
3506.0,0.05604614995465455
3505.0,0.056404443369837624
3504.0,0.05675079672973136
3503.0,0.05708162275726268
3502.0,0.05740857622653649
3501.0,0.05774924607219319
3500.0,0.058110411248949334
3499.0,0.058487030877950326
3498.0,0.058869814395460726
3497.0,0.05924613113718111
3496.0,0.059601907193290594
3495.0,0.0599347625930356
3494.0,0.0602623743881155
3493.0,0.06060754812509728
3492.0,0.060977022271723816
3491.0,0.06136154586890075
3490.0,0.061750278114894586
3489.0,0.062135102423516164
3488.0,0.06250738671794226
3487.0,0.0628632887332182
3486.0,0.06321079687235044
3485.0,0.06356222003546055
3484.0,0.06392006622897739
3483.0,0.06427668606986242
3482.0,0.06462617821164778
3481.0,0.06497112634389988
3480.0,0.06532055114618288
3479.0,0.06568564825029805
3478.0,0.06607111524680077
3477.0,0.06646514244409464
3476.0,0.06684511440603509
3475.0,0.06720103823131746
3474.0,0.0675470620390498
3473.0,0.0679016848550593
3472.0,0.06826570936100397
3471.0,0.06862973986829037
3470.0,0.06899271732927498
3469.0,0.06935871280692076
3468.0,0.0697224640929915
3467.0,0.07007383120317777
3466.0,0.07041476350629261
3465.0,0.07075923769848382
3464.0,0.07111770870950773
3463.0,0.07149023769841643
3462.0,0.07187055959721257
3461.0,0.07224798456638797
3460.0,0.07260943826504267
3459.0,0.07295048714982828
3458.0,0.07328211439433341
3457.0,0.0736178960623955
3456.0,0.07395853969226399
3455.0,0.07429671988901448
3454.0,0.07463124737958503
3453.0,0.07496809477306819
3452.0,0.07531287728959286
3451.0,0.07566936441757013
3450.0,0.0760384282370953
3449.0,0.07640938625397284
3448.0,0.07676071193956922
3447.0,0.0770836787378551
3446.0,0.07739853249784519
3445.0,0.0777317462389065
3444.0,0.07808436933315933
3443.0,0.07843683977958234
3442.0,0.07877800753716467
3441.0,0.07911507561892084
3440.0,0.07945649150726963
3439.0,0.07979901094251425
3438.0,0.08013470925131254
3437.0,0.08046082564876482
3436.0,0.08078047597757972
3435.0,0.08109993748980296
3434.0,0.08142486997327175
3433.0,0.08175502877611361
3432.0,0.0820850657809987
3431.0,0.08241367747923081
3430.0,0.08274664311979876
3429.0,0.08308509942525891
3428.0,0.08341720980064321
3427.0,0.08373010124729778
3426.0,0.08402557974822385
3425.0,0.08431587310905832
3424.0,0.08460762897156736
3423.0,0.0848974524512627
3422.0,0.08518039251725022
3421.0,0.08545680772549848
3420.0,0.08573280563224443
3419.0,0.08601760106099297
3418.0,0.08631602707209428
3417.0,0.0866196447113938
3416.0,0.08691149204625358
3415.0,0.08718501222842633
3414.0,0.08745192616155557
3413.0,0.08772582541270084
3412.0,0.08800627314848097
3411.0,0.08828543569584586
3410.0,0.08856072353145104
3409.0,0.08883206073502484
3408.0,0.08909498535346061
3407.0,0.08934800016029673
3406.0,0.08960138941585678
3405.0,0.08986700508440959
3404.0,0.09014142148811573
3403.0,0.09040800002630672
3402.0,0.09065395460569997
3401.0,0.09087868393397762
3400.0,0.0910892090012487
3399.0,0.09129638146304313
3398.0,0.09151313130495158
3397.0,0.09174690413427335
3396.0,0.09199252563539699
3395.0,0.09223624570119104
3394.0,0.09246512364481103
3393.0,0.092671601177874
3392.0,0.09285664328905872
3391.0,0.09303333351307433
3390.0,0.09322026721764827
3389.0,0.09342505695179826
3388.0,0.09363844893860811
3387.0,0.0938480186264874
3386.0,0.09405095364161273
3385.0,0.09424808736488853
3384.0,0.09443381315718224
3383.0,0.09460189465666775
3382.0,0.09475632991671167
3381.0,0.09490807735144996
3380.0,0.09506424520196326
3379.0,0.09522534779257014
3378.0,0.09538806681960682
3377.0,0.09554502579866278
3376.0,0.09568773493728921
3375.0,0.09581678599448899
3374.0,0.09594454969835722
3373.0,0.09608190632969277
3372.0,0.09622681011756487
3371.0,0.0963704076617677
3370.0,0.09650808044370901
3369.0,0.09663839022756998
3368.0,0.09675722178335967
3367.0,0.09686116826402394
3366.0,0.09695350310832214
3365.0,0.09704086631008034
3364.0,0.09712727259580858
3363.0,0.09721486138686306
3362.0,0.09730493176818934
3361.0,0.09739373986725541
3360.0,0.09747265307988587
3359.0,0.09753693194165756
3358.0,0.09758977865414974
3357.0,0.09763576452446944
3356.0,0.09767805348590773
3355.0,0.09772463310125483
3354.0,0.09778640622074877
3353.0,0.09786259891211808
3352.0,0.09793657096598055
3351.0,0.0979931815755007
3350.0,0.09803329716782319
3349.0,0.09806472487631465
3348.0,0.09808742633615472
3347.0,0.0980971935123621
3346.0,0.09809784072799183
3345.0,0.09809944935904868
3344.0,0.09810697818167377
3343.0,0.09811741222900743
3342.0,0.09812523791825017
3341.0,0.0981259023244865
3340.0,0.09811775921672324
3339.0,0.09810461168117925
3338.0,0.09809167305245405
3337.0,0.09807571614482807
3336.0,0.09804601216136327
3335.0,0.0979997380732136
3334.0,0.09794894117438659
3333.0,0.09790627914154772
3332.0,0.09787098819103328
3331.0,0.09783501230822612
3330.0,0.09779563623194597
3329.0,0.09775477674349091
3328.0,0.09771176907840366
3327.0,0.09766481190546726
3326.0,0.0976160209958634
3325.0,0.09756804849912665
3324.0,0.09751812043474872
3323.0,0.09746120748809682
3322.0,0.09739706439557339
3321.0,0.09733013536602392
3320.0,0.09726540944077049
3319.0,0.09720731513139878
3318.0,0.09715803411565874
3317.0,0.09711301707332672
3316.0,0.09706269697765553
3315.0,0.09700263715163056
3314.0,0.0969380214621609
3313.0,0.0968747904653894
3312.0,0.09681051292589848
3311.0,0.09673774139238642
3310.0,0.09665340410425967
3309.0,0.09656277656591199
3308.0,0.09647734697139647
3307.0,0.09640841037971422
3306.0,0.09635657378665005
3305.0,0.09630683620216614
3304.0,0.09624160311360762
3303.0,0.09616103548450222
3302.0,0.09608315288865134
3301.0,0.09602147123995058
3300.0,0.0959709956225162
3299.0,0.09591894897325057
3298.0,0.09585889830564215
3297.0,0.09578864593021917
3296.0,0.09570418193398908
3295.0,0.09560536380133774
3294.0,0.09550278027055083
3293.0,0.09541057332831412
3292.0,0.09533355142702289
3291.0,0.09526495495770174
3290.0,0.09519379675692223
3289.0,0.09511183669264545
3288.0,0.09501800901529364
3287.0,0.0949193222050645
3286.0,0.09482349528828915
3285.0,0.09472898923302385
3284.0,0.0946273755221918
3283.0,0.09451632978173578
3282.0,0.09440270858097698
3281.0,0.09429062384160478
3280.0,0.09417560167913609
3279.0,0.09405480539065159
3278.0,0.09393359331695321
3277.0,0.09381531766863023
3276.0,0.09369274775209396
3275.0,0.09355804360275884
3274.0,0.0934156800254487
3273.0,0.09327728753033765
3272.0,0.09314770777891024
3271.0,0.09302318106972442
3270.0,0.0928991714140796
3269.0,0.09277203902607836
3268.0,0.09263439944510989
3267.0,0.09247557817210797
3266.0,0.09228921823714355
3265.0,0.09208072931808557
3264.0,0.0918687823694769
3263.0,0.09167687395635228
3262.0,0.09151523922581178
3261.0,0.09136806026578007
3260.0,0.09120546094714384
3259.0,0.09101284834974885
3258.0,0.09080347952602333
3257.0,0.09059980503917499
3256.0,0.09041068712436587
3255.0,0.09023182815987829
3254.0,0.09005901125465342
3253.0,0.0898902356374724
3252.0,0.08971929106690407
3251.0,0.08953863364452173
3250.0,0.0893491086687699
3249.0,0.0891588114706755
3248.0,0.08897045667074664
3247.0,0.08877546487929827
3246.0,0.08856366144010286
3245.0,0.08833641444712759
3244.0,0.0881076813412197
3243.0,0.08789228708928158
3242.0,0.08769375151787588
3241.0,0.08750286750067113
3240.0,0.08730716818233986
3239.0,0.08710104001634163
3238.0,0.08688680933457021
3237.0,0.08666901540900888
3236.0,0.08645076238160421
3235.0,0.0862333592982104
3234.0,0.08601449908137387
3233.0,0.08578739669061104
3232.0,0.08554704309279068
3231.0,0.08529820077047905
3230.0,0.08505270248958653
3229.0,0.08481771106786642
3228.0,0.0845905182525701
3227.0,0.08436511975627319
3226.0,0.08413910109787472
3225.0,0.08391282625534884
3224.0,0.08368574303095891
3223.0,0.08345475424824457
3222.0,0.08321391887844465
3221.0,0.08295743683934033
3220.0,0.08268780226300346
3219.0,0.08241892943155545
3218.0,0.08216347492266168
3217.0,0.08191722844556143
3216.0,0.08166415150512583
3215.0,0.0813977947547386
3214.0,0.08112832840763186
3213.0,0.08086466820913871
3212.0,0.08059988789891036
3211.0,0.08032249764009552
3210.0,0.08003502496825339
3209.0,0.07975111940607459
3208.0,0.07947639882576438
3207.0,0.07920112138057328
3206.0,0.07891282973515464
3205.0,0.07860986423704841
3204.0,0.07830040683538499
3203.0,0.07799274911638489
3202.0,0.0776894095329118
3201.0,0.07738846832567936
3200.0,0.07708731567635337
3199.0,0.07678431243019816
3198.0,0.07647807032906334
3197.0,0.07616697549465776
3196.0,0.07585042405184288
3195.0,0.07552985167514899
3194.0,0.07520797330449347
3193.0,0.07488787575992971
3192.0,0.0745723628200377
3191.0,0.07426078611643674
3190.0,0.07394504399503056
3189.0,0.07361324108649388
3188.0,0.07326239110403399
3187.0,0.072905648572721
3186.0,0.07256155353193007
3185.0,0.07223604898846848
3184.0,0.07191919124708623
3183.0,0.07159846425587672
3182.0,0.07126923909276954
3181.0,0.07093176560100968
3180.0,0.070585272803427
3179.0,0.07022964903094565
3178.0,0.06986992510624193
3177.0,0.06951524753571786
3176.0,0.06917319603780542
3175.0,0.0688450126935208
3174.0,0.06852443880202479
3173.0,0.068200853725149
3172.0,0.06786581763168446
3171.0,0.0675176164443156
3170.0,0.06715916630510932
3169.0,0.06679376893191867
3168.0,0.06642571647644364
3167.0,0.06606249218361736
3166.0,0.06571095987797004
3165.0,0.06537110614569609
3164.0,0.06503691255680123
3163.0,0.0647026456023716
3162.0,0.06436479799852507
3161.0,0.06401975193889219
3160.0,0.06366621068929067
3159.0,0.06331111439561676
3158.0,0.06296698550344763
3157.0,0.06263989336199699
3156.0,0.06232284916539829
3155.0,0.062002719825167904
3154.0,0.06167102608926222
3153.0,0.06132804160836907
3152.0,0.06098100214717894
3151.0,0.06064001970926898
3150.0,0.06031168500605908
3149.0,0.05999344760660567
3148.0,0.05967583771358433
3147.0,0.059351598553797125
3146.0,0.059021127646827716
3145.0,0.05868946432447332
3144.0,0.058361238729813775
3143.0,0.058038639956837786
3142.0,0.05772076228762642
3141.0,0.05740410965837846
3140.0,0.05708681313783524
3139.0,0.056773269223767235
3138.0,0.05647100500936098
3137.0,0.05618125754941588
3136.0,0.05589572398305209
3135.0,0.05560383293796599
3134.0,0.05530120902246483
3133.0,0.054991759006563286
3132.0,0.05468495373415281
3131.0,0.05439070217444011
3130.0,0.054111534129069105
3129.0,0.053837565043077906
3128.0,0.05355400207728465
3127.0,0.05325692966426012
3126.0,0.05295778017636118
3125.0,0.05266968714642258
3124.0,0.052393257182440506
3123.0,0.05211885549970284
3122.0,0.05184031355092964
3121.0,0.05156195020817825
3120.0,0.05129244791896552
3119.0,0.05103481311204902
3118.0,0.05078246496603134
3117.0,0.05052478810826558
3116.0,0.05025744540268451
3115.0,0.049986965544581534
3114.0,0.04972343406196888
3113.0,0.04946950600562547
3112.0,0.049220292371955375
3111.0,0.04897301292366271
3110.0,0.04873137116352478
3109.0,0.048499444369443576
3108.0,0.04827562699897561
3107.0,0.04805483937017683
3106.0,0.04783250684839824
3105.0,0.0476040699910784
3104.0,0.04736598833966192
3103.0,0.0471209805361677
3102.0,0.04687889578632035
3101.0,0.046648408256006794
3100.0,0.04642907172072591
3099.0,0.046214459447919624
3098.0,0.04600029824435266
3097.0,0.0457857371678383
3096.0,0.04556934443778556
3095.0,0.045348287368397966
3094.0,0.045121877953545844
3093.0,0.044893541775405575
3092.0,0.04466897616516046
3091.0,0.044453119065567696
3090.0,0.04424708784170151
3089.0,0.044046928853732265
3088.0,0.043847163069414656
3087.0,0.043647091829146785
3086.0,0.043451164999164085
3085.0,0.043260958458079354
3084.0,0.04306976645582503
3083.0,0.042868241107449835
3082.0,0.04265493408688766
3081.0,0.04243865374465919
3080.0,0.04222998539333309
3079.0,0.042032320689491524
3078.0,0.041840854660615184
3077.0,0.041648774796599494
3076.0,0.041453770921341115
3075.0,0.041258452621963926
3074.0,0.04106474827307514
3073.0,0.04087015679700164
3072.0,0.040671225121333796
3071.0,0.0404687798242659
3070.0,0.04026635210295244
3069.0,0.04006389043540721
3068.0,0.039857862741807595
3067.0,0.03964780022371058
3066.0,0.039437741424646844
3065.0,0.039229565851482615
3064.0,0.0390196884714057
3063.0,0.038806129302115064
3062.0,0.03859420693309135
3061.0,0.03839059725225053
3060.0,0.03819374491811114
3059.0,0.03799388911626617
3058.0,0.03778256524826684
3057.0,0.03755943087593868
3056.0,0.037331022716028554
3055.0,0.03710557129607096
3054.0,0.03688807344719938
3053.0,0.03667789802417539
3052.0,0.03647037151012346
3051.0,0.036261168257278695
3050.0,0.03604922997773005
3049.0,0.035835940317478145
3048.0,0.03562367967711217
3047.0,0.03541558024798599
3046.0,0.035213637587753914
3045.0,0.035015252834807525
3044.0,0.03481372003610223
3043.0,0.03460470339972599
3042.0,0.03439117121337928
3041.0,0.03418077830093794
3040.0,0.03397930332258466
3039.0,0.03378664948457
3038.0,0.03359709886874677
3037.0,0.03340284902418681
3036.0,0.033200191566776324
3035.0,0.03299399162561581
3034.0,0.03279364831080144
3033.0,0.03260342854083648
3032.0,0.03241918047708244
3031.0,0.03223474955117875
3030.0,0.03204799501927295
3029.0,0.03185887881970278
3028.0,0.03166682781818267
3027.0,0.03147385938074601
3026.0,0.031286453543098655
3025.0,0.031109115839405642
3024.0,0.030937613937496562
3023.0,0.030762721386864707
3022.0,0.03058026213395448
3021.0,0.030395183585350902
3020.0,0.03021620569219664
3019.0,0.030048759859051224
3018.0,0.029891416891562734
3017.0,0.029736713222585316
3016.0,0.02957702029156969
3015.0,0.029411382633598413
3014.0,0.029246230976869476
3013.0,0.02908820560061717
3012.0,0.02893780386367882
3011.0,0.028790886448891093
3010.0,0.02864337032122569
3009.0,0.0284936507365739
3008.0,0.028344025189038235
3007.0,0.02820172296100541
3006.0,0.02807497784711304
3005.0,0.02796407225463686
3004.0,0.027858859813978277
3003.0,0.027748574551512768
3002.0,0.027632195017307085
3001.0,0.02751732391775394
3000.0,0.027411403188190103
2999.0,0.027317626293772646
2998.0,0.027236387629260277
2997.0,0.027166040493068873
2996.0,0.02710316225581983
2995.0,0.02704546254744576
2994.0,0.026994642017935173
2993.0,0.02695439553216652
2992.0,0.02692642404283503
2991.0,0.026910174805230776
2990.0,0.026904968264202536
2989.0,0.026911044969916566
2988.0,0.02693028324046561
2987.0,0.0269671444297064
2986.0,0.027025814462086777
2985.0,0.02710433282262004
2984.0,0.02719537141546726
2983.0,0.027296098080982024
2982.0,0.027414802074989236
2981.0,0.027564089755216976
2980.0,0.027750361016612306
2979.0,0.027973254165887345
2978.0,0.02823296252527451
2977.0,0.028534221134716715
2976.0,0.02888535541138697
2975.0,0.02929736978694586
2974.0,0.029782148800120388
2973.0,0.030347537230061523
2972.0,0.030994411131820054
2971.0,0.0317220902129633
2970.0,0.03253503611749289
2969.0,0.033440795652575156
2968.0,0.03444254448208247
2967.0,0.03553598979926819
2966.0,0.036711034359436276
2965.0,0.03794937313900484
2964.0,0.03921786551590318
2963.0,0.040464746077359115
2962.0,0.04162244731288734
2961.0,0.042621766999319285
2960.0,0.043413524591762384
2959.0,0.04398670426109735
2958.0,0.04437271457232132
2957.0,0.04463398793228343
2956.0,0.04484652553041842
2955.0,0.045079040734234105
2954.0,0.04536802364335496
2953.0,0.04569695922424012
2952.0,0.045994104312264604
2951.0,0.04615616546597141
2950.0,0.04607931785202995
2949.0,0.045682659731434365
2948.0,0.04492945785518038
2947.0,0.043841999200252835
2946.0,0.04250164343819065
2945.0,0.04102670751035973
2944.0,0.03954211106595751
2943.0,0.03815872707399167
2942.0,0.03696220773872669
2941.0,0.03600577886668221
2940.0,0.035305422297192544
2939.0,0.03485014284536562
2938.0,0.034621398600153445
2937.0,0.034603364879926136
2936.0,0.03478227275702682
2935.0,0.03514171940025621
2934.0,0.03566004427992643
2933.0,0.03631064997063268
2932.0,0.03706491416188622
2931.0,0.03789747858857164
2930.0,0.03878758080214041
2929.0,0.03971200492628286
2928.0,0.04063923083253756
2927.0,0.0415344134854968
2926.0,0.04237060076859695
2925.0,0.043137649070394406
2924.0,0.04384479572203293
2923.0,0.044514156435495514
2922.0,0.04516176743943884
2921.0,0.045772694059320496
2920.0,0.046292399576547426
2919.0,0.04664359428435447
2918.0,0.04675810521027179
2917.0,0.046601836734279416
2916.0,0.0461864856061641
2915.0,0.04556661990045282
2914.0,0.04482085105962051
2913.0,0.04402906756453809
2912.0,0.04325496164129857
2911.0,0.042540958112604325
2910.0,0.04190789404160644
2909.0,0.041352483770653946
2908.0,0.04084820532635023
2907.0,0.04035629326843925
2906.0,0.03984145545881471
2905.0,0.03928024987923525
2904.0,0.03866308247119671
2903.0,0.03799341393611973
2902.0,0.03728513109731519
2901.0,0.03655509995747714
2900.0,0.03581651218760005
2899.0,0.03508041929777983
2898.0,0.03436007604385852
2897.0,0.03367040279450865
2896.0,0.033023690290929816
2895.0,0.03243002702426939
2894.0,0.03190020364566469
2893.0,0.031443536247945145
2892.0,0.031062334727619254
2891.0,0.030751769683481908
2890.0,0.03050587761929342
2889.0,0.03031984875587027
2888.0,0.030187461281514442
2887.0,0.0301009968045157
2886.0,0.030055265221260022
2885.0,0.030050376499672973
2884.0,0.030089576388384952
2883.0,0.030175137464825134
2882.0,0.03030347507410688
2881.0,0.03045971998323057
2880.0,0.03061687275370985
2879.0,0.030741896776884638
2878.0,0.030805590846103514
2877.0,0.03079005560997545
2876.0,0.03069640822513938
2875.0,0.030551898643543664
2874.0,0.030406355138278066
2873.0,0.030312678514955775
2872.0,0.030301932771198435
2871.0,0.030374020736729315
2870.0,0.030504390959826863
2869.0,0.030648979483005285
2868.0,0.03074430517958742
2867.0,0.03071296259002331
2866.0,0.030481944275001498
2865.0,0.030007790080088845
2864.0,0.029294227360222337
2863.0,0.028395382304235144
2862.0,0.02740096991542603
2861.0,0.02640829308725833
2860.0,0.025493050630438403
2859.0,0.024697393451650562
2858.0,0.02403766709346791
2857.0,0.023515403025046525
2856.0,0.023122436658862235
2855.0,0.02284303468116795
2854.0,0.022658186867737108
2853.0,0.02255026257696482
2852.0,0.022505064207057782
2851.0,0.022513990624555714
2850.0,0.022576613671721805
2849.0,0.022701348965991075
2848.0,0.022903815333693418
2847.0,0.023204284457863013
2846.0,0.02362118251222247
2845.0,0.024161394686564783
2844.0,0.0248138681897027
2843.0,0.02555015503970617
2842.0,0.026327167354781522
2841.0,0.027085672340511246
2840.0,0.027751499345209048
2839.0,0.02824473448572911
2838.0,0.028492788690536442
2837.0,0.028440772289792863
2836.0,0.02806274777170074
2835.0,0.027376069867324614
2834.0,0.026447822377258522
2833.0,0.0253798822710833
2832.0,0.024276170667051376
2831.0,0.023216540616359044
2830.0,0.022249090595108954
2829.0,0.021395402721636963
2828.0,0.02065801606538832
2827.0,0.02002633314768864
2826.0,0.019483800345936164
2825.0,0.019012035274760586
2824.0,0.018593464961856394
2823.0,0.018215171230529764
2822.0,0.0178717043262326
2821.0,0.017561884687926972
2820.0,0.017282509059324026
2819.0,0.017027760155537797
2818.0,0.016793691969866194
2817.0,0.016578911563022228
2816.0,0.016380262457287294
2815.0,0.01619180732074958
2814.0,0.016009416605554598
2813.0,0.01583346539236595
2812.0,0.015666001402916376
2811.0,0.015507563592165222
2810.0,0.015357498421392883
2809.0,0.015214382360945206
2808.0,0.015074877566191733
2807.0,0.01493450410067886
2806.0,0.014790511387691458
2805.0,0.01464284400267883
2804.0,0.014492511584840169
2803.0,0.01434115313328239
2802.0,0.014192284203164667
2801.0,0.014050337880683014
2800.0,0.013917941666923015
2799.0,0.013795312645828247
2798.0,0.013681946530674857
2797.0,0.013577112560965431
2796.0,0.01347911639539869
2795.0,0.01338600816565124
2794.0,0.013296097633606776
2793.0,0.0132059002511453
2792.0,0.013109052710340836
2791.0,0.013000932140544872
2790.0,0.012884263759624126
2789.0,0.012767451571215355
2788.0,0.012657479385119871
2787.0,0.012555695554765715
2786.0,0.012459742985802325
2785.0,0.012366899074492807
2784.0,0.01227545457041282
2783.0,0.012185372313947517
2782.0,0.012097600697531076
2781.0,0.012011569305331364
2780.0,0.011924697172731811
2779.0,0.011836323238049649
2778.0,0.011750618916307517
2777.0,0.011672804633138955
2776.0,0.011603483299959272
2775.0,0.011538974922088815
2774.0,0.011476108890657387
2773.0,0.011414262172412216
2772.0,0.011353667176352143
2771.0,0.011294390887479903
2770.0,0.011236551712857317
2769.0,0.01117957539566844
2768.0,0.011122010405242367
2767.0,0.011063640753807483
2766.0,0.011006517061023055
2765.0,0.010952337699694375
2764.0,0.01090043280692741
2763.0,0.010849843914602976
2762.0,0.010801063507056004
2761.0,0.010753590879327314
2760.0,0.010704439172927717
2759.0,0.010651987216805586
2758.0,0.010598972743745159
2757.0,0.010548679413154289
2756.0,0.01050016611765093
2755.0,0.010450293643885979
2754.0,0.010398890703069857
2753.0,0.010349238711815515
2752.0,0.010304867889455966
2751.0,0.010267599684832983
2750.0,0.010236343676913506
2749.0,0.010205760491551532
2748.0,0.010169335319782138
2747.0,0.010126483514862315
2746.0,0.0100839319111466
2745.0,0.01004775381443438
2744.0,0.010017327337099062
2743.0,0.00998990473034756
2742.0,0.009966675624751216
2741.0,0.009949748549162868
2740.0,0.009936718826467229
2739.0,0.009922930089048095
2738.0,0.009906218856942789
2737.0,0.009885338058396108
2736.0,0.009857449361021255
2735.0,0.009822641079230534
2734.0,0.009788436073078449
2733.0,0.009764436856005521
2732.0,0.009753545572748587
2731.0,0.009752226229256145
2730.0,0.00975629576209543
2729.0,0.009761699643321105
2728.0,0.009763039629853277
2727.0,0.00975780667735886
2726.0,0.009750359022201014
2725.0,0.009746087298172454
2724.0,0.009742928656417377
2723.0,0.009733120044865195
2722.0,0.009711601098653422
2721.0,0.00967778921908568
2720.0,0.009631502617323972
2719.0,0.009572985262994986
2718.0,0.009505515932415635
2717.0,0.009433119152883886
2716.0,0.00935730131574991
2715.0,0.00928048494228363
2714.0,0.0092097185314676
2713.0,0.009151047730847496
2712.0,0.00910171031673389
2711.0,0.009053811862680757
2710.0,0.009004441435457651
2709.0,0.008956317062994287
2708.0,0.008910656275946548
2707.0,0.008866076481869744
2706.0,0.008823416896661393
2705.0,0.008784947132004617
2704.0,0.00874897493921458
2703.0,0.008711325422997707
2702.0,0.008671724546643203
2701.0,0.00863296789812668
2700.0,0.00859460564141079
2699.0,0.008553930103980154
2698.0,0.00851293539040507
2697.0,0.008477805828788149
2696.0,0.008450831148063498
2695.0,0.008428438432073942
2694.0,0.008407259743564053
2693.0,0.008386085546172749
2692.0,0.008362037644374733
2691.0,0.008331734808795472
2690.0,0.008297786981753727
2689.0,0.008268241898295458
2688.0,0.008247438447016323
2687.0,0.008231795055396682
2686.0,0.008215521216347247
2685.0,0.00819572589243979
2684.0,0.00817132535421632
2683.0,0.008142355710372041
2682.0,0.008112255379492839
2681.0,0.008086186860209897
2680.0,0.008064973508489648
2679.0,0.00804417992076717
2678.0,0.00802026803307483
2677.0,0.007994290049721964
2676.0,0.007968943511102571
2675.0,0.007945764224902247
2674.0,0.00792591205746212
2673.0,0.00790967923560399
2672.0,0.007894097086047198
2671.0,0.007874322704324588
2670.0,0.007848591220739118
2669.0,0.007819586097139664
2668.0,0.007791298362101004
2667.0,0.007767710533708344
2666.0,0.007753892911739795
2665.0,0.00775401531005941
2664.0,0.007767117771683079
2663.0,0.007787411379160471
2662.0,0.0078082433745522255
2661.0,0.007823593577369342
2660.0,0.00782768038208978
2659.0,0.00781816436054434
2658.0,0.0078001524108400645
2657.0,0.007782879127813924
2656.0,0.007771570191813161
2655.0,0.0077648035373214935
2654.0,0.007758489624058307
2653.0,0.007748835774985849
2652.0,0.007732863319170998
2651.0,0.007711098288775061
2650.0,0.007689629321761354
2649.0,0.007675180187060822
2648.0,0.007667724634166798
2647.0,0.007661689640764101
2646.0,0.007653416346416579
2645.0,0.007643236180908014
2644.0,0.007631208086755447
2643.0,0.007616003792146641
2642.0,0.007598436247611168
2641.0,0.007581548013212126
2640.0,0.00756705082046695
2639.0,0.00755513556997498
2638.0,0.007546622858466917
2637.0,0.007540939249900061
2636.0,0.007533417830044844
2635.0,0.007520229557738931
2634.0,0.007505132239280123
2633.0,0.007495274514621642
2632.0,0.007490585480991381
2631.0,0.007483375833403572
2630.0,0.007469134685361254
2629.0,0.007452129816446185
2628.0,0.007439188199548204
2627.0,0.007433176700952289
2626.0,0.007433571767102709
2625.0,0.007438350423401116
2624.0,0.007443203738629094
2623.0,0.007442742669209445
2622.0,0.007434356254058961
2621.0,0.007419414701576997
2620.0,0.007401116396722843
2619.0,0.007383090319408376
2618.0,0.007368434954959506
2617.0,0.007356964825571212
2616.0,0.0073451000054181575
2615.0,0.0073312272440820125
2614.0,0.0073183450983107705
2613.0,0.007308124278610396
2612.0,0.0072964933003746
2611.0,0.007279647834188211
2610.0,0.007260117195344309
2609.0,0.007241231423219711
2608.0,0.007220000506746938
2607.0,0.007192853698886442
2606.0,0.0071648938810737
2605.0,0.007145567101699507
2604.0,0.007137011484174689
2603.0,0.00713354659320211
2602.0,0.0071301862558270064
2601.0,0.00712442500010786
2600.0,0.0071126323721277165
2599.0,0.007092982804837156
2598.0,0.007070320249268709
2597.0,0.007050999253952096
2596.0,0.007034805024324435
2595.0,0.007018721470845026
2594.0,0.007005200838399124
2593.0,0.006998271363159879
2592.0,0.006994679999097995
2591.0,0.0069881795790286555
2590.0,0.006980242553334046
2589.0,0.006977098100203191
2588.0,0.006978186684593577
2587.0,0.0069776605963951365
2586.0,0.006975783480851234
2585.0,0.006978415399379606
2584.0,0.0069852301343131555
2583.0,0.006988107112493778
2582.0,0.006981857464886463
2581.0,0.006968438424270644
2580.0,0.0069506406907809
2579.0,0.006929902233602569
2578.0,0.006909965090529539
2577.0,0.006894200077235819
2576.0,0.006879488959376478
2575.0,0.006860483682722665
2574.0,0.006839017054483156
2573.0,0.00682137471208431
2572.0,0.006807628845324697
2571.0,0.0067922813212040025
2570.0,0.006774015484547254
2569.0,0.006755622402019563
2568.0,0.006735774990980693
2567.0,0.0067110030134845105
2566.0,0.006685549532366428
2565.0,0.006668923666567688
2564.0,0.006662521529749886
2563.0,0.006657850228506257
2562.0,0.006649022621317517
2561.0,0.006638466836180873
2560.0,0.00662933714014205
2559.0,0.006620486187001251
2558.0,0.006610553518738817
2557.0,0.006599888150091909
2556.0,0.0065873168421129846
2555.0,0.006571306812334664
2554.0,0.006554525989265276
2553.0,0.006541154239850171
2552.0,0.006530209406159767
2551.0,0.006517581066181286
2550.0,0.00650345089657812
2549.0,0.006491708186767715
2548.0,0.006483634943573197
2547.0,0.006477824785100622
2546.0,0.006473690586173311
2545.0,0.006469238612528141
2544.0,0.006459537983544603
2543.0,0.006444512594440804
2542.0,0.00643366447093517
2541.0,0.0064347193312568225
2540.0,0.006442041633902123
2539.0,0.006445432191212735
2538.0,0.006445377597555548
2537.0,0.006449113761132252
2536.0,0.006455959243156566
2535.0,0.00645789689116914
2534.0,0.0064518928463754505
2533.0,0.006440708769106269
2532.0,0.0064241953881853595
2531.0,0.006401281168141876
2530.0,0.0063785470189901
2529.0,0.006365227250390098
2528.0,0.006360587271173341
2527.0,0.006356300394960277
2526.0,0.0063494012610091815
2525.0,0.006342309261758087
2524.0,0.006332797454639624
2523.0,0.006316432783781105
2522.0,0.0062976774821485865
2521.0,0.006286105035219195
2520.0,0.006281623271937893
2519.0,0.006275025277384641
2518.0,0.006263425806614675
2517.0,0.006253811871913718
2516.0,0.006250281509541525
2515.0,0.006248434331561601
2514.0,0.006243575047007416
2513.0,0.00623479802794973
2512.0,0.006220763304977835
2511.0,0.006201335979458754
2510.0,0.00618377395207488
2509.0,0.00617748784386777
2508.0,0.00618137613492649
2507.0,0.006184575558548902
2506.0,0.006180041418627834
2505.0,0.006169940452242315
2504.0,0.006159208077094788
2503.0,0.006152153825680374
2502.0,0.00615293218750174
2501.0,0.006159645656468173
2500.0,0.0061604341343382135
2499.0,0.0061460856605697264
2498.0,0.0061246163917588175
2497.0,0.006112375698750263
2496.0,0.006112178518686645
2495.0,0.006111773560574592
2494.0,0.006103037484938959
2493.0,0.006090460042971662
2492.0,0.006080068457275599
2491.0,0.006071850280109776
2490.0,0.0060649649244470085
2489.0,0.006059968439478502
2488.0,0.006054078847074083
2487.0,0.006043465462085451
2486.0,0.00603110341881249
2485.0,0.006023523736740854
2484.0,0.006019934145024339
2483.0,0.006013882312604622
2482.0,0.0060050718882192905
2481.0,0.005999327586969342
2480.0,0.005996837931456972
2479.0,0.005990921175007103
2478.0,0.005979498143830913
2477.0,0.005968214341275007
2476.0,0.005961181900453245
2475.0,0.005957541045779567
2474.0,0.0059572777858140176
2473.0,0.0059607892290016425
2472.0,0.005962454323158865
2471.0,0.005954805516721011
2470.0,0.005940268610437425
2469.0,0.005929537395675109
2468.0,0.005927413562207106
2467.0,0.005929225882111299
2466.0,0.005931494121896178
2465.0,0.005935948069333741
2464.0,0.005941411398581109
2463.0,0.005941731269893294
2462.0,0.005935291840463623
2461.0,0.0059292315449697135
2460.0,0.005931398145016695
2459.0,0.005943552101696943
2458.0,0.005962949688745908
2457.0,0.005984394879832688
2456.0,0.006000767294569567
2455.0,0.006007893165181185
2454.0,0.006008806841177062
2453.0,0.006007976796328613
2452.0,0.006003646594203702
2451.0,0.005992616694445321
2450.0,0.0059796110922614555
2449.0,0.005973213738337222
2448.0,0.0059741087116891335
2447.0,0.0059757348338811715
2446.0,0.0059749739379488034
2445.0,0.005973757898571856
2444.0,0.005972054872557081
2443.0,0.005968363127891153
2442.0,0.005965753342427159
2441.0,0.0059682144745867105
2440.0,0.005971751926155534
2439.0,0.005967963855212799
2438.0,0.005956233413675543
2437.0,0.005944606861002765
2436.0,0.005939254821260599
2435.0,0.005940082206610455
2434.0,0.005944958185254234
2433.0,0.005950875322412634
2432.0,0.005953165580697168
2431.0,0.005951138827965448
2430.0,0.005951665114495256
2429.0,0.005959243473103911
2428.0,0.005966158543186168
2427.0,0.0059618635711520575
2426.0,0.005949202379367342
2425.0,0.005941443337909297
2424.0,0.005944917126617753
2423.0,0.005953567672012371
2422.0,0.005958784709507642
2421.0,0.005955686881111971
2420.0,0.005942111233353502
2419.0,0.005921149617494056
2418.0,0.005903473313075036
2417.0,0.005898421173853745
2416.0,0.005903367255008479
2415.0,0.005908275385719976
2414.0,0.005908062429591032
2413.0,0.00590405656354727
2412.0,0.005897861456400133
2411.0,0.00589175091111182
2410.0,0.005890467551584265
2409.0,0.005893940593744316
2408.0,0.005893104284670808
2407.0,0.0058823119376908125
2406.0,0.005870075295261584
2405.0,0.005866611932493972
2404.0,0.0058667730534532215
2403.0,0.005857813808474106
2402.0,0.005839306540934289
2401.0,0.005822449805976114
2400.0,0.005812794062060545
2399.0,0.005806502874619836
2398.0,0.005801749846203563
2397.0,0.005800957264133103
2396.0,0.005802250327632468
2395.0,0.005800576734805407
2394.0,0.005797197418826142
2393.0,0.005797332309090984
2392.0,0.005799356843665293
2391.0,0.005796881375857005
2390.0,0.005790515369520594
2389.0,0.005787044921037694
2388.0,0.005787183356688243
2387.0,0.005784213347283252
2386.0,0.00577472619137604
2385.0,0.005761437570619872
2384.0,0.005746253106333535
2383.0,0.005729858136073369
2382.0,0.005716732649625848
2381.0,0.005710097034490071
2380.0,0.005702021291849052
2379.0,0.00567991765861903
2378.0,0.005644707776539534
2377.0,0.005611280112887168
2376.0,0.00558929420228511
2375.0,0.005576103442568682
2374.0,0.0055705773309053346
2373.0,0.005578203951129865
2372.0,0.005596644931079408
2371.0,0.00561060189545867
2370.0,0.005608488988517131
2369.0,0.0055912348681115545
2368.0,0.005561775137048511
2367.0,0.005523241291581532
2366.0,0.005491958137332216
2365.0,0.005492571492558508
2364.0,0.005530508621386738
2363.0,0.005583204255163534
2362.0,0.005625418762857366
2361.0,0.0056473757032486725
2360.0,0.00564771434190386
2359.0,0.005630592150826546
2358.0,0.005609539001171233
2357.0,0.0055983415572527315
2356.0,0.0055966000551664835
2355.0,0.00559428472092745
2354.0,0.005589846910535643
2353.0,0.005589950270396177
2352.0,0.005596467525444535
2351.0,0.005603764501828441
2350.0,0.005606150387861134
2349.0,0.005602288028117623
2348.0,0.005591557901390031
2347.0,0.005577319910860517
2346.0,0.005572023847798195
2345.0,0.00558690831848017
2344.0,0.005617331873531758
2343.0,0.005647497731872181
2342.0,0.005674704364299783
2341.0,0.005704989260875021
2340.0,0.005734428869329209
2339.0,0.005752326486533637
2338.0,0.005756772957445725
2337.0,0.005754465379578309
2336.0,0.0057460630675407656
2335.0,0.005728933626849959
2334.0,0.005707663864529872
2333.0,0.00569356364155533
2332.0,0.005691921919017771
2331.0,0.005704701520716433
2330.0,0.0057358405091509435
2329.0,0.005791859741496376
2328.0,0.0058711073141794875
2327.0,0.00597005285244757
2326.0,0.006083843965018572
2325.0,0.0061946066024660545
2324.0,0.006268142262171785
2323.0,0.006279033270023418
2322.0,0.006241634552497729
2321.0,0.006193951868738254
2320.0,0.00615800695010032
2319.0,0.0061319220671147475
2318.0,0.006112012327973006
2317.0,0.006100608571385086
2316.0,0.006092134320887264
2315.0,0.006078668129729255
2314.0,0.006064584403502135
2313.0,0.006065031280150578
2312.0,0.006081776492082306
2311.0,0.006102668903643441
2310.0,0.006118375449675059
2309.0,0.006131108398013624
2308.0,0.006141580367257821
2307.0,0.006147941823966239
2306.0,0.006153005817628835
2305.0,0.006162643934532835
2304.0,0.00617373701648507
2303.0,0.006179783187472079
2302.0,0.006184387914605298
2301.0,0.006197888736243698
2300.0,0.0062184460031336625
2299.0,0.006233622589674486
2298.0,0.006238468050062496
2297.0,0.006240362861188215
2296.0,0.006244201045377727
2295.0,0.006249686497782284
2294.0,0.006261990141018174
2293.0,0.006290297793399928
2292.0,0.006331998977519381
2291.0,0.006372451646751474
2290.0,0.006403319476202218
2289.0,0.006429069077716508
2288.0,0.006454734638539073
2287.0,0.006479217861441878
2286.0,0.0065017533545437415
2285.0,0.006521050554548508
2284.0,0.006527688065800025
2283.0,0.00651157649279573
2282.0,0.006478410938635364
2281.0,0.006445448760637064
2280.0,0.006420135781457173
2279.0,0.006397628751661991
2278.0,0.0063780689323278475
2277.0,0.00636938516604699
2276.0,0.006371874728879556
2275.0,0.006376825081952348
2274.0,0.006381227701124974
2273.0,0.006387826516465981
2272.0,0.006391081850041587
2271.0,0.006380913235135364
2270.0,0.006360997185420363
2269.0,0.006346701329396081
2268.0,0.006344468230735159
2267.0,0.006348783288040093
2266.0,0.006356435252940658
2265.0,0.006367201659079861
2264.0,0.006374509856661319
2263.0,0.006373892684346645
2262.0,0.006375762445390293
2261.0,0.006390377385591686
2260.0,0.006406831354932207
2259.0,0.006407946636905359
2258.0,0.006398887961578645
2257.0,0.006397040207571729
2256.0,0.0064001117581312566
2255.0,0.006392038592228634
2254.0,0.006374768417270185
2253.0,0.006365556580106886
2252.0,0.006365895514255453
2251.0,0.0063630329267761725
2250.0,0.006359252269346596
2249.0,0.006368712348619727
2248.0,0.0063853667235552886
2247.0,0.006385195192879358
2246.0,0.006362110976954107
2245.0,0.006334378111034925
2244.0,0.00631378377681889
2243.0,0.006296793842974993
2242.0,0.006286547756771289
2241.0,0.006292777274485453
2240.0,0.0063073233488854874
2239.0,0.006309230721753618
2238.0,0.006297706593291827
2237.0,0.006293471181061552
2236.0,0.006305943175703347
2235.0,0.006325872687061348
2234.0,0.006349598111638565
2233.0,0.006380209296920588
2232.0,0.006404792754773259
2231.0,0.006402041912968872
2230.0,0.006375992519418339
2229.0,0.006353394367134656
2228.0,0.006347328618580373
2227.0,0.006350020333038513
2226.0,0.006358574485223982
2225.0,0.006374954374202062
2224.0,0.006383405709192205
2223.0,0.006363201572013934
2222.0,0.0063241036810179445
2221.0,0.006297729414727821
2220.0,0.0062946221873855426
2219.0,0.006302563080711531
2218.0,0.006320294018669327
2217.0,0.006353645010038185
2216.0,0.00638300310048336
2215.0,0.006379303446711063
2214.0,0.006352019496536038
2213.0,0.0063390218337308745
2212.0,0.006347055474923305
2211.0,0.006346629334379028
2210.0,0.0063292567609423075
2209.0,0.006322832211099832
2208.0,0.006342141665043902
2207.0,0.006367696404834875
2206.0,0.006383987843828777
2205.0,0.006397519324607346
2204.0,0.0064082358718557724
2203.0,0.006403353308590054
2202.0,0.00638904991908675
2201.0,0.0063888337962204585
2200.0,0.006401335487450527
2199.0,0.006398557183654197
2198.0,0.006373166779718883
2197.0,0.006348338168666338
2196.0,0.0063338206864204235
2195.0,0.006314382731399088
2194.0,0.00629124558944992
2193.0,0.006291800230478589
2192.0,0.006325074078655658
2191.0,0.006367190191290561
2190.0,0.0064027571715889195
2189.0,0.00644221198191388
2188.0,0.006487030534013405
2187.0,0.006515961060456439
2186.0,0.006517156490847609
2185.0,0.006498724814882062
2184.0,0.006460296858869998
2183.0,0.006393937754617136
2182.0,0.006321359699605994
2181.0,0.006286037392455366
2180.0,0.006294702705765737
2179.0,0.00630704750188265
2178.0,0.006292196139127076
2177.0,0.00625805655959052
2176.0,0.006221964639698293
2175.0,0.006192228396146278
2174.0,0.006183832219330461
2173.0,0.006211872383358538
2172.0,0.006263720902299873
2171.0,0.006315633147989755
2170.0,0.006376785901173301
2169.0,0.006476435826682489
2168.0,0.006605953979122748
2167.0,0.006715742080004171
2166.0,0.006778055245866911
2165.0,0.006816321722278388
2164.0,0.006863328249887777
2163.0,0.006916617178921812
2162.0,0.006929726582244372
2161.0,0.006818955599308047
2160.0,0.006510128786800697
2159.0,0.0060449069478570325
2158.0,0.005611987524055649
2157.0,0.005382400074917844
2156.0,0.0053480438874189485
2155.0,0.005395333266068552
2154.0,0.005466261845906439
2153.0,0.005565185030054744
2152.0,0.005667899039567438
2151.0,0.005718235568724963
2150.0,0.005705082890810098
2149.0,0.00567189715080976
2148.0,0.005647247853420381
2147.0,0.005623096841646951
2146.0,0.0056007812681731954
2145.0,0.005601113962865278
2144.0,0.005622749587480179
2143.0,0.005640300881378298
2142.0,0.00564730077622519
2141.0,0.005658826485009793
2140.0,0.005672773245766189
2139.0,0.005668972913297591
2138.0,0.0056439120043572984
2137.0,0.005608393156575492
2136.0,0.005557135766224002
2135.0,0.005481096453532395
2134.0,0.005405019193166903
2133.0,0.005370550101123088
2132.0,0.0053847107507549305
2131.0,0.00541907278453731
2130.0,0.005452925046935204
2129.0,0.005483639177612523
2128.0,0.005507490973659474
2127.0,0.005524374141664784
2126.0,0.005553418884245549
2125.0,0.005609840070791981
2124.0,0.0056726081038572405
2123.0,0.005706961351161588
2122.0,0.00571106736519213
2121.0,0.00570986917220946
2120.0,0.005712771745571566
2119.0,0.005713182007733137
2118.0,0.005721071525442135
2117.0,0.005755553613258909
2116.0,0.005806527756762856
2115.0,0.005841722182136402
2114.0,0.005853240456080245
2113.0,0.005861841108407409
2112.0,0.005874945706550034
2111.0,0.0058764303051112654
2110.0,0.005861241055262861
2109.0,0.005845140204822377
2108.0,0.005835826480767055
2107.0,0.005827298091335061
2106.0,0.005824188519463689
2105.0,0.005837656745619523
2104.0,0.005856097325116224
2103.0,0.005855240188356772
2102.0,0.005838233796511735
2101.0,0.005829796688648236
2100.0,0.005831495465659112
2099.0,0.005820044537429119
2098.0,0.005790332179574937
2097.0,0.005760446851904674
2096.0,0.005732819581279614
2095.0,0.0056935864639407405
2094.0,0.005654016176673876
2093.0,0.0056478338807936165
2092.0,0.005680043378244539
2091.0,0.0057189958005840116
2090.0,0.005743779235295215
2089.0,0.0057622959866453155
2088.0,0.005778468533602195
2087.0,0.005782139288872305
2086.0,0.005778845765864714
2085.0,0.005790578360045425
2084.0,0.005816578936353567
2083.0,0.005829407297382427
2082.0,0.00582015691829521
2081.0,0.005811673369719159
2080.0,0.005818164083720847
2079.0,0.005827395006615701
2078.0,0.00583340737516627
2077.0,0.005847325881660724
2076.0,0.0058642513417070646
2075.0,0.005857835174489385
2074.0,0.005821933887493667
2073.0,0.005782951834465858
2072.0,0.005758627598634481
2071.0,0.0057383903709193945
2070.0,0.005715491078928946
2069.0,0.005701489680064129
2068.0,0.005698572396678624
2067.0,0.005693818829260248
2066.0,0.0056900729214906225
2065.0,0.005704755094578006
2064.0,0.005730209553976208
2063.0,0.005735974842727103
2062.0,0.00571839301523589
2061.0,0.005706317161536236
2060.0,0.005713133950879796
2059.0,0.005723799778611726
2058.0,0.005733847529524596
2057.0,0.005755050824287688
2056.0,0.005777680647940214
2055.0,0.005777801331246418
2054.0,0.005772449920034646
2053.0,0.005813034583959883
2052.0,0.005906494155569691
2051.0,0.005991689856830757
2050.0,0.006012269020245567
2049.0,0.005973781676104198
2048.0,0.005911262733688055
2047.0,0.005843973916498156
2046.0,0.005789590116451383
2045.0,0.0057749128390864966
2044.0,0.005798728784968692
2043.0,0.005824743016750202
2042.0,0.0058329947222465085
2041.0,0.005839650092324006
2040.0,0.005855453625918111
2039.0,0.005871015315012812
2038.0,0.0058919165013188775
2037.0,0.005932344265119581
2036.0,0.005964774833365322
2035.0,0.005935598364936091
2034.0,0.005844805462096766
2033.0,0.0057518494365067785
2032.0,0.005690001041148701
2031.0,0.005639827943966716
2030.0,0.005593847724207743
2029.0,0.005572970137466021
2028.0,0.005567212777251995
2027.0,0.00553416648693105
2026.0,0.005471364058804404
2025.0,0.005423341609699721
2024.0,0.005407946672834504
2023.0,0.0054017297282394
2022.0,0.005401548566044774
2021.0,0.005428039457315643
2020.0,0.005464807305121303
2019.0,0.005467917363363896
2018.0,0.005441416875278284
2017.0,0.005431669448223336
2016.0,0.005440545448773032
2015.0,0.0054231665713101
2014.0,0.005377002666232108
2013.0,0.005352708746391511
2012.0,0.005370637800429507
2011.0,0.005399210491151297
2010.0,0.005418269370182093
2009.0,0.005426523349594126
2008.0,0.005387684096789384
2007.0,0.00526140418384631
2006.0,0.005098207637837393
2005.0,0.0050113924964147105
2004.0,0.005036444932256984
2003.0,0.0051021998174675615
2002.0,0.0051489109928296115
2001.0,0.005188849314400474
2000.0,0.005240917740309492
1999.0,0.005283203880068597
1998.0,0.005297254020264335
1997.0,0.005298617264628669
1996.0,0.005297532851174081
1995.0,0.005281019067989644
1994.0,0.005253324161512474
1993.0,0.005246290012634457
1992.0,0.005270308238489733
1991.0,0.0053001122236061
1990.0,0.00532331373138921
1989.0,0.005351614446962834
1988.0,0.005379030574888897
1987.0,0.005382626632374244
1986.0,0.005368634337798064
1985.0,0.005366526884243957
1984.0,0.005378984812024137
1983.0,0.005392755984609223
1982.0,0.005430235348965385
1981.0,0.005516514347390584
1980.0,0.005595618704093771
1979.0,0.005560868659841383
1978.0,0.005392753880812439
1977.0,0.005194734627293348
1976.0,0.005059778924024981
1975.0,0.004988257849049238
1974.0,0.0049603039689669745
1973.0,0.004979485907492269
1972.0,0.005019103419663576
1971.0,0.0050217724235531004
1970.0,0.0049796215851131125
1969.0,0.004942449495254871
1968.0,0.004930223748627171
1967.0,0.004906737570131869
1966.0,0.004855895342582533
1965.0,0.004807984973758238
1964.0,0.004776275728915602
1963.0,0.00474198730727954
1962.0,0.004706666625712946
1961.0,0.004691568379395333
1960.0,0.004682243864328082
1959.0,0.004643198822432454
1958.0,0.004589721932133763
1957.0,0.004574125417898054
1956.0,0.004599748922752588
1955.0,0.004617930137608656
1954.0,0.004609335688555743
1953.0,0.004601436243457909
1952.0,0.0046013970870746245
1951.0,0.004581319784990149
1950.0,0.004539101690530322
1949.0,0.004507480385507336
1948.0,0.004493046384183928
1947.0,0.004466704956592952
1946.0,0.0044252093978960644
1945.0,0.004403766790704738
1944.0,0.00441465028399286
1943.0,0.004427476612149103
1942.0,0.004426046397319777
1941.0,0.004428043783122826
1940.0,0.004433352309118148
1939.0,0.004417437242139618
1938.0,0.004382299165598916
1937.0,0.004360238622832211
1936.0,0.004360494957492292
1935.0,0.004359084125966048
1934.0,0.004347473109988007
1933.0,0.004343697881767172
1932.0,0.004347350120207213
1931.0,0.004335056015363775
1930.0,0.004307933284245027
1929.0,0.004291823722815626
1928.0,0.0042901900841414604
1927.0,0.004279514730745157
1926.0,0.004258009931929658
1925.0,0.004250814928422299
1924.0,0.004260511614667298
1923.0,0.004261623006584459
1922.0,0.004250956884655047
1921.0,0.004251443183706158
1920.0,0.0042627978851250544
1919.0,0.004258359186788179
1918.0,0.004237765045868983
1917.0,0.004238569928282002
1916.0,0.0042716049521558525
1915.0,0.0043018135422420185
1914.0,0.0043045904687720495
1913.0,0.00429145003409259
1912.0,0.004277071518992855
1911.0,0.0042609354594241354
1910.0,0.004249404064242139
1909.0,0.004255795501977852
1908.0,0.004272432054017259
1907.0,0.004275448681186768
1906.0,0.004263675634324147
1905.0,0.004255084505372461
1904.0,0.004245844371536219
1903.0,0.004218077150885211
1902.0,0.004183589630753841
1901.0,0.004175940505647945
1900.0,0.004198537160286286
1899.0,0.004219725808945512
1898.0,0.004223956723331467
1897.0,0.004225559655710999
1896.0,0.004228789130254577
1895.0,0.004219141827468692
1894.0,0.004200623659730141
1893.0,0.004195647468559851
1892.0,0.004203334027236048
1891.0,0.004198615730539712
1890.0,0.004174921407336965
1889.0,0.004155459871756825
1888.0,0.004148173610112248
1887.0,0.004134061306134397
1886.0,0.004111494750962659
1885.0,0.004105097887495295
1884.0,0.0041207015104126835
1883.0,0.004133740245091184
1882.0,0.004130733489013542
1881.0,0.004123885207021956
1880.0,0.0041190956432841565
1879.0,0.004105412370830387
1878.0,0.004084465578563436
1877.0,0.004075786038714935
1876.0,0.00408169347109762
1875.0,0.004083153883828301
1874.0,0.004077179017192329
1873.0,0.004081516083810559
1872.0,0.004099842295087346
1871.0,0.004116701989095061
1870.0,0.00412548758572796
1869.0,0.004133647688460764
1868.0,0.004139057175376884
1867.0,0.004130250925305301
1866.0,0.004113100661325352
1865.0,0.004105538595559992
1864.0,0.004106258917416052
1863.0,0.004098222355073572
1862.0,0.0040835472462910334
1861.0,0.004083193400455549
1860.0,0.004097403004814723
1859.0,0.00410270645273082
1858.0,0.0040935323131005615
1857.0,0.004087971498030266
1856.0,0.004089750531821494
1855.0,0.004081788351558829
1854.0,0.004064828151815962
1853.0,0.0040590258122323525
1852.0,0.004066680308903382
1851.0,0.00406707622687746
1850.0,0.004054163224218652
1849.0,0.0040446107769863
1848.0,0.004038654299640026
1847.0,0.004014934932914621
1846.0,0.003973249491714393
1845.0,0.0039443716292077245
1844.0,0.0039447372318559696
1843.0,0.003960357387735198
1842.0,0.003982042329339547
1841.0,0.004011472152092783
1840.0,0.004041760214444383
1839.0,0.004055661134582025
1838.0,0.00405105391228561
1837.0,0.004045750579210481
1836.0,0.0040443968188390075
1835.0,0.004032756593318154
1834.0,0.0040124117099380255
1833.0,0.004007738928541437
1832.0,0.004032359541845253
1831.0,0.004063149700645078
1830.0,0.00406696230556096
1829.0,0.004051920323420245
1828.0,0.004039623727554147
1827.0,0.004026416915140426
1826.0,0.004011655700788002
1825.0,0.004011679690041158
1824.0,0.004029577643580989
1823.0,0.0040453472268810265
1822.0,0.004048101898117667
1821.0,0.0040455394525323795
1820.0,0.004036275338162363
1819.0,0.004005029245734114
1818.0,0.003959257254922335
1817.0,0.003933530017970004
1816.0,0.003941674624366798
1815.0,0.0039642418034586515
1814.0,0.003987465494345501
1813.0,0.004019359825034112
1812.0,0.004056460521725617
1811.0,0.004072473477599571
1810.0,0.0040625338220494234
1809.0,0.004052398460860775
1808.0,0.004052416286956465
1807.0,0.004047714982369781
1806.0,0.004034912261560476
1805.0,0.004032159522709087
1804.0,0.004046947041048932
1803.0,0.004068204336751887
1802.0,0.0040905598917976346
1801.0,0.004122932883521134
1800.0,0.0041611905367532455
1799.0,0.004183701174194761
1798.0,0.004187780694606919
1797.0,0.004190836062000667
1796.0,0.00419489112801597
1795.0,0.004186086189797266
1794.0,0.0041683006618489305
1793.0,0.004165671685180766
1792.0,0.004181377934536758
1791.0,0.004197926019578696
1790.0,0.0042155726121241785
1789.0,0.0042401862584218976
1788.0,0.004258014563166031
1787.0,0.0042508290333112585
1786.0,0.004227583263234608
1785.0,0.004222195827797779
1784.0,0.004247577585094458
1783.0,0.0042840291178610395
1782.0,0.004312543106327257
1781.0,0.004334068863669621
1780.0,0.004349394132150511
1779.0,0.00434954871374266
1778.0,0.004339383743051737
1777.0,0.004334173995810768
1776.0,0.004335517065274649
1775.0,0.004333945976608351
1774.0,0.004338215866080571
1773.0,0.004362922597923879
1772.0,0.004385480948519543
1771.0,0.004372679873346342
1770.0,0.004338637460982587
1769.0,0.004326117745767735
1768.0,0.004352133054827174
1767.0,0.004396666045166593
1766.0,0.00443966492569743
1765.0,0.004481956174467037
1764.0,0.004524939016524928
1763.0,0.00455902333667816
1762.0,0.004581827056261742
1761.0,0.00462000956029904
1760.0,0.004683155105606509
1759.0,0.004744169856244662
1758.0,0.004794863356537757
1757.0,0.004859257260188688
1756.0,0.004947302903889623
1755.0,0.0050297607027484665
1754.0,0.0050887515189815625
1753.0,0.005153958076107625
1752.0,0.005264743582740996
1751.0,0.00541174911188886
1750.0,0.005564370012739073
1749.0,0.005717767231748378
1748.0,0.005860784274948441
1747.0,0.00597073895041081
1746.0,0.006054704973721245
1745.0,0.006147148621267925
1744.0,0.006253218308002232
1743.0,0.006340717185535624
1742.0,0.006404056853623069
1741.0,0.006481172838432861
1740.0,0.006580827137784609
1739.0,0.006659799191347489
1738.0,0.006697416966843753
1737.0,0.0067201772558401944
1736.0,0.006762364343680038
1735.0,0.006828636470505822
1734.0,0.006899357171663256
1733.0,0.007013275893101493
1732.0,0.00717819189312653
1731.0,0.00732163662953963
1730.0,0.007417616670185215
1729.0,0.007508296476529983
1728.0,0.007620152208294234
1727.0,0.007731584678032276
1726.0,0.007831613036412801
1725.0,0.007950304368947298
1724.0,0.008096518709444257
1723.0,0.008228330713558754
1722.0,0.008322956023147568
1721.0,0.008416105971289793
1720.0,0.008552690897765529
1719.0,0.008728214568861572
1718.0,0.008897979470003883
1717.0,0.00907192677125195
1716.0,0.009279890100831882
1715.0,0.009486163286759584
1714.0,0.009675513541938748
1713.0,0.009888156177064301
1712.0,0.010136245005940514
1711.0,0.010385030848770887
1710.0,0.01061901552509355
1709.0,0.01087030580912089
1708.0,0.011166329490968168
1707.0,0.011488448401948004
1706.0,0.01180663634969929
1705.0,0.012115042693345802
1704.0,0.012395056590880372
1703.0,0.012623239674776382
1702.0,0.012874727035241434
1701.0,0.01332745973300709
1700.0,0.013976725881106222
1699.0,0.01457672006838387
1698.0,0.015055638416355932
1697.0,0.015545582935639752
1696.0,0.016131606022668034
1695.0,0.016741306108115323
1694.0,0.01729919998834439
1693.0,0.01783816985194252
1692.0,0.018402651553661088
1691.0,0.01899372055217829
1690.0,0.019590810808419897
1689.0,0.020173560006353026
1688.0,0.020717309955453404
1687.0,0.021211852527740674
1686.0,0.021738945598608478
1685.0,0.022439935759290163
1684.0,0.023243181308841898
1683.0,0.023930214911767115
1682.0,0.024515688906636607
1681.0,0.025116036863471792
1680.0,0.025744722669962836
1679.0,0.026332586298668827
1678.0,0.02685687412523915
1677.0,0.02740966612407971
1676.0,0.02807713997364677
1675.0,0.02879436349159657
1674.0,0.029447333122278926
1673.0,0.03005375676559168
1672.0,0.030675153110215438
1671.0,0.0313135309376665
1670.0,0.031940376898369746
1669.0,0.032562263536041566
1668.0,0.03318695899627258
1667.0,0.03377412291620701
1666.0,0.03431752630808783
1665.0,0.03488565234497838
1664.0,0.035527155483088685
1663.0,0.036179508543491785
1662.0,0.03676064132260913
1661.0,0.0373043649514999
1660.0,0.037861918002886755
1659.0,0.03840191240631255
1658.0,0.03887553691533403
1657.0,0.039294967161576544
1656.0,0.039703664713473676
1655.0,0.04013325744019819
1654.0,0.04050702079387937
1653.0,0.04072724510967143
1652.0,0.0409849091330216
1651.0,0.04135936045442075
1650.0,0.041728312089478886
1649.0,0.0420615861752101
1648.0,0.04232941548735273
1647.0,0.04241833825917945
1646.0,0.042359167528839003
1645.0,0.04237271668685427
1644.0,0.04252195680486681
1643.0,0.04269564206356079
1642.0,0.04281394635277208
1641.0,0.04288970298952404
1640.0,0.04296758338058222
1639.0,0.04304387871234918
1638.0,0.043077211332482206
1637.0,0.04301377602326103
1636.0,0.04278883769240444
1635.0,0.042469091411267805
1634.0,0.042238900702981017
1633.0,0.042146944065019336
1632.0,0.04210551796882811
1631.0,0.042021757373594155
1630.0,0.04184338157119818
1629.0,0.04156903760023752
1628.0,0.0412308701133487
1627.0,0.04087229814792453
1626.0,0.04051945740750374
1625.0,0.04015743972373945
1624.0,0.039721859140755676
1623.0,0.03917788903581051
1622.0,0.03862935107664315
1621.0,0.03820341666562238
1620.0,0.037891212124425734
1619.0,0.03757906689294004
1618.0,0.03712636397018409
1617.0,0.03646649674182903
1616.0,0.035750123014110916
1615.0,0.035181489595178125
1614.0,0.034762274417296304
1613.0,0.03438791841844391
1612.0,0.03398890088602069
1611.0,0.03354575028627481
1610.0,0.033069897221312525
1609.0,0.032581724799691514
1608.0,0.03209840612014918
1607.0,0.031634889378016805
1606.0,0.031201852368132714
1605.0,0.030797268724161615
1604.0,0.030407381333430163
1603.0,0.030016944053358276
1602.0,0.029623377501166955
1601.0,0.029237150438320755
1600.0,0.028869067801528085
1599.0,0.028522310627249057
1598.0,0.028191433506451345
1597.0,0.027865118644384325
1596.0,0.02753190217210504
1595.0,0.027191164201815225
1594.0,0.026856581941861055
1593.0,0.02654126940414078
1592.0,0.026244047957416767
1591.0,0.025955475444343755
1590.0,0.02567111715521961
1589.0,0.02539477542448136
1588.0,0.02513306362876541
1587.0,0.02488938328438376
1586.0,0.024663686627506575
1585.0,0.02445185508279209
1584.0,0.024250625855510886
1583.0,0.024059933248500236
1582.0,0.02388244870460839
1581.0,0.02372373325677652
1580.0,0.023591779191863456
1579.0,0.023487767940026747
1578.0,0.023391282902948982
1577.0,0.02324467376508686
1576.0,0.02302005802643807
1575.0,0.022818833676367802
1574.0,0.02272537407449774
1573.0,0.02270032105589924
1572.0,0.02268552079799609
1571.0,0.022652667709505244
1570.0,0.02258072043274705
1569.0,0.022484893475601182
1568.0,0.022425990120510178
1567.0,0.022427315958534966
1566.0,0.02245697233818075
1565.0,0.022473745460094136
1564.0,0.02246141012356486
1563.0,0.022427597214354743
1562.0,0.022399936298660807
1561.0,0.022426901866333025
1560.0,0.0225493931360613
1559.0,0.022572752398331144
1558.0,0.02250367389327252
1557.0,0.02255368725143364
1556.0,0.022675543485695317
1555.0,0.022781191849213556
1554.0,0.022863960560164223
1553.0,0.0229406308910061
1552.0,0.023018848763845055
1551.0,0.02308051125447776
1550.0,0.02311039124606902
1549.0,0.023111179942768095
1548.0,0.023099032394051453
1547.0,0.023080749247183906
1546.0,0.023055835946430417
1545.0,0.023017909122936237
1544.0,0.0229632855577191
1543.0,0.02290396593267911
1542.0,0.022847857651979917
1541.0,0.022731850078581636
1540.0,0.02245745931193832
1539.0,0.022147884046198187
1538.0,0.021985320831365673
1537.0,0.0219353341351694
1536.0,0.021895876750233155
1535.0,0.021808941586333556
1534.0,0.021635736325700546
1533.0,0.02140309714979261
1532.0,0.021206213878203962
1531.0,0.02107446281458723
1530.0,0.020961283279168644
1529.0,0.020829143537541076
1528.0,0.020665961511308287
1527.0,0.020478857520363568
1526.0,0.02029666429433368
1525.0,0.020155607302930357
1524.0,0.020054614736769703
1523.0,0.019946993339336482
1522.0,0.019773389239948192
1521.0,0.01956016006223348
1520.0,0.019419360673609897
1519.0,0.019367703832916344
1518.0,0.01931363437405431
1517.0,0.019176415377354924
1516.0,0.018964549378998004
1515.0,0.01874967956656466
1514.0,0.018556275322578097
1513.0,0.018364923898176212
1512.0,0.018168320974070364
1511.0,0.017978652776987264
1510.0,0.017815429861896274
1509.0,0.017680785753065954
1508.0,0.017512063925654645
1507.0,0.01715797171078893
1506.0,0.016743731098896347
1505.0,0.016545862455144732
1504.0,0.016521407545009165
1503.0,0.016516210054113006
1502.0,0.01647519824548081
1501.0,0.016405811299031913
1500.0,0.01632992481461061
1499.0,0.0162453761388958
1498.0,0.016139928992135816
1497.0,0.01601913413952716
1496.0,0.01591149619199479
1495.0,0.015841815387214582
1494.0,0.01581063523319259
1493.0,0.015803606427464468
1492.0,0.01580251685681907
1491.0,0.015782305376373797
1490.0,0.0157283387728006
1489.0,0.015667444602048438
1488.0,0.015622345250797812
1487.0,0.015581402068645816
1486.0,0.015550575545871782
1485.0,0.015552799481926307
1484.0,0.01558928463181719
1483.0,0.015641734129647412
1482.0,0.01570516804683473
1481.0,0.01579331165832987
1480.0,0.015907744092132626
1479.0,0.01603930435816068
1478.0,0.016201558971864333
1477.0,0.016420473207874164
1476.0,0.01668840776433735
1475.0,0.01698852506143887
1474.0,0.017362909485403318
1473.0,0.01787217300057482
1472.0,0.018482702659175555
1471.0,0.01911396909973494
1470.0,0.01975704235661245
1469.0,0.020433782794451603
1468.0,0.021141757984092242
1467.0,0.021883778359731716
1466.0,0.0226959936050508
1465.0,0.02357309807187382
1464.0,0.024403251430739546
1463.0,0.02509325736629347
1462.0,0.025665264463724788
1461.0,0.026167987588230395
1460.0,0.026609926832427067
1459.0,0.02699033844842716
1458.0,0.027332929308936667
1457.0,0.02764865823677719
1456.0,0.027937764227908734
1455.0,0.02821846543858008
1454.0,0.02848802506396393
1453.0,0.028707539475439418
1452.0,0.028821404998523006
1451.0,0.028794231730938397
1450.0,0.02861122342930389
1449.0,0.02822856356372931
1448.0,0.02761325576080955
1447.0,0.026856645781422446
1446.0,0.026110026599186455
1445.0,0.02542897305618014
1444.0,0.024795200392718694
1443.0,0.02421588700739667
1442.0,0.02373482854339569
1441.0,0.023372922633131673
1440.0,0.02310996615628486
1439.0,0.02292015407945063
1438.0,0.022794631865874992
1437.0,0.022703942794209262
1436.0,0.022596215207715306
1435.0,0.022451647977843762
1434.0,0.022254900168422454
1433.0,0.021975916085159093
1432.0,0.021623703443887508
1431.0,0.02126294622502501
1430.0,0.020959914852687698
1429.0,0.020735948501287006
1428.0,0.02058585292686656
1427.0,0.020500171589206778
1426.0,0.0204536192669322
1425.0,0.02040644913202036
1424.0,0.020337740873952775
1423.0,0.020264086784895947
1422.0,0.0202013329176344
1421.0,0.0201371629992358
1420.0,0.020054785571524854
1419.0,0.019957603342819933
1418.0,0.01988256206754516
1417.0,0.019847476950147738
1416.0,0.019821790988647378
1415.0,0.019780714364718715
1414.0,0.01972242524998398
1413.0,0.01964500901855999
1412.0,0.019543331234677174
1411.0,0.019421319735259648
1410.0,0.019286112056049184
1409.0,0.01913394163188225
1408.0,0.018956820733639527
1407.0,0.018755170761143254
1406.0,0.018526417283690318
1405.0,0.018261026067419427
1404.0,0.01798007131128026
1403.0,0.017731681737468637
1402.0,0.017524596641821724
1401.0,0.017316398650332604
1400.0,0.01707345457664249
1399.0,0.016818074582822123
1398.0,0.016593649531267525
1397.0,0.016395373181948145
1396.0,0.01618748404122221
1395.0,0.015967223638147416
1394.0,0.015769597697217492
1393.0,0.015620507352629473
1392.0,0.015515920044066319
1391.0,0.015441436170087086
1390.0,0.015384084013965838
1389.0,0.015340401117561228
1388.0,0.01533883498423817
1387.0,0.015438777824129842
1386.0,0.015684487931809234
1385.0,0.01609390907306935
1384.0,0.0167086872057179
1383.0,0.017596889141113025
1382.0,0.018800138954196056
1381.0,0.02032941278980254
1380.0,0.02218694489826025
1379.0,0.024283850010273538
1378.0,0.0263303503356731
1377.0,0.027896813198202426
1376.0,0.02857161392189819
1375.0,0.02809501034140613
1374.0,0.026584185187282817
1373.0,0.02458579818616858
1372.0,0.02263526252320684
1371.0,0.0209220301745669
1370.0,0.019435006380857454
1369.0,0.018172629441993608
1368.0,0.017173874889654335
1367.0,0.016450721184234574
1366.0,0.015958720576249856
1365.0,0.01563383316737833
1364.0,0.015429441255508335
1363.0,0.015325999083261412
1362.0,0.015318576606904416
1361.0,0.015385205651290063
1360.0,0.015467909772840845
1359.0,0.015493254967823451
1358.0,0.015405643273747528
1357.0,0.015186368339592374
1356.0,0.014855671862625763
1355.0,0.014462235402785246
1354.0,0.01406312574353612
1353.0,0.013699986882521994
1352.0,0.013385842037825588
1351.0,0.013114483764980145
1350.0,0.012875845671828512
1349.0,0.01266227891548308
1348.0,0.01246923727605054
1347.0,0.0122942010723826
1346.0,0.012135255057460033
1345.0,0.011990634351550454
1344.0,0.011859897586903709
1343.0,0.011742140507464447
1342.0,0.011631239924185813
1341.0,0.011516005401590743
1340.0,0.01139050467831766
1339.0,0.011265056549587699
1338.0,0.011157633897054136
1337.0,0.011075065730625926
1336.0,0.011013058619366597
1335.0,0.010967441865060278
1334.0,0.010935499600198602
1333.0,0.01091247565521218
1332.0,0.010893481717263053
1331.0,0.010875723365020937
1330.0,0.010854875674988803
1329.0,0.010823556054738726
1328.0,0.010776988423089773
1327.0,0.01071690526842978
1326.0,0.010646845861095192
1325.0,0.010568492716002473
1324.0,0.010486064640438024
1323.0,0.010407728532561817
1322.0,0.010337796579844452
1321.0,0.010271749028469921
1320.0,0.010202925187672645
1319.0,0.010130212038118331
1318.0,0.010056327076519666
1317.0,0.009983436464503965
1316.0,0.009914284107037187
1315.0,0.009852745651024907
1314.0,0.009799314581730134
1313.0,0.009751085882065285
1312.0,0.009709848501201716
1311.0,0.009685120618289429
1310.0,0.009686963704142
1309.0,0.009722668944175896
1308.0,0.009799578506944186
1307.0,0.009918422470692412
1306.0,0.010055981059369628
1305.0,0.010163832499651741
1304.0,0.01019697642810427
1303.0,0.010145984260985686
1302.0,0.010040577278423883
1301.0,0.009924477648362344
1300.0,0.009829555597142398
1299.0,0.009766984899149652
1298.0,0.0097308804545456
1297.0,0.009707344067332499
1296.0,0.009684333332646776
1295.0,0.009655859079364606
1294.0,0.009619406232084928
1293.0,0.009574231937791286
1292.0,0.009523879866136207
1291.0,0.009475866204534252
1290.0,0.009435643684617828
1289.0,0.009403497561371234
1288.0,0.00937871060725576
1287.0,0.009362356219933834
1286.0,0.009353807039066086
1285.0,0.009349071849406015
1284.0,0.009345394137666364
1283.0,0.009344104235818112
1282.0,0.00934762901122847
1281.0,0.00935729595046893
1280.0,0.009375237056647142
1279.0,0.009403727121207552
1278.0,0.009440635717158368
1277.0,0.009480039856063096
1276.0,0.009519156864137356
1275.0,0.00956075201621006
1274.0,0.009607493793765055
1273.0,0.00965844294255887
1272.0,0.009712550462892024
1271.0,0.009771068803671956
1270.0,0.009834534583476781
1269.0,0.009901362945394346
1268.0,0.00997135325996299
1267.0,0.010046728794049586
1266.0,0.01012846490451548
1265.0,0.010215699846196247
1264.0,0.010310001261732994
1263.0,0.010416197275083352
1262.0,0.010538177287239702
1261.0,0.010678176851288685
1260.0,0.010840855366877011
1259.0,0.01103100533635034
1258.0,0.01124162325676365
1257.0,0.01144669119068074
1256.0,0.011610282473664914
1255.0,0.011706323881732272
1254.0,0.011733766888467504
1253.0,0.011715743936893045
1252.0,0.011684890581763634
1251.0,0.01166671366234195
1250.0,0.011671011637687606
1249.0,0.011694977072488049
1248.0,0.011733041241664218
1247.0,0.011782802498708089
1246.0,0.011843059420526922
1245.0,0.011910308274328102
1244.0,0.011979335882161447
1243.0,0.012046132939698057
1242.0,0.012109362523389431
1241.0,0.012170074039338586
1240.0,0.012230573385951635
1239.0,0.012292256799393154
1238.0,0.012353545178926636
1237.0,0.01241082954618775
1236.0,0.012462169398066983
1235.0,0.012509217860419475
1234.0,0.01255489535105805
1233.0,0.012600128067841138
1232.0,0.01264382305345092
1231.0,0.012685196879027128
1230.0,0.012725057789519573
1229.0,0.012765335518507646
1228.0,0.012808124046832632
1227.0,0.012854490852636905
1226.0,0.012903253560021324
1225.0,0.012951563432504795
1224.0,0.012997690474418268
1223.0,0.013042462641283194
1222.0,0.013086515954256004
1221.0,0.013126609736334286
1220.0,0.013156566976860847
1219.0,0.013172240488428518
1218.0,0.013174135941149339
1217.0,0.01316498644869541
1216.0,0.013147081722541424
1215.0,0.013123306324550766
1214.0,0.013098560667376389
1213.0,0.013077818246117874
1212.0,0.013063246245858844
1211.0,0.013054143462949176
1210.0,0.013048833993893807
1209.0,0.013045810905749404
1208.0,0.013044170783124955
1207.0,0.013044345891030151
1206.0,0.013048292263748519
1205.0,0.013058182999003996
1204.0,0.013074749095376804
1203.0,0.013096638409734046
1202.0,0.013120837434980475
1201.0,0.013144064362091208
1200.0,0.01316470829890267
1199.0,0.013183436081456668
1198.0,0.013201082838564332
1197.0,0.013216328036435854
1196.0,0.013226999067410105
1195.0,0.013233802298641881
1194.0,0.013241017558876144
1193.0,0.01325291503290717
1192.0,0.01327106966178608
1191.0,0.013295406822055909
1190.0,0.013325741084722832
1189.0,0.013361556836672943
1188.0,0.013402301013291172
1187.0,0.01344890793502767
1186.0,0.013503094979329201
1185.0,0.013564079282461478
1184.0,0.013628240188379697
1183.0,0.013693862872271558
1182.0,0.01376449988876538
1181.0,0.01384599742016604
1180.0,0.013942703066771513
1179.0,0.014059506302137138
1178.0,0.01420540914196753
1177.0,0.014390911605433515
1176.0,0.014622574491788599
1175.0,0.01490383713280899
1174.0,0.015240979505641617
1173.0,0.015642789556927182
1172.0,0.016109660239320815
1171.0,0.01662150604138452
1170.0,0.017135075291401285
1169.0,0.01759084195092289
1168.0,0.01792699644717022
1167.0,0.01810315767152615
1166.0,0.0181225815280889
1165.0,0.018029147825459266
1164.0,0.017879345477554674
1163.0,0.017718693679130797
1162.0,0.01757644149708949
1161.0,0.017466587600589605
1160.0,0.01739004844203565
1159.0,0.017342454834227167
1158.0,0.017322350315064444
1157.0,0.017329156497495096
1156.0,0.01735648124578057
1155.0,0.017394764782220427
1154.0,0.0174387738855505
1153.0,0.017484763161811127
1152.0,0.017522446715079746
1151.0,0.017540285015352316
1150.0,0.017539250778499296
1149.0,0.01753138301365712
1148.0,0.017524235241898715
1147.0,0.017516857582339004
1146.0,0.01751151491760436
1145.0,0.017517681055266743
1144.0,0.017540752258058005
1143.0,0.017576020709954624
1142.0,0.01761765531777118
1141.0,0.017665930785876367
1140.0,0.017722066260871226
1139.0,0.01778348599748259
1138.0,0.017848080159874765
1137.0,0.01791652933274472
1136.0,0.017987251039579724
1135.0,0.018055663514371708
1134.0,0.018121487117739622
1133.0,0.01819069546069531
1132.0,0.018268168124825082
1131.0,0.018354072133046035
1130.0,0.018447713172761795
1129.0,0.018547706196444143
1128.0,0.01864773821336907
1127.0,0.018739901842267287
1126.0,0.018822705661330975
1125.0,0.01889783885434028
1124.0,0.0189606301811142
1123.0,0.019005075917683634
1122.0,0.019037875067321516
1121.0,0.019074336303303876
1120.0,0.019118869672302
1119.0,0.019161844845451102
1118.0,0.019197114379906274
1117.0,0.019230029117376528
1116.0,0.019266209957393338
1115.0,0.01930563264302922
1114.0,0.019350788344970355
1113.0,0.019407398404474748
1112.0,0.01947302500599696
1111.0,0.019538168763743126
1110.0,0.01960346083572946
1109.0,0.01968332826754237
1108.0,0.0197875846447937
1107.0,0.01991061299418206
1106.0,0.02004202567469929
1105.0,0.020174644949527188
1104.0,0.020297432074705458
1103.0,0.020395089017125934
1102.0,0.02046224692043742
1101.0,0.0205070787002354
1100.0,0.020535985451928643
1099.0,0.020547524460410724
1098.0,0.020545409962261996
1097.0,0.02054234039928589
1096.0,0.020544982482161425
1095.0,0.020548078649854383
1094.0,0.02054835821191434
1093.0,0.0205507862260407
1092.0,0.020555897968200385
1091.0,0.02055456738979789
1090.0,0.02054152261736286
1089.0,0.020522153090464495
1088.0,0.02050117025750404
1087.0,0.020477207448851013
1086.0,0.020453142091232186
1085.0,0.020437219157862365
1084.0,0.020426619947468146
1083.0,0.020402408920977614
1082.0,0.02034887099805365
1081.0,0.020268303145056073
1080.0,0.020171493043083383
1079.0,0.020064607311498037
1078.0,0.019950698321798587
1077.0,0.01983333771023337
1076.0,0.019712474048131878
1075.0,0.019584199629301864
1074.0,0.01944836759045482
1073.0,0.019309473526509587
1072.0,0.019168717389866804
1071.0,0.01902360875084717
1070.0,0.018876636288751355
1069.0,0.01873570894447744
1068.0,0.01860449527007839
1067.0,0.01847965637992012
1066.0,0.018357684672201766
1065.0,0.018236897814110586
1064.0,0.01811311742632727
1063.0,0.017981692534631253
1062.0,0.017844567502240637
1061.0,0.017708553738211424
1060.0,0.01757705553132444
1059.0,0.017450364988422524
1058.0,0.01733247132378716
1057.0,0.017229184374846083
1056.0,0.017139863283170166
1055.0,0.01705876113770041
1054.0,0.016985146397973366
1053.0,0.01692556366052848
1052.0,0.01688528807775186
1051.0,0.016863278632272032
1050.0,0.016855100602437296
1049.0,0.016852898408925707
1048.0,0.016842057810427667
1047.0,0.0168053751707701
1046.0,0.016730134270686592
1045.0,0.016605886242230944
1044.0,0.016421091038188878
1043.0,0.01617267297327948
1042.0,0.0158768583212819
1041.0,0.015561266524310315
1040.0,0.015246923112411711
1039.0,0.014943122394953417
1038.0,0.01465402504412256
1037.0,0.014380996511342978
1036.0,0.014120768066849792
1035.0,0.013869128212214806
1034.0,0.013626243586736083
1033.0,0.013393711489724507
1032.0,0.013168808177795067
1031.0,0.012947368485330329
1030.0,0.012730375606520503
1029.0,0.012521834969325324
1028.0,0.012321271477458238
1027.0,0.012123591528700847
1026.0,0.011925868709321254
1025.0,0.011729981389030506
1024.0,0.011538921940855814
1023.0,0.011353920048797686
1022.0,0.011174466822652501
1021.0,0.01099802642196593
1020.0,0.010820423186470812
1019.0,0.010639656540450867
1018.0,0.010459239308806975
1017.0,0.010285458830925515
1016.0,0.01012200010435667
1015.0,0.009969232792019113
1014.0,0.009827470820800462
1013.0,0.009698094946185743
1012.0,0.00958164879889732
1011.0,0.009477514944354564
1010.0,0.009386447077960937
1009.0,0.009312019252531481
1008.0,0.009258870690634795
1007.0,0.009231000354881816
1006.0,0.009233747647130655
1005.0,0.009278210797645372
1004.0,0.009384094317348858
1003.0,0.009578513371189512
1002.0,0.009887943437751958
1001.0,0.010317996313531865
1000.0,0.010823314317463084
999.0,0.011291688474629209
998.0,0.011575030991134917
997.0,0.011562103691276342
996.0,0.011239570863524936
995.0,0.010694079813957279
994.0,0.010057767974453203
993.0,0.009442167522350255
992.0,0.00890659194215887
991.0,0.008466006608071251
990.0,0.008111287636248089
989.0,0.007824681570796743
988.0,0.0075905070183329305
987.0,0.007400409027781664
986.0,0.007251324891378237
985.0,0.007141446663263823
984.0,0.007070411932738349
983.0,0.007041702725405566
982.0,0.007063442107385394
981.0,0.007148877706151307
980.0,0.00731611588481366
979.0,0.007582219165079019
978.0,0.007953359415986232
977.0,0.00841971891074905
976.0,0.008953737234760601
975.0,0.009500947660709877
974.0,0.009968145328277977
973.0,0.010233754041764529
972.0,0.010195684497147188
971.0,0.009834132702527906
970.0,0.009235197444386604
969.0,0.008544574540209715
968.0,0.00789082308257604
967.0,0.007341316226598454
966.0,0.006906470356256406
965.0,0.0065669165122469
964.0,0.00629740692961695
963.0,0.00607749527120123
962.0,0.005892482495587131
961.0,0.005731595926186177
960.0,0.005586999738183466
959.0,0.005453735242181918
958.0,0.005330144103956748
957.0,0.005217917351642979
956.0,0.005119700030986971
955.0,0.005034607274104732
954.0,0.004957079174001185
953.0,0.004882496209088887
952.0,0.004812864001797656
951.0,0.004753727087068739
950.0,0.00470613700013095
949.0,0.004665656123273902
948.0,0.004629584521573036
947.0,0.004600997937115516
946.0,0.004584188458605599
945.0,0.004579330563050472
944.0,0.004583077109258567
943.0,0.004591426620569728
942.0,0.004600068513720251
941.0,0.004603747695923347
940.0,0.004597090781487628
939.0,0.0045762323407841365
938.0,0.004540689515754644
937.0,0.004495242037235062
936.0,0.0044487580281414585
935.0,0.004408072611862147
934.0,0.004372603577209229
933.0,0.004336968825849026
932.0,0.0042982717222541916
931.0,0.00425812212177604
930.0,0.004218567821774839
929.0,0.004180182664507202
928.0,0.004144461758480305
927.0,0.004114002447434817
926.0,0.004088988582974698
925.0,0.0040666493462928575
924.0,0.0040452328491789435
923.0,0.00402572337012677
922.0,0.004009242091923644
921.0,0.003995985124168383
920.0,0.0039871244291348005
919.0,0.003984026334110994
918.0,0.003984628313842914
917.0,0.003984291398920037
916.0,0.0039817559841059755
915.0,0.003981161268729876
914.0,0.003986551213614766
913.0,0.003996908265949851
912.0,0.00400801617670787
911.0,0.004016950511918003
910.0,0.004023717541191784
909.0,0.004031032555840086
908.0,0.004044180369316263
907.0,0.004069880021198732
906.0,0.004114717795538384
905.0,0.004185525703088505
904.0,0.004289245547157648
903.0,0.004427428652104621
902.0,0.004588416010520794
901.0,0.004746108054576819
900.0,0.0048672289636049245
899.0,0.0049225519768446475
898.0,0.004898636051639109
897.0,0.004805141665621985
896.0,0.004670929356233021
895.0,0.004529060115846023
894.0,0.004402058543425161
893.0,0.0042990788960842255
892.0,0.0042225624300448565
891.0,0.004172216193801977
890.0,0.004143880089113643
889.0,0.004131689811649415
888.0,0.004134102234594102
887.0,0.004154251229442981
886.0,0.004193631804642011
885.0,0.004249971611484424
884.0,0.004322749871741825
883.0,0.004416498472622222
882.0,0.004536270472010143
881.0,0.00468200704266738
880.0,0.004847272345978794
879.0,0.005019744173987324
878.0,0.005183344916580035
877.0,0.005325218776306213
876.0,0.005442480733060669
875.0,0.0055390164464710345
874.0,0.005613890720344102
873.0,0.005654760554788986
872.0,0.005644895491372173
871.0,0.005578015342742656
870.0,0.00546816560907141
869.0,0.005346364830195193
868.0,0.005246117931974286
867.0,0.005188097040245388
866.0,0.005174815608979942
865.0,0.0051982784966337885
864.0,0.005250604093943154
863.0,0.00532605793703487
862.0,0.005417900942917549
861.0,0.005520204906889906
860.0,0.005632397312842867
859.0,0.0057568558075053785
858.0,0.005891460057350029
857.0,0.006027378198231093
856.0,0.006152415755840664
855.0,0.00625256700465909
854.0,0.006313559400980353
853.0,0.00632898577503793
852.0,0.006309135761083237
851.0,0.0062775220899373586
850.0,0.006256853191188483
849.0,0.006261740359179467
848.0,0.006306606936508948
847.0,0.0064181436386514835
846.0,0.006640529747719785
845.0,0.007026882980835234
844.0,0.007604888839859585
843.0,0.008316789649393816
842.0,0.008985072730226256
841.0,0.009376167821683412
840.0,0.00934831070191744
839.0,0.008958895571121572
838.0,0.008419167515967014
837.0,0.007936870875297293
836.0,0.007603222999903013
835.0,0.007404318756228739
834.0,0.007293142100071795
833.0,0.007233106085636024
832.0,0.007200237609635269
831.0,0.007179946868140039
830.0,0.007170388606098586
829.0,0.007176886322408881
828.0,0.007198740068748967
827.0,0.007228003351768783
826.0,0.0072604266164305944
825.0,0.007298564224379942
824.0,0.007343947526045318
823.0,0.007394737521633254
822.0,0.007450334722467367
821.0,0.007510558958900069
820.0,0.00757291656171089
819.0,0.007637958570586597
818.0,0.007714121350497828
817.0,0.007810921997384278
816.0,0.007930550947876149
815.0,0.008072057079100397
814.0,0.00823953961831329
813.0,0.008436738708765133
812.0,0.008653668513227405
811.0,0.008866186726038278
810.0,0.009049336951668957
809.0,0.009185501429619958
808.0,0.009263079590407303
807.0,0.009279959766733153
806.0,0.009250739741115748
805.0,0.009200527644311644
804.0,0.009148835008435994
803.0,0.009105058545497674
802.0,0.009076123131940244
801.0,0.009067550815536307
800.0,0.009076875115961665
799.0,0.009095875331180033
798.0,0.009120618768730064
797.0,0.009151148009849314
796.0,0.00918190696097973
795.0,0.009203548152220381
794.0,0.009216304660453964
793.0,0.009231480039564255
792.0,0.009257146774376225
791.0,0.009291307894986566
790.0,0.009330330498170388
789.0,0.009373652347907251
788.0,0.009417437463082972
787.0,0.009454059184302005
786.0,0.009482427978126004
785.0,0.009510188963179232
784.0,0.009542011740432371
783.0,0.00957440993649266
782.0,0.009605495585384299
781.0,0.009640139457149978
780.0,0.0096804180399096
779.0,0.009719758338013479
778.0,0.00975243329919252
777.0,0.009781755046299028
776.0,0.009813674246223562
775.0,0.009848545042882097
774.0,0.009883560704076144
773.0,0.009917512422560181
772.0,0.009949749533721762
771.0,0.009980471247743743
770.0,0.01001473133842675
769.0,0.0100594957130721
768.0,0.010114005842984938
767.0,0.010169555572243333
766.0,0.010220664407301811
765.0,0.010268987769377527
764.0,0.010315018409072365
763.0,0.010355727715638145
762.0,0.01039356655653936
761.0,0.010438267970126015
760.0,0.010494914215304317
759.0,0.010557587262115455
758.0,0.010618330159189806
757.0,0.010674824127466679
756.0,0.010726657957003928
755.0,0.010773253827550108
754.0,0.01081939025732263
753.0,0.010873877741657444
752.0,0.010938502151078063
751.0,0.011006269740569428
750.0,0.011073381172838098
749.0,0.011143549918468929
748.0,0.011216961276414032
747.0,0.011285092554267254
746.0,0.01134213267845682
745.0,0.011393138371283001
744.0,0.011445430751241013
743.0,0.011499165465922202
742.0,0.011550480445640623
741.0,0.011596358171199327
740.0,0.011632811565818052
739.0,0.011656528558116285
738.0,0.011672032985627186
737.0,0.011689540422560242
736.0,0.011713392400428499
735.0,0.011740274059559238
734.0,0.011769450969849021
733.0,0.01180483689090072
732.0,0.011845253666890602
731.0,0.011883562531470389
730.0,0.0119184527632108
729.0,0.011956687278179563
728.0,0.01200087174261729
727.0,0.012046010043411385
726.0,0.012090853719251712
725.0,0.01214068446920976
724.0,0.0121958176045702
723.0,0.012249065686813866
722.0,0.01229735581359001
721.0,0.01234450621309659
720.0,0.012390484426035013
719.0,0.01243135253331443
718.0,0.01247293516749657
717.0,0.012529933168047857
716.0,0.012607305854604858
715.0,0.012694077594867868
714.0,0.012776645722556677
713.0,0.012844841561954083
712.0,0.012884654468705337
711.0,0.012884595071180765
710.0,0.01285574953188617
709.0,0.012828764759995812
708.0,0.012823774845749591
707.0,0.012836193288594522
706.0,0.012855771443021136
705.0,0.012883179673474975
704.0,0.01292087385215085
703.0,0.012963378303939468
702.0,0.01300461864770788
701.0,0.01304165643899759
700.0,0.013065960323503548
699.0,0.013066172818733287
698.0,0.01304562065215516
697.0,0.013021495071744178
696.0,0.013001404231994623
695.0,0.012977520978102161
694.0,0.01294843006367748
693.0,0.012927759106256202
692.0,0.012922826475110248
691.0,0.01292187905771761
690.0,0.012912401498558247
689.0,0.012896613807749393
688.0,0.012880166589206272
687.0,0.012863182125402328
686.0,0.012851814230727277
685.0,0.012858040848414635
684.0,0.012878262116443197
683.0,0.012892215197643393
682.0,0.012890513638368673
681.0,0.012884504043168016
680.0,0.012883133050708255
679.0,0.012880123504424808
678.0,0.012872886544704375
677.0,0.012872760912588328
676.0,0.012884418421072668
675.0,0.01289601388225833
674.0,0.012899868314759273
673.0,0.012903973827824565
672.0,0.0129133446134649
671.0,0.012919947651313532
670.0,0.01291700416049276
669.0,0.012912571293840696
668.0,0.012922705445403491
667.0,0.012937586401768064
666.0,0.012935164204851683
665.0,0.012921968221759134
664.0,0.01290760044568955
663.0,0.012885134263505675
662.0,0.012854871017949677
661.0,0.012833137649687035
660.0,0.012824844035090932
659.0,0.012812014852102368
658.0,0.012784427503993216
657.0,0.012753846063123509
656.0,0.012724624760644714
655.0,0.012681635056187107
654.0,0.01262292165328971
653.0,0.012572826529395693
652.0,0.012545128153680977
651.0,0.012520636327884603
650.0,0.012477123598949265
649.0,0.012415837838670066
648.0,0.012343659367959937
647.0,0.01225914979942765
646.0,0.012171231317140624
645.0,0.012099926250078937
644.0,0.012044371170745066
643.0,0.011977492505367907
642.0,0.011885155554303015
641.0,0.011783677346175598
640.0,0.011687018035968645
639.0,0.011588769939650991
638.0,0.011488804265615438
637.0,0.011404137704622074
636.0,0.011340331633808393
635.0,0.011284278029528246
634.0,0.011233458562454748
633.0,0.011195423918993704
632.0,0.011151878511475262
631.0,0.011066554990549704
630.0,0.010940199618288158
629.0,0.010813964445049753
628.0,0.01070580168541484
627.0,0.010588710366898221
626.0,0.010443935718587385
625.0,0.010288742516962983
624.0,0.010133547962494275
623.0,0.009963663270980496
622.0,0.009786096270249223
621.0,0.009637230698970184
620.0,0.00952281856935236
619.0,0.009407546403787263
618.0,0.00928393804972976
617.0,0.009193604091099792
616.0,0.009155823350478435
615.0,0.00913764238562112
614.0,0.009117227993222767
613.0,0.009114270161097598
612.0,0.009135781001692055
611.0,0.009152439233968898
610.0,0.00915432825332103
609.0,0.009173119627812854
608.0,0.009221254441077274
607.0,0.009266900469302425
606.0,0.009297721908354064
605.0,0.00934796551379305
604.0,0.009428253967536642
603.0,0.009490685546711057
602.0,0.00949770117628813
601.0,0.009467301794600282
600.0,0.009422125560551439
599.0,0.00935802928254087
598.0,0.009286727036130382
597.0,0.009242462118269176
596.0,0.009215292520015867
595.0,0.009135132978992655
594.0,0.008959590310067881
593.0,0.008728648205319383
592.0,0.008500784776941368
591.0,0.00829326962568635
590.0,0.008108254248120915
589.0,0.007954833574506085
588.0,0.007817231787131134
587.0,0.007651725251882416
586.0,0.007442969727468987
585.0,0.0072209786256786715
584.0,0.007001101494441624
583.0,0.00676030260264439
582.0,0.006496346505542271
581.0,0.006252118431317654
580.0,0.006056901399658353
579.0,0.005892491359303293
578.0,0.005734473091193421
577.0,0.0055886616481000875
576.0,0.005467099290871923
575.0,0.005363376952823842
574.0,0.005269132629882338
573.0,0.005184042134419628
572.0,0.005102296521985917
571.0,0.005019286076513944
570.0,0.00495400715427817
569.0,0.004929182619050685
568.0,0.004922572357442898
567.0,0.004879406648463041
566.0,0.004785042496252846
565.0,0.0046835936295207565
564.0,0.004613763614657079
563.0,0.004572983489988726
562.0,0.004549471313487685
561.0,0.0045480832464237855
560.0,0.004568003422500222
559.0,0.0045822812581551645
558.0,0.004565813424278475
557.0,0.004520320816534255
556.0,0.004446459060349203
555.0,0.004332834338811738
554.0,0.004196072480289055
553.0,0.004082377463168781
552.0,0.0040150905754713345
551.0,0.003974806336790438
550.0,0.003929200249359657
