cm-1,A
4000.0,0.002014806694853377
3999.0,0.00202482540071831
3998.0,0.0020410328479691566
3997.0,0.00206940279881721
3996.0,0.0020976898183308933
3995.0,0.002107647755112481
3994.0,0.002094006175213438
3993.0,0.002068986556703161
3992.0,0.002049076366079993
3991.0,0.002046450660698817
3990.0,0.002066279765958628
3989.0,0.0021029614752719377
3988.0,0.0021497496878423363
3987.0,0.0022085564490995817
3986.0,0.002284417022990765
3985.0,0.002363420991835578
3984.0,0.002404333087414564
3983.0,0.002375586071789823
3982.0,0.0023044012655644274
3981.0,0.00226600654629243
3980.0,0.0023109315139143473
3979.0,0.0024082918330771905
3978.0,0.0024710255593832567
3977.0,0.0024450242606158384
3976.0,0.0023616771415020995
3975.0,0.002299383200562742
3974.0,0.0023017954918600238
3973.0,0.002340884728176047
3972.0,0.002363547735129306
3971.0,0.0023506925359898833
3970.0,0.002328138521227106
3969.0,0.0023353269680029126
3968.0,0.002379543334136907
3967.0,0.0024341242761764083
3966.0,0.0024659392803705587
3965.0,0.002462583413305148
3964.0,0.002442211596499184
3963.0,0.002437632037620624
3962.0,0.002478750030251326
3961.0,0.002560678762476349
3960.0,0.0026326802975698456
3959.0,0.002648894636430174
3958.0,0.0026043019272989597
3957.0,0.0025465823486698763
3956.0,0.0025316514554435945
3955.0,0.0025713068253242818
3954.0,0.0026394005114389807
3953.0,0.0026936302235154768
3952.0,0.0026965858364087856
3951.0,0.0026344256075369298
3950.0,0.002538588016001181
3949.0,0.0024915038455403096
3948.0,0.0025597494113959755
3947.0,0.0027389063027547173
3946.0,0.0029618193533031863
3945.0,0.0030911011668342493
3944.0,0.0030194399471839845
3943.0,0.0028250555790340862
3942.0,0.0026998465043525923
3941.0,0.0027192171198548035
3940.0,0.0027858549981542476
3939.0,0.0027847295807215348
3938.0,0.0027007991530577247
3937.0,0.0026271977998359192
3936.0,0.0026496907524636067
3935.0,0.002738201800141519
3934.0,0.002804808125357278
3933.0,0.002818859228998616
3932.0,0.002840935934514055
3931.0,0.002900959768774093
3930.0,0.0029658493745452798
3929.0,0.0030422428894962186
3928.0,0.003149264473747127
3927.0,0.003213173797300164
3926.0,0.0030991951074501737
3925.0,0.002863337034134798
3924.0,0.0027440039990951947
3923.0,0.0028279883917310504
3922.0,0.0029785144768570034
3921.0,0.003033233093784146
3920.0,0.0029780378132208737
3919.0,0.0029156708618092173
3918.0,0.0028940526131813835
3917.0,0.0028781547663548424
3916.0,0.0028323361685443707
3915.0,0.002777985846452732
3914.0,0.002731287229511381
3913.0,0.0026767017473148975
3912.0,0.0026078404414988402
3911.0,0.0025635766198912006
3910.0,0.0025590849114152468
3909.0,0.0025963305764831763
3908.0,0.0026712970474179025
3907.0,0.0027396294474717666
3906.0,0.0026942989744661696
3905.0,0.0025292716116202428
3904.0,0.0024872248164640254
3903.0,0.002744302194423583
3902.0,0.003112250878018491
3901.0,0.003264290713193504
3900.0,0.0031081836507999673
3899.0,0.0028619929341496255
3898.0,0.0027508647267700135
3897.0,0.0027775253607090176
3896.0,0.00281513274131461
3895.0,0.002810208270233954
3894.0,0.002765767111028836
3893.0,0.0026648218233359406
3892.0,0.0025252875443018295
3891.0,0.0024290175733739077
3890.0,0.0024533242403389204
3889.0,0.0027250967667426813
3888.0,0.003108253219470814
3887.0,0.0031313331567731553
3886.0,0.002694432284958947
3885.0,0.0024155063545096495
3884.0,0.0027349548774752916
3883.0,0.003408228311667638
3882.0,0.0038501536243235636
3881.0,0.0037443985464550023
3880.0,0.0033609829843998284
3879.0,0.003107350489939328
3878.0,0.0031470654925962434
3877.0,0.0033639637204538253
3876.0,0.0033929020957667293
3875.0,0.0030504316010247223
3874.0,0.002733857893851864
3873.0,0.0028862753960371794
3872.0,0.0032589218369230392
3871.0,0.0032064937913966534
3870.0,0.002713064628907591
3869.0,0.0024524806498027506
3868.0,0.0027245113273663335
3867.0,0.0031846103617894405
3866.0,0.003262492287427559
3865.0,0.0029127122171895828
3864.0,0.0027352586845993763
3863.0,0.0029700600170667855
3862.0,0.003191993732953505
3861.0,0.0031325956961946464
3860.0,0.0028288489165593303
3859.0,0.0024028312611641617
3858.0,0.002003831597520085
3857.0,0.0018655821513535575
3856.0,0.002086481943264982
3855.0,0.0021422970779594536
3854.0,0.00160796295161382
3853.0,0.0013971222251927375
3852.0,0.0018276249940378615
3851.0,0.002371802311541874
3850.0,0.0027415192005849857
3849.0,0.0028779214428511926
3848.0,0.002901645988350768
3847.0,0.002934259453385723
3846.0,0.0029626622904010084
3845.0,0.002933416230992872
3844.0,0.0028524217922524667
3843.0,0.0028343442627084096
3842.0,0.002960564340887915
3841.0,0.003146225383372351
3840.0,0.003206109008487246
3839.0,0.003110652370973758
3838.0,0.0029727235612098364
3837.0,0.0028692345092317965
3836.0,0.0028588294945203216
3835.0,0.002985384478527902
3834.0,0.003163497535552823
3833.0,0.0032318271137832958
3832.0,0.0031582107691183817
3831.0,0.0031028405358669887
3830.0,0.003217457870031186
3829.0,0.003454206687430606
3828.0,0.0035336883364107223
3827.0,0.003246483982457203
3826.0,0.0027784397927975496
3825.0,0.0025633141726167253
3824.0,0.002790044351456391
3823.0,0.0030594269677386883
3822.0,0.002804742419363679
3821.0,0.002419572069255304
3820.0,0.002501860913924317
3819.0,0.002926277908513881
3818.0,0.003324479576712183
3817.0,0.003269308891726749
3816.0,0.0028560363055355146
3815.0,0.002621537077496448
3814.0,0.0027081789858928243
3813.0,0.002823703825437434
3812.0,0.0027305576342678706
3811.0,0.002539992528541375
3810.0,0.0025567109301738652
3809.0,0.002774787672466853
3808.0,0.002812656691391086
3807.0,0.0025783022221891484
3806.0,0.0024473129034123155
3805.0,0.0027028648297191217
3804.0,0.003157878101194986
3803.0,0.003224455637485678
3802.0,0.0028438690288211145
3801.0,0.002814992100639082
3800.0,0.003267024132216379
3799.0,0.0036820916787896505
3798.0,0.0037159325237263504
3797.0,0.003363771309509744
3796.0,0.002983399743269927
3795.0,0.0028459599424671463
3794.0,0.0028728157561869715
3793.0,0.002871111951285572
3792.0,0.0028014847430441175
3791.0,0.002778564861465299
3790.0,0.0028881000242878463
3789.0,0.0030769932010909122
3788.0,0.003226317420949109
3787.0,0.0032505042962956664
3786.0,0.0031375481775981857
3785.0,0.0029761540889037714
3784.0,0.002895815999608156
3783.0,0.002955220933240959
3782.0,0.003089278475671672
3781.0,0.003130514071416803
3780.0,0.00301760183168206
3779.0,0.002916900769293745
3778.0,0.002912899191301579
3777.0,0.002919946755019385
3776.0,0.0028449585660510522
3775.0,0.0026997982901241615
3774.0,0.002637895545659008
3773.0,0.002764113803440945
3772.0,0.002907480348133297
3771.0,0.0028292985185438373
3770.0,0.0026626170331825365
3769.0,0.002751941396616336
3768.0,0.0031063772888618828
3767.0,0.003404595503050242
3766.0,0.0033898363792659036
3765.0,0.0031721235565097088
3764.0,0.0030710994607861175
3763.0,0.0032301452463294666
3762.0,0.0034578234541364893
3761.0,0.003484296759241361
3760.0,0.0033432526636246254
3759.0,0.0032674215083858494
3758.0,0.003233045882410103
3757.0,0.0030828479738781575
3756.0,0.002891924416079542
3755.0,0.0027867653059667928
3754.0,0.0026595906402868356
3753.0,0.002250215813983867
3752.0,0.0016299927339414842
3751.0,0.001417289767904401
3750.0,0.0016916576267091282
3749.0,0.0018771228633753974
3748.0,0.002017527812324618
3747.0,0.002393648070478667
3746.0,0.002673140075603893
3745.0,0.002450789210405385
3744.0,0.002211523340736126
3743.0,0.0024262125236791648
3742.0,0.002831698295559749
3741.0,0.00301442635396905
3740.0,0.002916134978033477
3739.0,0.0028615981038580107
3738.0,0.0030381488164470316
3737.0,0.003242322222001671
3736.0,0.0034381599679204986
3735.0,0.0037918279740740118
3734.0,0.004014927417750753
3733.0,0.003820021913971945
3732.0,0.0034218377299477234
3731.0,0.003168615675747808
3730.0,0.003201755180685153
3729.0,0.0033688806977600592
3728.0,0.003367823784180916
3727.0,0.0031328872861217513
3726.0,0.0029977673385366676
3725.0,0.0031945205091275294
3724.0,0.003530996902120803
3723.0,0.003733067425732416
3722.0,0.0037550399339872347
3721.0,0.0036919264755405695
3720.0,0.003603360644157982
3719.0,0.0034826291421017922
3718.0,0.003304986547525225
3717.0,0.0031412170859305456
3716.0,0.0031330610699908815
3715.0,0.003318063803420942
3714.0,0.003535184679616707
3713.0,0.0035588791718555264
3712.0,0.0034800663230764002
3711.0,0.0036257686150362404
3710.0,0.0038926797631115024
3709.0,0.004026869899209494
3708.0,0.004021436182300935
3707.0,0.003978038796502844
3706.0,0.004003964675177696
3705.0,0.0041409701177212805
3704.0,0.004297636871097383
3703.0,0.0043356879665934645
3702.0,0.004275378999459262
3701.0,0.004266560488493578
3700.0,0.0043664249162675695
3699.0,0.004506471252423833
3698.0,0.004549081540275239
3697.0,0.004436358252827684
3696.0,0.004312977720640536
3695.0,0.00435082348270871
3694.0,0.004544597406528605
3693.0,0.0047761907992612766
3692.0,0.004936218708326891
3691.0,0.004983383856299322
3690.0,0.005003726577173257
3689.0,0.0050967720408009645
3688.0,0.0051756870573453195
3687.0,0.005249619164876608
3686.0,0.005399278866494352
3685.0,0.005544402391792333
3684.0,0.005598895364443211
3683.0,0.005628856627981746
3682.0,0.005695161855272583
3681.0,0.005688142887929517
3680.0,0.005582608683619867
3679.0,0.005656335102040595
3678.0,0.006120906569355818
3677.0,0.006580480900860358
3676.0,0.006682553087881593
3675.0,0.006725679843025615
3674.0,0.006836867715267684
3673.0,0.007073211470115713
3672.0,0.0072402954552674825
3671.0,0.007035376753622613
3670.0,0.00690840714186673
3669.0,0.007282974398985622
3668.0,0.007691408977929921
3667.0,0.007873663803446658
3666.0,0.007926171994834339
3665.0,0.007990581101957158
3664.0,0.008146504839798936
3663.0,0.00834986935413371
3662.0,0.008495689225004158
3661.0,0.0085703167609925
3660.0,0.008700374322269352
3659.0,0.00897031741639897
3658.0,0.009269179657045129
3657.0,0.009417296496247037
3656.0,0.00948549365246061
3655.0,0.009658379463489297
3654.0,0.010030833159711192
3653.0,0.01054767125080148
3652.0,0.010917263095680611
3651.0,0.01088250072695607
3650.0,0.010997305718546813
3649.0,0.012105698356641095
3648.0,0.013376399020593472
3647.0,0.013897928800802664
3646.0,0.013919271801848404
3645.0,0.01382782320444216
3644.0,0.013748524761638046
3643.0,0.01370473893830899
3642.0,0.013764757163195106
3641.0,0.013992453428837797
3640.0,0.01432938632466103
3639.0,0.014661294383787854
3638.0,0.014989593517074545
3637.0,0.015387930177295596
3636.0,0.01580055485040498
3635.0,0.01601850482020575
3634.0,0.015973489544798138
3633.0,0.015896332920561196
3632.0,0.016069134673510427
3631.0,0.01644569534699932
3630.0,0.01674128747431132
3629.0,0.01723463709951063
3628.0,0.018075045712312256
3627.0,0.018735633814396257
3626.0,0.019148937960837206
3625.0,0.01944055973229966
3624.0,0.019693343357566503
3623.0,0.020013338442758235
3622.0,0.020426434341760436
3621.0,0.02082560800494053
3620.0,0.021179643568998627
3619.0,0.021619831472726815
3618.0,0.02211492186500246
3617.0,0.02254569939515337
3616.0,0.02289663226958712
3615.0,0.02313375425124463
3614.0,0.02326588612093841
3613.0,0.02341957076570842
3612.0,0.023698604123744214
3611.0,0.024109817844486986
3610.0,0.02460922583394169
3609.0,0.0251629333876916
3608.0,0.02576364280784768
3607.0,0.02628951722843017
3606.0,0.026599427720185257
3605.0,0.02674144213923901
3604.0,0.026864414293066175
3603.0,0.02708047491450268
3602.0,0.02742660450239601
3601.0,0.027856326529341828
3600.0,0.02827898920340966
3599.0,0.028618603215456798
3598.0,0.028900892009344516
3597.0,0.02921241445352609
3596.0,0.029596123594701568
3595.0,0.029988680729105932
3594.0,0.030292473914304195
3593.0,0.030480245461943042
3592.0,0.030661754227333485
3591.0,0.03098271614383878
3590.0,0.03143797390675747
3589.0,0.031881523740796905
3588.0,0.03233736889432466
3587.0,0.032904651538512034
3586.0,0.03336114242054026
3585.0,0.03357748106037725
3584.0,0.03369319903203089
3583.0,0.03385139934468617
3582.0,0.03412109867592221
3581.0,0.034489008496389514
3580.0,0.03488006294286388
3579.0,0.03522165470942009
3578.0,0.03551226013549406
3577.0,0.035806631705724776
3576.0,0.03613694977445048
3575.0,0.036473634954989974
3574.0,0.03676193400826789
3573.0,0.036993917052390815
3572.0,0.03724282397911734
3571.0,0.037631493060237164
3570.0,0.03819998384771822
3569.0,0.03880969171431726
3568.0,0.03936174093735381
3567.0,0.040007227873499945
3566.0,0.0406993540498982
3565.0,0.041160444217224736
3564.0,0.04138030264032984
3563.0,0.04150943732680977
3562.0,0.041657334009354445
3561.0,0.041882061697825254
3560.0,0.04218042984149287
3559.0,0.042507952546642
3558.0,0.042831361752824766
3557.0,0.04314916730217677
3556.0,0.04346610353760258
3555.0,0.04378743081227842
3554.0,0.04414028741861924
3553.0,0.044575251450611565
3552.0,0.04506955456453354
3551.0,0.04551475454241214
3550.0,0.04586905297020605
3549.0,0.046196378228444815
3548.0,0.04656884495597176
3547.0,0.047017821213512515
3546.0,0.04752106452028776
3545.0,0.04800401271264194
3544.0,0.04840360671649755
3543.0,0.048730309538575205
3542.0,0.04902838477792894
3541.0,0.049336060824963
3540.0,0.04967483102153518
3539.0,0.05004299613245968
3538.0,0.05042830294474232
3537.0,0.050824920625227685
3536.0,0.05122084517838608
3535.0,0.05157626052426667
3534.0,0.05187264415439683
3533.0,0.05214384447605195
3532.0,0.05244713088075849
3531.0,0.0528090505378904
3530.0,0.05321556882256744
3529.0,0.05365364665698091
3528.0,0.05413339622745501
3527.0,0.05464699913450247
3526.0,0.055140864037719076
3525.0,0.05556960383918991
3524.0,0.055945803153977215
3523.0,0.056298370230806395
3522.0,0.056611545361574034
3521.0,0.05686441093479186
3520.0,0.057091774941600296
3519.0,0.05736135839595945
3518.0,0.05771836481757305
3517.0,0.058146116157672983
3516.0,0.05858285233925974
3515.0,0.05897054956339512
3514.0,0.05929940281520884
3513.0,0.05960866495040644
3512.0,0.059963373545162416
3511.0,0.06041601681537745
3510.0,0.06095809386778776
3509.0,0.06149182526699409
3508.0,0.06190157653204398
3507.0,0.06217205214704735
3506.0,0.06239216541249998
3505.0,0.06267983470338707
3504.0,0.06312971249196996
3503.0,0.06372038728283723
3502.0,0.06427299361078251
3501.0,0.06463944374960229
3500.0,0.06485756869032475
3499.0,0.0650684910300726
3498.0,0.06538061769279435
3497.0,0.06580771613805779
3496.0,0.06628243755027234
3495.0,0.06671584195102376
3494.0,0.06706365841415624
3493.0,0.06735172254817877
3492.0,0.06764383633155642
3491.0,0.06799297731646338
3490.0,0.06841541816417493
3489.0,0.06889122306321639
3488.0,0.06938306085679564
3487.0,0.06985439979887378
3486.0,0.07027807227776083
3485.0,0.07064383115802884
3484.0,0.07097372565304533
3483.0,0.07132868203902379
3482.0,0.07176968986613566
3481.0,0.07227475041954101
3480.0,0.07273039114066435
3479.0,0.07305019104587059
3478.0,0.07326501413906107
3477.0,0.07348404569213268
3476.0,0.07379762991734384
3475.0,0.0742118991515722
3474.0,0.0746589126779756
3473.0,0.07507056096378119
3472.0,0.07543293788348525
3471.0,0.07577898747097585
3470.0,0.07615402205671527
3469.0,0.07657680146037756
3468.0,0.07701128740131066
3467.0,0.07738995518037543
3466.0,0.07768242327266218
3465.0,0.0779340460464527
3464.0,0.07822451678906958
3463.0,0.0785927751780467
3462.0,0.07901244021961056
3461.0,0.07943019460015627
3460.0,0.07980925902436084
3459.0,0.08013681435767446
3458.0,0.08042098718883708
3457.0,0.08069409015544539
3456.0,0.08100603604172131
3455.0,0.08138536791523762
3454.0,0.081807440410204
3453.0,0.08221210796614695
3452.0,0.08256278779651777
3451.0,0.08287467077028425
3450.0,0.08318962697775704
3449.0,0.08354516342403427
3448.0,0.08396519805125387
3447.0,0.08442741737511798
3446.0,0.08483864185798655
3445.0,0.08512499373847084
3444.0,0.08532826862943922
3443.0,0.08556575251443217
3442.0,0.0859094319646998
3441.0,0.0863145488511186
3440.0,0.08668965053361821
3439.0,0.08700756161674615
3438.0,0.0873036842572397
3437.0,0.0875989409029751
3436.0,0.08787988310651206
3435.0,0.08814407401796324
3434.0,0.08842109942575617
3433.0,0.08873145761889632
3432.0,0.08905947747802569
3431.0,0.08937455393835791
3430.0,0.08965544393185677
3429.0,0.08989458578532247
3428.0,0.0901044679383818
3427.0,0.09032479841583867
3426.0,0.09059608641645185
3425.0,0.09091702797962604
3424.0,0.09124367960861157
3423.0,0.09153968121686606
3422.0,0.09181888684674143
3421.0,0.09212556862529511
3420.0,0.09247585032442227
3419.0,0.0928342043482398
3418.0,0.09314503635362273
3417.0,0.09337414735693543
3416.0,0.09353140108831383
3415.0,0.09366502706367116
3414.0,0.09382655299436009
3413.0,0.09403578075594396
3412.0,0.09428024654211793
3411.0,0.09453921679116567
3410.0,0.09479403262972921
3409.0,0.09502595863239306
3408.0,0.095226150099627
3407.0,0.09541130097012215
3406.0,0.09561512725837525
3405.0,0.09585716761332973
3404.0,0.09612398276360642
3403.0,0.09637892614429232
3402.0,0.0965893795170119
3401.0,0.09674644158840293
3400.0,0.09686775761885344
3399.0,0.09698687875511751
3398.0,0.09713704524804312
3397.0,0.09733095848315455
3396.0,0.09754766016469793
3395.0,0.09774626861009178
3394.0,0.09790050300295845
3393.0,0.09802221981667178
3392.0,0.09814507559171169
3391.0,0.09828203535882078
3390.0,0.09841281666831646
3389.0,0.09852000428840008
3388.0,0.09862497804794138
3387.0,0.09877094173754883
3386.0,0.09896860844887817
3385.0,0.09917312543498213
3384.0,0.09932609735999169
3383.0,0.09940915271348318
3382.0,0.09945082956446395
3381.0,0.09949288195446021
3380.0,0.09956159216049774
3379.0,0.09966038333554256
3378.0,0.09977886791383711
3377.0,0.0999102680982106
3376.0,0.10005855564173673
3375.0,0.10022161853284242
3374.0,0.10036808165900017
3373.0,0.10044899631438445
3372.0,0.10044352257776588
3371.0,0.10038556444347364
3370.0,0.10033574587355742
3369.0,0.10033409516299634
3368.0,0.10038702260986491
3367.0,0.1004836823661218
3366.0,0.1006007530920298
3365.0,0.1007002310605152
3364.0,0.10075379282950905
3363.0,0.1007742598297337
3362.0,0.10080067226435215
3361.0,0.10084184162840779
3360.0,0.10085274020331042
3359.0,0.10078435155711207
3358.0,0.10064569114651759
3357.0,0.10050092929669079
3356.0,0.10040951896336947
3355.0,0.100378897006044
3354.0,0.10037487093786568
3353.0,0.10036605839226304
3352.0,0.10034815273324983
3351.0,0.10033278823655288
3350.0,0.10032542035868872
3349.0,0.10031947099677727
3348.0,0.10030424472530458
3347.0,0.10026597780374147
3346.0,0.10018447818379785
3345.0,0.10004673571719544
3344.0,0.0998755376609352
3343.0,0.09972946293417993
3342.0,0.09965299821517624
3341.0,0.09962610999681919
3340.0,0.09958098646970921
3339.0,0.0994749582313975
3338.0,0.09933186994022024
3337.0,0.09920225544743948
3336.0,0.09909857564384184
3335.0,0.09899104662472652
3334.0,0.09885891779540437
3333.0,0.09871598219731603
3332.0,0.09858168173709281
3331.0,0.09845347196979289
3330.0,0.09832275538294576
3329.0,0.09820136546667566
3328.0,0.09810772260366614
3327.0,0.09802759940659775
3326.0,0.09791627187728606
3325.0,0.09775445501255621
3324.0,0.09758258982749005
3323.0,0.09745615403903819
3322.0,0.09737859260528711
3321.0,0.0973001928622096
3320.0,0.09717730400256616
3319.0,0.09700847703607325
3318.0,0.09681185647081501
3317.0,0.09659347232793747
3316.0,0.09635372193293769
3315.0,0.09610930873349767
3314.0,0.09588912685922416
3313.0,0.09571013401895807
3312.0,0.09556716038787763
3311.0,0.09544345749927174
3310.0,0.09532132002765052
3309.0,0.09518568066586092
3308.0,0.09502974876529967
3307.0,0.09486063203756863
3306.0,0.09469590352030982
3305.0,0.09455498283996798
3304.0,0.09445125009972377
3303.0,0.0943795152145112
3302.0,0.09430617507267111
3301.0,0.09418544057269428
3300.0,0.09399827728741598
3299.0,0.0937680787114863
3298.0,0.09353270582610569
3297.0,0.09331291209254408
3296.0,0.0931180882241147
3295.0,0.09296456352248798
3294.0,0.09286304172626418
3293.0,0.09279215968101354
3292.0,0.0927087245934566
3291.0,0.09259036934602453
3290.0,0.09245040023331913
3289.0,0.09230605697987385
3288.0,0.09215203043863072
3287.0,0.09197411376394145
3286.0,0.09177508474215552
3285.0,0.09157708154383833
3284.0,0.09140068798958417
3283.0,0.0912439432698306
3282.0,0.09108004583958516
3281.0,0.09087999183530727
3280.0,0.0906449145443468
3279.0,0.09041602377209892
3278.0,0.09024562008481682
3277.0,0.09015437572528194
3276.0,0.0901161087934418
3275.0,0.09007602564621542
3274.0,0.08997858253709409
3273.0,0.08979239457898218
3272.0,0.08952998865951389
3271.0,0.08924244081349611
3270.0,0.08897896393475876
3269.0,0.0887501426938386
3268.0,0.08853877225767288
3267.0,0.08833587234804745
3266.0,0.08814463420372452
3265.0,0.0879553506824245
3264.0,0.08774706288841573
3263.0,0.0875265085196763
3262.0,0.08733919014199208
3261.0,0.08721852967389564
3260.0,0.08713553987340175
3259.0,0.08702347080999498
3258.0,0.08684900710509424
3257.0,0.0866404151767834
3256.0,0.08644622048677658
3255.0,0.08627702357823758
3254.0,0.08609044782377241
3253.0,0.08583286676971855
3252.0,0.08550380529787235
3251.0,0.08517824189197638
3250.0,0.08495093880332431
3249.0,0.08484630290822671
3248.0,0.08479093747085867
3247.0,0.08468836846723762
3246.0,0.0845106724473588
3245.0,0.084298490171563
3244.0,0.0840819946345605
3243.0,0.08384079600206762
3242.0,0.08354939240474367
3241.0,0.0832264486105137
3240.0,0.08292210421448103
3239.0,0.08267435603982456
3238.0,0.082486181675479
3237.0,0.08232878382353744
3236.0,0.08215655065897266
3235.0,0.08193458012650082
3234.0,0.08166809347079539
3233.0,0.08139590640255678
3232.0,0.08114406567790268
3231.0,0.08089710141273383
3230.0,0.0806293503438975
3229.0,0.08035084617782252
3228.0,0.08009824249246279
3227.0,0.07988204015977879
3226.0,0.07966436838679042
3225.0,0.07939819828509849
3224.0,0.07907680888611068
3223.0,0.07873852033526418
3222.0,0.07843124269657803
3221.0,0.07817460019119894
3220.0,0.07794444629818396
3219.0,0.07769077694605799
3218.0,0.07738045968930618
3217.0,0.07702952665979167
3216.0,0.07669247107498621
3215.0,0.07641715530220299
3214.0,0.07620232451606702
3213.0,0.0759966817707589
3212.0,0.07574569644916537
3211.0,0.07543898096971309
3210.0,0.07511032722620083
3209.0,0.07479612973278014
3208.0,0.07449998930773354
3207.0,0.07420196003185907
3206.0,0.07389238531880887
3205.0,0.0735832720764285
3204.0,0.07328714663232903
3203.0,0.07299896502818734
3202.0,0.0727047630750577
3201.0,0.07239904609057221
3200.0,0.07208376189229335
3199.0,0.0717567657340949
3198.0,0.07141183336615946
3197.0,0.07104999935720459
3196.0,0.07068366851826917
3195.0,0.07032765964198427
3194.0,0.06999132430336381
3193.0,0.06968072667746135
3192.0,0.06940138075157065
3191.0,0.06914933059731128
3190.0,0.06889946737587589
3189.0,0.06861416057027585
3188.0,0.06827330000531381
3187.0,0.06789549066738884
3186.0,0.06751944306168076
3185.0,0.0671617979945028
3184.0,0.06680330869451029
3183.0,0.06642486172672711
3182.0,0.06604240477204967
3181.0,0.06568959646207377
3180.0,0.06537428217159214
3179.0,0.06506910919907803
3178.0,0.06474522957582461
3177.0,0.06440274987399516
3176.0,0.0640655848187755
3175.0,0.06375653472471308
3174.0,0.06348015694685441
3173.0,0.06321890748231868
3172.0,0.06294083766047387
3171.0,0.06261985882562332
3170.0,0.06225634276085698
3169.0,0.061876546931821985
3168.0,0.06150956794708455
3167.0,0.061166956564497305
3166.0,0.060840068713345255
3165.0,0.06050846053713756
3164.0,0.060153600328039784
3163.0,0.05977714824421414
3162.0,0.05940659475721553
3161.0,0.05907263715984837
3160.0,0.05877804070356443
3159.0,0.05849437097583327
3158.0,0.058189619605369974
3157.0,0.0578541443465885
3156.0,0.05750288312527347
3155.0,0.05716058707141315
3154.0,0.056843560670561906
3153.0,0.056547359251159966
3152.0,0.05625301353392521
3151.0,0.055951040063772634
3150.0,0.05565362232392994
3149.0,0.05537309838050516
3148.0,0.05509600931514196
3147.0,0.054795418668699414
3146.0,0.054466849027011155
3145.0,0.0541333508700997
3144.0,0.05381201639851457
3143.0,0.053494246372268454
3142.0,0.05316741428821985
3141.0,0.052838209075357835
3140.0,0.05252272799081197
3139.0,0.05222747451609601
3138.0,0.051955329799361266
3137.0,0.05171538983472099
3136.0,0.05150452847895992
3135.0,0.05128712517981774
3134.0,0.0510186278337992
3133.0,0.050693292986288746
3132.0,0.0503504174586922
3131.0,0.05002755574925312
3130.0,0.04972529180706241
3129.0,0.04942548696704638
3128.0,0.049129752109190995
3127.0,0.0488636922559949
3126.0,0.0486431326558258
3125.0,0.04845158333826235
3124.0,0.04825777749750614
3123.0,0.04804389701897925
3122.0,0.04780715020704164
3121.0,0.047544136544317044
3120.0,0.04724918234295836
3119.0,0.04692607392983021
3118.0,0.04658942756793986
3117.0,0.04625389039294089
3116.0,0.04593395013366305
3115.0,0.04565416887123681
3114.0,0.04544074782993507
3113.0,0.045290046353995875
3112.0,0.0451582551810277
3111.0,0.04499522391742469
3110.0,0.04478166022911677
3109.0,0.04452957481754268
3108.0,0.04426280135763983
3107.0,0.044007773772114483
3106.0,0.04378517990414896
3105.0,0.04359082509271544
3104.0,0.0433933176203932
3103.0,0.043168074413659184
3102.0,0.04292779089717906
3101.0,0.04270782764083415
3100.0,0.04252440236147318
3099.0,0.04236087608546219
3098.0,0.04219237251662563
3097.0,0.042006275431100096
3096.0,0.04180342159936684
3095.0,0.041594597554450885
3094.0,0.04139398655235824
3093.0,0.04120469628867278
3092.0,0.04101096370307778
3091.0,0.04079500226395714
3090.0,0.04056139484527389
3089.0,0.04033384441033318
3088.0,0.04012838374044535
3087.0,0.03993876492305756
3086.0,0.039747631054205895
3085.0,0.039542796702213716
3084.0,0.039322344880373616
3083.0,0.039096005052353444
3082.0,0.03888341677857835
3081.0,0.03869963019450636
3080.0,0.038535089239652195
3079.0,0.03835786077164831
3078.0,0.038144798922136555
3077.0,0.0379069376879314
3076.0,0.03768197708568166
3075.0,0.03750392248400356
3074.0,0.03737613408446314
3073.0,0.03726700897970315
3072.0,0.03713171599758076
3071.0,0.036941585886713965
3070.0,0.036697710705836106
3069.0,0.03642526664863361
3068.0,0.03616316446620016
3067.0,0.03595136343063166
3066.0,0.03580213659445698
3065.0,0.03567572236145372
3064.0,0.03550485619170837
3063.0,0.03526291093778456
3062.0,0.034998832894034035
3061.0,0.03478802217238109
3060.0,0.03465748046011135
3059.0,0.034566474149579585
3058.0,0.03445454518957734
3057.0,0.03429426065841366
3056.0,0.034096922958374465
3055.0,0.03388639792864352
3054.0,0.03367634574051887
3053.0,0.03346615648485011
3052.0,0.03325017488352514
3051.0,0.03302946287840072
3050.0,0.03281423735214969
3049.0,0.032613940601901995
3048.0,0.03242771062240222
3047.0,0.032251111513266664
3046.0,0.032087292610407145
3045.0,0.031941870542310645
3044.0,0.03180901038386318
3043.0,0.0316714845871772
3042.0,0.03151623469518205
3041.0,0.03134286457131288
3040.0,0.031158101954842463
3039.0,0.030969825931488226
3038.0,0.03078655725784913
3037.0,0.0306144429351198
3036.0,0.03045101135784216
3035.0,0.030284801347237593
3034.0,0.030103998847339518
3033.0,0.02990806301014027
3032.0,0.02971373898980209
3031.0,0.029548184242783708
3030.0,0.029422733355365105
3029.0,0.029310104216613096
3028.0,0.029163578816961543
3027.0,0.028966510519610102
3026.0,0.02875451313667061
3025.0,0.028574676379740354
3024.0,0.028432455496263248
3023.0,0.028300556199524932
3022.0,0.028165934737181895
3021.0,0.02804068539244369
3020.0,0.02792780714359646
3019.0,0.027807360794684374
3018.0,0.027664185828673513
3017.0,0.027508749914306126
3016.0,0.02735898032716398
3015.0,0.02721626027177691
3014.0,0.027070920996923552
3013.0,0.026919491345435143
3012.0,0.02676716332052001
3011.0,0.0266221176604368
3010.0,0.02649550399197349
3009.0,0.02639746769884866
3008.0,0.026324821758874416
3007.0,0.026260175348257208
3006.0,0.02618993623895751
3005.0,0.026117412124975665
3004.0,0.026050587453304606
3003.0,0.02598029629860884
3002.0,0.025880025535886596
3001.0,0.025730355538935674
3000.0,0.02554504495430454
2999.0,0.02537092691705992
2998.0,0.025255940175748615
2997.0,0.025208893176214206
2996.0,0.025190619493940476
2995.0,0.025152585104094297
2994.0,0.025081829921220326
2993.0,0.025005837033586418
2992.0,0.024957744171187984
2991.0,0.024947625708301457
2990.0,0.024963412622030962
2989.0,0.02498418684106818
2988.0,0.024991656848081
2987.0,0.024981158076409306
2986.0,0.02496674763411982
2985.0,0.024966242455155215
2984.0,0.024979599170279285
2983.0,0.024992909265321356
2982.0,0.02500520895445205
2981.0,0.025037987011184523
2980.0,0.02510837942797132
2979.0,0.02520334647818109
2978.0,0.025291089429120398
2977.0,0.02535794592504349
2976.0,0.025423963109346897
2975.0,0.02552130751852342
2974.0,0.02565990694521867
2973.0,0.025819638743553027
2972.0,0.025977812055740908
2971.0,0.026140511506229112
2970.0,0.02633774061284137
2969.0,0.026586179212909653
2968.0,0.026866017208869598
2967.0,0.027139374832094807
2966.0,0.027384281791145135
2965.0,0.02760201996468781
2964.0,0.027803429883588263
2963.0,0.028002830611593005
2962.0,0.028220231735340738
2961.0,0.02847069644030646
2960.0,0.028746518273686333
2959.0,0.029019935360424614
2958.0,0.02926155707376705
2957.0,0.029452491015368582
2956.0,0.02958864626307119
2955.0,0.029692011156136067
2954.0,0.02981212043098709
2953.0,0.029992218753597782
2952.0,0.0302324645911213
2951.0,0.030502783780890802
2950.0,0.03079781717640226
2949.0,0.031158235553733954
2948.0,0.031638720167370994
2947.0,0.03227560549180748
2946.0,0.033095279466249926
2945.0,0.034127061655547006
2944.0,0.03538326480358347
2943.0,0.0368389228939576
2942.0,0.03845628631692098
2941.0,0.0402304027270766
2940.0,0.04218957803286373
2939.0,0.044353456404956824
2938.0,0.04670739564140886
2937.0,0.0492315506327011
2936.0,0.05194249815137701
2935.0,0.054890812719624156
2934.0,0.05812013301162378
2933.0,0.06163995751881561
2932.0,0.06543788537137198
2931.0,0.06950823501459136
2930.0,0.07387068851614974
2929.0,0.07857533373245598
2928.0,0.08369126947348365
2927.0,0.0892722953720173
2926.0,0.09532399876141825
2925.0,0.10182158882815139
2924.0,0.10875702956276151
2923.0,0.11613611961468683
2922.0,0.12390423317470733
2921.0,0.13187948410358558
2920.0,0.13976070252540462
2919.0,0.14715738806964315
2918.0,0.15357945151245045
2917.0,0.1584664410040305
2916.0,0.16131699482793682
2915.0,0.16184698208359538
2914.0,0.1600796947399079
2913.0,0.1563403582758459
2912.0,0.15115579906232662
2911.0,0.14508549487078262
2910.0,0.13860081307357427
2909.0,0.13203836992869064
2908.0,0.12561983141056415
2907.0,0.1194846316342409
2906.0,0.11373177036553751
2905.0,0.10844888956351299
2904.0,0.10369054534382512
2903.0,0.09944405785668478
2902.0,0.09563728630628451
2901.0,0.0921852548822562
2900.0,0.08902711175203053
2899.0,0.08610798169982149
2898.0,0.08336108521550524
2897.0,0.08073116310148161
2896.0,0.07819538404853765
2895.0,0.0757470901211342
2894.0,0.07336619288197162
2893.0,0.07102175607637967
2892.0,0.06869891747962781
2891.0,0.06640314614108932
2890.0,0.06413728382535556
2889.0,0.06188911684460367
2888.0,0.05964643799074562
2887.0,0.057419211716504305
2886.0,0.05523817260728957
2885.0,0.05313201925323106
2884.0,0.051110136670671595
2883.0,0.04916998947977782
2882.0,0.04731808876788277
2881.0,0.04557229184727064
2880.0,0.04394108889105678
2879.0,0.04240915682598105
2878.0,0.04095189698568084
2877.0,0.03956662037712131
2876.0,0.03828404985671364
2875.0,0.037151983148617326
2874.0,0.036206734189482635
2873.0,0.035457117805739166
2872.0,0.03488941598621633
2871.0,0.0344846245770737
2870.0,0.03423377304394178
2869.0,0.034140628344495015
2868.0,0.03422158620736692
2867.0,0.034508098645840375
2866.0,0.03504674142992554
2865.0,0.035889368517726866
2864.0,0.03708965504484896
2863.0,0.03871664018107486
2862.0,0.04086198576683377
2861.0,0.043624189132295224
2860.0,0.04708426304680774
2859.0,0.05131780143670709
2858.0,0.05643084838620288
2857.0,0.06257596816735837
2856.0,0.06993494387835414
2855.0,0.07867804827079294
2854.0,0.08890264607468232
2853.0,0.10051679837653182
2852.0,0.11301874153162268
2851.0,0.12525141116081162
2850.0,0.1353623187916426
2849.0,0.14125072335142608
2848.0,0.14149341063600973
2847.0,0.13608513095175034
2846.0,0.12635450403688603
2845.0,0.11422638467127746
2844.0,0.10147667702281378
2843.0,0.0893395318759928
2842.0,0.0784884135630224
2841.0,0.06917700398335799
2840.0,0.061382958010596095
2839.0,0.054947732074391346
2838.0,0.04966740397585064
2837.0,0.04534533559905685
2836.0,0.04180646227022733
2835.0,0.03889486420139046
2834.0,0.03647745773955061
2833.0,0.03444361050894743
2832.0,0.032696843570217606
2831.0,0.03115975239347287
2830.0,0.02978966971683596
2829.0,0.028575024103517945
2828.0,0.027511544963646477
2827.0,0.026582644413468155
2826.0,0.025766532729578576
2825.0,0.02504556847253511
2824.0,0.02440166926825357
2823.0,0.023810192061017872
2822.0,0.02325156102974001
2821.0,0.022725894805454394
2820.0,0.02224563689959411
2819.0,0.021811454315539297
2818.0,0.021403077671122324
2817.0,0.020998771762953717
2816.0,0.020598895045528465
2815.0,0.02022579747310793
2814.0,0.019898491913204284
2813.0,0.019610618446143452
2812.0,0.019339601815659975
2811.0,0.01907332200003198
2810.0,0.018816677349081243
2809.0,0.018573040794705488
2808.0,0.018333972049768773
2807.0,0.018096164599966283
2806.0,0.017876118548642444
2805.0,0.017691035349015984
2804.0,0.017530313586266704
2803.0,0.01736242030696912
2802.0,0.01717002184688562
2801.0,0.016965103922857376
2800.0,0.01676810379729434
2799.0,0.016586499979915532
2798.0,0.016417789302318266
2797.0,0.016259713862055502
2796.0,0.016109868162094563
2795.0,0.01596184423140907
2794.0,0.015808593813404125
2793.0,0.015646885101121593
2792.0,0.015476175096283063
2791.0,0.015299061507602907
2790.0,0.015125461906274278
2789.0,0.014970231890916487
2788.0,0.014841348420403414
2787.0,0.014731129076174364
2786.0,0.014620948079870171
2785.0,0.014494058458486114
2784.0,0.014346353209120442
2783.0,0.0141901343457908
2782.0,0.014045535046976493
2781.0,0.01392229023171853
2780.0,0.013810910370669637
2779.0,0.013696553816181897
2778.0,0.013579469350883368
2777.0,0.013475122745735733
2776.0,0.013393542937246592
2775.0,0.013324989761122962
2774.0,0.013250399449638576
2773.0,0.013162493166825122
2772.0,0.013072375731326512
2771.0,0.01299541163194908
2770.0,0.012931616459692355
2769.0,0.012861934700093114
2768.0,0.012768182947605157
2767.0,0.012656697732189939
2766.0,0.012554490024755413
2765.0,0.012479311672136542
2764.0,0.012421301556208743
2763.0,0.012359812293361338
2762.0,0.012290520577269431
2761.0,0.012225261071661187
2760.0,0.012170838494082403
2759.0,0.012119991203503572
2758.0,0.01206306319387977
2757.0,0.012000681766549294
2756.0,0.011942056096478791
2755.0,0.011893524942232126
2754.0,0.011849427106334718
2753.0,0.011795309084420362
2752.0,0.011724407025422436
2751.0,0.011651656526778733
2750.0,0.011602823688567312
2749.0,0.011584900810956677
2748.0,0.011576058915514553
2747.0,0.011550140394843238
2746.0,0.011504032899316348
2745.0,0.011455812698986382
2744.0,0.011424698784746366
2743.0,0.011419184965025468
2742.0,0.011432668027997908
2741.0,0.011440720440421792
2740.0,0.01141362827624987
2739.0,0.011345098025421402
2738.0,0.011263208883977908
2737.0,0.011201686609017788
2736.0,0.011167189075314053
2735.0,0.011143349678914363
2734.0,0.011116622046297845
2733.0,0.011082910713167818
2732.0,0.011035416412012384
2731.0,0.010966622480462901
2730.0,0.010883983913960806
2729.0,0.010808469632740729
2728.0,0.010753279027295446
2727.0,0.010713314561098542
2726.0,0.010676425724234618
2725.0,0.010635525387548011
2724.0,0.010589485034250182
2723.0,0.010541397125058643
2722.0,0.010496777983850378
2721.0,0.01045709670460804
2720.0,0.010417286370895869
2719.0,0.010375287275146756
2718.0,0.010337986570130266
2717.0,0.010309003672284793
2716.0,0.010278054322508053
2715.0,0.010235020589892714
2714.0,0.010187907442460715
2713.0,0.010152067291356932
2712.0,0.010125772653710004
2711.0,0.010092599129062662
2710.0,0.01004752580155109
2709.0,0.010003493712636695
2708.0,0.009969990345051827
2707.0,0.009939769836247076
2706.0,0.009901346976274103
2705.0,0.009854325304326466
2704.0,0.009807606035528896
2703.0,0.009770202238268064
2702.0,0.009745077521512938
2701.0,0.00972475015905647
2700.0,0.00969405884945218
2699.0,0.009646237228540433
2698.0,0.009595329620771972
2697.0,0.00956296579369743
2696.0,0.009553749464914281
2695.0,0.009552212430352994
2694.0,0.009541760583944172
2693.0,0.009515471423806312
2692.0,0.009471932849807218
2691.0,0.009415158523254356
2690.0,0.009359359214032126
2689.0,0.009321349321180877
2688.0,0.009305275573712732
2687.0,0.009304397826523972
2686.0,0.009316310519949113
2685.0,0.009342746444920006
2684.0,0.009373813613222188
2683.0,0.00938786548161317
2682.0,0.009372508645031464
2681.0,0.009336083034102894
2680.0,0.009295845494685283
2679.0,0.009265140965095727
2678.0,0.009252563591452979
2677.0,0.009258909811949951
2676.0,0.009270133624547316
2675.0,0.009266492121655052
2674.0,0.009246254610528575
2673.0,0.009229364339488427
2672.0,0.009230163041466052
2671.0,0.009237812012219411
2670.0,0.009233677035667923
2669.0,0.009218748101763236
2668.0,0.009211227464067316
2667.0,0.009222814856668355
2666.0,0.009249664639566526
2665.0,0.009284614928790978
2664.0,0.009325570180797134
2663.0,0.009368695019709864
2662.0,0.00940241963575756
2661.0,0.00941467279455295
2660.0,0.009403508844826984
2659.0,0.009376537115098749
2658.0,0.009341211393116658
2657.0,0.009299640387944697
2656.0,0.009253037048025613
2655.0,0.009206464139037066
2654.0,0.00916550881217177
2653.0,0.009130239044153405
2652.0,0.00909737883843252
2651.0,0.009067577453073692
2650.0,0.0090439468984014
2649.0,0.00902169731655534
2648.0,0.008986417877493451
2647.0,0.008928134262692547
2646.0,0.008853336795746467
2645.0,0.008778797032649928
2644.0,0.008716647829534852
2643.0,0.008668934698602922
2642.0,0.008632609009972005
2641.0,0.008605034925419112
2640.0,0.008586500471112812
2639.0,0.008578883641822809
2638.0,0.00857768722492164
2637.0,0.008565662995700739
2636.0,0.008524534860556543
2635.0,0.008458060214202427
2634.0,0.00839386479785119
2633.0,0.008355230405814113
2632.0,0.008337473891710578
2631.0,0.008317106770447684
2630.0,0.008274290094424278
2629.0,0.008199678458675518
2628.0,0.008093775645551695
2627.0,0.0079746064291331
2626.0,0.007877566045614936
2625.0,0.00782788020481108
2624.0,0.007812570042090794
2623.0,0.007793479195605552
2622.0,0.007748214212394159
2621.0,0.00768862050309713
2620.0,0.007639291007889064
2619.0,0.007608103422425138
2618.0,0.007580865910661712
2617.0,0.00753836412770742
2616.0,0.007476844954838472
2615.0,0.0074132095729142755
2614.0,0.00736713059670548
2613.0,0.007336802854974522
2612.0,0.0073003481152418784
2611.0,0.007244153504947937
2610.0,0.007179444898216697
2609.0,0.007124009043215675
2608.0,0.007077189189479215
2607.0,0.0070240624032942255
2606.0,0.006958067933100659
2605.0,0.006890006786622464
2604.0,0.006837817586828203
2603.0,0.006812674776456635
2602.0,0.006809973648101553
2601.0,0.006810254478548242
2600.0,0.0067961843843031946
2599.0,0.006769473744705426
2598.0,0.00674122898215365
2597.0,0.006706906711418862
2596.0,0.006648240602860632
2595.0,0.006563740357695702
2594.0,0.006477852063669303
2593.0,0.006412836408952614
2592.0,0.006370038324381078
2591.0,0.00634565162392634
2590.0,0.006342203700679887
2589.0,0.006350579851231442
2588.0,0.006342143953426144
2587.0,0.006298116880657282
2586.0,0.006233506230025731
2585.0,0.006179534650998363
2584.0,0.006155616909644687
2583.0,0.006164831402485653
2582.0,0.0061956366072046356
2581.0,0.006218825119131796
2580.0,0.006207159685538716
2579.0,0.006171117493572613
2578.0,0.006150346891559584
2577.0,0.006156807427934367
2576.0,0.006157062984467788
2575.0,0.006126579374722522
2574.0,0.006084786728163908
2573.0,0.006050605618898331
2572.0,0.006001840907712159
2571.0,0.005918495714321784
2570.0,0.005835024800357291
2569.0,0.005801628714081442
2568.0,0.005810754769038644
2567.0,0.005807626120986036
2566.0,0.005765851705179465
2565.0,0.0057107377331523995
2564.0,0.005672632499847339
2563.0,0.005656791411821737
2562.0,0.005658160612320155
2561.0,0.005670319312764627
2560.0,0.005676200938615179
2559.0,0.005657751976321061
2558.0,0.005617586783266838
2557.0,0.0055716806856403725
2556.0,0.005526843188758554
2555.0,0.005487746191567701
2554.0,0.005476086697965729
2553.0,0.005511962438442939
2552.0,0.005579137407591868
2551.0,0.00563566350323669
2550.0,0.005657327538365944
2549.0,0.005648696227636563
2548.0,0.005617154053870321
2547.0,0.005562940643949258
2546.0,0.005495029204148255
2545.0,0.0054344450453743575
2544.0,0.005398773435741781
2543.0,0.005395268729584419
2542.0,0.005422337660573481
2541.0,0.005463864390832774
2540.0,0.005493994027033424
2539.0,0.005504788314526359
2538.0,0.005516426653548462
2537.0,0.005543246003075482
2536.0,0.005566722522480354
2535.0,0.0055637267317297165
2534.0,0.005542855306565563
2533.0,0.005525279022939656
2532.0,0.005506302748187484
2531.0,0.005468191071372175
2530.0,0.005420610592918887
2529.0,0.005395941095763217
2528.0,0.00540845904170557
2527.0,0.005444855913543327
2526.0,0.005489950868988479
2525.0,0.005534495319485619
2524.0,0.005561355473291167
2523.0,0.005551234694477368
2522.0,0.005505137525556937
2521.0,0.005445310990253944
2520.0,0.005395146086263498
2519.0,0.0053673366438332
2518.0,0.005360313219250638
2517.0,0.00535360946551217
2516.0,0.005322423508321724
2515.0,0.005271937900243768
2514.0,0.005238983869773989
2513.0,0.00524335967220503
2512.0,0.005260108411831771
2511.0,0.005260614824372626
2510.0,0.0052553544833809284
2509.0,0.005267562732079659
2508.0,0.005287903328868642
2507.0,0.005288631402617785
2506.0,0.005263947532381374
2505.0,0.005223433501578317
2504.0,0.005164818862569367
2503.0,0.005090138695283626
2502.0,0.005033057999827886
2501.0,0.005029921995942014
2500.0,0.005071005280529589
2499.0,0.005113873538966574
2498.0,0.005135083118664935
2497.0,0.005136022045913052
2496.0,0.005112373184023776
2495.0,0.005059675341687104
2494.0,0.005003328016180079
2493.0,0.004981933363953061
2492.0,0.004999100329606549
2491.0,0.005024971150008379
2490.0,0.005042919525418929
2489.0,0.0050590187802439695
2488.0,0.005066271099621224
2487.0,0.0050390627359697855
2486.0,0.004974205952865108
2485.0,0.0049088091345728556
2484.0,0.004884074115326027
2483.0,0.004907730925145958
2482.0,0.0049566585324638725
2481.0,0.005000382119757956
2480.0,0.0050196522263606606
2479.0,0.005014391301421157
2478.0,0.004993279466113947
2477.0,0.004951901358738995
2476.0,0.0048770021897029305
2475.0,0.004783738843923108
2474.0,0.004725172892662114
2473.0,0.004738692761865972
2472.0,0.004797467318976895
2471.0,0.004840775329882884
2470.0,0.00484025884150972
2469.0,0.004812441472527163
2468.0,0.004781064646131363
2467.0,0.004756472020560505
2466.0,0.0047429815297690085
2465.0,0.004738870952644636
2464.0,0.004734694864350033
2463.0,0.004732139993250825
2462.0,0.004751757873621565
2461.0,0.004798410544030041
2460.0,0.004834514721688063
2459.0,0.004817635349175944
2458.0,0.004755524963444262
2457.0,0.004697572203821578
2456.0,0.004679866791775097
2455.0,0.0047010427863750145
2454.0,0.0047393856648937
2453.0,0.004767476854831659
2452.0,0.004762769678797921
2451.0,0.0047313923546819904
2450.0,0.004709899303523027
2449.0,0.004717531615110127
2448.0,0.004722015212950342
2447.0,0.004683050481466051
2446.0,0.004615272693919297
2445.0,0.004574562039919739
2444.0,0.004591016046353798
2443.0,0.004644810717494933
2442.0,0.00469735951236569
2441.0,0.004716402388546484
2440.0,0.004684069147275313
2439.0,0.0046157665780388974
2438.0,0.004563868480455809
2437.0,0.004569642818606383
2436.0,0.004615233415291684
2435.0,0.004649487562522789
2434.0,0.0046504517161324935
2433.0,0.004633621261754394
2432.0,0.004612825481575484
2431.0,0.0045893821779174155
2430.0,0.004572225741400156
2429.0,0.004571497068567927
2428.0,0.0045730426557217575
2427.0,0.004550897481496142
2426.0,0.004505385667371965
2425.0,0.004462972381627792
2424.0,0.004440620739635178
2423.0,0.004433747577145663
2422.0,0.004434308781119739
2421.0,0.004437154720232857
2420.0,0.004434634470392261
2419.0,0.00442766232439982
2418.0,0.0044359798979904845
2417.0,0.004477679260415672
2416.0,0.004545094801003034
2415.0,0.004614878106007623
2414.0,0.0046679522451029696
2413.0,0.004686426852248559
2412.0,0.004655957273425127
2411.0,0.004593658133551639
2410.0,0.0045475446328754774
2409.0,0.004539530089898652
2408.0,0.004534574511506101
2407.0,0.004499662668696059
2406.0,0.004464879952794204
2405.0,0.004481880539983491
2404.0,0.004542477951772047
2403.0,0.004585258743648022
2402.0,0.004574000666097836
2401.0,0.004530620932187879
2400.0,0.0044962769012695525
2399.0,0.004494401949802603
2398.0,0.004525704626432196
2397.0,0.0045658842219138945
2396.0,0.004575389012699207
2395.0,0.004543223489849962
2394.0,0.004511085852709981
2393.0,0.004522537128677198
2392.0,0.004562365501764983
2391.0,0.004582334907678528
2390.0,0.004574215453301496
2389.0,0.004573945341806714
2388.0,0.0045967205834781715
2387.0,0.004612773209285244
2386.0,0.004594079598187711
2385.0,0.004549823039061711
2384.0,0.004508749529981314
2383.0,0.004494995020339571
2382.0,0.004525247463620389
2381.0,0.004596499927095102
2380.0,0.004665219431404477
2379.0,0.0046739118486376335
2378.0,0.004619510700838745
2377.0,0.004565969426689346
2376.0,0.004568895895722831
2375.0,0.004621285103278937
2374.0,0.004681201616176831
2373.0,0.004706601767082166
2372.0,0.0046460326957976075
2371.0,0.0044726304546067255
2370.0,0.004273730429638215
2369.0,0.004213665612382376
2368.0,0.004333609841362827
2367.0,0.004488864132355411
2366.0,0.004558745379226699
2365.0,0.0045792200949171
2364.0,0.004588707796550255
2363.0,0.004566246116001683
2362.0,0.004615500565442729
2361.0,0.004913378055449246
2360.0,0.00539037110952389
2359.0,0.0056999396514188574
2358.0,0.005593553359599827
2357.0,0.005200719843896157
2356.0,0.004802533830111094
2355.0,0.0045677933519824646
2354.0,0.004530242388037021
2353.0,0.004629138847621534
2352.0,0.00476735680034172
2351.0,0.004829065372741302
2350.0,0.0047860009257497645
2349.0,0.004710709651220714
2348.0,0.0046753895521004845
2347.0,0.00472090164930832
2346.0,0.004810363932053388
2345.0,0.004912664895432421
2344.0,0.00499615684334582
2343.0,0.0050797656114573925
2342.0,0.00521586278530882
2341.0,0.005303436013990389
2340.0,0.005196281257467078
2339.0,0.004877201725902434
2338.0,0.004547033734985542
2337.0,0.004400675116233323
2336.0,0.004425367557920036
2335.0,0.004469299199929337
2334.0,0.004494223131503727
2333.0,0.004574855099151442
2332.0,0.00475460136188836
2331.0,0.0049341638224984045
2330.0,0.005042129254011803
2329.0,0.005132529329150538
2328.0,0.005287905210044198
2327.0,0.005573480436328085
2326.0,0.005956300771360101
2325.0,0.006357488325956229
2324.0,0.006612118245796203
2323.0,0.006594345373869917
2322.0,0.006362657202184461
2321.0,0.006099427190063369
2320.0,0.005969988607356206
2319.0,0.005969058134010339
2318.0,0.006014273251770209
2317.0,0.006012979575441428
2316.0,0.005939552922477437
2315.0,0.005828838025106635
2314.0,0.00575243947156159
2313.0,0.00574492385461308
2312.0,0.005775043109957852
2311.0,0.005805985514682418
2310.0,0.005838522785910649
2309.0,0.005882384178361727
2308.0,0.005902173899659024
2307.0,0.005866568161333202
2306.0,0.00579659395030587
2305.0,0.005741568430469869
2304.0,0.00571510477281407
2303.0,0.005703003486329251
2302.0,0.005712624368832958
2301.0,0.005761666940660012
2300.0,0.005831250291767459
2299.0,0.0058719466440226116
2298.0,0.005857609593406099
2297.0,0.005807531286810389
2296.0,0.005750817213264857
2295.0,0.005711615873080678
2294.0,0.00570139697905118
2293.0,0.005722122847663029
2292.0,0.0057563576443071425
2291.0,0.005794900316749654
2290.0,0.005840397957647263
2289.0,0.005881766577409341
2288.0,0.005880417577417732
2287.0,0.005817548069659528
2286.0,0.005724769283473373
2285.0,0.0056421740570824904
2284.0,0.005572426158011256
2283.0,0.005508765482797981
2282.0,0.0054717389975405565
2281.0,0.005468163497633326
2280.0,0.0054516825236488485
2279.0,0.005378947334826234
2278.0,0.005287219023746497
2277.0,0.005246459870024424
2276.0,0.005259774620968391
2275.0,0.005271416919374848
2274.0,0.005259202908864365
2273.0,0.0052503516154604945
2272.0,0.005257585830999089
2271.0,0.005264158855544831
2270.0,0.005255409544803555
2269.0,0.0052116756804064315
2268.0,0.005092109714921188
2267.0,0.004894307470871127
2266.0,0.004711290721211519
2265.0,0.004656605401916583
2264.0,0.004741883706534351
2263.0,0.004886942756441073
2262.0,0.005024119801151165
2261.0,0.005124892627197366
2260.0,0.005152956039940758
2259.0,0.005078282810700413
2258.0,0.004931747712298543
2257.0,0.004780922687226658
2256.0,0.004663419280751397
2255.0,0.004592810322736095
2254.0,0.0045989227156807725
2253.0,0.004685470029904163
2252.0,0.004780289171313175
2251.0,0.004805445428307286
2250.0,0.004772227789328648
2249.0,0.004737881745326776
2248.0,0.0047059935577271695
2247.0,0.004651572389571619
2246.0,0.0046050326814951695
2245.0,0.004618430769960804
2244.0,0.00467007501225824
2243.0,0.004694065352415085
2242.0,0.004682798883305715
2241.0,0.004675796783524579
2240.0,0.0046738020671110445
2239.0,0.004650662964442327
2238.0,0.004620983009791294
2237.0,0.0046076080949752265
2236.0,0.004578754908706062
2235.0,0.004514863934874266
2234.0,0.004493320478243935
2233.0,0.0045925554255219015
2232.0,0.004742821294974402
2231.0,0.004792604956235389
2230.0,0.004699553212278732
2229.0,0.004545069540680916
2228.0,0.004400782017657833
2227.0,0.004298327491227372
2226.0,0.004297230670232943
2225.0,0.00443324557955959
2224.0,0.004609834013317384
2223.0,0.004681170900771327
2222.0,0.004636428876689442
2221.0,0.00458232402115591
2220.0,0.004554427013508271
2219.0,0.004482692555645935
2218.0,0.004342410454920296
2217.0,0.004206845360069847
2216.0,0.004145476255434189
2215.0,0.004178106342322597
2214.0,0.0043125260397780096
2213.0,0.004503723944768309
2212.0,0.00460235660890314
2211.0,0.004492023893941104
2210.0,0.00426397930313005
2209.0,0.004122313581583532
2208.0,0.004128585727563871
2207.0,0.004174072020838217
2206.0,0.004184437320004951
2205.0,0.00418239113636383
2204.0,0.004160423698182429
2203.0,0.004068724735015647
2202.0,0.00394525740177447
2201.0,0.003903004502876788
2200.0,0.003962618662765699
2199.0,0.004040483144273855
2198.0,0.00411212914486846
2197.0,0.004236456500093262
2196.0,0.004400748861191099
2195.0,0.004493437399245884
2194.0,0.004459207686830192
2193.0,0.004354199394690654
2192.0,0.004242497124218491
2191.0,0.004159853294978202
2190.0,0.00417304779584449
2189.0,0.004323166079978314
2188.0,0.0045020237727473695
2187.0,0.004544544663624507
2186.0,0.004452440488765311
2185.0,0.004376533576305193
2184.0,0.00438159803825646
2183.0,0.004397776592886807
2182.0,0.004402788198671151
2181.0,0.004455333867285945
2180.0,0.004527815507641071
2179.0,0.004492670837216548
2178.0,0.0043018462420828405
2177.0,0.004030296775314096
2176.0,0.0037447281820588547
2175.0,0.0034827496226105953
2174.0,0.003355963140656733
2173.0,0.003484522011483939
2172.0,0.003809328070294644
2171.0,0.004151033665585501
2170.0,0.00444533712615522
2169.0,0.004737896763196462
2168.0,0.00496950424127746
2167.0,0.004988157538982936
2166.0,0.004815632044828113
2165.0,0.0046838586741526755
2164.0,0.004712888954438365
2163.0,0.004736208429746526
2162.0,0.004522114927176223
2161.0,0.003997024119303366
2160.0,0.0032172264626643067
2159.0,0.0023285480717307586
2158.0,0.001608797083646928
2157.0,0.0013118135951227664
2156.0,0.0014039614940696695
2155.0,0.0016471408985865982
2154.0,0.001904191321415111
2153.0,0.002191839464703322
2152.0,0.0025015719989747885
2151.0,0.002754737206002795
2150.0,0.0029373202841679186
2149.0,0.003108052777046839
2148.0,0.003254132170842446
2147.0,0.0032877210109038667
2146.0,0.0032059814699748903
2145.0,0.0031220583818028606
2144.0,0.0031028558408718286
2143.0,0.0030930952157269915
2142.0,0.003029989753312051
2141.0,0.0029319712741689326
2140.0,0.0028476533360755085
2139.0,0.002791920362123686
2138.0,0.002750644097770617
2137.0,0.002692388367005768
2136.0,0.002582355434929154
2135.0,0.002439785871990269
2134.0,0.002352963481688983
2133.0,0.002382703915685103
2132.0,0.0024932981219976226
2131.0,0.002631143736791922
2130.0,0.002808227863966991
2129.0,0.0030337834671657618
2128.0,0.0032273636982280973
2127.0,0.0032951756226119286
2126.0,0.003258463265382243
2125.0,0.003225408310070295
2124.0,0.0032591312595023564
2123.0,0.0033451051188257506
2122.0,0.003457650912714266
2121.0,0.0035763222441207573
2120.0,0.00366081903626737
2119.0,0.00369247604824415
2118.0,0.0037237434487442434
2117.0,0.003814162156978891
2116.0,0.003935089890638174
2115.0,0.004009653241395115
2114.0,0.004026806256287726
2113.0,0.0040378347367651364
2112.0,0.0040582432151608444
2111.0,0.004055332861145576
2110.0,0.004020514839229951
2109.0,0.003977163583629617
2108.0,0.003930151147834968
2107.0,0.0038806136590809077
2106.0,0.00387135254584095
2105.0,0.003937308061037422
2104.0,0.004027466819137826
2103.0,0.004054328489018312
2102.0,0.004006242534173974
2101.0,0.00394051668833732
2100.0,0.0038933610652957303
2099.0,0.0038673715963945753
2098.0,0.003872717441537413
2097.0,0.0038946674021805364
2096.0,0.0038600894308092313
2095.0,0.003731706321634609
2094.0,0.0035934395797625742
2093.0,0.003546470422217957
2092.0,0.0035668451736026244
2091.0,0.0035665971314585206
2090.0,0.003545325885666267
2089.0,0.0035651644147886457
2088.0,0.0036123464830719702
2087.0,0.003619833017762644
2086.0,0.0036080165998476385
2085.0,0.0036672446912487653
2084.0,0.0038034235957208284
2083.0,0.003923521527209167
2082.0,0.003982835696295177
2081.0,0.004032421208746885
2080.0,0.004106215620146083
2079.0,0.004165668428805064
2078.0,0.004174071687934077
2077.0,0.004132607927331253
2076.0,0.004034982445042614
2075.0,0.0038832399657097796
2074.0,0.0037486217508939015
2073.0,0.003715960668169438
2072.0,0.003761402093400347
2071.0,0.0037837759579512718
2070.0,0.0037544063775931647
2069.0,0.0037281324299527443
2068.0,0.0037234039005053527
2067.0,0.003709674251166908
2066.0,0.0037082987722068137
2065.0,0.0037767010233389093
2064.0,0.003876843040498842
2063.0,0.003899241583653619
2062.0,0.0038311491081679514
2061.0,0.0037709335112409274
2060.0,0.0037772852789829904
2059.0,0.003804753389076903
2058.0,0.003785101826671223
2057.0,0.0036889897268436657
2056.0,0.0035314124483688584
2055.0,0.003417814658608589
2054.0,0.0035320526070228846
2053.0,0.003932288810907317
2052.0,0.004391674606292275
2051.0,0.004584176022452728
2050.0,0.004428391317048563
2049.0,0.004137851656452452
2048.0,0.003908554097322269
2047.0,0.0037356457402206796
2046.0,0.0035900769874214256
2045.0,0.0035305565621295957
2044.0,0.0035664920967345055
2043.0,0.003603792687578805
2042.0,0.0035934663613457684
2041.0,0.0035821940725410425
2040.0,0.003583424066682549
2039.0,0.00356347659086077
2038.0,0.0035669834171986495
2037.0,0.0036765750921671355
2036.0,0.0038289187514124134
2035.0,0.003846206786947413
2034.0,0.003666743184894275
2033.0,0.0033854507973552364
2032.0,0.0030859513289289904
2031.0,0.002812896903335677
2030.0,0.002674235642611973
2029.0,0.002748777149245803
2028.0,0.0029103805715449136
2027.0,0.002956988049593516
2026.0,0.0028768564121319923
2025.0,0.0027963017133074376
2024.0,0.0027381748917670815
2023.0,0.002650702323405997
2022.0,0.0025984887045320416
2021.0,0.0026643561950787033
2020.0,0.0027306570969588906
2019.0,0.0026136112562624393
2018.0,0.002385136192296905
2017.0,0.002305802884215427
2016.0,0.002426962683984499
2015.0,0.0025746335284102793
2014.0,0.0026888332580112277
2013.0,0.002846033813631561
2012.0,0.0030222814047728393
2011.0,0.003099315497414679
2010.0,0.003068453644178291
2009.0,0.003004780874446361
2008.0,0.0028785167076580995
2007.0,0.002641692595835
2006.0,0.0024366153196809883
2005.0,0.0024346353724997074
2004.0,0.002539169849986717
2003.0,0.0025222334535010714
2002.0,0.002388516969737105
2001.0,0.0023506567659027167
2000.0,0.002484561571548083
1999.0,0.00264863264879178
1998.0,0.0027409535029653802
1997.0,0.0028020869768952293
1996.0,0.0028503456828115905
1995.0,0.002838101729917906
1994.0,0.0027939488176294707
1993.0,0.0028344714906164033
1992.0,0.002973282426176359
1991.0,0.003093290893235526
1990.0,0.003162396372054102
1989.0,0.003242010441083972
1988.0,0.003300104856439279
1987.0,0.003256278487316389
1986.0,0.0031792228023769377
1985.0,0.0032223637895927386
1984.0,0.0033752869644098917
1983.0,0.003488877284251315
1982.0,0.0035322102328679507
1981.0,0.0035898728065071723
1980.0,0.003596239477472003
1979.0,0.003335240202200268
1978.0,0.002794738482137684
1977.0,0.0022687517324955233
1976.0,0.001983775653901229
1975.0,0.001890595685820462
1974.0,0.0018868386791599076
1973.0,0.001957343414266745
1972.0,0.002057428336129028
1971.0,0.00210782818693622
1970.0,0.0021363531794813535
1969.0,0.002233091430942225
1968.0,0.0023505706150592255
1967.0,0.0023402301989715003
1966.0,0.002216953363727018
1965.0,0.0021473572748875983
1964.0,0.002179510689376919
1963.0,0.0022212174519965137
1962.0,0.002224928867784411
1961.0,0.002205505608953319
1960.0,0.0021218980898759653
1959.0,0.0019319010910791472
1958.0,0.0017469024888014928
1957.0,0.0017419522408739672
1956.0,0.0019229192971304083
1955.0,0.0021386809512958563
1954.0,0.0022954392991447526
1953.0,0.0024014824105520224
1952.0,0.0024334228848736554
1951.0,0.0023441288022056327
1950.0,0.00219382599083337
1949.0,0.002100219689988403
1948.0,0.0020680081046122217
1947.0,0.0020173373206771247
1946.0,0.0019624720235046815
1945.0,0.0020054814350719792
1944.0,0.0021574025841482407
1943.0,0.0023158676933509046
1942.0,0.0024265953088994582
1941.0,0.002506627971518256
1940.0,0.002527179155000262
1939.0,0.002439240251168413
1938.0,0.002291014315545246
1937.0,0.002202105729810266
1936.0,0.002203801665545418
1935.0,0.002208805405311125
1934.0,0.0021619452761554095
1933.0,0.0021019392430642694
1932.0,0.002057525453937566
1931.0,0.002009802246717963
1930.0,0.0019773050777474664
1929.0,0.0020059917870751567
1928.0,0.002078481559219476
1927.0,0.0021295135443856503
1926.0,0.0021469564526737464
1925.0,0.0021660770989421012
1924.0,0.002181807152239949
1923.0,0.0021831708259589986
1922.0,0.002222755911677325
1921.0,0.0023329717977556706
1920.0,0.002438705185013619
1919.0,0.0024255816432747113
1918.0,0.0022993446717754595
1917.0,0.0021927214994731554
1916.0,0.0021623341672185937
1915.0,0.0021607931156589107
1914.0,0.0021761549321927744
1913.0,0.0022412661386262385
1912.0,0.002342794448505599
1911.0,0.002418402989317368
1910.0,0.002454434578325349
1909.0,0.0024844056014673367
1908.0,0.0025027930879011275
1907.0,0.002486617570571578
1906.0,0.002474047986387985
1905.0,0.0025051142072232673
1904.0,0.00252397591813731
1903.0,0.0024580351439371356
1902.0,0.0023480493713834544
1901.0,0.0022937717695310483
1900.0,0.002306145074822713
1899.0,0.0023212912494580203
1898.0,0.002329798867473354
1897.0,0.0023771583356849133
1896.0,0.0024464475295769713
1895.0,0.002465848177783608
1894.0,0.002438043841763047
1893.0,0.0024320924450810253
1892.0,0.0024570927436372647
1891.0,0.0024547054094486874
1890.0,0.002424028162568003
1889.0,0.0024343355470506905
1888.0,0.002476930746496385
1887.0,0.002479580285274604
1886.0,0.0024333912056561952
1885.0,0.0023772944819687265
1884.0,0.0023170599807095056
1883.0,0.0022360617131297147
1882.0,0.002169319746378639
1881.0,0.002169938071900567
1880.0,0.0022141262245616434
1879.0,0.0022279033984502275
1878.0,0.0022021385337791344
1877.0,0.0021970772352680893
1876.0,0.0022276493230694965
1875.0,0.0022426409457023677
1874.0,0.0022235408572431332
1873.0,0.0022008684887566453
1872.0,0.002174971317128983
1871.0,0.002110040409821849
1870.0,0.002023331728256611
1869.0,0.0020341490905262096
1868.0,0.0021624182125993706
1867.0,0.002254530716008153
1866.0,0.002264488542421284
1865.0,0.0022655133605709483
1864.0,0.0022683762999178474
1863.0,0.0022357482697483357
1862.0,0.0021765848807784437
1861.0,0.0021480169452608717
1860.0,0.002155872551806075
1859.0,0.002151273419246292
1858.0,0.0021320426623283747
1857.0,0.0021427507425586154
1856.0,0.0021820090645858466
1855.0,0.0022027927820237234
1854.0,0.0022007288708195535
1853.0,0.002210040386782678
1852.0,0.0022301364505884756
1851.0,0.002227247628495976
1850.0,0.0021964313132791765
1849.0,0.0021740968313973667
1848.0,0.002158451715525201
1847.0,0.0020999426117879827
1846.0,0.001984421791894315
1845.0,0.0018891155052717652
1844.0,0.0018901263370948575
1843.0,0.0019506644887320092
1842.0,0.0020223891908143173
1841.0,0.0021033969005222167
1840.0,0.002168964912732467
1839.0,0.0021833710701961114
1838.0,0.0021639473758279467
1837.0,0.0021626466260272295
1836.0,0.002175196283251103
1835.0,0.002161712411388861
1834.0,0.0021401997393214645
1833.0,0.0021630688557045087
1832.0,0.0022338776763592316
1831.0,0.0022830788432868453
1830.0,0.002286077250328489
1829.0,0.0023062571942574117
1828.0,0.0023420733493866672
1827.0,0.0023428457419609667
1826.0,0.002309400390086299
1825.0,0.0022901381239846903
1824.0,0.0022902157484789385
1823.0,0.00225307281302681
1822.0,0.0021865314699502834
1821.0,0.002151507913119328
1820.0,0.002155192867816749
1819.0,0.0021407357652429267
1818.0,0.002091515519128899
1817.0,0.0020704249454692666
1816.0,0.0021052043316897597
1815.0,0.002154850511540774
1814.0,0.0021947041790069573
1813.0,0.002248704749176099
1812.0,0.002326816124920177
1811.0,0.002388992055922155
1810.0,0.0024284564203023423
1809.0,0.002489324882695166
1808.0,0.0025637600980062607
1807.0,0.0025959052223631335
1806.0,0.002583893219683061
1805.0,0.0025843491297904025
1804.0,0.002617622155470193
1803.0,0.0026470629065530843
1802.0,0.002657494903362434
1801.0,0.002696127832611989
1800.0,0.0027626487089110864
1799.0,0.0027818126024620987
1798.0,0.0027536020458015257
1797.0,0.0027484135246963045
1796.0,0.0027831479129339746
1795.0,0.002811888492406815
1794.0,0.0028025220774954
1793.0,0.0027960027202248426
1792.0,0.002845663885580694
1791.0,0.0029137834007295638
1790.0,0.0029666003870185056
1789.0,0.0030315021072055363
1788.0,0.0030983491592852484
1787.0,0.0031207032196929945
1786.0,0.0030958578401063487
1785.0,0.0030812291991308494
1784.0,0.0031076505149476115
1783.0,0.0031425470627206966
1782.0,0.0031415850808878664
1781.0,0.003098105455644799
1780.0,0.0030365582471378683
1779.0,0.002966621571210269
1778.0,0.0029087336219125928
1777.0,0.0028891112372342797
1776.0,0.002888902983398214
1775.0,0.0028583546295236975
1774.0,0.002758547173640296
1773.0,0.0026427157124664
1772.0,0.002627320438784875
1771.0,0.002672134709044602
1770.0,0.002687868324482468
1769.0,0.002706944889062787
1768.0,0.0027414123554114177
1767.0,0.002758303968668353
1766.0,0.0027630737506166014
1765.0,0.0027923360058465076
1764.0,0.00284567085949548
1763.0,0.0028797085102303206
1762.0,0.002893318841588127
1761.0,0.0029372532933941283
1760.0,0.003009345262448012
1759.0,0.003053791757734154
1758.0,0.00305551533412725
1757.0,0.003057277934928054
1756.0,0.003093944776092295
1755.0,0.0031328463929670702
1754.0,0.0031606106747408902
1753.0,0.0032039060996587147
1752.0,0.0032788042755137756
1751.0,0.0033462739052588387
1750.0,0.0033563004818356335
1749.0,0.0033690348109287078
1748.0,0.003451038824855016
1747.0,0.003553412426732693
1746.0,0.0036257611887976406
1745.0,0.003705934392656307
1744.0,0.0038167307430007234
1743.0,0.0038928983696672895
1742.0,0.0038834559393580307
1741.0,0.0038532167842670606
1740.0,0.003888715088126887
1739.0,0.003974196773635354
1738.0,0.004042451101157275
1737.0,0.0040888790664578975
1736.0,0.004122354143354992
1735.0,0.0041238534465181
1734.0,0.004201867588392668
1733.0,0.004447921916940787
1732.0,0.0047317195877338
1731.0,0.004951457910888499
1730.0,0.005102156383039135
1729.0,0.0051940528675993814
1728.0,0.005259937265951152
1727.0,0.005309660315747779
1726.0,0.005361022233257984
1725.0,0.005449349914584245
1724.0,0.005596487681218632
1723.0,0.005748191181973609
1722.0,0.0058678424822725325
1721.0,0.005991689617113157
1720.0,0.006164375181632769
1719.0,0.006299876753220664
1718.0,0.006289413051764153
1717.0,0.006362888326734026
1716.0,0.006650771556221648
1715.0,0.0069244949947410254
1714.0,0.007119063247299705
1713.0,0.007312463221612558
1712.0,0.007525491762889837
1711.0,0.007726543390689906
1710.0,0.0078957694797835
1709.0,0.008063566011000332
1708.0,0.008261672855714235
1707.0,0.008483783257597338
1706.0,0.008739824439562803
1705.0,0.009066734078195046
1704.0,0.009343223019734575
1703.0,0.00944476628318727
1702.0,0.009391845520570827
1701.0,0.00947612048117857
1700.0,0.009969615062565274
1699.0,0.010584618189304507
1698.0,0.011061050708165243
1697.0,0.011609264544930135
1696.0,0.012318670508903208
1695.0,0.012870359572529497
1694.0,0.013194229986752577
1693.0,0.013526647809003313
1692.0,0.013943526375107863
1691.0,0.014398232728454887
1690.0,0.01484400251954119
1689.0,0.015299380919365065
1688.0,0.015725287283695922
1687.0,0.01609088993120526
1686.0,0.016404107430864272
1685.0,0.016976118920836787
1684.0,0.017957867048184806
1683.0,0.018655170749696977
1682.0,0.018960274057469667
1681.0,0.019336506914714086
1680.0,0.01981098393558643
1679.0,0.020190932199786463
1678.0,0.020403480272244208
1677.0,0.020585538343321882
1676.0,0.020959187484821857
1675.0,0.021557043253014985
1674.0,0.022143743243143176
1673.0,0.022587246862601922
1672.0,0.022960218793726773
1671.0,0.02333408415843804
1670.0,0.023848066955590917
1669.0,0.02452423382305148
1668.0,0.025110875366358348
1667.0,0.025465747868649552
1666.0,0.025665404806238853
1665.0,0.025844040895684477
1664.0,0.026130551309199446
1663.0,0.02656083617602409
1662.0,0.02701863468472659
1661.0,0.027373041568995043
1660.0,0.02765236707180808
1659.0,0.027869592467686676
1658.0,0.028040675862505002
1657.0,0.028167353567185246
1656.0,0.028337036894191085
1655.0,0.02852175601970068
1654.0,0.02876840578952923
1653.0,0.02914078956197163
1652.0,0.02928919828656508
1651.0,0.02927447469508141
1650.0,0.029281866811667653
1649.0,0.029306314209361452
1648.0,0.029324694825997095
1647.0,0.029390066231615428
1646.0,0.02945836297712827
1645.0,0.02944543482884497
1644.0,0.029433764149153226
1643.0,0.029443086091313506
1642.0,0.02941929481486199
1641.0,0.02937648807520795
1640.0,0.029326161662089525
1639.0,0.029245033886673162
1638.0,0.029073360704042914
1637.0,0.028808239572765276
1636.0,0.028572142281763545
1635.0,0.028354952323722645
1634.0,0.028078337741671965
1633.0,0.027849233108929217
1632.0,0.027679511551377517
1631.0,0.027494381649874933
1630.0,0.027264620773708496
1629.0,0.026973925663178116
1628.0,0.026629204665081983
1627.0,0.026254388144448956
1626.0,0.025882979711887518
1625.0,0.025514466277239765
1624.0,0.025104860420531408
1623.0,0.024649747340569083
1622.0,0.024234974599166903
1621.0,0.023916592960311848
1620.0,0.023662920991586123
1619.0,0.023388524225268686
1618.0,0.02298239041527061
1617.0,0.022439829052450073
1616.0,0.021931512215854813
1615.0,0.0215623016677237
1614.0,0.021286956049535188
1613.0,0.02103678524152971
1612.0,0.02075200146433441
1611.0,0.020423598173699993
1610.0,0.020087630283270274
1609.0,0.019771081904635016
1608.0,0.019461145300979973
1607.0,0.01914836463359394
1606.0,0.01885236488290605
1605.0,0.018582226317747422
1604.0,0.018322146370529976
1603.0,0.018055993486513166
1602.0,0.01779864849237695
1601.0,0.01756917157463418
1600.0,0.017358652721106493
1599.0,0.017152613163546743
1598.0,0.016951730836401682
1597.0,0.01675947485884306
1596.0,0.016563307957998073
1595.0,0.016356055371718727
1594.0,0.01615787376187742
1593.0,0.015984061866009768
1592.0,0.015825481461109688
1591.0,0.015679386999202453
1590.0,0.015562354536288514
1589.0,0.015471579741813742
1588.0,0.015375332607355397
1587.0,0.015261239254409361
1586.0,0.015159033901531737
1585.0,0.015090370196445657
1584.0,0.015045970305940144
1583.0,0.015019960961726433
1582.0,0.015016401029945385
1581.0,0.015034446604324278
1580.0,0.015054830598776797
1579.0,0.015068613136191445
1578.0,0.01506508832369792
1577.0,0.01506475141783183
1576.0,0.015104031981944804
1575.0,0.015137572298516831
1574.0,0.015158648097812269
1573.0,0.01520729189945479
1572.0,0.015265358912080172
1571.0,0.015299917741866169
1570.0,0.015357831397201555
1569.0,0.015474019623917375
1568.0,0.015576583345319552
1567.0,0.015631913204809673
1566.0,0.015685893769370716
1565.0,0.015754394675167947
1564.0,0.015817167539926374
1563.0,0.015848323334455905
1562.0,0.0158579632508698
1561.0,0.015920203422380392
1560.0,0.016066165323175167
1559.0,0.016183768198927466
1558.0,0.016209938743368013
1557.0,0.016180957026947097
1556.0,0.016238634506508597
1555.0,0.016397872524592558
1554.0,0.016550356047204475
1553.0,0.01674594633749583
1552.0,0.016943056391891892
1551.0,0.017117217817998347
1550.0,0.01723515522362964
1549.0,0.01732035114901278
1548.0,0.017368475078531485
1547.0,0.017393448651100173
1546.0,0.01739421858771904
1545.0,0.017386750972105396
1544.0,0.01735977326302158
1543.0,0.01731175556379467
1542.0,0.017226151195096816
1541.0,0.017370693502304538
1540.0,0.017856997842529736
1539.0,0.018054030954551933
1538.0,0.0179565721564651
1537.0,0.01794825624892347
1536.0,0.0180161728470606
1535.0,0.018063645272594388
1534.0,0.018067496587803572
1533.0,0.01812770994116611
1532.0,0.01823396660756991
1531.0,0.01829810157153309
1530.0,0.018344420012168062
1529.0,0.018405066881389202
1528.0,0.018452905708028194
1527.0,0.018427806637602868
1526.0,0.018381761837466426
1525.0,0.018429900032017662
1524.0,0.018563806789928007
1523.0,0.018625426264762664
1522.0,0.018599558155743885
1521.0,0.018716644978625106
1520.0,0.018929301534505047
1519.0,0.019059537010542943
1518.0,0.019115632522452755
1517.0,0.019170507084505115
1516.0,0.019252742806256575
1515.0,0.019295896582900023
1514.0,0.019330620144732052
1513.0,0.01943218538310345
1512.0,0.01959595668057936
1511.0,0.019750859583669032
1510.0,0.019881526901884845
1509.0,0.019997120518711928
1508.0,0.02003858099875264
1507.0,0.020085040652705756
1506.0,0.020118824441585116
1505.0,0.020132291889369453
1504.0,0.02027015625285217
1503.0,0.020444249388205143
1502.0,0.020570426111699177
1501.0,0.02071140303590164
1500.0,0.02086566532094644
1499.0,0.020972209824160804
1498.0,0.020988018162815668
1497.0,0.02106320502311
1496.0,0.021253587742522572
1495.0,0.021428328803692706
1494.0,0.02160875118971379
1493.0,0.02188871585924772
1492.0,0.022225105671185807
1491.0,0.022438342815712612
1490.0,0.022505895080140743
1489.0,0.02268135352529948
1488.0,0.022931239777628266
1487.0,0.023070870632843885
1486.0,0.023211060574367566
1485.0,0.023474262911112258
1484.0,0.02381081431324811
1483.0,0.024127613187758072
1482.0,0.02445936521208702
1481.0,0.024929099048189796
1480.0,0.02553961379405674
1479.0,0.02628443946535074
1478.0,0.02750611194885611
1477.0,0.029756459492618945
1476.0,0.03335305859145568
1475.0,0.038129791589551466
1474.0,0.04420877762703718
1473.0,0.05073708179790676
1472.0,0.05405308885904982
1471.0,0.05315722929093575
1470.0,0.050932760179585125
1469.0,0.04892127635693415
1468.0,0.04730027283248476
1467.0,0.04612341623062824
1466.0,0.04567609319902874
1465.0,0.046225327069988956
1464.0,0.04712058827461217
1463.0,0.04731868038028339
1462.0,0.04653892280492382
1461.0,0.045003617056015785
1460.0,0.04292670941673291
1459.0,0.04051126978874434
1458.0,0.037876871040281215
1457.0,0.035619946788266126
1456.0,0.0344522008823069
1455.0,0.034054479443459344
1454.0,0.033859320789541895
1453.0,0.033618435807825545
1452.0,0.03327575652457724
1451.0,0.03296256474696645
1450.0,0.03273898852008683
1449.0,0.032547863405975236
1448.0,0.03232945378140021
1447.0,0.03215784187079769
1446.0,0.03209240063368836
1445.0,0.03207795818332163
1444.0,0.03205001333892007
1443.0,0.03199061224127674
1442.0,0.031908843501850234
1441.0,0.031804060526853466
1440.0,0.03167410564819384
1439.0,0.031513998552825946
1438.0,0.031280598355370365
1437.0,0.030911583468434208
1436.0,0.030518833844864174
1435.0,0.030313821597823205
1434.0,0.030273859029204972
1433.0,0.030239310539698222
1432.0,0.03011217027331163
1431.0,0.029890453390616335
1430.0,0.029620960929808725
1429.0,0.029347643302117157
1428.0,0.02912087353516947
1427.0,0.02898296851030234
1426.0,0.02890189845703147
1425.0,0.028767580422915794
1424.0,0.02853809430562544
1423.0,0.028321573764664668
1422.0,0.02819572613629133
1421.0,0.028092989039321628
1420.0,0.027863669170744537
1419.0,0.02744944682256139
1418.0,0.027040072648621342
1417.0,0.026768463542915916
1416.0,0.026560670507226773
1415.0,0.026359633334447106
1414.0,0.02614673109309801
1413.0,0.025892522280180373
1412.0,0.02556964994906067
1411.0,0.025202642480102965
1410.0,0.0248438527064381
1409.0,0.024510907411664878
1408.0,0.024190882608711398
1407.0,0.023865259839498065
1406.0,0.023488002480641642
1405.0,0.023009788023577744
1404.0,0.02250416278510101
1403.0,0.022115838057000126
1402.0,0.021862033242093428
1401.0,0.021621686736728207
1400.0,0.021276454985716238
1399.0,0.020870250297259245
1398.0,0.02054210045083535
1397.0,0.020274260048824072
1396.0,0.019936928658343286
1395.0,0.01952457655317804
1394.0,0.019151822890197016
1393.0,0.01887892463199979
1392.0,0.018690348871465888
1391.0,0.018555459265339806
1390.0,0.018430727187196815
1389.0,0.018249700144480997
1388.0,0.01797028800110338
1387.0,0.017665867975288466
1386.0,0.0174432244866816
1385.0,0.01729526575718015
1384.0,0.01717282600591847
1383.0,0.01706660354995942
1382.0,0.016980871469753717
1381.0,0.016901510654091
1380.0,0.016806045432184443
1379.0,0.016699155473275315
1378.0,0.016593622103294882
1377.0,0.01647630646930919
1376.0,0.016316830375535704
1375.0,0.01611281376779313
1374.0,0.01591379697107913
1373.0,0.015761233331194564
1372.0,0.01565536829753472
1371.0,0.015586897953550713
1370.0,0.01551890446109902
1369.0,0.015393020146692731
1368.0,0.015209674769640441
1367.0,0.015033615508233733
1366.0,0.014901760534531207
1365.0,0.014772584654754867
1364.0,0.01456317082367271
1363.0,0.014247968009282918
1362.0,0.013911156727267202
1361.0,0.013627242920058211
1360.0,0.013400690360735528
1359.0,0.013225056342529708
1358.0,0.013085528660241014
1357.0,0.012953496472576341
1356.0,0.012816777947762637
1355.0,0.012691200570786723
1354.0,0.012587261623226233
1353.0,0.012488009414815135
1352.0,0.01237227933969346
1351.0,0.012237778153192807
1350.0,0.012088433767901422
1349.0,0.01192154828157459
1348.0,0.01174917174507489
1347.0,0.011593578199579221
1346.0,0.011458200623080231
1345.0,0.011327272005035787
1344.0,0.011203799960710515
1343.0,0.011107372831000526
1342.0,0.011025345412967527
1341.0,0.010898353518049169
1340.0,0.010703771270345774
1339.0,0.010516559124666465
1338.0,0.010389340015288897
1337.0,0.01028320323555436
1336.0,0.01016662469874205
1335.0,0.010050718816629044
1334.0,0.009945320944201842
1333.0,0.009843324133425795
1332.0,0.009745650534647501
1331.0,0.009670969032961786
1330.0,0.009622716637874985
1329.0,0.009577090458648116
1328.0,0.009519584713632543
1327.0,0.009464291955165814
1326.0,0.009421181623290571
1325.0,0.00937625916862938
1324.0,0.009324597208264921
1323.0,0.009281726113125461
1322.0,0.009248004474720312
1321.0,0.009195571096766398
1320.0,0.009111386375473825
1319.0,0.009023549448755401
1318.0,0.008956803727221
1317.0,0.008895620319532057
1316.0,0.008823080351181248
1315.0,0.008753190785555427
1314.0,0.008702462760565305
1313.0,0.008664169920995692
1312.0,0.008624820480202416
1311.0,0.008583481789529427
1310.0,0.008539612313421636
1309.0,0.008486064198914674
1308.0,0.008426385907556623
1307.0,0.008376115922398107
1306.0,0.008334746542064878
1305.0,0.0082816471817622
1304.0,0.00821229442131147
1303.0,0.008145183621734012
1302.0,0.008088043007839418
1301.0,0.008027087135633331
1300.0,0.007959535481671148
1299.0,0.007902778346988366
1298.0,0.007860436737861468
1297.0,0.007810851173693052
1296.0,0.007743383938999277
1295.0,0.0076766377571309
1294.0,0.007625071182921647
1293.0,0.00757837646828744
1292.0,0.0075268090199361315
1291.0,0.007478330822248271
1290.0,0.0074379009052172596
1289.0,0.007395886684507094
1288.0,0.007350011025238679
1287.0,0.007313160125637631
1286.0,0.007288077873588103
1285.0,0.0072623483114517395
1284.0,0.007235940465360937
1283.0,0.007224387242321382
1282.0,0.007229061251740955
1281.0,0.007231534602593176
1280.0,0.007225457596507116
1279.0,0.0072256259432690526
1278.0,0.00723582550178398
1277.0,0.00723956368462372
1276.0,0.0072327593489448574
1275.0,0.007235736871801891
1274.0,0.00725957899755071
1273.0,0.00728971803696141
1272.0,0.007317346818741558
1271.0,0.007360199601167279
1270.0,0.007434235326490159
1269.0,0.007530851064996593
1268.0,0.00763956137561396
1267.0,0.007764860927972385
1266.0,0.007905231097845276
1265.0,0.008040829170362751
1264.0,0.00815425729833446
1263.0,0.008242405954900616
1262.0,0.008299301681328522
1261.0,0.008309387740022793
1260.0,0.008269405225584975
1259.0,0.008197290758892844
1258.0,0.00810827578965336
1257.0,0.008004604503993146
1256.0,0.007895101330026069
1255.0,0.0078006070844463486
1254.0,0.007730643118083051
1253.0,0.0076761749329734424
1252.0,0.007632687040502158
1251.0,0.007607287567458893
1250.0,0.0075968120785530335
1249.0,0.007585914119209499
1248.0,0.00757411227749754
1247.0,0.007576821416901818
1246.0,0.007591751174397206
1245.0,0.007594669197577881
1244.0,0.007578014573369049
1243.0,0.007564114279340213
1242.0,0.007567696942752453
1241.0,0.0075739780882863195
1240.0,0.007566932623659603
1239.0,0.007552526513644912
1238.0,0.007540833958356008
1237.0,0.007529036672155548
1236.0,0.007515916290166612
1235.0,0.007511590591405683
1234.0,0.007519851810809119
1233.0,0.007530374253308951
1232.0,0.007538132530397548
1231.0,0.007549342047176244
1230.0,0.007559980936289377
1229.0,0.007552207176390005
1228.0,0.007522068437396419
1227.0,0.007489716844921349
1226.0,0.007473096919028303
1225.0,0.007470576974942184
1224.0,0.007476595802386587
1223.0,0.007492260177305726
1222.0,0.00751225346906316
1221.0,0.0075234849917379925
1220.0,0.007525023591845129
1219.0,0.007528659063070783
1218.0,0.007533408192251246
1217.0,0.007523491721672866
1216.0,0.00749901375128809
1215.0,0.0074835899885613635
1214.0,0.007492305332841452
1213.0,0.007515184738265712
1212.0,0.00754038367245918
1211.0,0.007569038124327489
1210.0,0.007599200649287466
1209.0,0.007621404807278959
1208.0,0.007640317312650559
1207.0,0.007675809479546504
1206.0,0.007731430586857593
1205.0,0.007785167685386752
1204.0,0.007822325202491999
1203.0,0.007854386617228553
1202.0,0.007894240429228955
1201.0,0.007935448469885144
1200.0,0.007968997572355857
1199.0,0.008000157495389675
1198.0,0.00803591037936309
1197.0,0.008074390559638621
1196.0,0.008118212146361173
1195.0,0.008181351903778986
1194.0,0.008272022562731452
1193.0,0.008382680485305017
1192.0,0.008504024909504297
1191.0,0.008633299832635449
1190.0,0.008764578001914157
1189.0,0.00888913112502201
1188.0,0.009010519758042727
1187.0,0.009141327764295885
1186.0,0.0092806436144454
1185.0,0.009413458481173382
1184.0,0.009535502353209054
1183.0,0.009658233449020906
1182.0,0.009786135130008998
1181.0,0.00991057419274605
1180.0,0.010032075323761505
1179.0,0.010166822545623747
1178.0,0.010320832691129912
1177.0,0.010477026468387805
1176.0,0.01061751985881415
1175.0,0.01074176691509389
1174.0,0.010853683721351582
1173.0,0.010945797150999883
1172.0,0.011007409233602803
1171.0,0.011038032559615673
1170.0,0.011045926061105986
1169.0,0.011043173309517998
1168.0,0.011046652220393745
1167.0,0.011071265719680624
1166.0,0.011114229630915767
1165.0,0.011155791534539123
1164.0,0.011181824696707598
1163.0,0.011196668205890666
1162.0,0.011211135929154355
1161.0,0.01123090736885688
1160.0,0.011261219323798276
1159.0,0.011308590199143709
1158.0,0.011369468407006852
1157.0,0.011429281518568871
1156.0,0.011480900908667654
1155.0,0.011533551060655317
1154.0,0.011596556693356398
1153.0,0.011665259381831636
1152.0,0.011731847796832576
1151.0,0.011800538063471765
1150.0,0.011880933579810318
1149.0,0.011971491285183485
1148.0,0.012059659755543298
1147.0,0.012137390125090252
1146.0,0.012211239740805954
1145.0,0.012297099690631995
1144.0,0.012406781553716533
1143.0,0.012539055918057426
1142.0,0.012682649020822528
1141.0,0.012827375725983178
1140.0,0.012969118919328126
1139.0,0.013103773712993087
1138.0,0.01322428010253059
1137.0,0.013328174700997106
1136.0,0.013421186700585501
1135.0,0.013507385633903423
1134.0,0.013581511599094015
1133.0,0.013637735474757662
1132.0,0.01368136973111286
1131.0,0.01372556810302393
1130.0,0.013779224651483516
1129.0,0.013841991578626825
1128.0,0.01390665051156514
1127.0,0.013961726543432838
1126.0,0.01399777769065192
1125.0,0.014017020689791465
1124.0,0.014032132879661874
1123.0,0.01405094949429395
1122.0,0.014067485914033066
1121.0,0.014073198687232846
1120.0,0.014070548521709744
1119.0,0.01406863015340169
1118.0,0.014071422789750904
1117.0,0.014078461445999169
1116.0,0.01409319418932135
1115.0,0.01412229159821424
1114.0,0.014167341589478931
1113.0,0.01422174501541629
1112.0,0.014274005203873348
1111.0,0.01431293368525786
1110.0,0.014336048379379133
1109.0,0.014356112662972782
1108.0,0.01439119670060237
1107.0,0.014442116004757505
1106.0,0.014489386917043174
1105.0,0.014518437761701208
1104.0,0.014538155657590614
1103.0,0.014567801878505468
1102.0,0.014613219173346823
1101.0,0.014665077228996706
1100.0,0.014711503249284365
1099.0,0.014741535975151626
1098.0,0.014749658629378964
1097.0,0.014742054545542928
1096.0,0.014736029252502458
1095.0,0.014742494576210373
1094.0,0.014753011624518905
1093.0,0.014751234869296033
1092.0,0.014733410445154659
1091.0,0.014710822194211649
1090.0,0.014696092284771936
1089.0,0.014694836094760352
1088.0,0.01471202653312021
1087.0,0.014763934183823917
1086.0,0.014879636037892541
1085.0,0.015077542469240632
1084.0,0.015323485266138318
1083.0,0.015516007147226663
1082.0,0.015545293231250704
1081.0,0.01538668846190526
1080.0,0.015122812126483288
1079.0,0.014866414694121702
1078.0,0.014672645001630406
1077.0,0.014528627192539226
1076.0,0.014404720192795865
1075.0,0.01428858253800919
1074.0,0.014176069625726043
1073.0,0.014058493713258766
1072.0,0.013930804148315445
1071.0,0.01380084950402495
1070.0,0.013681954755441657
1069.0,0.013580710900823276
1068.0,0.013494392440715663
1067.0,0.013415264180030022
1066.0,0.01333707881031753
1065.0,0.013261904862481542
1064.0,0.013198509236752302
1063.0,0.01314992392105575
1062.0,0.013107793251262417
1061.0,0.013064778005137667
1060.0,0.013025096815919512
1059.0,0.01299357134222983
1058.0,0.01296140839680986
1057.0,0.012915948536003776
1056.0,0.0128615145526037
1055.0,0.012819299662318217
1054.0,0.01280740458707343
1053.0,0.01282775271376766
1052.0,0.012867922415906823
1051.0,0.012906055213720569
1050.0,0.01292086396444057
1049.0,0.012910348901565255
1048.0,0.012893889441274387
1047.0,0.012886149808044759
1046.0,0.012881107904262543
1045.0,0.012871766676088067
1044.0,0.01286948857193674
1043.0,0.0128853390818068
1042.0,0.012901772201200784
1041.0,0.012885729927451416
1040.0,0.012829878845855083
1039.0,0.012761392835746843
1038.0,0.012706443440234048
1037.0,0.012663812850532023
1036.0,0.0126197368123213
1035.0,0.012570939158311742
1034.0,0.012521397274473028
1033.0,0.012468420419820488
1032.0,0.012405876197993406
1031.0,0.012336578087863762
1030.0,0.01227036411182197
1029.0,0.012210647346647896
1028.0,0.012150217087708411
1027.0,0.012080254079811004
1026.0,0.01199896147732537
1025.0,0.011911123230756073
1024.0,0.011821774042937345
1023.0,0.011731315471986317
1022.0,0.01163696880157539
1021.0,0.011538254014799673
1020.0,0.011437495881680831
1019.0,0.011332780938001687
1018.0,0.01121579933789793
1017.0,0.011083094976312009
1016.0,0.010945339259180096
1015.0,0.010816570955743978
1014.0,0.010695683757124128
1013.0,0.010567894117015864
1012.0,0.010424307101548264
1011.0,0.010270362535433095
1010.0,0.010114538733972205
1009.0,0.009959158744657057
1008.0,0.009804990512804077
1007.0,0.009654883388272261
1006.0,0.009507710367736573
1005.0,0.009356090064340513
1004.0,0.00919455942656568
1003.0,0.009024459020682968
1002.0,0.008848850066203017
1001.0,0.008669868289819926
1000.0,0.008493332442690266
999.0,0.00832752636453617
998.0,0.00817394361974946
997.0,0.008026250754858098
996.0,0.007880049218736942
995.0,0.00773561634578698
994.0,0.007590422824137539
993.0,0.007439528978099526
992.0,0.007286308053894356
991.0,0.0071427377756787275
990.0,0.0070150528733452806
989.0,0.00689793780480979
988.0,0.006784868886225953
987.0,0.006672962463830524
986.0,0.006555527470260034
985.0,0.00642327209790256
984.0,0.006278390047892759
983.0,0.006136936985170973
982.0,0.006012087529369083
981.0,0.005903190327422569
980.0,0.005802953999805394
979.0,0.005704101774582632
978.0,0.005597668088280175
977.0,0.005479477129676743
976.0,0.005362243071999916
975.0,0.005266387194356684
974.0,0.005192982081917617
973.0,0.005119557160823254
972.0,0.005027754691242649
971.0,0.004920361313595405
970.0,0.004806618957146307
969.0,0.0046886926492336976
968.0,0.004571925610962419
967.0,0.0044711881258429394
966.0,0.004392318258784271
965.0,0.00431807447187787
964.0,0.0042257341041460235
963.0,0.004110989564917969
962.0,0.003985570966954214
961.0,0.003861395528021271
960.0,0.0037474219421015312
959.0,0.003652883668793922
958.0,0.003581493861333971
957.0,0.00352660406796307
956.0,0.003477597063551118
955.0,0.00342439144273606
954.0,0.0033543800816314834
953.0,0.003258248403478513
952.0,0.0031449904507817785
951.0,0.003039537671866299
950.0,0.0029583239848954383
949.0,0.0028970744225285047
948.0,0.002846860540668853
947.0,0.0028077826311143517
946.0,0.002779989917351691
945.0,0.002755464320050853
944.0,0.0027272034245385945
943.0,0.0026954145700023944
942.0,0.0026595776846873587
941.0,0.002617510281661996
940.0,0.0025771698382168248
939.0,0.0025536042757993444
938.0,0.0025461819913252387
937.0,0.002534327311699119
936.0,0.0025056255086900094
935.0,0.002473169358639638
934.0,0.002454005357769176
933.0,0.0024446044938016224
932.0,0.0024306839845088593
931.0,0.0024092171570838945
930.0,0.0023868242739143158
929.0,0.0023649181785511206
928.0,0.002339897401746947
927.0,0.002313321482820289
926.0,0.002291844559359159
925.0,0.0022802682836014568
924.0,0.002280102573849937
923.0,0.002289202308868135
922.0,0.002297793863711756
921.0,0.0022916696886538367
920.0,0.0022647206340345675
919.0,0.002224530890343593
918.0,0.00218542358358478
917.0,0.0021617780371884585
916.0,0.002164425247933548
915.0,0.002190873227476634
914.0,0.00221970218016004
913.0,0.00222962666662525
912.0,0.0022257753482613444
911.0,0.0022321823181054978
910.0,0.002256500625249406
909.0,0.002278827619385443
908.0,0.002278707041270509
907.0,0.0022547928387375953
906.0,0.002212895805891433
905.0,0.002154755630186923
904.0,0.0020892047678054346
903.0,0.0020378788389174025
902.0,0.0020162457432375182
901.0,0.0020185536816469483
900.0,0.0020292999630201203
899.0,0.0020385115335353494
898.0,0.002040552466718259
897.0,0.0020314564181308243
896.0,0.0020160125591834176
895.0,0.0020055085711397583
894.0,0.002001819877347894
893.0,0.001995243748754082
892.0,0.0019833382125248496
891.0,0.001978535990425601
890.0,0.0019907776694725234
889.0,0.002015218817542932
888.0,0.002044063198567538
887.0,0.0020800018997831522
886.0,0.002133919162780532
885.0,0.002220848698731773
884.0,0.0023595604705770757
883.0,0.0025599959611439394
882.0,0.002807663678830832
881.0,0.0030772611845344584
880.0,0.0033625863650734583
879.0,0.003671131384658185
878.0,0.003985936658066744
877.0,0.004258619939325716
876.0,0.004450358294915389
875.0,0.004558967568857222
874.0,0.0045958365858560935
873.0,0.004557814664466604
872.0,0.004440396020597256
871.0,0.004267354543975576
870.0,0.004090108347658024
869.0,0.003961664080285329
868.0,0.003919457058354371
867.0,0.003980741375878987
866.0,0.0041390727755961955
865.0,0.004372051777315892
864.0,0.004662713396498316
863.0,0.005007517133367181
862.0,0.005400681150354535
861.0,0.005823998734703633
860.0,0.006260645561479886
859.0,0.006710576809590921
858.0,0.007183920280282738
857.0,0.007680457878851611
856.0,0.008174831601189321
855.0,0.008613607323907726
854.0,0.008923861806946383
853.0,0.009033952149631218
852.0,0.008899435337619058
851.0,0.00852282416446153
850.0,0.007956555920533726
849.0,0.007289547659939544
848.0,0.006632491338631138
847.0,0.006099590275696048
846.0,0.005765024080385966
845.0,0.005613808823560313
844.0,0.005544436589130857
843.0,0.005435000106216583
842.0,0.005220411183225873
841.0,0.004918818908126416
840.0,0.004597029490451245
839.0,0.004316975847576527
838.0,0.004102785314726269
837.0,0.003940951889037163
836.0,0.003805408300951555
835.0,0.0036838691422749464
834.0,0.0035849202223489016
833.0,0.0035244362443310126
832.0,0.003505263521381646
831.0,0.003507141484852169
830.0,0.0034979613136859617
829.0,0.003460570521917207
828.0,0.0034072897250842123
827.0,0.0033624965212576095
826.0,0.003335038884245859
825.0,0.0033186646465971845
824.0,0.0033147061620695337
823.0,0.0033334189082202172
822.0,0.003371356486922465
821.0,0.003409119381965522
820.0,0.0034356320542060555
819.0,0.0034573782750437435
818.0,0.003481444865533227
817.0,0.0035044003900738373
816.0,0.0035231593151326384
815.0,0.003546347955346538
814.0,0.0035863518052648546
813.0,0.00364377409813927
812.0,0.003705357438001714
811.0,0.0037554931074934936
810.0,0.003788578243414109
809.0,0.003812910256450126
808.0,0.0038419382389744024
807.0,0.003879572596763794
806.0,0.003917193196891884
805.0,0.003947638130854683
804.0,0.00397448172176219
803.0,0.004000519074311029
802.0,0.004016322180896013
801.0,0.004013988135598428
800.0,0.004006515586762249
799.0,0.004015424978580014
798.0,0.004037857598999297
797.0,0.004044262364517194
796.0,0.00401567000777928
795.0,0.003967920529886326
794.0,0.003930987057539446
793.0,0.003916673977507945
792.0,0.003915381905849138
791.0,0.003912904381423145
790.0,0.0038997043823269205
789.0,0.0038725728011440048
788.0,0.003836924447717119
787.0,0.0038021218965996854
786.0,0.0037698805881565024
785.0,0.0037362767753110985
784.0,0.0037095081898421266
783.0,0.003710042353984951
782.0,0.0037417367669348844
781.0,0.003777367051607916
780.0,0.003787963632561649
779.0,0.0037757988669902508
778.0,0.0037637333733256204
777.0,0.003763224774438351
776.0,0.0037708616654447986
775.0,0.0037863022168754847
774.0,0.00381081177572596
773.0,0.003832010144084772
772.0,0.0038326513579595694
771.0,0.0038158675430350827
770.0,0.003803021546018189
769.0,0.0038050790045305333
768.0,0.0038145800930863335
767.0,0.003826811699826141
766.0,0.003846670543193483
765.0,0.0038696872911997155
764.0,0.003878946544103661
763.0,0.0038707334560370496
762.0,0.003865098254689798
761.0,0.0038791535284768107
760.0,0.0039050792396209295
759.0,0.003926277100438014
758.0,0.003940676221253693
757.0,0.00395502416630825
756.0,0.003969970435033238
755.0,0.003985444351092798
754.0,0.004009448544147455
753.0,0.004045964477705388
752.0,0.00408322441781362
751.0,0.004108642287313134
750.0,0.004126383817917273
749.0,0.004147344523125436
748.0,0.0041706837074736575
747.0,0.0041887165583906864
746.0,0.0042025932203715415
745.0,0.004218524739351807
744.0,0.0042349970367544475
743.0,0.004248760621283168
742.0,0.00426758988133592
741.0,0.00430338850562989
740.0,0.00435923559058525
739.0,0.004434415419297021
738.0,0.004534085376153834
737.0,0.004673731923793934
736.0,0.004910046763640291
735.0,0.005390933825592994
734.0,0.006319381195064141
733.0,0.007766087864322733
732.0,0.009464853803266064
731.0,0.010840960787022853
730.0,0.011369749056256831
729.0,0.010986515149301185
728.0,0.01010904949528994
727.0,0.009272866845722056
726.0,0.008800366592484548
725.0,0.008762059491168275
724.0,0.00914140291152958
723.0,0.009983885941738529
722.0,0.011393092173596419
721.0,0.01338754309307658
720.0,0.015751185348162017
719.0,0.018073225619227043
718.0,0.019968842454113532
717.0,0.021168378490136495
716.0,0.02143526022868348
715.0,0.020630155720188392
714.0,0.01891290547000799
713.0,0.016710711666868938
712.0,0.014441822745640407
711.0,0.012365479291031971
710.0,0.010629183012004217
709.0,0.009307366535311747
708.0,0.008378167920829776
707.0,0.007738698582101505
706.0,0.007284236072579969
705.0,0.006966228606222254
704.0,0.006777777599619356
703.0,0.006715559947161939
702.0,0.006760394238950324
701.0,0.006856931662592939
700.0,0.006897961354154332
699.0,0.00677182450682683
698.0,0.006461404255249856
697.0,0.0060685587609513834
696.0,0.005712581004465516
695.0,0.0054348626166713584
694.0,0.005217156592520349
693.0,0.005046736406624754
692.0,0.004927133274408541
691.0,0.0048493554132737655
690.0,0.004790880222782543
689.0,0.004736149073716112
688.0,0.004676184677986053
687.0,0.004601449404265465
686.0,0.0045170251802264805
685.0,0.004446485028750148
684.0,0.0044019418880791306
683.0,0.004370991421602095
682.0,0.004345520331876889
681.0,0.004336975800874578
680.0,0.004347447323764939
679.0,0.004351825282588817
678.0,0.004328154131695818
677.0,0.004286169355301961
676.0,0.004237659725713178
675.0,0.0041804774885937125
674.0,0.004116427308830287
673.0,0.004052414234474347
672.0,0.003982177656890098
671.0,0.003884395115136663
670.0,0.003749081429007938
669.0,0.0035903541791900175
668.0,0.0034822786222566716
667.0,0.0035087740061003694
666.0,0.0035940487363054843
665.0,0.0036626358442503927
664.0,0.0037381243764520004
663.0,0.003799167098884785
662.0,0.003806551416758973
661.0,0.0037728951434729367
660.0,0.0037435871766073395
659.0,0.0037174358279895466
658.0,0.0036561219489347555
657.0,0.0035603459310985276
656.0,0.0034755479493057267
655.0,0.003445579573262709
654.0,0.003480975974457453
653.0,0.003552730510723783
652.0,0.003603079760831556
651.0,0.0035740960148279155
650.0,0.0034625115453814047
649.0,0.0033367189846113324
648.0,0.0032673898628434936
647.0,0.0032563929880550097
646.0,0.0032564648783020463
645.0,0.00323563515594286
644.0,0.003192481803991825
643.0,0.0031323467743343894
642.0,0.0030612696803128114
641.0,0.0029940658958421337
640.0,0.002945324761697371
639.0,0.002912851717788722
638.0,0.0028822447795209434
637.0,0.0028427740335329327
636.0,0.002789846965141507
635.0,0.002725817700817087
634.0,0.0026659733768138565
633.0,0.002626149921907482
632.0,0.002599603889478358
631.0,0.002564558104433047
630.0,0.00251755790112276
629.0,0.0024713182749980037
628.0,0.002411643564922114
627.0,0.0022952534224107216
626.0,0.002119631054601147
625.0,0.0019659588088188837
624.0,0.0019281199317784554
623.0,0.002015923908698671
622.0,0.0021571111161280618
621.0,0.0022737197769655687
620.0,0.002327470924504752
619.0,0.0023144762999220345
618.0,0.0022582162721295727
617.0,0.0021997175677546804
616.0,0.002167807864479506
615.0,0.0021654621463929845
614.0,0.002185584139795513
613.0,0.0022124977303605575
612.0,0.0022076977037582685
611.0,0.002144497743807993
610.0,0.0020752785268615265
609.0,0.002097260839490238
608.0,0.0022205511618635515
607.0,0.002328143905109357
606.0,0.0023132404494084838
605.0,0.0022098504630518427
604.0,0.0021211601972632582
603.0,0.0020809423937792997
602.0,0.002056207578822307
601.0,0.0020321134219042636
600.0,0.00201657210871619
