cm-1,A
4000.0,0.0019455601401870137
3999.0,0.001996382693417997
3998.0,0.00204380068789422
3997.0,0.002064603440868516
3996.0,0.0020608026388931125
3995.0,0.002053789876146018
3994.0,0.002049888750190079
3993.0,0.0020299036418992217
3992.0,0.0019834507901667327
3991.0,0.001944402823735045
3990.0,0.0019653289048170413
3989.0,0.002053445134722754
3988.0,0.0021511504608210637
3987.0,0.0021856843553227567
3986.0,0.002140604418645789
3985.0,0.002063928687974544
3984.0,0.0020155793937122017
3983.0,0.002021322567011901
3982.0,0.002062933757231878
3981.0,0.0021088954131298233
3980.0,0.0021394346895910335
3979.0,0.00215204763491426
3978.0,0.002156792127839679
3977.0,0.0021677428639048065
3976.0,0.0021966260553488923
3975.0,0.0022391012299674707
3974.0,0.0022738582762339733
3973.0,0.0022743266777447858
3972.0,0.002229128550396334
3971.0,0.0021580261807235086
3970.0,0.0021042979888352053
3969.0,0.0021068851736334307
3968.0,0.002165854788862869
3967.0,0.0022462924256767417
3966.0,0.002312892454634427
3965.0,0.0023528666260635442
3964.0,0.0023707092453732776
3963.0,0.002368226153770403
3962.0,0.002348226010723478
3961.0,0.0023211046924675087
3960.0,0.002291305020343343
3959.0,0.0022456069535180265
3958.0,0.0021674186043341218
3957.0,0.0020739207262598256
3956.0,0.002018600817603974
3955.0,0.0020523077184244768
3954.0,0.0021812027520515505
3953.0,0.0023575841730782586
3952.0,0.0025119890379745264
3951.0,0.0025863709407266643
3950.0,0.002560164782328486
3949.0,0.00246833882732165
3948.0,0.0023892682690072956
3947.0,0.00239304440691911
3946.0,0.0024716159492523043
3945.0,0.002529361040626634
3944.0,0.002485582013116226
3943.0,0.0023821883672085903
3942.0,0.002338243660344426
3941.0,0.0023932538160677218
3940.0,0.002460890247304035
3939.0,0.002447502207651375
3938.0,0.002362676518106902
3937.0,0.002306778303415265
3936.0,0.0023545628199143345
3935.0,0.002473387478532263
3934.0,0.0025732120644043014
3933.0,0.0026036886522381054
3932.0,0.002586074858636907
3931.0,0.0025604757432176823
3930.0,0.002550952410748245
3929.0,0.0025759394750331397
3928.0,0.002630111993131675
3927.0,0.0026619812555294074
3926.0,0.0026215449848417238
3925.0,0.00255657801424841
3924.0,0.002573305819190394
3923.0,0.002688349597948803
3922.0,0.0028117484935556636
3921.0,0.002847136172074497
3920.0,0.002779171079960871
3919.0,0.0026612734149483
3918.0,0.0025507812439340945
3917.0,0.002495220306515381
3916.0,0.0025205548525529756
3915.0,0.002599946782235297
3914.0,0.0026670032210664952
3913.0,0.002665597273680486
3912.0,0.00260340284372728
3911.0,0.002543477576447359
3910.0,0.0025394918366019583
3909.0,0.002614078258119176
3908.0,0.002751836733350648
3907.0,0.0028984422638395207
3906.0,0.002978542350121482
3905.0,0.002986958722295632
3904.0,0.0030299914366525233
3903.0,0.003180209781006315
3902.0,0.0033525418011223773
3901.0,0.0033944736071703178
3900.0,0.0032676522312883594
3899.0,0.0030737551532005044
3898.0,0.002915194184626201
3897.0,0.0028062379054442053
3896.0,0.002731900258996305
3895.0,0.0026975550930310906
3894.0,0.0026934289216760283
3893.0,0.0026498399775621764
3892.0,0.002536051648604391
3891.0,0.0024487011366028195
3890.0,0.0025022511379933707
3889.0,0.0027084466538685823
3888.0,0.0028790152516623476
3887.0,0.0027791123880462143
3886.0,0.0025370942503775053
3885.0,0.002537680219133737
3884.0,0.0028496905261607792
3883.0,0.003184347815839134
3882.0,0.003238201091381088
3881.0,0.003011156832036858
3880.0,0.0028086705044429857
3879.0,0.002819959237438768
3878.0,0.0029703459027743103
3877.0,0.003090259041109859
3876.0,0.0030348173747055873
3875.0,0.002878259772137251
3874.0,0.00290554531694316
3873.0,0.003213514944235935
3872.0,0.0034994242376905358
3871.0,0.003414243360360919
3870.0,0.0030995930419967926
3869.0,0.002989036979266355
3868.0,0.0031567912349101997
3867.0,0.0032965652005830827
3866.0,0.0031383012889162395
3865.0,0.002799393342932755
3864.0,0.002645184694048226
3863.0,0.00274879915000862
3862.0,0.0028716700430256904
3861.0,0.002863990763582237
3860.0,0.002757224029505504
3859.0,0.0026591639498692613
3858.0,0.0026888403717437986
3857.0,0.002917918216315393
3856.0,0.0031966778410165595
3855.0,0.0031341820288076127
3854.0,0.0028207432549022613
3853.0,0.002837982884803323
3852.0,0.0031015176161312856
3851.0,0.0032044436785120603
3850.0,0.0030757508749272387
3849.0,0.0028347964609087587
3848.0,0.0026430700838795847
3847.0,0.002581256048271795
3846.0,0.0026124587198655107
3845.0,0.002660537615497992
3844.0,0.0026949788832196673
3843.0,0.00274426976548864
3842.0,0.002844027111366528
3841.0,0.0029677169895999866
3840.0,0.0030501780211850647
3839.0,0.003089472411635908
3838.0,0.003125024176612136
3837.0,0.0031539101533432133
3836.0,0.0031426834169950768
3835.0,0.003086941637350479
3834.0,0.002988258228779208
3833.0,0.0028505552701718314
3832.0,0.0027307717665814354
3831.0,0.002700475563519291
3830.0,0.002756196875972761
3829.0,0.0027966746994094217
3828.0,0.0026939122095643855
3827.0,0.002465290618481799
3826.0,0.002343926909743159
3825.0,0.002543027921668041
3824.0,0.002979942469037266
3823.0,0.0032657665898557196
3822.0,0.0031675153614869386
3821.0,0.0030191640279461206
3820.0,0.003121040040993348
3819.0,0.0033384778389384225
3818.0,0.0033658348509052255
3817.0,0.003026589965796563
3816.0,0.0026032211843765515
3815.0,0.002485668775533279
3814.0,0.0025969603102515065
3813.0,0.0026394507093121305
3812.0,0.0025260826681577945
3811.0,0.0024007650864935094
3810.0,0.0024020374539519248
3809.0,0.0024290134746380553
3808.0,0.0023194305733507028
3807.0,0.002207782862485341
3806.0,0.0023457781328379375
3805.0,0.0027162850817097533
3804.0,0.003016624069593238
3803.0,0.0028897727075355584
3802.0,0.002466971920956607
3801.0,0.002328355037135795
3800.0,0.00259554731318985
3799.0,0.0028982040719768305
3798.0,0.002955475030548953
3797.0,0.002789026551885102
3796.0,0.002639216925291756
3795.0,0.002642812013065882
3794.0,0.0027042261412046293
3793.0,0.0026938665811506533
3792.0,0.0025984047860838338
3791.0,0.0024853667395173737
3790.0,0.0024133992483198023
3789.0,0.0024057553163201427
3788.0,0.0024671599482556624
3787.0,0.0025663778851277904
3786.0,0.002634494742732028
3785.0,0.002636800649163824
3784.0,0.0026305674882861558
3783.0,0.0026857431084006617
3782.0,0.002773516324733988
3781.0,0.0027911512477394283
3780.0,0.002726679364211714
3779.0,0.0026976451714285903
3778.0,0.002758758925578953
3777.0,0.002824014392951638
3776.0,0.0027941190215714957
3775.0,0.0026849114516536224
3774.0,0.0026195348320906366
3773.0,0.0026607383487449073
3772.0,0.002715171782445038
3771.0,0.002700181522432203
3770.0,0.0027136239074861783
3769.0,0.002859704902128052
3768.0,0.003044983319873078
3767.0,0.0030951000979079803
3766.0,0.0029862517463902427
3765.0,0.00288872322857219
3764.0,0.002944953742581681
3763.0,0.003091267627997942
3762.0,0.003151612182385257
3761.0,0.0030689582780798743
3760.0,0.0030013549570821977
3759.0,0.0030647086683675993
3758.0,0.0031462587870443974
3757.0,0.0031415064002469646
3756.0,0.003134539785527286
3755.0,0.003226151272714666
3754.0,0.0033775673193525493
3753.0,0.0034996237252083277
3752.0,0.003617348159887527
3751.0,0.0037857914966639133
3750.0,0.003909471966060132
3749.0,0.003969388638045855
3748.0,0.004145624800959993
3747.0,0.0044471775686993655
3746.0,0.004472194484770471
3745.0,0.0040795736479536954
3744.0,0.0037844634628290304
3743.0,0.0037963714873185846
3742.0,0.0038355690053409183
3741.0,0.003761864554162821
3740.0,0.0037051708154944964
3739.0,0.003858618600502694
3738.0,0.004148784282827004
3737.0,0.004283550074094308
3736.0,0.004214335439260126
3735.0,0.004194489455049289
3734.0,0.004282876753422843
3733.0,0.004260689278431217
3732.0,0.00404492649813128
3731.0,0.003799091408437226
3730.0,0.003682835118873069
3729.0,0.0036672859573799723
3728.0,0.003614793281366934
3727.0,0.0035206379206093675
3726.0,0.003533786735050266
3725.0,0.0036843428259146814
3724.0,0.003824804183108048
3723.0,0.0038478897684522005
3722.0,0.00380368455852665
3721.0,0.0037850910200198226
3720.0,0.003808772733851681
3719.0,0.0038378650676401203
3718.0,0.003859434765368073
3717.0,0.003919453057371931
3716.0,0.00404791059428122
3715.0,0.004176096750098418
3714.0,0.004189541939153718
3713.0,0.004094724009929556
3712.0,0.004101456064340463
3711.0,0.004330084659447819
3710.0,0.0045863619729858696
3709.0,0.004667027715715661
3708.0,0.004575161179806263
3707.0,0.0044414332615833295
3706.0,0.004403207676895771
3705.0,0.00450745891437729
3704.0,0.004677476323919395
3703.0,0.004794577753206696
3702.0,0.0048443582494988105
3701.0,0.004924541700936298
3700.0,0.0050928848241088565
3699.0,0.005277433034434278
3698.0,0.0053499328773611785
3697.0,0.005296022742646941
3696.0,0.005267683895908776
3695.0,0.005402557409173484
3694.0,0.00568069913163256
3693.0,0.005990228291984761
3692.0,0.006245015123207701
3691.0,0.006411136023520867
3690.0,0.006497698816645893
3689.0,0.006558824453464177
3688.0,0.0066335890952966235
3687.0,0.006721357757993655
3686.0,0.006800117363070011
3685.0,0.00683612233312153
3684.0,0.006841979375060828
3683.0,0.006894671060005467
3682.0,0.007023754426947901
3681.0,0.007182948082873168
3680.0,0.007385628810938079
3679.0,0.007717042063402577
3678.0,0.008117316642821058
3677.0,0.008306820834947977
3676.0,0.0083255267840223
3675.0,0.008535774540519962
3674.0,0.00892970392036827
3673.0,0.009315540012461081
3672.0,0.00954009643579299
3671.0,0.009577376813633595
3670.0,0.009744812243576347
3669.0,0.010172423349453482
3668.0,0.010547212849917031
3667.0,0.010687986301620347
3666.0,0.010661724843677464
3665.0,0.010592482142942002
3664.0,0.010585793645903608
3663.0,0.010703491459389751
3662.0,0.010964517834456051
3661.0,0.01136379895245693
3660.0,0.011876231354218484
3659.0,0.01243475982379489
3658.0,0.012942643640229505
3657.0,0.01337317714365185
3656.0,0.01379733394658544
3655.0,0.014231859700087227
3654.0,0.014640576479572991
3653.0,0.014997927596952829
3652.0,0.015287300202414863
3651.0,0.015661024120850284
3650.0,0.016402004140491304
3649.0,0.01735167074294409
3648.0,0.017971317689895575
3647.0,0.018148148062789117
3646.0,0.018146611532183856
3645.0,0.01815420113601677
3644.0,0.018222341784042296
3643.0,0.018369571511682545
3642.0,0.0186207246540528
3641.0,0.01895209265515854
3640.0,0.019293790111244137
3639.0,0.019646355610862053
3638.0,0.020112237135186603
3637.0,0.02073761619511375
3636.0,0.0213970455424128
3635.0,0.02191711965428874
3634.0,0.022308584269498635
3633.0,0.022737526303714877
3632.0,0.02328250157403009
3631.0,0.023795665017301088
3630.0,0.024189192215974997
3629.0,0.024774292374989588
3628.0,0.025565612688512172
3627.0,0.02609595139222272
3626.0,0.026249977714103503
3625.0,0.026249215136813962
3624.0,0.026339431965762158
3623.0,0.026668486831643683
3622.0,0.027205728204290503
3621.0,0.02782573683454722
3620.0,0.028476099524577775
3619.0,0.029170783971320308
3618.0,0.029841020725048975
3617.0,0.03041484842590672
3616.0,0.03090346527469602
3615.0,0.0313307057825374
3614.0,0.03172950252625597
3613.0,0.03215535162800945
3612.0,0.03262939202238641
3611.0,0.03311911561433247
3610.0,0.03359124189248975
3609.0,0.03406317410390356
3608.0,0.03457214878207338
3607.0,0.035082040698716954
3606.0,0.03552185502852532
3605.0,0.035886224262117544
3604.0,0.03621407723075529
3603.0,0.03654753507925416
3602.0,0.03692911888121001
3601.0,0.03739981888111245
3600.0,0.0379552270988615
3599.0,0.03851996534961915
3598.0,0.0390169135002934
3597.0,0.039439639780277404
3596.0,0.03984139974953629
3595.0,0.04027721919900724
3594.0,0.040759363827945476
3593.0,0.04124781924871946
3592.0,0.041699759122413124
3591.0,0.042100200499500265
3590.0,0.04245804730416733
3589.0,0.04286927884890538
3588.0,0.04352146574624056
3587.0,0.04438589986075295
3586.0,0.04512297009765058
3585.0,0.04553042054924269
3584.0,0.045712446110825346
3583.0,0.045862661036323485
3582.0,0.046110867435206634
3581.0,0.04648359008397483
3580.0,0.04693826844702414
3579.0,0.04742627807343518
3578.0,0.047937958527206705
3577.0,0.0484866720194172
3576.0,0.04906247116163055
3575.0,0.04962164889230448
3574.0,0.05013097521609466
3573.0,0.0506091715878974
3572.0,0.05111517431626226
3571.0,0.05169435876195205
3570.0,0.052323509321217876
3569.0,0.05293753331250579
3568.0,0.053547659966670394
3567.0,0.05421945811674043
3566.0,0.05489684512189658
3565.0,0.05546322260555269
3564.0,0.05590910343249179
3563.0,0.05629050908038103
3562.0,0.056645585824040647
3561.0,0.056982243929204424
3560.0,0.05729952507816121
3559.0,0.05761635305782776
3558.0,0.05797331864489055
3557.0,0.058401079958223356
3556.0,0.05889636332667635
3555.0,0.0594346704745852
3554.0,0.05999919977216858
3553.0,0.06058841134452059
3552.0,0.06118413174782675
3551.0,0.06174285735027735
3550.0,0.062237864071316026
3549.0,0.06268694968401425
3548.0,0.06314405214733755
3547.0,0.06366732460561329
3546.0,0.06426040191871248
3545.0,0.06484662995016094
3544.0,0.06534325867025534
3543.0,0.06574712986628944
3542.0,0.06612255141776047
3541.0,0.06653835000404532
3540.0,0.0670252726625974
3539.0,0.0675758566621109
3538.0,0.06816494176709598
3537.0,0.06876149268975469
3536.0,0.0693293856771541
3535.0,0.06984158663721211
3534.0,0.07030390916442833
3533.0,0.07074888925331696
3532.0,0.07120879450228855
3531.0,0.07170110792796876
3530.0,0.07223606216246475
3529.0,0.07281563141797222
3528.0,0.07341916169980937
3527.0,0.07401034051324683
3526.0,0.07457313305310641
3525.0,0.07513111834943502
3524.0,0.07570924672530498
3523.0,0.0762811077165349
3522.0,0.07678357109722644
3521.0,0.07719256508588988
3520.0,0.07755734354185563
3519.0,0.0779575505704442
3518.0,0.0784391176238898
3517.0,0.07898610006486577
3516.0,0.07954875897964962
3515.0,0.08009597462431559
3514.0,0.08063315687026226
3513.0,0.08116892695702059
3512.0,0.08169344534036446
3511.0,0.08220787572575783
3510.0,0.08274945574921962
3509.0,0.08334588844754805
3508.0,0.08395352962576808
3507.0,0.08449354039278956
3506.0,0.08495160946840642
3505.0,0.08540967598382543
3504.0,0.08596615445907008
3503.0,0.08661788631459356
3502.0,0.0872597893368093
3501.0,0.08782088401151206
3500.0,0.08833142522738557
3499.0,0.08884991417965202
3498.0,0.08939237682573699
3497.0,0.08994383799335982
3496.0,0.0905013067489697
3495.0,0.09107660819330068
3494.0,0.09166686963761532
3493.0,0.09224797801637029
3492.0,0.0928010750546552
3491.0,0.09333876844758805
3490.0,0.0939004522570206
3489.0,0.0945162585343721
3488.0,0.09517279909431846
3487.0,0.09581854821589159
3486.0,0.09640450282077495
3485.0,0.09691618670020077
3484.0,0.09737558810081476
3483.0,0.09783331476713786
3482.0,0.09835685423949649
3481.0,0.0989871916366322
3480.0,0.09968253508885672
3479.0,0.10033231826989755
3478.0,0.100856863536408
3477.0,0.10128785747203888
3476.0,0.10173858739683311
3475.0,0.10229083519549076
3474.0,0.10292212312508467
3473.0,0.10355442857405218
3472.0,0.10414608387431812
3471.0,0.10471013027165481
3470.0,0.10526861521199389
3469.0,0.10582063265691781
3468.0,0.10635240862739288
3467.0,0.10686066562491556
3466.0,0.10735695299578012
3465.0,0.10785873698826763
3464.0,0.10838320803051399
3463.0,0.10894092834645895
3462.0,0.10952676348564763
3461.0,0.11011898926557157
3460.0,0.11069259904494048
3459.0,0.11123756874898906
3458.0,0.11176412105855135
3457.0,0.11228953178210188
3456.0,0.11282088701266686
3455.0,0.11334954284551414
3454.0,0.11385939233972218
3453.0,0.11433957694782038
3452.0,0.11479153998775858
3451.0,0.11522794214779823
3450.0,0.11567614176844593
3449.0,0.11618278767233657
3448.0,0.11678924118963847
3447.0,0.11746761702555118
3446.0,0.11810179273515711
3445.0,0.1185870111716675
3444.0,0.11893670094447373
3443.0,0.11926508744899766
3442.0,0.11967572013570402
3441.0,0.12018014112368569
3440.0,0.12073021974511348
3439.0,0.12129533465184751
3438.0,0.12186803845473618
3437.0,0.1224224413349401
3436.0,0.12291996412490977
3435.0,0.12336076727499343
3434.0,0.1237932862203438
3433.0,0.12425806507381087
3432.0,0.12474505895030677
3431.0,0.12521327172817576
3430.0,0.12563398194524186
3429.0,0.12600599100136323
3428.0,0.1263458821104706
3427.0,0.12668071322218477
3426.0,0.12703878785457823
3425.0,0.1274271811913733
3424.0,0.12781908132949404
3423.0,0.12818140719164356
3422.0,0.12852158906748565
3421.0,0.1288907135595864
3420.0,0.12932557939228953
3419.0,0.12979908335422166
3418.0,0.1302447451367494
3417.0,0.13062334933318834
3416.0,0.13095204464555818
3415.0,0.13127189445620732
3414.0,0.13160599145756793
3413.0,0.13195667788214874
3412.0,0.13232444475418795
3411.0,0.13270875756874465
3410.0,0.1330947670854686
3409.0,0.13345966888455257
3408.0,0.1337978744446207
3407.0,0.13412984269494316
3406.0,0.13448331737537597
3405.0,0.1348721417341245
3404.0,0.13528730165811792
3403.0,0.1356950536388394
3402.0,0.13604855961514786
3401.0,0.13632032296065116
3400.0,0.1365293053705579
3399.0,0.13672652290307485
3398.0,0.13695081297886177
3397.0,0.13720396976171723
3396.0,0.1374682008681172
3395.0,0.1377348945410837
3394.0,0.13800787932007727
3393.0,0.13828862824925403
3392.0,0.1385706498389155
3391.0,0.1388439583624929
3390.0,0.1390939585236144
3389.0,0.13930076322039545
3388.0,0.13945566433943524
3387.0,0.1395848069592226
3386.0,0.13974424647140518
3385.0,0.1399732931019244
3384.0,0.1402481256306491
3383.0,0.1404929206199498
3382.0,0.14064708744682716
3381.0,0.14071860073270182
3380.0,0.14076786904092553
3379.0,0.14084377533019837
3378.0,0.1409464336870875
3377.0,0.14105282044653972
3376.0,0.14115746078860436
3375.0,0.14127031401725249
3374.0,0.1413834636662003
3373.0,0.1414623515889287
3372.0,0.141480116278347
3371.0,0.1414545908067529
3370.0,0.14144191441301607
3369.0,0.14148954194996793
3368.0,0.14159714184032132
3367.0,0.14172462038297107
3366.0,0.1418327023255711
3365.0,0.1419066028437885
3364.0,0.14194100944127663
3363.0,0.14192344890251252
3362.0,0.14185516309584154
3361.0,0.14177841476370803
3360.0,0.14174601387623317
3359.0,0.1417509876998124
3358.0,0.14172110228789442
3357.0,0.14161109666092392
3356.0,0.14147655811477497
3355.0,0.1414173198898374
3354.0,0.14145531733773592
3353.0,0.14150764561600304
3352.0,0.14148251909044152
3351.0,0.1413708192881451
3350.0,0.141235965231063
3349.0,0.1411437178972996
3348.0,0.1411168821348416
3347.0,0.14112958120614852
3346.0,0.14112255511897817
3345.0,0.14104275713722034
3344.0,0.14088925613137843
3343.0,0.140708240967074
3342.0,0.14053076879822224
3341.0,0.14033507283578947
3340.0,0.14008923534718498
3339.0,0.13981317442057486
3338.0,0.139569238095023
3337.0,0.13939567875506478
3336.0,0.1392740843179069
3335.0,0.13916032216529117
3334.0,0.13902197646353326
3333.0,0.1388445188540894
3332.0,0.13862848088855498
3331.0,0.13839274336953838
3330.0,0.13816452023676334
3329.0,0.13795411277718275
3328.0,0.13774623687167487
3327.0,0.1375211742772581
3326.0,0.13727775684441104
3325.0,0.1370310734193319
3324.0,0.13679334381440772
3323.0,0.13656175533495496
3322.0,0.13632189985694593
3321.0,0.13606224374342824
3320.0,0.13578854526056794
3319.0,0.13552032828862046
3318.0,0.13526647431109454
3317.0,0.13500954875819365
3316.0,0.1347256340517939
3315.0,0.13441576492805174
3314.0,0.13410371559544107
3313.0,0.13380633812173043
3312.0,0.13352637305186157
3311.0,0.1332757401823485
3310.0,0.13307578624141309
3309.0,0.13291365559182192
3308.0,0.13272054415917614
3307.0,0.13242779786306405
3306.0,0.13204201030188992
3305.0,0.13164019794828402
3304.0,0.13129135096295994
3303.0,0.1310022127296601
3302.0,0.13073942860423624
3301.0,0.13047966009453063
3300.0,0.13022372167499163
3299.0,0.1299769658417801
3298.0,0.1297348506787891
3297.0,0.12948552028572777
3296.0,0.12921749695398282
3295.0,0.1289280191163594
3294.0,0.12862917566539886
3293.0,0.12833990972065223
3292.0,0.12806772146801612
3291.0,0.1278079642775757
3290.0,0.12756506818018531
3289.0,0.12735510328116156
3288.0,0.12717082050989242
3287.0,0.12695976169277243
3286.0,0.12666511622860718
3285.0,0.12628888932388543
3284.0,0.1258936433089106
3283.0,0.12554251192307386
3282.0,0.1252599760183193
3281.0,0.12504855570126927
3280.0,0.12490525502087876
3279.0,0.12479980998400464
3278.0,0.1246634766461231
3277.0,0.12443486818154981
3276.0,0.12411718307569092
3275.0,0.12377255775278462
3274.0,0.12346270254852301
3273.0,0.12320797189739421
3272.0,0.12299300041643704
3271.0,0.12278522106063319
3270.0,0.12254726721409015
3269.0,0.12225984173581522
3268.0,0.1219485817910531
3267.0,0.12167373796215089
3266.0,0.12147581470567863
3265.0,0.12133170890207103
3264.0,0.12117099704429822
3263.0,0.12093524665735024
3262.0,0.12061939286004221
3261.0,0.12026113649401794
3260.0,0.11990161208945317
3259.0,0.11956232908256516
3258.0,0.11925157809809216
3257.0,0.1189761519268895
3256.0,0.11873591486425922
3255.0,0.11851219463488634
3254.0,0.11827667795646121
3253.0,0.1180163385578907
3252.0,0.11773853863252533
3251.0,0.11744597031140787
3250.0,0.11712065951011669
3249.0,0.11674845821671874
3248.0,0.11635665657195908
3247.0,0.116010365367369
3246.0,0.11575956818153119
3245.0,0.11558904934130187
3244.0,0.11542551512397081
3243.0,0.11519882822547768
3242.0,0.11489644459664494
3241.0,0.11455962319380505
3240.0,0.1142330559511286
3239.0,0.11392314961418316
3238.0,0.11360410170327184
3237.0,0.11325565434845307
3236.0,0.11288363482178844
3235.0,0.11250342669887098
3234.0,0.11211662692759415
3233.0,0.11171416018766543
3232.0,0.11129739287558561
3231.0,0.11088630864868501
3230.0,0.11050536276762203
3229.0,0.11016390275735075
3228.0,0.10985016837284901
3227.0,0.10954142931815657
3226.0,0.10921806530788565
3225.0,0.10886811314380054
3224.0,0.10848200652550269
3223.0,0.1080540213952889
3222.0,0.10759808822085923
3221.0,0.10715302184933803
3220.0,0.10675184770428608
3219.0,0.10638151519937054
3218.0,0.10598978191390708
3217.0,0.10554256660950607
3216.0,0.10506442990616151
3215.0,0.1046115150726571
3214.0,0.10420627392627048
3213.0,0.10380922625086005
3212.0,0.1033622991199776
3211.0,0.10285564872288407
3210.0,0.10234454579309514
3209.0,0.10189584469820297
3208.0,0.10151817420486031
3207.0,0.10115333810227106
3206.0,0.10073881429199384
3205.0,0.10026524345080597
3204.0,0.09976361692776763
3203.0,0.09925309075088545
3202.0,0.09872881850041705
3201.0,0.09819872697001834
3200.0,0.09769792978231787
3199.0,0.097248053258026
3198.0,0.09682209990044903
3197.0,0.09637496062920496
3196.0,0.09589998938205482
3195.0,0.09542780814662741
3194.0,0.09496955240060878
3193.0,0.09448905533669807
3192.0,0.09394500828857005
3191.0,0.09334678056789526
3190.0,0.09275120595040778
3189.0,0.09220367939943923
3188.0,0.09169479797693485
3187.0,0.09118117295734826
3186.0,0.09064061921276474
3185.0,0.09009604115807268
3184.0,0.089587133421914
3183.0,0.08913051657952982
3182.0,0.08870906462492642
3181.0,0.08828620566668817
3180.0,0.08782264571087067
3179.0,0.0872947046974501
3178.0,0.08671492046475246
3177.0,0.08612846238994781
3176.0,0.08557240275957649
3175.0,0.08504282871618415
3174.0,0.08451730113998762
3173.0,0.08399976125143198
3172.0,0.08351555836812068
3171.0,0.0830603114417975
3170.0,0.08258492056804156
3169.0,0.0820496476604053
3168.0,0.08147347376718066
3167.0,0.08090921694474341
3166.0,0.08038521376985922
3165.0,0.0798943891652906
3164.0,0.0794272466016535
3163.0,0.07898433422415349
3162.0,0.07855368375740823
3161.0,0.07810286189025652
3160.0,0.07760857422231254
3159.0,0.07708209882856124
3158.0,0.07655438359510998
3157.0,0.0760430611346353
3156.0,0.07554193233649881
3155.0,0.0750374300716123
3154.0,0.07452649155545547
3153.0,0.07401812655575797
3152.0,0.07352183288545433
3151.0,0.0730367417441946
3150.0,0.07255469513038107
3149.0,0.07207474621051552
3148.0,0.07160767010847295
3147.0,0.07115938527917107
3146.0,0.07071599568911024
3145.0,0.07025739252643345
3144.0,0.0697831309394534
3143.0,0.06930910919655105
3142.0,0.0688386678502005
3141.0,0.06835639463699061
3140.0,0.06785691974593376
3139.0,0.06736154056406346
3138.0,0.06689104206735814
3137.0,0.06643530526665925
3136.0,0.06597150199772706
3135.0,0.06550431878830124
3134.0,0.06506157442277047
3133.0,0.0646478902387772
3132.0,0.06423100914883853
3131.0,0.06378823532798221
3130.0,0.06334231230315834
3129.0,0.06292898189546388
3128.0,0.06254285587813618
3127.0,0.062140790518706204
3126.0,0.06169438458772597
3125.0,0.06121476776829282
3124.0,0.06072619522295049
3123.0,0.06024017240984206
3122.0,0.05976559082972599
3121.0,0.059323685151784794
3120.0,0.058930371873067135
3119.0,0.058570257691925295
3118.0,0.058207746443498035
3117.0,0.057825813369249156
3116.0,0.057442077434750397
3115.0,0.05708363040362791
3114.0,0.05675259986758474
3113.0,0.056419330895832794
3112.0,0.05604679620786011
3111.0,0.05562177992803696
3110.0,0.05516804683771367
3109.0,0.054731352028523306
3108.0,0.05434618919217285
3107.0,0.05401160985386717
3106.0,0.05369655284361423
3105.0,0.05336751298247251
3104.0,0.05301190255220561
3103.0,0.05263843857101494
3102.0,0.05226360651538386
3101.0,0.05190202851287641
3100.0,0.0515618302636773
3099.0,0.05123947631841475
3098.0,0.05091925405975917
3097.0,0.05058543815898855
3096.0,0.05023719687585247
3095.0,0.04988586265275978
3094.0,0.04953695067381597
3093.0,0.04918511373967578
3092.0,0.04883241675391646
3091.0,0.04849954911591923
3090.0,0.04820370706025014
3089.0,0.047930413857559535
3088.0,0.047643115517900014
3087.0,0.04732335065164291
3086.0,0.046989208731183826
3085.0,0.0466669444425116
3084.0,0.046358523433846686
3083.0,0.0460485456658874
3082.0,0.045732881603838
3081.0,0.04542503842024616
3080.0,0.04513279166772328
3079.0,0.04484233529494714
3078.0,0.04453390255323968
3077.0,0.04420682637994064
3076.0,0.043882762913679006
3075.0,0.043583742214055074
3074.0,0.043305557273485736
3073.0,0.043014349641968375
3072.0,0.042677073031376044
3071.0,0.04229875388786552
3070.0,0.04192516756015671
3069.0,0.041601529082701066
3068.0,0.041331216117512753
3067.0,0.04108283570925054
3066.0,0.040830883931967585
3065.0,0.04057616852716054
3064.0,0.040326197465930885
3063.0,0.04007152438106774
3062.0,0.03979474976227057
3061.0,0.03949539841812326
3060.0,0.03919383301891136
3059.0,0.03891000838784779
3058.0,0.03864301478036496
3057.0,0.03837507339965156
3056.0,0.03809450597447051
3055.0,0.03781063313644756
3054.0,0.037541996977645396
3053.0,0.03728947694144702
3052.0,0.03702890896132933
3051.0,0.03673673710903989
3050.0,0.03641768854708856
3049.0,0.0360999277224925
3048.0,0.035804925248469614
3047.0,0.035533699450695455
3046.0,0.03528137376950977
3045.0,0.03504679845592479
3044.0,0.034821203536033817
3043.0,0.034583006258903884
3042.0,0.03432207291296762
3041.0,0.034062654440739526
3040.0,0.03384519741735523
3039.0,0.0336813187124453
3038.0,0.03353512234804562
3037.0,0.03335510920026301
3036.0,0.03311848743284806
3035.0,0.032843714544380884
3034.0,0.03256789387910302
3033.0,0.032316045006105375
3032.0,0.032089177539381036
3031.0,0.031872704992187036
3030.0,0.03165125430357636
3029.0,0.03141865781986978
3028.0,0.031180460133563764
3027.0,0.030951053969009476
3026.0,0.030744075204791048
3025.0,0.03055698034409425
3024.0,0.0303666019231979
3023.0,0.03014866099015079
3022.0,0.029903663637110153
3021.0,0.02966044362714714
3020.0,0.02944861539200113
3019.0,0.029268740548334733
3018.0,0.029092846319408987
3017.0,0.02889451593896158
3016.0,0.028678743211918493
3015.0,0.028477302997339464
3014.0,0.028313971515829248
3013.0,0.028176440118769963
3012.0,0.02802789826600328
3011.0,0.027847061061276258
3010.0,0.027646716595262622
3009.0,0.027450400563255924
3008.0,0.02726303911870419
3007.0,0.027077869353748535
3006.0,0.026903141149515832
3005.0,0.026761403258498233
3004.0,0.026656751575671732
3003.0,0.026558671674437373
3002.0,0.026429919783651185
3001.0,0.026263230214063897
3000.0,0.026083501712114848
2999.0,0.02591959523186623
2998.0,0.025782982919605246
2997.0,0.025665533779074424
2996.0,0.025546945526690176
2995.0,0.025409450350425238
2994.0,0.02525809580343142
2993.0,0.02512855345225326
2992.0,0.025059061105185125
2991.0,0.025048411305604937
2990.0,0.025050138958810263
2989.0,0.02501586569137596
2988.0,0.024940824211102476
2987.0,0.02485847848436492
2986.0,0.02479713767669784
2985.0,0.024752768767390815
2984.0,0.024705788259425272
2983.0,0.02465095510742965
2982.0,0.02460279451828323
2981.0,0.024578346118203965
2980.0,0.024583316588075752
2979.0,0.02461290470454245
2978.0,0.024657492219943292
2977.0,0.024709164615503862
2976.0,0.024770112356827072
2975.0,0.02485554853208001
2974.0,0.0249788530439558
2973.0,0.025131394056916497
2972.0,0.02528501291022145
2971.0,0.025420860762676543
2970.0,0.02555026773531799
2969.0,0.025700602816502247
2968.0,0.025883953751213613
2967.0,0.026084988468656277
2966.0,0.026279905851279754
2965.0,0.02646088657117965
2964.0,0.026641253147866254
2963.0,0.02683973332253842
2962.0,0.027062663666988333
2961.0,0.027301856690763796
2960.0,0.02754695498137684
2959.0,0.027794717434581298
2958.0,0.028040464340663044
2957.0,0.028265822231165333
2956.0,0.02844761852606326
2955.0,0.028585660876326673
2954.0,0.0287167514627738
2953.0,0.02889280699518063
2952.0,0.02914720501850965
2951.0,0.029485603610891115
2950.0,0.029907127801326906
2949.0,0.030426912855596275
2948.0,0.031077012698909882
2947.0,0.031888986053776006
2946.0,0.032876871828687496
2945.0,0.03403780731578305
2944.0,0.03536903100744684
2943.0,0.03688303555630305
2942.0,0.03860589875211847
2941.0,0.040560969488765614
2940.0,0.04275537056580894
2939.0,0.04518274753702465
2938.0,0.04783730016992781
2937.0,0.05072912410415205
2936.0,0.053889771399246174
2935.0,0.05735780183860644
2934.0,0.06115770976642332
2933.0,0.06530007890899646
2932.0,0.06980552758893334
2931.0,0.07472046858379558
2930.0,0.08010671071199744
2929.0,0.08602971544272225
2928.0,0.09256339718805623
2927.0,0.09978475209899576
2926.0,0.10774226099328592
2925.0,0.11643721710342313
2924.0,0.12582938530411172
2923.0,0.1358222954589762
2922.0,0.14621286960009608
2921.0,0.15665451563081664
2920.0,0.16667691800194925
2919.0,0.17570617253669588
2918.0,0.1830735475554796
2917.0,0.18812868023668392
2916.0,0.19045443759178834
2915.0,0.190008975214235
2914.0,0.187093511331777
2913.0,0.18224414802306244
2912.0,0.17608537907015614
2911.0,0.16915177012408822
2910.0,0.16179527947534983
2909.0,0.15422822543725237
2908.0,0.14664932927875543
2907.0,0.13929054681365413
2906.0,0.13236252775009974
2905.0,0.12599208450598032
2904.0,0.12020558706150514
2903.0,0.11497244539826532
2902.0,0.11023855253823542
2901.0,0.10594448246503187
2900.0,0.10203573010122517
2899.0,0.09845210652405444
2898.0,0.09512254181029559
2897.0,0.0919704075186974
2896.0,0.08893019516898139
2895.0,0.08596496022731245
2894.0,0.08306426893314016
2893.0,0.08022657576804648
2892.0,0.07744437182282915
2891.0,0.0747037254469793
2890.0,0.07199237584086426
2889.0,0.0693041347323423
2888.0,0.06664073017925809
2887.0,0.06401635348595192
2886.0,0.06145909778227887
2885.0,0.05899803136899455
2884.0,0.056645135682252115
2883.0,0.05439424952932466
2882.0,0.05223401800178306
2881.0,0.050151129631147914
2880.0,0.04812532314796692
2879.0,0.04614139181914533
2878.0,0.04421531061521684
2877.0,0.042400842336615154
2876.0,0.04076096587863062
2875.0,0.03933640279294713
2874.0,0.03813949716001787
2873.0,0.03716333925947841
2872.0,0.03639183737769295
2871.0,0.03581028968631458
2870.0,0.035419511268897884
2869.0,0.03523827308483742
2868.0,0.03529362987799349
2867.0,0.03561619324539869
2866.0,0.036249993789329485
2865.0,0.037256975333269424
2864.0,0.03870833439237438
2863.0,0.04067993077875823
2862.0,0.04325791303074408
2861.0,0.046550201032519285
2860.0,0.0506905079292876
2859.0,0.05584469368919189
2858.0,0.062214563191690664
2857.0,0.07002208140094177
2856.0,0.07948133188657103
2855.0,0.09073996578906346
2854.0,0.10376861886652661
2853.0,0.11819332985446282
2852.0,0.13309716340719208
2851.0,0.14691173887600273
2850.0,0.15757260800112008
2849.0,0.16309021889880454
2848.0,0.1623695033005146
2847.0,0.1557164851327071
2846.0,0.14459723272726224
2845.0,0.13094019980526375
2844.0,0.11649892937478523
2843.0,0.10251680653836666
2842.0,0.08973401484289531
2841.0,0.07852623792403873
2840.0,0.0690054004505228
2839.0,0.06108457636397256
2838.0,0.05454694784094926
2837.0,0.04915279297784914
2836.0,0.04471064882875255
2835.0,0.04106929975968658
2834.0,0.038077365328918054
2833.0,0.035576488824800384
2832.0,0.033433092560268614
2831.0,0.03156405981671077
2830.0,0.029928280605681798
2829.0,0.028496627024613738
2828.0,0.027235796191354546
2827.0,0.026111982387044437
2826.0,0.025104581852873346
2825.0,0.02420712644279703
2824.0,0.02341868205778004
2823.0,0.022730355601372567
2822.0,0.022117656648618766
2821.0,0.021548816850604925
2820.0,0.02100404888533678
2819.0,0.02048733531716504
2818.0,0.0200118976288344
2817.0,0.01957320009002231
2816.0,0.019147868327452657
2815.0,0.018724107867946913
2814.0,0.01832113461570269
2813.0,0.017968845131020258
2812.0,0.017673893409165378
2811.0,0.017413283025918744
2810.0,0.017157065295300266
2809.0,0.01688701972443484
2808.0,0.016596552154169438
2807.0,0.0162892089532562
2806.0,0.015981341574425205
2805.0,0.01569646214029669
2804.0,0.0154496900333147
2803.0,0.015237480830489914
2802.0,0.015043375784087775
2801.0,0.014851368708524191
2800.0,0.014655617812627995
2799.0,0.014462487295497737
2798.0,0.014281997807441396
2797.0,0.014113779426981034
2796.0,0.013943061587144052
2795.0,0.013753913050332384
2794.0,0.013545750061057633
2793.0,0.013334950087549105
2792.0,0.01314254973668335
2791.0,0.012981530017245679
2790.0,0.012848131851237054
2789.0,0.012719884168971681
2788.0,0.012571193735129885
2787.0,0.012400972673623672
2786.0,0.01223833159078701
2785.0,0.01211095741903237
2784.0,0.012012779040970102
2783.0,0.011912893569578652
2782.0,0.011792735995923542
2781.0,0.011660645439706841
2780.0,0.01153060048257493
2779.0,0.011403816113869045
2778.0,0.011277283488990023
2777.0,0.011155599426941198
2776.0,0.011043473274452537
2775.0,0.01093413000857656
2774.0,0.010816737181650774
2773.0,0.010694650963422906
2772.0,0.010586939379441176
2771.0,0.010508175669316373
2770.0,0.010451482079618291
2769.0,0.010395624724254808
2768.0,0.010326388239710865
2767.0,0.010246926438630535
2766.0,0.010167458146879117
2765.0,0.010091990988632137
2764.0,0.010020096075487334
2763.0,0.009954351193504806
2762.0,0.009895729926639018
2761.0,0.0098353323390053
2760.0,0.009763592408438493
2759.0,0.00968761263825617
2758.0,0.009626322230275259
2757.0,0.009585670244982152
2756.0,0.0095507160779428
2755.0,0.009506256781382968
2754.0,0.009452344032135167
2753.0,0.009393759857688635
2752.0,0.0093295584576221
2751.0,0.009263869506267895
2750.0,0.00921373354008094
2749.0,0.009190754611000988
2748.0,0.00918266725739697
2747.0,0.009166247437257333
2746.0,0.009132969668223124
2745.0,0.009090878971500377
2744.0,0.009048831559974548
2743.0,0.009011580938672135
2742.0,0.008983981802754445
2741.0,0.0089668015318743
2740.0,0.008951456713746427
2739.0,0.00892874742533772
2738.0,0.008898773518643195
2737.0,0.008863575781483187
2736.0,0.008818445252042648
2735.0,0.008763332171289622
2734.0,0.00871435778931327
2733.0,0.008686311564353287
2732.0,0.008666508807301639
2731.0,0.008624292862233365
2730.0,0.008548623844695943
2729.0,0.008461581983287064
2728.0,0.008391963724991656
2727.0,0.008348013944427572
2726.0,0.008318389232387948
2725.0,0.008288914614934662
2724.0,0.008252976645579408
2723.0,0.008212822272193296
2722.0,0.008173874985610648
2721.0,0.008134235852917225
2720.0,0.00808256016517526
2719.0,0.008012101243204596
2718.0,0.00793380432446629
2717.0,0.007866643892637788
2716.0,0.00781741763193071
2715.0,0.007779347621235756
2714.0,0.007748704217184871
2713.0,0.007732509681749116
2712.0,0.007737123120118079
2711.0,0.007755800366106683
2710.0,0.0077691902541714205
2709.0,0.007755529644869816
2708.0,0.007705651985030237
2707.0,0.007633576752170322
2706.0,0.007567977744452236
2705.0,0.007526727605027964
2704.0,0.007504149412730206
2703.0,0.007486356542280179
2702.0,0.007467665825665243
2701.0,0.007444756174478914
2700.0,0.00740803823077929
2699.0,0.00735535611186983
2698.0,0.007304840814297789
2697.0,0.007276071045344362
2696.0,0.007264101767901534
2695.0,0.0072497133147490945
2694.0,0.00723217068601659
2693.0,0.007230096708577138
2692.0,0.007248213691881439
2691.0,0.007262836153155898
2690.0,0.007247639557017205
2689.0,0.00720187279842914
2688.0,0.007147658790765064
2687.0,0.007110048684279932
2686.0,0.007103879306014162
2685.0,0.0071277555504314066
2684.0,0.007162990603951149
2683.0,0.007184370362614944
2682.0,0.007178024404236257
2681.0,0.0071484115583782225
2680.0,0.007111141114815662
2679.0,0.0070844355399977774
2678.0,0.007082503637878436
2677.0,0.0071053251399716705
2676.0,0.007135119435638526
2675.0,0.0071520529361761565
2674.0,0.007153269298839545
2673.0,0.007149727180335505
2672.0,0.00714890195539954
2671.0,0.007152596032936928
2670.0,0.007167533069110599
2669.0,0.00720220413020343
2668.0,0.007251380932963587
2667.0,0.007298272315643535
2666.0,0.007335260740213493
2665.0,0.0073705301261892935
2664.0,0.007410954568963728
2663.0,0.007450087734649162
2662.0,0.0074778877392051215
2661.0,0.007491644069844785
2660.0,0.0074923280930792695
2659.0,0.007479268403710819
2658.0,0.007453351035942815
2657.0,0.007417962399281093
2656.0,0.007373638616678148
2655.0,0.00732078600777695
2654.0,0.007270059004819468
2653.0,0.007237945683571587
2652.0,0.007225113301090378
2651.0,0.007210207238768434
2650.0,0.007174273271116579
2649.0,0.007124844922333756
2648.0,0.007087381082473431
2647.0,0.007076792221106864
2646.0,0.007084414485024868
2645.0,0.00708921909385433
2644.0,0.007076705481637732
2643.0,0.007049959371296372
2642.0,0.007026386476313465
2641.0,0.007020277869188598
2640.0,0.007024240320609717
2639.0,0.007011358091883937
2638.0,0.006961101546303524
2637.0,0.006882693243218149
2636.0,0.006810831214148862
2635.0,0.006777072559952017
2634.0,0.006783128748272809
2633.0,0.006798946168719424
2632.0,0.0067862719772246345
2631.0,0.006728409482775423
2630.0,0.006639395561557772
2629.0,0.006547660207367951
2628.0,0.006473159517608929
2627.0,0.006417078457789772
2626.0,0.006363677668874994
2625.0,0.00629021155829277
2624.0,0.006187552942521738
2623.0,0.006076542815716424
2622.0,0.005992498429088018
2621.0,0.005944742647300717
2620.0,0.005903684248647009
2619.0,0.0058403013775741655
2618.0,0.005763674969799523
2617.0,0.005701774380361967
2616.0,0.005657602163638903
2615.0,0.005610000213115795
2614.0,0.005554265957993125
2613.0,0.005514272511716294
2612.0,0.0055069504604089185
2611.0,0.005514171792206594
2610.0,0.0054995530949450205
2609.0,0.005442697664670198
2608.0,0.005352593577882923
2607.0,0.005256302675100356
2606.0,0.005178837281846267
2605.0,0.005125527703872204
2604.0,0.005082678726607964
2603.0,0.005040659451876365
2602.0,0.005010150660202305
2601.0,0.005004468310085509
2600.0,0.005012478133309989
2599.0,0.005005102105749924
2598.0,0.0049659951599577605
2597.0,0.004902502306220885
2596.0,0.0048317066993664465
2595.0,0.004772605398768493
2594.0,0.004747537486973516
2593.0,0.004766051796023553
2592.0,0.00480165389568969
2591.0,0.004805850839548977
2590.0,0.004755917919524864
2589.0,0.004677364677467037
2588.0,0.004612971507231881
2587.0,0.004579594450900187
2586.0,0.004561747308869796
2585.0,0.004537997737897067
2584.0,0.004505444655787838
2583.0,0.004480182701716179
2582.0,0.004473929369193728
2581.0,0.004471108178090246
2580.0,0.004440758578560392
2579.0,0.0043789978128056465
2578.0,0.004325972348212861
2577.0,0.004322024850181943
2576.0,0.004355761550582873
2575.0,0.004377294810835902
2574.0,0.004357542163261983
2573.0,0.004311127384674956
2572.0,0.004261286199098151
2571.0,0.004210528837840504
2570.0,0.004156761121162144
2569.0,0.004114955681925214
2568.0,0.00410318003422871
2567.0,0.004115762723151818
2566.0,0.004124788434062552
2565.0,0.004106988040392112
2564.0,0.0040631843475327015
2563.0,0.00401511953603941
2562.0,0.003988446293188355
2561.0,0.0039959094316198585
2560.0,0.004030918268458095
2559.0,0.0040727626695147515
2558.0,0.004095671396667823
2557.0,0.004079050343230699
2556.0,0.004022497186291319
2555.0,0.003954672036367902
2554.0,0.003915898784682568
2553.0,0.003924103116846189
2552.0,0.003963331922241062
2551.0,0.004006313487031698
2550.0,0.004034621310917483
2549.0,0.004033090029368246
2548.0,0.0039855405780786215
2547.0,0.0038927653484271286
2546.0,0.003783613595814114
2545.0,0.0036947745789702837
2544.0,0.0036475888155659605
2543.0,0.0036518205312784597
2542.0,0.0037127589060775923
2541.0,0.003814633191049646
2540.0,0.00391057829305097
2539.0,0.003953277389218014
2538.0,0.003933353056659346
2537.0,0.0038766031456042077
2536.0,0.0038135255847405354
2535.0,0.003764919032966033
2534.0,0.0037444587250182893
2533.0,0.0037533271744882362
2532.0,0.0037753498168330993
2531.0,0.003793028485445279
2530.0,0.003806405307987257
2529.0,0.0038275790524060467
2528.0,0.0038648670444805036
2527.0,0.003920710233545418
2526.0,0.003992134671901633
2525.0,0.004061414854443561
2524.0,0.004100589396923738
2523.0,0.004099241244788445
2522.0,0.004075306296737703
2521.0,0.004047918752154338
2520.0,0.004017411121078999
2519.0,0.003985857173429451
2518.0,0.0039735425116121355
2517.0,0.0039906570304082045
2516.0,0.004011179661478804
2515.0,0.00400284541795831
2514.0,0.003970026761706402
2513.0,0.003940626185114726
2512.0,0.003922798396777952
2511.0,0.0039033614421505845
2510.0,0.0038810831247767102
2509.0,0.0038715277018598554
2508.0,0.0038798832193940695
2507.0,0.003894054775260395
2506.0,0.0039054540409185013
2505.0,0.003916595808799673
2504.0,0.0039286316643273676
2503.0,0.003938682616309552
2502.0,0.003947727814995735
2501.0,0.003956452377044303
2500.0,0.003957339811359095
2499.0,0.003943926917218414
2498.0,0.003921243921657524
2497.0,0.0038949508631413885
2496.0,0.0038603880164464893
2495.0,0.003816454896136132
2494.0,0.0037782629644255083
2493.0,0.0037599257635644147
2492.0,0.003756824202359556
2491.0,0.003760523735087712
2490.0,0.003775509756784476
2489.0,0.0038023651483317846
2488.0,0.003821557683135153
2487.0,0.0038172938098702163
2486.0,0.003802867308247468
2485.0,0.0037985068547893228
2484.0,0.0037984549592117167
2483.0,0.003786207267568345
2482.0,0.003769686177652193
2481.0,0.0037728337442385004
2480.0,0.0038002125242607683
2479.0,0.0038349752256430876
2478.0,0.0038626965769300225
2477.0,0.0038727736646220834
2476.0,0.0038490130558013575
2475.0,0.003789655320136467
2474.0,0.003729763617169141
2473.0,0.0037141056512418136
2472.0,0.0037502854330909545
2471.0,0.00381125129708373
2470.0,0.0038741881799835764
2469.0,0.003929092562317215
2468.0,0.003959370138791321
2467.0,0.003949437960768767
2466.0,0.003911870657468996
2465.0,0.0038777261771233617
2464.0,0.003858063577325632
2463.0,0.0038395552776189093
2462.0,0.0038164426397545104
2461.0,0.003800268926554275
2460.0,0.003798514421123492
2459.0,0.0038100730373352787
2458.0,0.0038420672837982733
2457.0,0.0039036953087459286
2456.0,0.003979966159279375
2455.0,0.004037260597084099
2454.0,0.004061214857133738
2453.0,0.004068109051031788
2452.0,0.004074771635304404
2451.0,0.004079144686979534
2450.0,0.004077471632678953
2449.0,0.004080780689435624
2448.0,0.004102822715291625
2447.0,0.0041408858348972654
2446.0,0.0041732648093062786
2445.0,0.004171608299352449
2444.0,0.0041226544092065566
2443.0,0.004047678847084307
2442.0,0.003990944878260712
2441.0,0.003974645594841963
2440.0,0.00397424855585166
2439.0,0.003953378330350241
2438.0,0.003910525416456286
2437.0,0.0038720650431844873
2436.0,0.0038527095234871253
2435.0,0.0038481410861115044
2434.0,0.003856906473847204
2433.0,0.003881449900328038
2432.0,0.0039123966153404
2431.0,0.0039386415996145365
2430.0,0.003969343999774787
2429.0,0.004018302627461988
2428.0,0.004067834027057882
2427.0,0.004078080833351551
2426.0,0.004039217534701167
2425.0,0.0039913176302211195
2424.0,0.003982341335302789
2423.0,0.0040202718554169705
2422.0,0.0040726364845928105
2421.0,0.004101889483835637
2420.0,0.004097839747927122
2419.0,0.004083266925988727
2418.0,0.004088968826581919
2417.0,0.004121094034825933
2416.0,0.004159328098961974
2415.0,0.004188431097355859
2414.0,0.004214154043033367
2413.0,0.004239001773998601
2412.0,0.004244171043383104
2411.0,0.004215084830011569
2410.0,0.004168126396697124
2409.0,0.004130570600762545
2408.0,0.0041080027978367874
2407.0,0.004092806497643213
2406.0,0.0040880549407173155
2405.0,0.0040961693505636365
2404.0,0.00409839415931852
2403.0,0.004076187871611488
2402.0,0.004046127132403959
2401.0,0.004045312000243747
2400.0,0.0040838082461753964
2399.0,0.004135360392544
2398.0,0.0041722488140875135
2397.0,0.004186229599180434
2396.0,0.004179585420267784
2395.0,0.00416109085161006
2394.0,0.004150616458964561
2393.0,0.004165374974533462
2392.0,0.00420013863739701
2391.0,0.004237509248996181
2390.0,0.004274394033956006
2389.0,0.004319767935263867
2388.0,0.004370079937301057
2387.0,0.004408302753758777
2386.0,0.004425981408045661
2385.0,0.004426295422509361
2384.0,0.004406249118880671
2383.0,0.004357298384410233
2382.0,0.004289500109085871
2381.0,0.004237957610667149
2380.0,0.004235158880443273
2379.0,0.0042851635942472745
2378.0,0.004365134092718011
2377.0,0.00443422580382414
2376.0,0.004442866096369952
2375.0,0.0043659492634701355
2374.0,0.004241788128255384
2373.0,0.00415336289046282
2372.0,0.004154023324321057
2371.0,0.004230331012150475
2370.0,0.004338704346368228
2369.0,0.0044393872261387
2368.0,0.0045003393673246645
2367.0,0.004529001944974743
2366.0,0.00459474249664348
2365.0,0.004735033634429982
2364.0,0.004846994447086549
2363.0,0.00479085612639791
2362.0,0.004596975341465638
2361.0,0.004448887261547105
2360.0,0.00446880223557785
2359.0,0.004625963223626195
2358.0,0.004825851296149222
2357.0,0.004973324084985241
2356.0,0.004996574785301052
2355.0,0.004920183091283295
2354.0,0.004863770774043479
2353.0,0.004898527725969215
2352.0,0.00498111310677495
2351.0,0.005044146671296988
2350.0,0.005070084444935036
2349.0,0.005069616016980098
2348.0,0.005060359395211393
2347.0,0.005075199530962397
2346.0,0.0051458685538658296
2345.0,0.005251025102196664
2344.0,0.005311382111065403
2343.0,0.005288059960070629
2342.0,0.00522326651219534
2341.0,0.005168521487958579
2340.0,0.0051486008649379855
2339.0,0.00517329120253021
2338.0,0.005253454532713648
2337.0,0.005382166122382531
2336.0,0.005523722515317854
2335.0,0.005638044900823519
2334.0,0.005685555334758066
2333.0,0.005625175713024042
2332.0,0.0054617834343883495
2331.0,0.005312568054235694
2330.0,0.005344149800532029
2329.0,0.005621565379912599
2328.0,0.006052293257483731
2327.0,0.0065076677926574926
2326.0,0.006891651806646323
2325.0,0.007119742696824636
2324.0,0.007118309518007082
2323.0,0.006914848507870686
2322.0,0.006652768473403775
2321.0,0.006453703825859661
2320.0,0.006326144744572648
2319.0,0.006241174856270075
2318.0,0.006211607994878553
2317.0,0.00623652129341404
2316.0,0.006244758023877271
2315.0,0.006169226141990944
2314.0,0.00603004636978321
2313.0,0.005905268352464609
2312.0,0.005836753999941278
2311.0,0.005827149488020985
2310.0,0.005874911379405651
2309.0,0.005962701464798592
2308.0,0.006027772452886952
2307.0,0.006021764229413511
2306.0,0.0059718630650625526
2305.0,0.005940283356775812
2304.0,0.00593877460442954
2303.0,0.0059397828684819715
2302.0,0.005943396858886214
2301.0,0.005977749488741193
2300.0,0.006032838785566136
2299.0,0.006057668656066863
2298.0,0.0060265597841552545
2297.0,0.0059697789942246785
2296.0,0.005930654867690394
2295.0,0.005932575098170213
2294.0,0.005978940729833432
2293.0,0.006050879272485491
2292.0,0.006101662041313636
2291.0,0.006101835518081452
2290.0,0.006083573429074403
2289.0,0.006103685320100447
2288.0,0.006159282596058017
2287.0,0.0061870421568214935
2286.0,0.006148931504589643
2285.0,0.006072935407655399
2284.0,0.005999103106407406
2283.0,0.005931035996551472
2282.0,0.005859577295238243
2281.0,0.005794172889397024
2280.0,0.005746852617815217
2279.0,0.005710271579890139
2278.0,0.005674427979992647
2277.0,0.00564676052507378
2276.0,0.005641623124205938
2275.0,0.005660625037017547
2274.0,0.0056847101024994195
2273.0,0.005673365302144515
2272.0,0.005584421527464542
2271.0,0.005420106318591253
2270.0,0.005242190114519501
2269.0,0.005119962304088969
2268.0,0.0050692169967853406
2267.0,0.0050632024162312935
2266.0,0.0050743032039563115
2265.0,0.005080075773459939
2264.0,0.005059903259700905
2263.0,0.0050273819226945475
2262.0,0.005032893457926027
2261.0,0.005093157602319487
2260.0,0.00514984000728996
2259.0,0.005145733236171483
2258.0,0.005101893155498955
2257.0,0.00506958743398347
2256.0,0.0050456736721064
2255.0,0.005000620668453821
2254.0,0.004947363104560801
2253.0,0.004906191894721735
2252.0,0.004840363965623007
2251.0,0.0047179959827482465
2250.0,0.004608041168355642
2249.0,0.0046176549084398265
2248.0,0.004736835057598896
2247.0,0.004840331042758249
2246.0,0.00484385100386559
2245.0,0.004780563416565614
2244.0,0.004722056908568316
2243.0,0.004702800737065184
2242.0,0.004732145235242621
2241.0,0.004805771519689156
2240.0,0.004893648947650716
2239.0,0.004971753576530465
2238.0,0.005061875042544617
2237.0,0.005181309333732172
2236.0,0.0052719158633796285
2235.0,0.00525742461285693
2234.0,0.005154772429326939
2233.0,0.005049717265765525
2232.0,0.0049673212907988895
2231.0,0.004860052941848458
2230.0,0.0047252221152773825
2229.0,0.004637248440514029
2228.0,0.004637212518922518
2227.0,0.00467099502856988
2226.0,0.004667235719504821
2225.0,0.004619948705499062
2224.0,0.0045771913167896045
2223.0,0.004595255825925061
2222.0,0.0047049597283146585
2221.0,0.004869109178651402
2220.0,0.0049882639364729345
2219.0,0.005003403414210702
2218.0,0.00497110752936065
2217.0,0.004972139048685392
2216.0,0.004979305753167455
2215.0,0.00490085712594191
2214.0,0.004731240508547166
2213.0,0.004564215987745938
2212.0,0.004463904208014045
2211.0,0.004416947259976048
2210.0,0.004410405569185285
2209.0,0.004451835847281735
2208.0,0.004502059652847556
2207.0,0.004486184869771467
2206.0,0.004398136547570844
2205.0,0.0043240783445323205
2204.0,0.004336541244294614
2203.0,0.004422497633414055
2202.0,0.004522750695762835
2201.0,0.004586558304345926
2200.0,0.004590662536216439
2199.0,0.004551892134992875
2198.0,0.00451471717954033
2197.0,0.004488753681180149
2196.0,0.004427822490880153
2195.0,0.004312795081390371
2194.0,0.004206483047501402
2193.0,0.004169766157886932
2192.0,0.00417959456147197
2191.0,0.004201469892516685
2190.0,0.004267406550189851
2189.0,0.0043897248778056
2188.0,0.004473117005425331
2187.0,0.004425844874330268
2186.0,0.00429608449012476
2185.0,0.004180438735438624
2184.0,0.00406256586126799
2183.0,0.0038846413405073726
2182.0,0.0037220250249206106
2181.0,0.003722420810836041
2180.0,0.003893054177151722
2179.0,0.004093774722931433
2178.0,0.0042003196662771195
2177.0,0.004164066791737701
2176.0,0.003989923848257263
2175.0,0.003784165242544715
2174.0,0.003754539737736783
2173.0,0.004006799965721272
2172.0,0.004381377502265881
2171.0,0.004645081385501041
2170.0,0.004777115446457471
2169.0,0.004911227811895447
2168.0,0.00506476432952129
2167.0,0.005128213734392149
2166.0,0.005112396631499816
2165.0,0.005184078806619987
2164.0,0.005387829472907422
2163.0,0.005491476805895294
2162.0,0.005167699838396912
2161.0,0.004263947557448114
2160.0,0.002962760815485961
2159.0,0.0017619197545072406
2158.0,0.0011656202589901438
2157.0,0.0012431085757820318
2156.0,0.0015907312310104295
2155.0,0.0018113482710921482
2154.0,0.0019054411019980518
2153.0,0.002101681808192441
2152.0,0.0024651868598323085
2151.0,0.0028298533442316772
2150.0,0.0030407712030683905
2149.0,0.0030764413427959874
2148.0,0.002977330078093575
2147.0,0.00281290285697158
2146.0,0.0027052925628903318
2145.0,0.002735828765158578
2144.0,0.002833027265818484
2143.0,0.0028646161041330975
2142.0,0.0028195874875157584
2141.0,0.002790227429395252
2140.0,0.0028179997366029595
2139.0,0.002864470936243809
2138.0,0.0028949327838558225
2137.0,0.002877092638303847
2136.0,0.0027435864787145655
2135.0,0.0024871348962543986
2134.0,0.0022611729172934054
2133.0,0.0022567005788539777
2132.0,0.0024860886303926886
2131.0,0.002791547036510463
2130.0,0.003043103564097988
2129.0,0.0032292412208247464
2128.0,0.0033776929673228133
2127.0,0.003482509268630516
2126.0,0.003529517039952186
2125.0,0.003535144286276874
2124.0,0.0035426365091928377
2123.0,0.0036017078497318127
2122.0,0.0037333445366582317
2121.0,0.00388658440513586
2120.0,0.003967131449479201
2119.0,0.0039539743586113375
2118.0,0.003937832046643454
2117.0,0.003998558514641819
2116.0,0.004095750351289462
2115.0,0.0041487171602572195
2114.0,0.004166444814004408
2113.0,0.004212034996450581
2112.0,0.0042821991235305785
2111.0,0.0043232230383502285
2110.0,0.004337434511067962
2109.0,0.0043721860369181674
2108.0,0.0044197518396589175
2107.0,0.004424546655434259
2106.0,0.004383622311428365
2105.0,0.004354363997128414
2104.0,0.004366385585916445
2103.0,0.004403129820364317
2102.0,0.0044556057201257816
2101.0,0.004516971219922944
2100.0,0.004540011033876606
2099.0,0.004479217021863173
2098.0,0.004357488325215213
2097.0,0.004224844788669095
2096.0,0.004085419614072356
2095.0,0.003941867192740147
2094.0,0.0038615069623550297
2093.0,0.003894102477214673
2092.0,0.003968765114068036
2091.0,0.003983507735646637
2090.0,0.003960403382367611
2089.0,0.004002257043609928
2088.0,0.004115529039752827
2087.0,0.00420582622373603
2086.0,0.004235245014523306
2085.0,0.004261914394586837
2084.0,0.00431500420982798
2083.0,0.004348574325508421
2082.0,0.0043372580502215406
2081.0,0.004321768156527068
2080.0,0.0043385090092774884
2079.0,0.004386992259031447
2078.0,0.004468860245137763
2077.0,0.004571384983322138
2076.0,0.004618983152505649
2075.0,0.0045450249819726455
2074.0,0.004409257151742269
2073.0,0.004339044687273201
2072.0,0.004358014977613796
2071.0,0.004374292483076603
2070.0,0.0043344094364629274
2069.0,0.004267558470980929
2068.0,0.004187853938680341
2067.0,0.004082755720422817
2066.0,0.004006539761532423
2065.0,0.004053174012578677
2064.0,0.004207322723271353
2063.0,0.0043479679532062755
2062.0,0.004418145963845265
2061.0,0.0044649909610176555
2060.0,0.004513789452007643
2059.0,0.004524369737406936
2058.0,0.004477502565393542
2057.0,0.004397597367120578
2056.0,0.0042974647533707815
2055.0,0.004222188772035632
2054.0,0.004317485200323699
2053.0,0.004683412589098069
2052.0,0.005149179589653109
2051.0,0.00536232533948852
2050.0,0.005155714909009077
2049.0,0.004731221248490358
2048.0,0.0043954058253049995
2047.0,0.004241230096853775
2046.0,0.0042092628174475654
2045.0,0.004250803707941073
2044.0,0.004307573697764122
2043.0,0.004291043135553036
2042.0,0.004193042477876408
2041.0,0.004112507653623563
2040.0,0.0041090823178249304
2039.0,0.004147216240461862
2038.0,0.004217008737532606
2037.0,0.0043467298305502776
2036.0,0.0044544464078358215
2035.0,0.004369698431465896
2034.0,0.004068291890060236
2033.0,0.003731363261520831
2032.0,0.0035134510247383606
2031.0,0.003412735330645942
2030.0,0.0034086505306800924
2029.0,0.0035132642036520803
2028.0,0.003642702929023734
2027.0,0.0036422092037004133
2026.0,0.0034944747113014813
2025.0,0.0033479859551626065
2024.0,0.003299198192304294
2023.0,0.003303006894126143
2022.0,0.0033260047296404904
2021.0,0.0034014514418627306
2020.0,0.0035007451053040805
2019.0,0.0035213044248163607
2018.0,0.003437886865123565
2017.0,0.003321913654502651
2016.0,0.0031896724015087335
2015.0,0.003002542371150106
2014.0,0.002836128738495755
2013.0,0.0028570386774293107
2012.0,0.003082137672018364
2011.0,0.0033072956394853198
2010.0,0.003321677464707541
2009.0,0.0030873474135851447
2008.0,0.0027122777745140422
2007.0,0.002359829666971482
2006.0,0.0021912774317928286
2005.0,0.0022615120259763984
2004.0,0.002447101470553521
2003.0,0.0025795103964768797
2002.0,0.0026317466457750514
2001.0,0.002699238775718045
2000.0,0.0028467022612683746
1999.0,0.0030610767491952005
1998.0,0.00330123439123642
1997.0,0.0034909190959564983
1996.0,0.003521765967647493
1995.0,0.003370709845559579
1994.0,0.0031617230648951305
1993.0,0.00302929927672639
1992.0,0.0029691607133566313
1991.0,0.0029339384152388412
1990.0,0.0029855049789718324
1989.0,0.0031698731956327397
1988.0,0.0033490038593378076
1987.0,0.0033550019880482897
1986.0,0.0032489550846099896
1985.0,0.003241735502978179
1984.0,0.0034018036275582806
1983.0,0.0036251518632760384
1982.0,0.0038341215911762505
1981.0,0.003991738076487427
1980.0,0.003968465823971555
1979.0,0.0036419282555379055
1978.0,0.0031405064799461084
1977.0,0.002742291937380655
1976.0,0.0025127062780860364
1975.0,0.002318035884370381
1974.0,0.002141361729936036
1973.0,0.0020799992740289618
1972.0,0.0020871662551024926
1971.0,0.002015759356667337
1970.0,0.0018971000147573374
1969.0,0.0019125511035249611
1968.0,0.0020852810779159845
1967.0,0.002233481094349328
1966.0,0.0022585598592510746
1965.0,0.0022360203626606164
1964.0,0.0022062914881469885
1963.0,0.0021245312952964434
1962.0,0.0020140382424046047
1961.0,0.0019588666184952985
1960.0,0.001940074704067546
1959.0,0.0018745313005800823
1958.0,0.0018066877263703265
1957.0,0.0018644089738643955
1956.0,0.002033358681324115
1955.0,0.002158549135964266
1954.0,0.002168046035441799
1953.0,0.00213361699928905
1952.0,0.002112936937908069
1951.0,0.0020941488535496044
1950.0,0.0020968002699560256
1949.0,0.0021638197308317167
1948.0,0.0022454798468849457
1947.0,0.0022346320619991075
1946.0,0.002131362705050787
1945.0,0.0020533291052192036
1944.0,0.0020782684225719816
1943.0,0.002185008375054586
1942.0,0.0023360373851213966
1941.0,0.002497286239385531
1940.0,0.002594897314199003
1939.0,0.002569743991790208
1938.0,0.0024623667133540487
1937.0,0.0023648107189875346
1936.0,0.0022971092699219783
1935.0,0.002224599864321263
1934.0,0.002174994696015893
1933.0,0.002211837684306842
1932.0,0.002300594674924692
1931.0,0.0023355085277036525
1930.0,0.0022974881575123524
1929.0,0.0022605747851849912
1928.0,0.002255346909709847
1927.0,0.0022380844117793177
1926.0,0.002194431465819819
1925.0,0.0021626554949553413
1924.0,0.0021521454801165297
1923.0,0.002141562653650943
1922.0,0.002150065632640171
1921.0,0.0022123357340498354
1920.0,0.002295857325288322
1919.0,0.002334382182713621
1918.0,0.0023281344377048784
1917.0,0.0023225631572947984
1916.0,0.002307568779264021
1915.0,0.0022572157045029025
1914.0,0.002218499622953545
1913.0,0.002258479729629216
1912.0,0.0023433936489665494
1911.0,0.00237684293174655
1910.0,0.0023549468846448597
1909.0,0.0023651449300336335
1908.0,0.0024291156184866602
1907.0,0.0024752460662262575
1906.0,0.002476538376339812
1905.0,0.0024830004259086915
1904.0,0.0025117791357901482
1903.0,0.0025210325391014235
1902.0,0.002495379970010135
1901.0,0.0024643530450618924
1900.0,0.002432486713440257
1899.0,0.002377484669900397
1898.0,0.002322400889295145
1897.0,0.002322019085173853
1896.0,0.0023664170295995056
1895.0,0.0023872093541370785
1894.0,0.0023704698893014867
1893.0,0.002367434600535388
1892.0,0.002392581231193802
1891.0,0.0024070188603963426
1890.0,0.0023994712446365222
1889.0,0.0023953640746721323
1888.0,0.002383713114933601
1887.0,0.002339928645192682
1886.0,0.0022997698743239705
1885.0,0.0023167267997243907
1884.0,0.0023574154811204302
1883.0,0.0023327274678306056
1882.0,0.0022376864000783593
1881.0,0.0021623276468719058
1880.0,0.002156522306880414
1879.0,0.0021760023915362347
1878.0,0.002177795995010026
1877.0,0.002179697792601439
1876.0,0.002195604528603171
1875.0,0.0022015816484048933
1874.0,0.0021971510877449147
1873.0,0.0022209033196312535
1872.0,0.0022813751478611066
1871.0,0.0023370278597059416
1870.0,0.0023575734131846145
1869.0,0.0023492152062240886
1868.0,0.002300722801463976
1867.0,0.002200137628896348
1866.0,0.002099939184275889
1865.0,0.002059641534785712
1864.0,0.002062948591004627
1863.0,0.00205106324493698
1862.0,0.002017279962596917
1861.0,0.0020082756224740813
1860.0,0.002033102170013128
1859.0,0.0020468879840040057
1858.0,0.0020354886840492905
1857.0,0.0020317921152215542
1856.0,0.002041268920312929
1855.0,0.002027924345283698
1854.0,0.0019877123162463277
1853.0,0.0019614519966063416
1852.0,0.001969702195800349
1851.0,0.001993365496331438
1850.0,0.0020257790480644106
1849.0,0.0020867435185177923
1848.0,0.002157679670367671
1847.0,0.0021709913057668725
1846.0,0.002090581317637347
1845.0,0.0019677213419981867
1844.0,0.0018924544577290578
1843.0,0.0018886725210706303
1842.0,0.0019305093551689996
1841.0,0.001990084874191475
1840.0,0.0020316553001954295
1839.0,0.002031554039331238
1838.0,0.0020155521495570307
1837.0,0.0020254286833910145
1836.0,0.002049910920143124
1835.0,0.002051759140354571
1834.0,0.0020411058842856413
1833.0,0.0020566547415035775
1832.0,0.002098170506732654
1831.0,0.002130174631071563
1830.0,0.0021517338138934373
1829.0,0.002189832564596876
1828.0,0.002222397461845933
1827.0,0.0022104832717824486
1826.0,0.002173851818780124
1825.0,0.002177103103256882
1824.0,0.0022162692389692943
1823.0,0.0022186533375482243
1822.0,0.002175503246763546
1821.0,0.00214404182112372
1820.0,0.0021448815276703137
1819.0,0.0021371442689949575
1818.0,0.00210959117586812
1817.0,0.0021113289752319147
1816.0,0.0021589593637237267
1815.0,0.002208535846756668
1814.0,0.0022339663124196635
1813.0,0.00225617162235917
1812.0,0.002282412250933717
1811.0,0.0022826149829791005
1810.0,0.0022633921087887327
1809.0,0.002276093229379575
1808.0,0.0023262259188430745
1807.0,0.0023687012402400526
1806.0,0.0023917294985508096
1805.0,0.0024282101383558876
1804.0,0.002480021547158605
1803.0,0.0025034178157005618
1802.0,0.0024838868766308892
1801.0,0.002472910210015538
1800.0,0.002505169841166571
1799.0,0.0025469722059687887
1798.0,0.002579481557319947
1797.0,0.002625506920501494
1796.0,0.0026829179170400983
1795.0,0.002710101983748045
1794.0,0.0026894314009895844
1793.0,0.002668838535361477
1792.0,0.0026853665376736007
1791.0,0.002691906643998674
1790.0,0.002667508783212519
1789.0,0.002654068773347844
1788.0,0.002665819928288484
1787.0,0.00267931055535923
1786.0,0.002690091833117741
1785.0,0.002720724337764822
1784.0,0.0027612270205777632
1783.0,0.002770648767246798
1782.0,0.002740062256524939
1781.0,0.00271243484036603
1780.0,0.0027191232297180314
1779.0,0.0027312579063020143
1778.0,0.0027329395231135223
1777.0,0.0027540929464977496
1776.0,0.0028098883713028747
1775.0,0.0028599106603733934
1774.0,0.0028572748670238034
1773.0,0.0028323716060863645
1772.0,0.0028507639198566198
1771.0,0.0028829472128726165
1770.0,0.0028902847927750426
1769.0,0.002906112101684665
1768.0,0.0029558365005508177
1767.0,0.0030211428071452917
1766.0,0.0030849022913635865
1765.0,0.0031564279180395956
1764.0,0.0032267095324350443
1763.0,0.003260582544813033
1762.0,0.003257583121091189
1761.0,0.0032733710087360143
1760.0,0.0033326027811858014
1759.0,0.0033934994814193977
1758.0,0.003425452281612962
1757.0,0.0034576326630410235
1756.0,0.0035283935777215654
1755.0,0.003615315616286409
1754.0,0.00368339123715796
1753.0,0.0037292502569158644
1752.0,0.0037644487051038174
1751.0,0.0037911730575073696
1750.0,0.00382386502217176
1749.0,0.003908241357963334
1748.0,0.004040877703417747
1747.0,0.004151846105954107
1746.0,0.004208534813400148
1745.0,0.004260302827803345
1744.0,0.00434842101901195
1743.0,0.0044385340211167195
1742.0,0.004489938370698029
1741.0,0.004533632814846362
1740.0,0.004620850526590009
1739.0,0.004738864468587639
1738.0,0.004844335671525498
1737.0,0.004930310917681697
1736.0,0.004982070065575522
1735.0,0.0049908019145631635
1734.0,0.0050514652387478425
1733.0,0.005223564497018713
1732.0,0.005431559495693734
1731.0,0.005599539910548373
1730.0,0.005717255857866166
1729.0,0.005827273968046638
1728.0,0.005953209935049733
1727.0,0.006070603567250848
1726.0,0.006170616510688136
1725.0,0.006299252726766711
1724.0,0.00648469940823123
1723.0,0.006676723106862299
1722.0,0.006827702037958553
1721.0,0.006954639267249405
1720.0,0.007081032143167356
1719.0,0.007195033960697131
1718.0,0.007329138725879742
1717.0,0.007567195474550051
1716.0,0.00787025476755455
1715.0,0.008143014560710437
1714.0,0.00838348313905345
1713.0,0.008633171773276214
1712.0,0.008889906209669533
1711.0,0.009122471706988364
1710.0,0.009334865875698001
1709.0,0.00956934940492369
1708.0,0.009847092704293941
1707.0,0.010153558856113151
1706.0,0.010496833999609876
1705.0,0.010882250607696008
1704.0,0.011223450432808067
1703.0,0.011448666699876497
1702.0,0.011597741359449493
1701.0,0.011897302546740495
1700.0,0.012491324287491595
1699.0,0.013035906222135855
1698.0,0.013387391005749458
1697.0,0.01377780312936985
1696.0,0.014354001547904217
1695.0,0.014951175561441408
1694.0,0.015405330161575463
1693.0,0.015803195037185244
1692.0,0.01622807688368648
1691.0,0.016679042927099517
1690.0,0.017148329821642327
1689.0,0.017640704691915494
1688.0,0.018118758822051776
1687.0,0.01852577439836706
1686.0,0.018888731904998093
1685.0,0.019473885546360214
1684.0,0.020415616237582125
1683.0,0.021181421921981858
1682.0,0.021600551131007083
1681.0,0.021987941650524596
1680.0,0.022468028078697515
1679.0,0.022949610153531187
1678.0,0.02334039863462736
1677.0,0.023704270457801838
1676.0,0.024193987110422296
1675.0,0.024817510085964882
1674.0,0.025375921769257043
1673.0,0.025798864163886433
1672.0,0.02617993266227269
1671.0,0.02659107966579999
1670.0,0.02707967796794758
1669.0,0.027636175147626934
1668.0,0.028156698119733887
1667.0,0.02855319436519066
1666.0,0.028835739989023564
1665.0,0.02909087452331814
1664.0,0.029415026776037356
1663.0,0.029830262870374644
1662.0,0.030247096421817256
1661.0,0.03059733358762503
1660.0,0.030910518410000178
1659.0,0.031191473274437505
1658.0,0.031416258556666764
1657.0,0.031584504388864704
1656.0,0.03173161163533384
1655.0,0.03186742694292638
1654.0,0.03213767908677579
1653.0,0.03267828853061861
1652.0,0.03302099275081266
1651.0,0.03305738538942906
1650.0,0.03302059529219543
1649.0,0.033008744998652015
1648.0,0.03309393395433886
1647.0,0.03327344640085079
1646.0,0.033382078442830615
1645.0,0.03335418724210493
1644.0,0.033293282467009716
1643.0,0.03323090765233188
1642.0,0.033146280996205334
1641.0,0.03304414206075595
1640.0,0.0329401315172318
1639.0,0.03281655474646815
1638.0,0.03264232591374181
1637.0,0.03243629289360831
1636.0,0.032252170371097524
1635.0,0.03204392960839052
1634.0,0.031766619090594854
1633.0,0.03150417408320502
1632.0,0.03128135002221084
1631.0,0.031045148098117474
1630.0,0.030748876300104595
1629.0,0.030397478710732687
1628.0,0.03003292101478232
1627.0,0.02967351205680544
1626.0,0.029301274151579813
1625.0,0.02889705655328134
1624.0,0.028455784076245952
1623.0,0.02798562967251509
1622.0,0.027515431164633463
1621.0,0.027085121296349848
1620.0,0.026701469903790548
1619.0,0.02631073149424922
1618.0,0.025837832332966187
1617.0,0.025276141366061437
1616.0,0.024723547460615225
1615.0,0.024255479609728042
1614.0,0.023850339897079003
1613.0,0.023453685787982955
1612.0,0.023036304278558812
1611.0,0.02260398242324076
1610.0,0.022171442598692765
1609.0,0.021742610819034332
1608.0,0.021320939959401868
1607.0,0.020915089441905805
1606.0,0.020524220875565262
1605.0,0.020138928988221793
1604.0,0.019759193952689026
1603.0,0.0193899713679172
1602.0,0.019031316548950506
1601.0,0.018680680351303963
1600.0,0.018340128607116653
1599.0,0.01801400111432072
1598.0,0.01769926143776041
1597.0,0.01738878934509795
1596.0,0.017083050368937567
1595.0,0.016793870418028694
1594.0,0.016530049673006805
1593.0,0.01628363764718953
1592.0,0.016042199873716075
1591.0,0.015805924906768052
1590.0,0.015580852770143944
1589.0,0.015362961883094016
1588.0,0.015145317450314864
1587.0,0.014934968279364101
1586.0,0.014747010777672261
1585.0,0.014580422608347594
1584.0,0.014423835464661493
1583.0,0.01427359323168284
1582.0,0.014130631417497048
1581.0,0.013996910863099479
1580.0,0.0138755126799275
1579.0,0.013761388895623734
1578.0,0.013630593307660251
1577.0,0.013468746956598047
1576.0,0.013305106522820118
1575.0,0.013179539357244426
1574.0,0.01310202632807619
1573.0,0.013048482971401973
1572.0,0.012978045280655881
1571.0,0.01287605938394679
1570.0,0.012782361815547143
1569.0,0.012722529151983013
1568.0,0.012674456960948745
1567.0,0.012629847838047353
1566.0,0.012596405609798453
1565.0,0.012572990454898562
1564.0,0.012560791697329932
1563.0,0.012550230732358988
1562.0,0.012535410455431585
1561.0,0.01247396238714103
1560.0,0.012374249662471606
1559.0,0.012359016919335108
1558.0,0.012371183369152126
1557.0,0.012325462420804682
1556.0,0.012303165141745703
1555.0,0.012298459248927203
1554.0,0.012286680837360526
1553.0,0.012270489855227967
1552.0,0.01225149945816792
1551.0,0.012230386686752696
1550.0,0.012217794095303429
1549.0,0.012216023170601928
1548.0,0.012200290810586323
1547.0,0.012160003360104723
1546.0,0.01211067604443956
1545.0,0.012081770524732614
1544.0,0.012067272495377687
1543.0,0.012022878240506813
1542.0,0.01193751724104391
1541.0,0.011868509346692967
1540.0,0.011827324957083434
1539.0,0.01173410864478611
1538.0,0.011623751888349845
1537.0,0.011571499706577395
1536.0,0.011540913849632076
1535.0,0.011476359461374121
1534.0,0.011388436441743347
1533.0,0.01133079691121347
1532.0,0.011290126360130142
1531.0,0.01123286612406182
1530.0,0.011170990835640887
1529.0,0.011119547486868208
1528.0,0.011061603888362718
1527.0,0.010968944399192593
1526.0,0.010866488046945186
1525.0,0.010809000941452764
1524.0,0.01078595893924606
1523.0,0.01072421394248541
1522.0,0.010617342413959018
1521.0,0.010554479631949411
1520.0,0.01054557489237733
1519.0,0.010530875982011238
1518.0,0.010495814181379261
1517.0,0.010470677957485266
1516.0,0.01046015594775744
1515.0,0.010430699567813674
1514.0,0.010386153086358905
1513.0,0.01035031843978286
1512.0,0.010320661552599598
1511.0,0.010281248846852583
1510.0,0.010251662561482223
1509.0,0.010261753077626296
1508.0,0.010301640166603206
1507.0,0.01028463546844595
1506.0,0.010167835702222912
1505.0,0.010069549274327426
1504.0,0.01005374092935395
1503.0,0.010051832745718192
1502.0,0.010032825487981942
1501.0,0.010018899380705229
1500.0,0.010014709988123482
1499.0,0.00998258395331591
1498.0,0.009928663789187865
1497.0,0.009942656076499584
1496.0,0.01002476495460978
1495.0,0.010074581034167392
1494.0,0.010099333320332972
1493.0,0.010166488653304554
1492.0,0.010259678306282069
1491.0,0.01031849842752132
1490.0,0.010382824376235833
1489.0,0.010543064968595557
1488.0,0.010726672009277979
1487.0,0.0108228598692536
1486.0,0.0108864101796441
1485.0,0.011011156743892346
1484.0,0.011189424036568347
1483.0,0.01138084267762563
1482.0,0.011643623569722643
1481.0,0.012084123556938876
1480.0,0.01270368449972847
1479.0,0.013544246494556246
1478.0,0.015001405110093572
1477.0,0.017728441057779532
1476.0,0.022093703673840257
1475.0,0.02787106010464674
1474.0,0.034553341594886856
1473.0,0.04061709866149458
1472.0,0.04339939317326119
1471.0,0.04265333870237953
1470.0,0.04067255076246429
1469.0,0.03881886671618985
1468.0,0.03726899469747434
1467.0,0.03600505768820324
1466.0,0.03518949475443328
1465.0,0.034938601737909705
1464.0,0.03479648166667987
1463.0,0.03404213390961013
1462.0,0.0324073127310848
1461.0,0.030071488894881454
1460.0,0.02739261651155634
1459.0,0.024776393994254155
1458.0,0.022513282300328164
1457.0,0.020754896152245537
1456.0,0.01958094545957168
1455.0,0.018884448710841176
1454.0,0.01839180362193496
1453.0,0.017894446208468247
1452.0,0.017373993685156745
1451.0,0.016930604958000056
1450.0,0.01660401766449452
1449.0,0.016341249576954334
1448.0,0.01611843749093984
1447.0,0.015965563786292894
1446.0,0.015867628419996553
1445.0,0.01577371636715902
1444.0,0.015677428540388644
1443.0,0.015598997397516884
1442.0,0.01553225039975156
1441.0,0.015452464704133358
1440.0,0.015361477352370617
1439.0,0.015270472311523033
1438.0,0.015158940899863069
1437.0,0.015004849405159774
1436.0,0.014854234509394815
1435.0,0.014770258472083873
1434.0,0.014730731398283996
1433.0,0.014666729740089098
1432.0,0.014548492503258105
1431.0,0.014396173374238017
1430.0,0.014229269590678603
1429.0,0.014049013829411244
1428.0,0.013873703905495555
1427.0,0.013731463166149715
1426.0,0.013610313836521209
1425.0,0.013475733373668617
1424.0,0.013339756573347426
1423.0,0.01324003487604744
1422.0,0.013166570729718507
1421.0,0.013068437460208967
1420.0,0.01293128902515325
1419.0,0.01280587054959232
1418.0,0.012717382438076515
1417.0,0.012633005698851226
1416.0,0.012537240954416808
1415.0,0.012435590483412272
1414.0,0.0123216110726465
1413.0,0.01218154673000179
1412.0,0.012019658057978139
1411.0,0.011857923364784716
1410.0,0.011702822403714775
1409.0,0.011541486711807613
1408.0,0.011367477167322785
1407.0,0.01118797260550932
1406.0,0.010999543167257802
1405.0,0.010791263593977312
1404.0,0.010586556239583992
1403.0,0.010422363820675993
1402.0,0.010290433311056344
1401.0,0.01014749970523009
1400.0,0.009977789407959103
1399.0,0.009813276048308643
1398.0,0.009674713916436246
1397.0,0.00954114848688864
1396.0,0.009397213994530279
1395.0,0.00925723717064121
1394.0,0.009126003365713887
1393.0,0.008995717841824015
1392.0,0.00887928723520244
1391.0,0.008787723475362495
1390.0,0.008702199356264257
1389.0,0.008595292148908973
1388.0,0.008478228118389098
1387.0,0.00839906534746925
1386.0,0.008368521797114252
1385.0,0.008350872359264194
1384.0,0.008332363756776798
1383.0,0.008330645941339887
1382.0,0.008354743374476345
1381.0,0.008390506211112697
1380.0,0.008423029246455193
1379.0,0.008447026151777233
1378.0,0.00844841314635337
1377.0,0.008410822320969583
1376.0,0.008343934891601238
1375.0,0.00828292471195853
1374.0,0.008247140142840307
1373.0,0.00822525807832123
1372.0,0.008214821997730671
1371.0,0.008226513373469652
1370.0,0.008244819172967967
1369.0,0.008230590191847603
1368.0,0.008167630747116714
1367.0,0.00807426210751621
1366.0,0.007964054834232447
1365.0,0.007829161460627036
1364.0,0.007668378101255811
1363.0,0.007504331880216977
1362.0,0.007354066820439931
1361.0,0.007211895348029027
1360.0,0.0070824588057711475
1359.0,0.006986122495699732
1358.0,0.0069259726294781925
1357.0,0.006883324297010357
1356.0,0.006846148934995076
1355.0,0.006818696382388915
1354.0,0.006797193005667822
1353.0,0.006763503368830411
1352.0,0.006707099834879443
1351.0,0.0066331638613628206
1350.0,0.006544069862597899
1349.0,0.006437843927939002
1348.0,0.006329707349376386
1347.0,0.006242029047903138
1346.0,0.006171183319689924
1345.0,0.006092457365623534
1344.0,0.0060014007415224325
1343.0,0.005921095981908436
1342.0,0.005863792932302386
1341.0,0.005813120780696726
1340.0,0.0057529963876971485
1339.0,0.005689608194376647
1338.0,0.005629140889339555
1337.0,0.005563928631219456
1336.0,0.0054936474588423104
1335.0,0.005431179576414508
1334.0,0.005382205991902814
1333.0,0.005339786575522839
1332.0,0.005302690299062565
1331.0,0.005280355066111818
1330.0,0.005273151759879285
1329.0,0.005267692405244124
1328.0,0.005257447822547074
1327.0,0.005249545585941186
1326.0,0.005246369840119282
1325.0,0.005240371001694687
1324.0,0.005231880392588161
1323.0,0.005230408380716627
1322.0,0.005235895106039929
1321.0,0.005237902734840037
1320.0,0.005235062888377053
1319.0,0.005235543456159876
1318.0,0.005236227425957739
1317.0,0.005225095451623982
1316.0,0.005206112471606706
1315.0,0.005197429772110624
1314.0,0.005203802673885628
1313.0,0.005211541155242746
1312.0,0.005212604446734399
1311.0,0.005213289391090793
1310.0,0.005215444913232194
1309.0,0.0052111701494483575
1308.0,0.005199388470946998
1307.0,0.005189125091953316
1306.0,0.005181865593112572
1305.0,0.00516851251068323
1304.0,0.005147825815938591
1303.0,0.005128742216592286
1302.0,0.005112488051230317
1301.0,0.005090085311537014
1300.0,0.005059963621067493
1299.0,0.005030759108665406
1298.0,0.005005141393740033
1297.0,0.004977589194284355
1296.0,0.004948610289800762
1295.0,0.004923559138087738
1294.0,0.004897084738747988
1293.0,0.004858245911670405
1292.0,0.004811741331316026
1291.0,0.004775222855253253
1290.0,0.004754319492812803
1289.0,0.0047382521537708815
1288.0,0.004720933839253259
1287.0,0.004706975035469281
1286.0,0.0046955685148019535
1285.0,0.004679196760573951
1284.0,0.004660685943214836
1283.0,0.004651969649299568
1282.0,0.004653582840042209
1281.0,0.004652934471443845
1280.0,0.00464599339085218
1279.0,0.00464387367594595
1278.0,0.004655145047283262
1277.0,0.004677406059790253
1276.0,0.004706538476506457
1275.0,0.004737717728968095
1274.0,0.004758120930793978
1273.0,0.004757850375734805
1272.0,0.004749748511209007
1271.0,0.0047604936892428965
1270.0,0.004799481778195745
1269.0,0.004853612936090495
1268.0,0.004912096386447958
1267.0,0.004974932168154983
1266.0,0.00503795716884425
1265.0,0.005092391709009733
1264.0,0.005141013751595817
1263.0,0.005194127688490251
1262.0,0.0052465698957515645
1261.0,0.005277563988098881
1260.0,0.00527755817945025
1259.0,0.005258212320179489
1258.0,0.005232994382523656
1257.0,0.005206489311661502
1256.0,0.005185050085195521
1255.0,0.00517781567418785
1254.0,0.005182517973813326
1253.0,0.005187553639904564
1252.0,0.005191662376523354
1251.0,0.0052049820895126876
1250.0,0.005229127879353604
1249.0,0.005254613060916357
1248.0,0.00527991387938913
1247.0,0.0053137240069739446
1246.0,0.005355677932688445
1245.0,0.00539473913267402
1244.0,0.005430500549740853
1243.0,0.005476742996371801
1242.0,0.005539023107319543
1241.0,0.00560713423322403
1240.0,0.00567458150479006
1239.0,0.005747463446990965
1238.0,0.005828043556461307
1237.0,0.005905904526007647
1236.0,0.005972895561194262
1235.0,0.0060343306912573474
1234.0,0.006100087976998004
1233.0,0.006175397302384197
1232.0,0.0062630711846957485
1231.0,0.006363176977937184
1230.0,0.006468739092029954
1229.0,0.006573289036521015
1228.0,0.006682158771555416
1227.0,0.006803937323919254
1226.0,0.00693235143521502
1225.0,0.007050634532286935
1224.0,0.007152770710038869
1223.0,0.007245814007769667
1222.0,0.0073328570055747975
1221.0,0.0074099514776134745
1220.0,0.007479401417355716
1219.0,0.007547961625779575
1218.0,0.007608665864330885
1217.0,0.007641980410926107
1216.0,0.00764090948279705
1215.0,0.007620878816017852
1214.0,0.007599823438327111
1213.0,0.007582108069216848
1212.0,0.007567265987152202
1211.0,0.007559217086109259
1210.0,0.00755730726961602
1209.0,0.007549916120569721
1208.0,0.007526659065674103
1207.0,0.007489855270813752
1206.0,0.007447981369491459
1205.0,0.00740517889408638
1204.0,0.007363049695590259
1203.0,0.007325544814937716
1202.0,0.007295721248340969
1201.0,0.007271802975031607
1200.0,0.0072489335796049326
1199.0,0.007220560793899274
1198.0,0.00718024849440377
1197.0,0.007130780017231062
1196.0,0.0070898616325826384
1195.0,0.007075819340329118
1194.0,0.007086584729935164
1193.0,0.007103547007743861
1192.0,0.007117143645349393
1191.0,0.007137493435237749
1190.0,0.007178542813598325
1189.0,0.007243622133494486
1188.0,0.007328558297692151
1187.0,0.007426341090301276
1186.0,0.007525973806588324
1185.0,0.007618571704566339
1184.0,0.007707946619630731
1183.0,0.0078056448074680825
1182.0,0.007914068830994991
1181.0,0.00802470615461629
1180.0,0.00813435156370165
1179.0,0.008250815377485489
1178.0,0.008377793033383174
1177.0,0.00850487059473423
1176.0,0.008618536449091491
1175.0,0.008716106712976106
1174.0,0.008804844424351248
1173.0,0.008893360438918717
1172.0,0.008988412610671181
1171.0,0.009095236195704376
1170.0,0.00921475263128797
1169.0,0.009340611390843242
1168.0,0.009461816765257789
1167.0,0.009570784381986261
1166.0,0.009671257721353941
1165.0,0.009777482395616873
1164.0,0.00990099192562597
1163.0,0.01003754084271519
1162.0,0.010172762217779577
1161.0,0.01030147961437616
1160.0,0.01043351433068488
1159.0,0.010577731837250606
1158.0,0.010729319173507213
1157.0,0.01087794618330688
1156.0,0.011019519288413635
1155.0,0.011153517526222533
1154.0,0.011278156077376707
1153.0,0.011396870214560685
1152.0,0.011522290860154782
1151.0,0.011664072973321615
1150.0,0.011817285705314377
1149.0,0.011970904693937759
1148.0,0.012122092675895764
1147.0,0.012272959170399656
1146.0,0.01241894925627713
1145.0,0.012552484764127611
1144.0,0.012677353640149387
1143.0,0.012809409143125765
1142.0,0.012959307449200187
1141.0,0.013118888443967611
1140.0,0.013266551407796694
1139.0,0.013383766632191187
1138.0,0.013466722788034458
1137.0,0.013524438364758178
1136.0,0.013567774290690674
1135.0,0.01360207868497643
1134.0,0.01363055109234276
1133.0,0.013661241127152914
1132.0,0.013706116818912387
1131.0,0.013772337016626293
1130.0,0.013856239157135727
1129.0,0.013946148930951606
1128.0,0.014028779300740875
1127.0,0.014093655864025223
1126.0,0.01413740777144723
1125.0,0.014168161721525144
1124.0,0.014204889884020699
1123.0,0.014267971515747411
1122.0,0.014364423109629619
1121.0,0.014479878334836209
1120.0,0.014588189681845814
1119.0,0.014673521459577468
1118.0,0.014743427869999728
1117.0,0.014817202634278277
1116.0,0.01490399585428067
1115.0,0.01499878749356294
1114.0,0.015096313149882763
1113.0,0.015197138652434966
1112.0,0.015298785878191647
1111.0,0.015394651955402478
1110.0,0.015487088801235685
1109.0,0.015588272585470134
1108.0,0.01569984356015342
1107.0,0.01580454585784305
1106.0,0.01588958330737141
1105.0,0.01596597931337338
1104.0,0.016050177324701216
1103.0,0.016135302190459302
1102.0,0.01619503859242785
1101.0,0.01621255812513917
1100.0,0.01619407233073576
1099.0,0.016159578801022065
1098.0,0.016130991121229645
1097.0,0.016123266114261778
1096.0,0.016136232444749456
1095.0,0.016154918665467352
1094.0,0.01616418511622445
1093.0,0.01616149042661229
1092.0,0.016152808540013712
1091.0,0.0161428952301773
1090.0,0.016133595637170643
1089.0,0.0161233688081194
1088.0,0.01610337568185407
1087.0,0.01606296794796257
1086.0,0.016005480457819875
1085.0,0.015948722047367022
1084.0,0.01590151653836379
1083.0,0.015848429776557094
1082.0,0.01576651521377897
1081.0,0.015649936808800828
1080.0,0.015509379803189772
1079.0,0.015353684867125114
1078.0,0.015179849915787729
1077.0,0.01497701179239095
1076.0,0.014736986186043601
1075.0,0.01446663398006624
1074.0,0.014190508982754282
1073.0,0.013931780122360314
1072.0,0.013688830997500446
1071.0,0.013440748883103315
1070.0,0.013178729027543398
1069.0,0.012920799033888902
1068.0,0.01268988152065478
1067.0,0.012487745451136352
1066.0,0.012298490981297237
1065.0,0.012110131967733199
1064.0,0.011922948864831369
1063.0,0.011741045810206727
1062.0,0.011565958350788337
1061.0,0.011397804850715381
1060.0,0.011235628291256596
1059.0,0.01107713626630287
1058.0,0.010923646290855626
1057.0,0.010783381547397497
1056.0,0.010662924854362037
1055.0,0.010555856574045994
1054.0,0.010446847749856804
1053.0,0.010328035505330877
1052.0,0.010204770050411392
1051.0,0.010084759299650543
1050.0,0.009971533345675632
1049.0,0.009870740683611982
1048.0,0.009789462271246597
1047.0,0.00972353541404836
1046.0,0.009657959610852095
1045.0,0.009586313241641407
1044.0,0.00951937939148613
1043.0,0.009467685546143342
1042.0,0.009423664992412754
1041.0,0.009369886551916506
1040.0,0.009299542563637339
1039.0,0.009218875109131611
1038.0,0.009132599917895438
1037.0,0.009037835029448486
1036.0,0.008933994457605187
1035.0,0.008830744908782905
1034.0,0.00874149930192658
1033.0,0.008670819738589464
1032.0,0.008609346435355339
1031.0,0.008540484537713125
1030.0,0.008454428334209493
1029.0,0.00835786541602103
1028.0,0.008267067139686706
1027.0,0.008189454257500891
1026.0,0.008116287370652946
1025.0,0.008036452559558396
1024.0,0.007950665249570856
1023.0,0.007865517749238923
1022.0,0.007779654523175045
1021.0,0.0076860113568980384
1020.0,0.007585302230130545
1019.0,0.0074862085458486105
1018.0,0.007391001736992319
1017.0,0.007291047220942643
1016.0,0.00718053648470888
1015.0,0.0070665403893963325
1014.0,0.006960218823092265
1013.0,0.006863658093145885
1012.0,0.006770629880193899
1011.0,0.006676760639730082
1010.0,0.006584124480204821
1009.0,0.006497049799182001
1008.0,0.006416359796692056
1007.0,0.006338323433290431
1006.0,0.006259703600113882
1005.0,0.006183570053399909
1004.0,0.0061160611233537585
1003.0,0.006054438312289124
1002.0,0.005984086747326598
1001.0,0.005895299885274461
1000.0,0.005799952054844959
999.0,0.005722193072684666
998.0,0.005672369218159799
997.0,0.005638621117826478
996.0,0.005605811716384185
995.0,0.005574186021841012
994.0,0.005555819718054489
993.0,0.005558518793320316
992.0,0.005576123113612112
991.0,0.005589358627859411
990.0,0.005573072934954029
989.0,0.005507817435101448
988.0,0.005390167363400431
987.0,0.005233645408821616
986.0,0.00506019565841399
985.0,0.004890305934240433
984.0,0.004737546691098897
983.0,0.004606504926655822
982.0,0.004493511258366318
981.0,0.004391074502769078
980.0,0.004291603088282471
979.0,0.004187121750768373
978.0,0.004072242821388187
977.0,0.0039536457629441284
976.0,0.003850795270344577
975.0,0.0037772125364167013
974.0,0.0037232095611880976
973.0,0.0036662853298576274
972.0,0.0035954682976468266
971.0,0.0035153039085132447
970.0,0.0034302766704006754
969.0,0.00333946626709228
968.0,0.003246094861076774
967.0,0.003157582263936143
966.0,0.003073196496846382
965.0,0.0029850574420149222
964.0,0.0028951759345860646
963.0,0.0028176380425829293
962.0,0.0027582863165907766
961.0,0.0027060011716237044
960.0,0.0026511822126905286
959.0,0.002599103586860477
958.0,0.002555836309116882
957.0,0.0025134343972655054
956.0,0.0024608464153398797
955.0,0.0024012112281702417
954.0,0.002347436740496667
953.0,0.00230633357423541
952.0,0.0022756413164903722
951.0,0.002250600820686408
950.0,0.0022248599624704983
949.0,0.002191307576665703
948.0,0.0021514532914642774
947.0,0.0021186020529378926
946.0,0.0021023416259071132
945.0,0.0020942040599376526
944.0,0.0020776265245053983
943.0,0.002048843549400081
942.0,0.0020194203626873984
941.0,0.0020000762265862844
940.0,0.0019902892995461545
939.0,0.001983563256091085
938.0,0.001975994978973739
937.0,0.0019683966595470115
936.0,0.001964221678685504
935.0,0.001966508247745571
934.0,0.0019745399411723683
933.0,0.0019835943202853243
932.0,0.001989386085580521
931.0,0.0019915226226251744
930.0,0.0019915783950675264
929.0,0.0019899719262178508
928.0,0.001986452519517932
927.0,0.0019821732584177926
926.0,0.00197982287490377
925.0,0.0019821306753847294
924.0,0.001989685821706803
923.0,0.0019982630772594386
922.0,0.0019992052516834592
921.0,0.0019861556493469597
920.0,0.001962724112571224
919.0,0.001942644225803829
918.0,0.0019421307530569486
917.0,0.001969790978831735
916.0,0.002017766541600116
915.0,0.0020600372192782837
914.0,0.0020681225693914406
913.0,0.0020381799406441713
912.0,0.0019992870576020453
911.0,0.0019865320965517137
910.0,0.002006996929385647
909.0,0.0020389715038243855
908.0,0.002060292509957498
907.0,0.0020657516275713883
906.0,0.002059158638977354
905.0,0.002043019305498989
904.0,0.0020204864978487468
903.0,0.0019972230321871325
902.0,0.0019760885740790143
901.0,0.0019570792459097305
900.0,0.0019448915092933235
899.0,0.0019478303227629928
898.0,0.0019647378124571964
897.0,0.0019807070663266715
896.0,0.001981195851424967
895.0,0.001965464333015036
894.0,0.001944332275285213
893.0,0.0019314327016658993
892.0,0.0019387020757506614
891.0,0.0019712538125349656
890.0,0.002020083923884591
889.0,0.002065166040112922
888.0,0.0020916041336838404
887.0,0.0021014785168931988
886.0,0.0021101693222851953
885.0,0.0021363646181592234
884.0,0.0021957887203669525
883.0,0.002295562065166146
882.0,0.002428910837707054
881.0,0.0025801548552923
880.0,0.0027371006537152583
879.0,0.002892667830597443
878.0,0.0030351445832193895
877.0,0.003148626607365283
876.0,0.003227832315104189
875.0,0.003281512269442406
874.0,0.0033116627689353043
873.0,0.003297373589323093
872.0,0.003213448990765885
871.0,0.0030647736860067287
870.0,0.0028901960555519565
869.0,0.0027292169963492666
868.0,0.0025950843232255116
867.0,0.002483436298220716
866.0,0.0023947943608679887
865.0,0.0023384336730300024
864.0,0.0023179212041985527
863.0,0.0023219263300477636
862.0,0.0023321970125897602
861.0,0.0023377166791361467
860.0,0.002338698342143959
859.0,0.00233934218578798
858.0,0.0023416119372093955
857.0,0.002345931851072137
856.0,0.0023523388617441993
855.0,0.0023572507551213977
854.0,0.002352864418855816
853.0,0.002336365395938289
852.0,0.0023190620166799077
851.0,0.0023186637777476912
850.0,0.0023388400518497103
849.0,0.0023618654859685843
848.0,0.002367001339907691
847.0,0.00235321639554476
846.0,0.002338492975568044
845.0,0.002339142891653788
844.0,0.0023568954964347
843.0,0.002385556670064959
842.0,0.0024211606248479567
841.0,0.0024608687247436693
840.0,0.002497340983817929
839.0,0.0025216338711902386
838.0,0.00253247204870294
837.0,0.002539669329358672
836.0,0.0025576528419563906
835.0,0.0025952262668586627
834.0,0.002647681027613657
833.0,0.0026962236660371466
832.0,0.0027195049837942242
831.0,0.002712494015610783
830.0,0.0026942805585900512
829.0,0.0026913389201451074
828.0,0.002712240361671234
827.0,0.002744564545074525
826.0,0.002777211513085914
825.0,0.0028173377824921245
824.0,0.0028801240486705845
823.0,0.0029677034634084786
822.0,0.003063842753103863
821.0,0.0031468321880726794
820.0,0.0032052977420295933
819.0,0.0032459274573060394
818.0,0.0032873973729442407
817.0,0.003341188151852874
816.0,0.0033971641113770736
815.0,0.0034335562012009734
814.0,0.003443477255784432
813.0,0.00344638038942963
812.0,0.003470685494563811
811.0,0.0035289048818929573
810.0,0.003609385323412543
809.0,0.003687221381365662
808.0,0.003742859313622001
807.0,0.003776389419342833
806.0,0.003805900111084906
805.0,0.003846928310550786
804.0,0.0038946365018207134
803.0,0.003932940636608907
802.0,0.003959514217089139
801.0,0.003991853031604781
800.0,0.004045660735822236
799.0,0.004114411057873316
798.0,0.004173855683590733
797.0,0.004203734500961197
796.0,0.004206230287275948
795.0,0.00420827762080337
794.0,0.004240986832361581
793.0,0.004307083919910824
792.0,0.004372888788957138
791.0,0.004403853960662171
790.0,0.004405182551750819
789.0,0.004414413844034973
788.0,0.004456614288941035
787.0,0.00452247633957388
786.0,0.004588433745024528
785.0,0.004639668700638651
784.0,0.0046706578463829584
783.0,0.004681792417941578
782.0,0.004684659170940832
781.0,0.004698200586086106
780.0,0.0047323567899452655
779.0,0.004783374619254339
778.0,0.004844618201538937
777.0,0.004909394509767389
776.0,0.00496441187119186
775.0,0.004998567213986262
774.0,0.00502159385410373
773.0,0.005055898250072941
772.0,0.005105208978917038
771.0,0.005149408158990187
770.0,0.005176551159708585
769.0,0.005200885669033588
768.0,0.005238728000197333
767.0,0.005282996452745232
766.0,0.005313118103965998
765.0,0.005318290284575079
764.0,0.0053035700941267
763.0,0.005286128135421963
762.0,0.0052916743289253
761.0,0.005339194032862447
760.0,0.005419760585922771
759.0,0.005500415004459892
758.0,0.005554653016904068
757.0,0.005580185892605855
756.0,0.005587059212165867
755.0,0.005585321968862581
754.0,0.0055884530389311605
753.0,0.005610406548822864
752.0,0.005651475187395581
751.0,0.005700424786379919
750.0,0.0057523128240076354
749.0,0.005808165128848349
748.0,0.005856738495220247
747.0,0.005878413826162877
746.0,0.005874308282213199
745.0,0.005871168734991775
744.0,0.005887530359804518
743.0,0.005911206979478584
742.0,0.00592011699469722
741.0,0.005915702829734186
740.0,0.005930336888018847
739.0,0.006006516996167315
738.0,0.006162882697150623
737.0,0.00638055159174844
736.0,0.006660125760123384
735.0,0.0071228622801363835
734.0,0.00800511309808857
733.0,0.009447505190314356
732.0,0.011236635889711702
731.0,0.012804122459427553
730.0,0.013592839609312637
729.0,0.013487334986200868
728.0,0.012862432651631228
727.0,0.012243557203023721
726.0,0.011979870411196906
725.0,0.01217747686097637
724.0,0.012827838449327948
723.0,0.013955717009490973
722.0,0.01564109106267761
721.0,0.017875455329147465
720.0,0.020387713627095558
719.0,0.022702943494861662
718.0,0.024413969816588763
717.0,0.02526007414150349
716.0,0.024996413374355306
715.0,0.02349459701062484
714.0,0.021038098798726465
713.0,0.01827448481691204
712.0,0.01579142699810372
711.0,0.013839860574927445
710.0,0.012398681862436582
709.0,0.011352279063079378
708.0,0.010581768829981186
707.0,0.009980338578910272
706.0,0.009474456878077457
705.0,0.00903929226419586
704.0,0.008669191022121145
703.0,0.008348749572586744
702.0,0.008069499168072258
701.0,0.007843426472104509
700.0,0.007670385893217863
699.0,0.007515835638737374
698.0,0.007350299400212416
697.0,0.007186575041697476
696.0,0.007046927511151952
695.0,0.006920866049581236
694.0,0.006789028481257679
693.0,0.006664565484608462
692.0,0.006572514635849146
691.0,0.0065030940328423235
690.0,0.006424029139559091
689.0,0.006330495172945521
688.0,0.0062495271043431395
687.0,0.006200164371893059
686.0,0.006175373525617759
685.0,0.00615331560371811
684.0,0.006104744618520171
683.0,0.006010466288028777
682.0,0.005893030058431635
681.0,0.005804237590588939
680.0,0.00575883417515877
679.0,0.0057090545068310475
678.0,0.005611873691134597
677.0,0.005491087433557418
676.0,0.005398726175614644
675.0,0.005351202108822246
674.0,0.005329755517822405
673.0,0.0053114082616691274
672.0,0.005269147294732695
671.0,0.005167323574760033
670.0,0.004984426517719746
669.0,0.0047528656827130165
668.0,0.004619128863714829
667.0,0.004670090061124715
666.0,0.0047692734738218785
665.0,0.004819758923798944
664.0,0.004852008955548395
663.0,0.004870877334008147
662.0,0.004855676170603462
661.0,0.004808364137959858
660.0,0.004759111224982127
659.0,0.004716696697722844
658.0,0.004671695195515583
657.0,0.004625908157232853
656.0,0.0045799600044820615
655.0,0.0045156494975417925
654.0,0.004426050966401661
653.0,0.004335050454784859
652.0,0.004255873849499211
651.0,0.00416265432646221
650.0,0.004039131251300336
649.0,0.00392466294884275
648.0,0.0038682249751451313
647.0,0.003861894818916689
646.0,0.0038664445977583395
645.0,0.0038740030078965627
644.0,0.0038963539731617543
643.0,0.0039171872872174225
642.0,0.003905344344314561
641.0,0.003862501792993897
640.0,0.0038129332608875244
639.0,0.0037562102017227456
638.0,0.0036724047574474943
637.0,0.0035670404233861946
636.0,0.0034750733711911112
635.0,0.003424104509595925
634.0,0.0034179909063933103
633.0,0.0034497161425374907
632.0,0.003504663166975952
631.0,0.003554724964521007
630.0,0.003574905767923728
629.0,0.0035663831381823607
628.0,0.003548623764727494
627.0,0.003538105654323692
626.0,0.0035433853809777073
625.0,0.0035578663246958603
624.0,0.003549121273660711
623.0,0.0034867437661204245
622.0,0.0033935883206530383
621.0,0.0033337993816863476
620.0,0.0033336356368424587
619.0,0.0033508750718002217
618.0,0.00333869772716228
617.0,0.0032984695553738355
616.0,0.003242501543121213
615.0,0.0031577748650651154
614.0,0.0030415390414950186
613.0,0.0029201896758910065
612.0,0.002804491915281749
611.0,0.002671153124701689
610.0,0.002514659557668466
609.0,0.0023721868380048583
608.0,0.002271430377587917
607.0,0.002200318776706324
606.0,0.0021520802079964263
605.0,0.0021433805331508154
604.0,0.0021545462151404994
603.0,0.002122237120312259
602.0,0.002036583373031
601.0,0.0019739658605075518
600.0,0.0019817435463699955
