cm-1,A
4000.0,0.001044368334332177
3999.0,0.0010662593447219766
3998.0,0.001073421854841843
3997.0,0.0010668057333599913
3996.0,0.0010415381395256808
3995.0,0.0010066582427304734
3994.0,0.0009829506547483786
3993.0,0.0009790478399957121
3992.0,0.000981740362785843
3991.0,0.0009806665215895145
3990.0,0.0009859526403801985
3989.0,0.0010085422489333924
3988.0,0.00103709405147538
3987.0,0.001049556148335462
3986.0,0.0010478559399651963
3985.0,0.0010593648596151813
3984.0,0.0010980808268426737
3983.0,0.0011422629864248773
3982.0,0.001154046033817956
3981.0,0.001118464341906997
3980.0,0.00105592560723642
3979.0,0.000998337452815988
3978.0,0.0009715345477468093
3977.0,0.0009966194496056867
3976.0,0.001090781785182883
3975.0,0.001240077198104799
3974.0,0.0013839796686713705
3973.0,0.0014496158190941567
3972.0,0.0014085425372979063
3971.0,0.0013012407263704277
3970.0,0.0011981478169412994
3969.0,0.0011488901023063193
3968.0,0.0011491191888984738
3967.0,0.0011647230645756776
3966.0,0.0011736902001021135
3965.0,0.001175564270941976
3964.0,0.001181107287789739
3963.0,0.0011943619875758784
3962.0,0.0012169863079464337
3961.0,0.0012514920398540956
3960.0,0.0012848822055629185
3959.0,0.0012986592591306637
3958.0,0.0012877186824947137
3957.0,0.0012760960783062651
3956.0,0.0012886474612684527
3955.0,0.001321916246631534
3954.0,0.0013645524636502482
3953.0,0.0014196440073732369
3952.0,0.0014992381163403193
3951.0,0.0015991381573350703
3950.0,0.001689603893391978
3949.0,0.0017350157031623837
3948.0,0.0017335947695930123
3947.0,0.0017322684837416842
3946.0,0.0017767384586214498
3945.0,0.0018227268320378971
3944.0,0.0017725768692669914
3943.0,0.0016214966938703067
3942.0,0.0014732660864967446
3941.0,0.0014087808925893463
3940.0,0.0013897922551357432
3939.0,0.0013330635994007588
3938.0,0.0012321377122354454
3937.0,0.0011817506517447438
3936.0,0.00125955751964172
3935.0,0.0014183326490850492
3934.0,0.0015521860845772346
3933.0,0.0016238386677442668
3932.0,0.0016860233917971625
3931.0,0.001762589000709457
3930.0,0.0018163040485085803
3929.0,0.0018446979154334124
3928.0,0.0018791510835306138
3927.0,0.0018912896757823806
3926.0,0.0017806837308183832
3925.0,0.0015683822302035282
3924.0,0.0014505541677098024
3923.0,0.0015483755545058209
3922.0,0.0017596982705713297
3921.0,0.0018941850313985622
3920.0,0.0018938926783455354
3919.0,0.0018436796672181514
3918.0,0.0017880697713957526
3917.0,0.001700770384940542
3916.0,0.0015852804498909887
3915.0,0.001500565655209913
3914.0,0.0014618035512950246
3913.0,0.001429574166595865
3912.0,0.001376385982959978
3911.0,0.0013319949651321803
3910.0,0.001307066957918131
3909.0,0.0013122301522853902
3908.0,0.0013769286531528473
3907.0,0.0015172515200145686
3906.0,0.0016766817624623183
3905.0,0.0017859471557478811
3904.0,0.0018994420170069456
3903.0,0.0021121942507320943
3902.0,0.002371864969966539
3901.0,0.002477574624931497
3900.0,0.0023132651464827236
3899.0,0.002014538242168032
3898.0,0.0017970395217171836
3897.0,0.0017196234248458009
3896.0,0.0017004718277029134
3895.0,0.0017004587815420465
3894.0,0.0017201878869935443
3893.0,0.0016982507158425624
3892.0,0.001531366555643546
3891.0,0.0012934610597085134
3890.0,0.0012207280637528961
3889.0,0.0014853092550151693
3888.0,0.0018676685679543791
3887.0,0.0018689294789462421
3886.0,0.001456764572489935
3885.0,0.0012445654246676756
3884.0,0.0015971592183887176
3883.0,0.0022243244462180414
3882.0,0.002549052969565131
3881.0,0.0023178499051037856
3880.0,0.0018681706464880928
3879.0,0.0016193209360784843
3878.0,0.0016607129477858099
3877.0,0.0018124767334692683
3876.0,0.0017605396337327332
3875.0,0.001442566975363456
3874.0,0.0012762824450388774
3873.0,0.0016361095970096
3872.0,0.0022447618166064835
3871.0,0.0023985385069715155
3870.0,0.0019393699219247464
3869.0,0.001532001240973883
3868.0,0.001661117824208658
3867.0,0.0020649019563666014
3866.0,0.0021708474549435065
3865.0,0.0019384870410298367
3864.0,0.0018702324558387447
3863.0,0.002094695048114905
3862.0,0.002204237198184647
3861.0,0.0019906785950715173
3860.0,0.0015758494457256394
3859.0,0.0011666104472825931
3858.0,0.0009127341943061008
3857.0,0.0009359687444161491
3856.0,0.0011736320734828751
3855.0,0.0011494803505146638
3854.0,0.0007391222413193812
3853.0,0.0006716614278500684
3852.0,0.0011095590244958268
3851.0,0.0016071942566513887
3850.0,0.001865489102976606
3849.0,0.0018452276176770446
3848.0,0.0017465150127775556
3847.0,0.0017542406609134288
3846.0,0.0018335743444713795
3845.0,0.0018683825758312456
3844.0,0.001812858117039188
3843.0,0.0017513677509662599
3842.0,0.001807470281376209
3841.0,0.0019795323249575617
3840.0,0.0020973591296987414
3839.0,0.0020737784203777292
3838.0,0.001981289106360626
3837.0,0.0019146398646985013
3836.0,0.0019044034726204105
3835.0,0.0019500772061846992
3834.0,0.0019987466384401645
3833.0,0.0019529170123484315
3832.0,0.0018019060849658493
3831.0,0.0016814904510827795
3830.0,0.0017271827021900568
3829.0,0.0019250827476959102
3828.0,0.002059486173721526
3827.0,0.0019397977491337343
3826.0,0.0017055724735041255
3825.0,0.0017298342079215701
3824.0,0.0021284789817142408
3823.0,0.0024612553396894023
3822.0,0.002202280748347527
3821.0,0.0016674382600938183
3820.0,0.0015165276634225167
3819.0,0.0018486674690831682
3818.0,0.0022386940320144703
3817.0,0.002114494595472664
3816.0,0.001579567518382478
3815.0,0.0013189246056636138
3814.0,0.0015146275486525706
3813.0,0.0017346103875058583
3812.0,0.0016611297710523252
3811.0,0.0014615096447031378
3810.0,0.001504906882291445
3809.0,0.0017513085496067872
3808.0,0.0017327156937498728
3807.0,0.001341717249738767
3806.0,0.0010821677930493764
3805.0,0.0013584988042621635
3804.0,0.0019380493665786553
3803.0,0.0021320470074812827
3802.0,0.0017352916617722688
3801.0,0.0014757135339136078
3800.0,0.0018124355381771238
3799.0,0.0023822923854214424
3798.0,0.0026417306806218056
3797.0,0.0024005121646976484
3796.0,0.0020011493297994714
3795.0,0.0018287996655470314
3794.0,0.0018573311331248933
3793.0,0.0018382859801622433
3792.0,0.0016867844545063442
3791.0,0.0015346861224388008
3790.0,0.001510999802217491
3789.0,0.0016021796346619918
3788.0,0.001726184136393456
3787.0,0.0018159698773042438
3786.0,0.0018145990146418312
3785.0,0.0017139559109384736
3784.0,0.0016176758685310776
3783.0,0.001660782839664492
3782.0,0.0018302419852139987
3781.0,0.001955498365105326
3780.0,0.00194294725330473
3779.0,0.0019258600813746203
3778.0,0.002010080638875167
3777.0,0.002099562917738206
3776.0,0.002015958292493106
3775.0,0.0017423284610294434
3774.0,0.0015240181222583391
3773.0,0.0015825076719286572
3772.0,0.001776379013228021
3771.0,0.0017894878409195313
3770.0,0.0016471703242285848
3769.0,0.0016838736381220559
3768.0,0.0019912994954143573
3767.0,0.0022736717499173657
3766.0,0.0022403793167871076
3765.0,0.0020007417301748168
3764.0,0.001913388701235948
3763.0,0.002106364485043862
3762.0,0.002314085854886301
3761.0,0.0022626656256309347
3760.0,0.0020807492976112705
3759.0,0.0020563202946455427
3758.0,0.0021400152183967593
3757.0,0.0021362653269068697
3756.0,0.002072533241560934
3755.0,0.002033353093426428
3754.0,0.001926732940342707
3753.0,0.001639258910143139
3752.0,0.0013765946147557395
3751.0,0.001411301300523183
3750.0,0.0015190382017183646
3749.0,0.0014758341226580162
3748.0,0.0016016960636942544
3747.0,0.002120864133826946
3746.0,0.0024633761195825745
3745.0,0.002040327240813768
3744.0,0.001474406096377558
3743.0,0.001541199362035412
3742.0,0.0020209335202610954
3741.0,0.0023500172965978325
3740.0,0.0023649131845614613
3739.0,0.002387607469104087
3738.0,0.0026136741588277234
3737.0,0.0028066609051857067
3736.0,0.0028554024559701244
3735.0,0.0029750876991308725
3734.0,0.0031545174462862084
3733.0,0.00308291282601029
3732.0,0.0027124879760325703
3731.0,0.002362771874636835
3730.0,0.00230389791608665
3729.0,0.0024526168651303835
3728.0,0.0025091951738424913
3727.0,0.0024020367394790836
3726.0,0.00242379348117981
3725.0,0.002727070196583369
3724.0,0.003061814598337237
3723.0,0.0031579415785736795
3722.0,0.003058162887729112
3721.0,0.002975949873187809
3720.0,0.0030016474565684806
3719.0,0.0030530812380301017
3718.0,0.0030053451582523084
3717.0,0.002887546641319948
3716.0,0.0028509614023237845
3715.0,0.002935528709712646
3714.0,0.003020801602345956
3713.0,0.003028281782113288
3712.0,0.0030973234777859383
3711.0,0.003323766325884145
3710.0,0.0035367619654618557
3709.0,0.0036098715996651827
3708.0,0.0035651191154441614
3707.0,0.0034824304677209886
3706.0,0.0034690670167750806
3705.0,0.003596603723518596
3704.0,0.0038128205270944477
3703.0,0.00396613950060537
3702.0,0.003971004583071487
3701.0,0.0039031596225871917
3700.0,0.00391406045336801
3699.0,0.004049763664484991
3698.0,0.004172800081478545
3697.0,0.004168842615788586
3696.0,0.0041570618814155275
3695.0,0.00429383433500293
3694.0,0.004521115958090079
3693.0,0.004683863330137452
3692.0,0.004768529338430539
3691.0,0.004900815679215688
3690.0,0.005104884824746874
3689.0,0.005231342871589068
3688.0,0.005197570329141914
3687.0,0.00516334040351408
3686.0,0.005271469462469702
3685.0,0.005438048107301131
3684.0,0.005565224969126011
3683.0,0.005727072202705756
3682.0,0.0059705308704712315
3681.0,0.006116724738813138
3680.0,0.00605015630260552
3679.0,0.006010076698600698
3678.0,0.00625552928695329
3677.0,0.006510419844347774
3676.0,0.006492147664171912
3675.0,0.006507257609676015
3674.0,0.00680818739236368
3673.0,0.007364445631542215
3672.0,0.007841162721126057
3671.0,0.007875070622428504
3670.0,0.007815301381991283
3669.0,0.008141118369343983
3668.0,0.008612359117081237
3667.0,0.008881105938263446
3666.0,0.00890542286590705
3665.0,0.008830336833464961
3664.0,0.008837818390139219
3663.0,0.008989479439766697
3662.0,0.009208617862847632
3661.0,0.009421639786364445
3660.0,0.009671098205918167
3659.0,0.009997763051242118
3658.0,0.010308056798415278
3657.0,0.010464879938889629
3656.0,0.010557223365739436
3655.0,0.010787520678651626
3654.0,0.011214319724754201
3653.0,0.011680725999572483
3652.0,0.01191848679506342
3651.0,0.012009414507627169
3650.0,0.012591176683154497
3649.0,0.013826454214943662
3648.0,0.014882796739748218
3647.0,0.0152905927584705
3646.0,0.015349027235382041
3645.0,0.015378025921529977
3644.0,0.015428786600661267
3643.0,0.015453754179970317
3642.0,0.015501875747708959
3641.0,0.015676536701779653
3640.0,0.015960804702382696
3639.0,0.0162354254651323
3638.0,0.016486839311089855
3637.0,0.016812142009637952
3636.0,0.017209379480315673
3635.0,0.017505378935423244
3634.0,0.01763135626560356
3633.0,0.017780789201928267
3632.0,0.01817413518791179
3631.0,0.018728287712291906
3630.0,0.019206585009351674
3629.0,0.019800515021020596
3628.0,0.020605005890015002
3627.0,0.021222102222693176
3626.0,0.021489215540199013
3625.0,0.021495128618066725
3624.0,0.021436678857581073
3623.0,0.021572141143257718
3622.0,0.021990206621297144
3621.0,0.022561943792369896
3620.0,0.02317452630546889
3619.0,0.023833555960954718
3618.0,0.02447140006658228
3617.0,0.024998198402400362
3616.0,0.025407630516298352
3615.0,0.02568801479736519
3614.0,0.025858110989970574
3613.0,0.026017953559473894
3612.0,0.026237016317039098
3611.0,0.02648763507227689
3610.0,0.026729583751826096
3609.0,0.027006261132964178
3608.0,0.02740362795420919
3607.0,0.027865891620372292
3606.0,0.028237516735302455
3605.0,0.02848314248293185
3604.0,0.02868639110049504
3603.0,0.028936549438305932
3602.0,0.029271613640387564
3601.0,0.02968092838303736
3600.0,0.030154394685196123
3599.0,0.030651077037300238
3598.0,0.03111079035645293
3597.0,0.03151500003698713
3596.0,0.03190135382756496
3595.0,0.03228611204874907
3594.0,0.03264316514267227
3593.0,0.03293396493746404
3592.0,0.03317033585440175
3591.0,0.033409036833266896
3590.0,0.03368013771451491
3589.0,0.034035838116772354
3588.0,0.034629690395534374
3587.0,0.03544571924445472
3586.0,0.03614000250763651
3585.0,0.036485821018686394
3584.0,0.03656359722644782
3583.0,0.0365521136681208
3582.0,0.03660420438281906
3581.0,0.03679278816428148
3580.0,0.03710826659445902
3579.0,0.037491496513048825
3578.0,0.037890482882139497
3577.0,0.0382880251391809
3576.0,0.03868294646093431
3575.0,0.039060695130666886
3574.0,0.03939642884137996
3573.0,0.0396828026655544
3572.0,0.039947151481056764
3571.0,0.04025255288478884
3570.0,0.04064727669446996
3569.0,0.041143718000256964
3568.0,0.04180519439627484
3567.0,0.042657912030369685
3566.0,0.043467881979037865
3565.0,0.04396930056204016
3564.0,0.044173989711751675
3563.0,0.04424923054823937
3562.0,0.044350919380384185
3561.0,0.044575115557910085
3560.0,0.044919755236957
3559.0,0.04530417316258861
3558.0,0.0456523309989334
3557.0,0.04595100628204279
3556.0,0.046233649000786706
3555.0,0.046537752094854196
3554.0,0.0468827519637894
3553.0,0.04728037100770808
3552.0,0.04771397523693522
3551.0,0.04812638412200458
3550.0,0.04847537880315013
3549.0,0.04878944106197486
3548.0,0.04917044165088163
3547.0,0.0497219816824371
3546.0,0.05040997852891535
3545.0,0.051039484368462784
3544.0,0.051448310510227496
3543.0,0.051663831591954
3542.0,0.051828074806626684
3541.0,0.05205448430403885
3540.0,0.052367947705633605
3539.0,0.052731321843044646
3538.0,0.053110160716103444
3537.0,0.05350595165477702
3536.0,0.053927091861402106
3535.0,0.05434137239552195
3534.0,0.05470724614235175
3533.0,0.055031707566549834
3532.0,0.055373162753685416
3531.0,0.05577836516336016
3530.0,0.056237729293065336
3529.0,0.056713945084416725
3528.0,0.057190473455151714
3527.0,0.057667540659729885
3526.0,0.058125372496195135
3525.0,0.058540382554019235
3524.0,0.05892305086387867
3523.0,0.05929553766513919
3522.0,0.05964757900721561
3521.0,0.05996392146481086
3520.0,0.060275304248374795
3519.0,0.0606362416797933
3518.0,0.061058849025856135
3517.0,0.061489499780386994
3516.0,0.06186379228201351
3515.0,0.062167457222028696
3514.0,0.06244399615249481
3513.0,0.06274967367491151
3512.0,0.06311938355983117
3511.0,0.0635671861995061
3510.0,0.06408424790761982
3509.0,0.06461492486490489
3508.0,0.06506649933454993
3507.0,0.06538309606229986
3506.0,0.06560685976844076
3505.0,0.06586942720156641
3504.0,0.06631351838970584
3503.0,0.06694951944512548
3502.0,0.06760267017333589
3501.0,0.0680852318668682
3500.0,0.06837270382173018
3499.0,0.06858057100728181
3498.0,0.06884086733357475
3497.0,0.06921615090370441
3496.0,0.06968842988101948
3495.0,0.07018656749697175
3494.0,0.0706261610669487
3493.0,0.07095959994380963
3492.0,0.07120483937512344
3491.0,0.0714340476585778
3490.0,0.07173531798552316
3489.0,0.07216223138744764
3488.0,0.07269705733910027
3487.0,0.07325810867673567
3486.0,0.0737581871031987
3485.0,0.07417347852839905
3484.0,0.07455393103143157
3483.0,0.07495562681071984
3482.0,0.0753738382046026
3481.0,0.07575962025048452
3480.0,0.0760944027649947
3479.0,0.07641414308509424
3478.0,0.07675278020109685
3477.0,0.07710056314537024
3476.0,0.07743768083883477
3475.0,0.0777797683471575
3474.0,0.07815829427772558
3473.0,0.07856873838862818
3472.0,0.07896312420025846
3471.0,0.07929822273901481
3470.0,0.0795846826551701
3469.0,0.07988500236704126
3468.0,0.0802615997053529
3467.0,0.08072393359229069
3466.0,0.08121942466050104
3465.0,0.08167647253401222
3464.0,0.08206482877198921
3463.0,0.08241456673524648
3462.0,0.08277212057505774
3461.0,0.0831445301401575
3460.0,0.08349929928972594
3459.0,0.08381323404428671
3458.0,0.08410239241431529
3457.0,0.0843957511541067
3456.0,0.08470074476513735
3455.0,0.0850068952182172
3454.0,0.08530687621658847
3453.0,0.0855957402845088
3452.0,0.08586598084171475
3451.0,0.08612036567733829
3450.0,0.08639032638373069
3449.0,0.08672896185320363
3448.0,0.08716635482959513
3447.0,0.08765343879792688
3446.0,0.08807538507758518
3445.0,0.08837006142785149
3444.0,0.08860838205865906
3443.0,0.08892395745067272
3442.0,0.08936557925308845
3441.0,0.08983503258205829
3440.0,0.09019836588846228
3439.0,0.0904297898886808
3438.0,0.09060641799247593
3437.0,0.09079786011824557
3436.0,0.09101697652742151
3435.0,0.09126570665738414
3434.0,0.09156401982778932
3433.0,0.09190527746590754
3432.0,0.09223497393534068
3431.0,0.09250819153918277
3430.0,0.09274094278278201
3429.0,0.09297784318412379
3428.0,0.09322724557637871
3427.0,0.09346075184807416
3426.0,0.09366489593587553
3425.0,0.09386488022078679
3424.0,0.09409348483483666
3423.0,0.09435493409129816
3422.0,0.09462909215946615
3421.0,0.09489879428153636
3420.0,0.09515662502454326
3419.0,0.09538768905582468
3418.0,0.09556895161308486
3417.0,0.0957017642542503
3416.0,0.09583582864961433
3415.0,0.09603404295584343
3414.0,0.0963026296111821
3413.0,0.09657525336491675
3412.0,0.09678072427496055
3411.0,0.09691171945596737
3410.0,0.09701316269439178
3409.0,0.09712344779373847
3408.0,0.09725077296271976
3407.0,0.09739343011713605
3406.0,0.09755117252490232
3405.0,0.09771515553168755
3404.0,0.09787001843383632
3403.0,0.09801127310054102
3402.0,0.0981463524258321
3401.0,0.09827362588898803
3400.0,0.0983779001503792
3399.0,0.09845515329579833
3398.0,0.09852878340040575
3397.0,0.09862749971726797
3396.0,0.09875394699020448
3395.0,0.09889004055659871
3394.0,0.09902469481701105
3393.0,0.09915804261549346
3392.0,0.0992828663656726
3391.0,0.09938255919945208
3390.0,0.0994481013984597
3389.0,0.09948122790259266
3388.0,0.0994824227347394
3387.0,0.09945406127568884
3386.0,0.09941972015667253
3385.0,0.0994171259978472
3384.0,0.09945478987823798
3383.0,0.09949180898726916
3382.0,0.09948379687617423
3381.0,0.09944037188006674
3380.0,0.09941867663201728
3379.0,0.0994601946548796
3378.0,0.09954652372568348
3377.0,0.09961799484469469
3376.0,0.09962427367981078
3375.0,0.0995610962500029
3374.0,0.09947122195940494
3373.0,0.09940838181054304
3372.0,0.099388928393513
3371.0,0.09938184209742053
3370.0,0.09935161108278427
3369.0,0.09929812363675186
3368.0,0.09923967485323462
3367.0,0.09917249951896193
3366.0,0.09907590798644143
3365.0,0.09895329513969099
3364.0,0.09883852247481972
3363.0,0.09875402239618715
3362.0,0.09868464649426553
3361.0,0.09860309753329313
3360.0,0.09850340537045128
3359.0,0.09839613915288697
3358.0,0.09828483036496162
3357.0,0.09816201740288304
3356.0,0.09801931176612362
3355.0,0.09785088993845245
3354.0,0.09765942504713757
3353.0,0.09747103822148417
3352.0,0.09732777970853877
3351.0,0.09724202279391105
3350.0,0.09716400468633567
3349.0,0.09702316128848387
3348.0,0.0968110672254521
3347.0,0.09660107646219852
3346.0,0.09646841379182272
3345.0,0.0964006103423632
3344.0,0.09630414207612176
3343.0,0.09609915376884888
3342.0,0.09579611270920413
3341.0,0.09547603608472763
3340.0,0.0952108111619656
3339.0,0.09501736304771786
3338.0,0.09487758794615418
3337.0,0.09477065942698484
3336.0,0.09467193578070819
3335.0,0.09454468110281308
3334.0,0.0943611841539389
3333.0,0.09413047718417927
3332.0,0.0938888040976152
3331.0,0.09366228501922517
3330.0,0.09344973929962505
3329.0,0.09323937110223894
3328.0,0.09302649210422474
3327.0,0.09281005061670594
3326.0,0.09258493597584465
3325.0,0.09234696345947177
3324.0,0.09209907706494748
3323.0,0.09184843185465844
3322.0,0.09160495095193398
3321.0,0.09138011253788758
3320.0,0.09117269870149518
3319.0,0.09095527118720736
3318.0,0.09069261369613717
3317.0,0.09038258460975086
3316.0,0.09006631401525662
3315.0,0.08978990959578596
3314.0,0.08956722891756967
3313.0,0.08938365201786289
3312.0,0.08921715506825573
3311.0,0.08904226501343715
3310.0,0.08883066992284946
3309.0,0.08857532193814512
3308.0,0.08831108551532817
3307.0,0.08808567925243445
3306.0,0.0879039343263199
3305.0,0.0877191192902311
3304.0,0.08748692312515395
3303.0,0.08721357127317651
3302.0,0.08693828373546474
3301.0,0.08667827707474532
3300.0,0.08641354755200953
3299.0,0.08613024793093976
3298.0,0.08585842211973047
3297.0,0.085644526921109
3296.0,0.08548939452552591
3295.0,0.08533684740878578
3294.0,0.08513594405000534
3293.0,0.08489945080276176
3292.0,0.08468245679493937
3291.0,0.0845105091455945
3290.0,0.08434968176900651
3289.0,0.0841488709443982
3288.0,0.08389288935187723
3287.0,0.083606879235616
3286.0,0.08332431025290427
3285.0,0.0830646651417443
3284.0,0.08283461071573743
3283.0,0.08263659650548771
3282.0,0.08247188770165817
3281.0,0.08233396482988976
3280.0,0.08219857619207739
3279.0,0.08203165944296792
3278.0,0.08182002195821074
3277.0,0.08158885342242479
3276.0,0.0813738296668391
3275.0,0.08117715208895035
3274.0,0.08096895519560732
3273.0,0.08073225801053831
3272.0,0.08048367660803754
3271.0,0.08024303521520207
3270.0,0.08000476763790003
3269.0,0.07975383595230057
3268.0,0.07949545808960716
3267.0,0.07925170273145825
3266.0,0.07903635320510947
3265.0,0.07884762431606165
3264.0,0.07867725015250243
3263.0,0.07851233019728257
3262.0,0.07833302268804622
3261.0,0.07812132342957998
3260.0,0.07787506417177256
3259.0,0.07761333585124168
3258.0,0.07736735494514263
3257.0,0.07716051320861293
3256.0,0.07699057048137484
3255.0,0.07682997090730058
3254.0,0.07664930164294145
3253.0,0.07644015021044652
3252.0,0.07620971535222199
3251.0,0.07595971903307465
3250.0,0.07568680243968098
3249.0,0.0754023314357495
3248.0,0.07513529812958554
3247.0,0.07490993243564009
3246.0,0.0747274235089919
3245.0,0.07456699611260306
3244.0,0.07439070967968837
3243.0,0.07415305404635544
3242.0,0.07383124321825994
3241.0,0.07345425298950557
3240.0,0.07308603413182777
3239.0,0.07277040948856002
3238.0,0.07249916450363365
3237.0,0.0722345669067941
3236.0,0.07194890929008005
3235.0,0.07163823601832496
3234.0,0.07131465766358658
3233.0,0.07099650986972639
3232.0,0.0706956629853236
3231.0,0.07040671778596828
3230.0,0.07011879033639584
3229.0,0.06983971135442772
3228.0,0.0695955770043269
3227.0,0.06940236839318639
3226.0,0.06924672498149298
3225.0,0.06909460411348953
3224.0,0.06890491639689238
3223.0,0.06863888016950796
3222.0,0.06828462564799277
3221.0,0.06788169390506883
3220.0,0.06749665069007822
3219.0,0.067161135832358
3218.0,0.0668509505863851
3217.0,0.06653219541662456
3216.0,0.06620473507630929
3215.0,0.0658916471076441
3214.0,0.06560771120003751
3213.0,0.06535162400869092
3212.0,0.06511150719163782
3211.0,0.0648607872324496
3210.0,0.064565165257939
3209.0,0.0642150167066707
3208.0,0.06384170691968771
3207.0,0.06348513889852404
3206.0,0.06315360657728532
3205.0,0.06282886295738246
3204.0,0.062498037435300566
3203.0,0.062164662351941166
3202.0,0.061838838523202724
3201.0,0.06153271224408775
3200.0,0.06125597599978329
3199.0,0.06099837230812402
3198.0,0.06072282336645801
3197.0,0.06039534595409227
3196.0,0.060021594712035845
3195.0,0.059638860185086115
3194.0,0.05927456865521366
3193.0,0.05892601217096263
3192.0,0.058576426065038836
3191.0,0.058214431787297516
3190.0,0.05783787190258104
3189.0,0.05745235143721732
3188.0,0.057069991526060404
3187.0,0.05670298643703706
3186.0,0.0563554809186773
3185.0,0.0560215907242964
3184.0,0.05568759968259128
3183.0,0.05533786460633796
3182.0,0.054967979237309235
3181.0,0.054598083372605445
3180.0,0.054263502112724196
3179.0,0.053977396012909615
3178.0,0.053705556095235425
3177.0,0.05339269409958256
3176.0,0.053016389464219806
3175.0,0.052605164402329256
3174.0,0.052205005349314784
3173.0,0.05183979579057463
3172.0,0.05150344388156849
3171.0,0.051179363614986324
3170.0,0.050864073128183016
3169.0,0.050574707914156164
3168.0,0.050330403835318935
3167.0,0.05012062327850331
3166.0,0.04989730259213228
3165.0,0.049610401714664853
3164.0,0.04925316235390445
3163.0,0.04886404398997417
3162.0,0.04848111837473173
3161.0,0.04810619166579553
3160.0,0.04772175697791544
3159.0,0.04733024973438656
3158.0,0.0469591400807079
3157.0,0.04662700711744504
3156.0,0.04631822937205861
3155.0,0.04600047760260768
3154.0,0.045664061780734504
3153.0,0.04533594757192853
3152.0,0.045050532164565366
3151.0,0.04480772756032451
3150.0,0.04456623052148524
3149.0,0.044283675907596534
3148.0,0.04395874661925741
3147.0,0.04362407409628021
3146.0,0.04329999429159065
3145.0,0.042971395176516484
3144.0,0.04261829570890176
3143.0,0.042253794065788
3142.0,0.041914625407061215
3141.0,0.041621760036876315
3140.0,0.04136625494855947
3139.0,0.04113048697340803
3138.0,0.040904417359778775
3137.0,0.04067430679602171
3136.0,0.040416245960313325
3135.0,0.04012014007991775
3134.0,0.039810320784058106
3133.0,0.039522711656575955
3132.0,0.03926369554798832
3131.0,0.039009220453630936
3130.0,0.03874284082266538
3129.0,0.03847583146883197
3128.0,0.038227685203586104
3127.0,0.038000310787802395
3126.0,0.03777372957531623
3125.0,0.03751919246486334
3124.0,0.03722133421502293
3123.0,0.03689967389670109
3122.0,0.036604310407490966
3121.0,0.03637566542004874
3120.0,0.03620456526484917
3119.0,0.03604373609941961
3118.0,0.03586365018945564
3117.0,0.03568348718568929
3116.0,0.035541009697739226
3115.0,0.035445751965234695
3114.0,0.035372208400218895
3113.0,0.03529369633791178
3112.0,0.035216597217196395
3111.0,0.03518460319370158
3110.0,0.03524808874944829
3109.0,0.03541561799535715
3108.0,0.03563123451127346
3107.0,0.03581017922270974
3106.0,0.03589947198548739
3105.0,0.03589740439706328
3104.0,0.03581988981609489
3103.0,0.03566669137035611
3102.0,0.035429893809789094
3101.0,0.03512296499443636
3100.0,0.034782344113998914
3099.0,0.034442011151641645
3098.0,0.03412492852757984
3097.0,0.033859752601458654
3096.0,0.03368412119701261
3095.0,0.0336192372332884
3094.0,0.03365271427697621
3093.0,0.03376191589313956
3092.0,0.03395462380529136
3091.0,0.03428102241057891
3090.0,0.034804017084177304
3089.0,0.03555331487254762
3088.0,0.03649542560044677
3087.0,0.03753375600584583
3086.0,0.038536339000171164
3085.0,0.03937554541369974
3084.0,0.03995492400245812
3083.0,0.04021188654173238
3082.0,0.04011359774341447
3081.0,0.03966672394743225
3080.0,0.0389338734849995
3079.0,0.03803037190525287
3078.0,0.03709178378624867
3077.0,0.036231739663556015
3076.0,0.035517008662658674
3075.0,0.03497105494861592
3074.0,0.034593467695833185
3073.0,0.03437627765284375
3072.0,0.034312253859557176
3071.0,0.03439976428767032
3070.0,0.034646780931492725
3069.0,0.035070338742098445
3068.0,0.03568753530467594
3067.0,0.03650220167480423
3066.0,0.03749293592900079
3065.0,0.03860713672346999
3064.0,0.039761409334493215
3063.0,0.04084509536134117
3062.0,0.041729502356967076
3061.0,0.042287296879037616
3060.0,0.04241943489160497
3059.0,0.04208060033745292
3058.0,0.04129447980376753
3057.0,0.04015128537763727
3056.0,0.038783687327410235
3055.0,0.037328896213137584
3054.0,0.035899734921629955
3053.0,0.03457936613957219
3052.0,0.03342261292455236
3051.0,0.03244528602843656
3050.0,0.03161792135107253
3049.0,0.030886801557758116
3048.0,0.030216340396078414
3047.0,0.029620935926766706
3046.0,0.029156658062730635
3045.0,0.028880423643756425
3044.0,0.02880900894684771
3043.0,0.02891168860783938
3042.0,0.0291445424400296
3041.0,0.029488294017926332
3040.0,0.029954334552793102
3039.0,0.030565815546539046
3038.0,0.031350087461301517
3037.0,0.03235290075212577
3036.0,0.033638184224103314
3035.0,0.035256262194322895
3034.0,0.03721563889842166
3033.0,0.039496151208458195
3032.0,0.04207636845172541
3031.0,0.0449211798430603
3030.0,0.047930036051324745
3029.0,0.05090223072062465
3028.0,0.05355518073718535
3027.0,0.05557160561493659
3026.0,0.056653808775444105
3025.0,0.05658491552806041
3024.0,0.05529126076321629
3023.0,0.05287564433360211
3022.0,0.049602744213544124
3021.0,0.045846086088069116
3020.0,0.04199865746374343
3019.0,0.038378307408715104
3018.0,0.035179107384862844
3017.0,0.032473901468707066
3016.0,0.030246704397146676
3015.0,0.028437056808174828
3014.0,0.026980897293965654
3013.0,0.025831067790519517
3012.0,0.02494915039930566
3011.0,0.024296336608039603
3010.0,0.023842698946316396
3009.0,0.02357525952627286
3008.0,0.023487505770171255
3007.0,0.023561897035817507
3006.0,0.023762711316106157
3005.0,0.02403424142610295
3004.0,0.02430036918542302
3003.0,0.02447432480273146
3002.0,0.02448069767897
3001.0,0.024277834947782885
3000.0,0.023864013569109457
2999.0,0.023269289841461954
2998.0,0.022546441214213554
2997.0,0.021761796510240704
2996.0,0.020981530709824777
2995.0,0.020257799109388686
2994.0,0.01962478240495207
2993.0,0.019099905630695715
2992.0,0.018683039358255528
2991.0,0.01836020816820307
2990.0,0.018117152534789977
2989.0,0.01794803927216463
2988.0,0.017843009560046242
2987.0,0.0177732137727161
2986.0,0.01770184053839395
2985.0,0.017612978250459224
2984.0,0.017520415294775278
2983.0,0.017446366390184032
2982.0,0.017402081678426412
2981.0,0.01739204326997054
2980.0,0.01742437007426122
2979.0,0.017502106234146046
2978.0,0.01760726264128106
2977.0,0.017707214646800497
2976.0,0.01778000023250731
2975.0,0.017829915530824306
2974.0,0.017880139515818936
2973.0,0.017956077358315538
2972.0,0.018073741424018318
2971.0,0.01823298142711857
2970.0,0.018419114508829448
2969.0,0.018618239309677733
2968.0,0.018835083048643807
2967.0,0.01908790419416166
2966.0,0.019380199702688276
2965.0,0.019686339848347625
2964.0,0.019974770355084236
2963.0,0.02024269500755552
2962.0,0.020517504803067844
2961.0,0.020824741920017795
2960.0,0.021162074962951707
2959.0,0.021505506199467984
2958.0,0.021834700054068273
2957.0,0.022152892065494426
2956.0,0.022488152899178892
2955.0,0.02287250190695554
2954.0,0.02331073828959383
2953.0,0.023771509093012236
2952.0,0.02422208664541101
2951.0,0.024673737067945022
2950.0,0.025179385884761794
2949.0,0.02578092643285201
2948.0,0.026471351849453886
2947.0,0.027218360087628242
2946.0,0.02801410371655251
2945.0,0.028889748642018043
2944.0,0.02988460042661502
2943.0,0.031012632944360012
2942.0,0.03225718529833568
2941.0,0.03358956332384773
2940.0,0.03499367992658379
2939.0,0.03648093423882508
2938.0,0.038081588516829426
2937.0,0.039813348433489916
2936.0,0.041658517349887694
2935.0,0.04357270804729059
2934.0,0.045510965394298136
2933.0,0.047440808461432366
2932.0,0.04933748278664844
2931.0,0.05118027511038694
2930.0,0.05295423531033249
2929.0,0.054641777081302176
2928.0,0.056205672030821406
2927.0,0.057590474062013265
2926.0,0.058749327731256726
2925.0,0.05966446071089157
2924.0,0.060328767254516746
2923.0,0.0607135526242375
2922.0,0.06078085460418585
2921.0,0.060530389466751405
2920.0,0.06001463835717155
2919.0,0.05929826920798635
2918.0,0.05841658272179103
2917.0,0.05737923417046139
2916.0,0.05619687156056444
2915.0,0.054893981298590695
2914.0,0.05350732476794271
2913.0,0.05208293353059434
2912.0,0.05066082270272585
2911.0,0.049250112339317885
2910.0,0.047829699742707336
2909.0,0.04638259970582231
2908.0,0.04492335302618701
2907.0,0.04348147361382802
2906.0,0.042065364957570954
2905.0,0.040656889107263346
2904.0,0.03923855137180672
2903.0,0.03782267041012993
2902.0,0.036443734509795614
2901.0,0.03512471841309276
2900.0,0.03385787842450647
2899.0,0.03262082951703539
2898.0,0.0314161981466815
2897.0,0.030283949250374233
2896.0,0.029271415327033486
2895.0,0.028391377255445063
2894.0,0.027615500842079012
2893.0,0.026901963779675582
2892.0,0.026223591863714854
2891.0,0.02557505177689598
2890.0,0.02496297207124352
2889.0,0.024391391405201305
2888.0,0.023850674628706145
2887.0,0.023320663096948205
2886.0,0.02278845226012824
2885.0,0.022263546704006265
2884.0,0.021771712265703663
2883.0,0.021335424294867362
2882.0,0.020958940789443766
2881.0,0.02062808491865517
2880.0,0.020320155855030646
2879.0,0.02001744479551701
2878.0,0.019717656842677206
2877.0,0.01943126357510486
2876.0,0.01916993393078832
2875.0,0.0189416861277445
2874.0,0.018757356956810137
2873.0,0.018630411130529937
2872.0,0.0185612421416101
2871.0,0.01852987215594114
2870.0,0.018514709746740948
2869.0,0.01851680646883353
2868.0,0.018557396341376983
2867.0,0.01865582010332138
2866.0,0.018823569930991824
2865.0,0.019076000495501805
2864.0,0.01943289077637615
2863.0,0.019900945922992585
2862.0,0.020466934076669597
2861.0,0.02111571301803091
2860.0,0.02184665102156966
2859.0,0.022657919251300944
2858.0,0.0235188178169151
2857.0,0.02437007658695854
2856.0,0.025153242858186757
2855.0,0.02583893343757216
2854.0,0.02642381282156541
2853.0,0.02690703879561977
2852.0,0.027272154593575307
2851.0,0.027487209106536566
2850.0,0.027520127417356773
2849.0,0.027352249597325934
2848.0,0.026975559487948553
2847.0,0.026383411771914413
2846.0,0.02557328956584486
2845.0,0.024562298453331504
2844.0,0.02339106065974087
2843.0,0.022105673796920567
2842.0,0.02074477769390983
2841.0,0.01934778320735643
2840.0,0.017967645138415263
2839.0,0.01666472930874067
2838.0,0.015486221470399457
2837.0,0.01445352475565517
2836.0,0.013565167716577772
2835.0,0.012806216025011318
2834.0,0.012158705323693663
2833.0,0.011609879732339757
2832.0,0.0111535812631906
2831.0,0.010782170300871809
2830.0,0.010476759506415832
2829.0,0.010210746825997359
2828.0,0.009967019162807806
2827.0,0.009747685813179585
2826.0,0.009564390174035816
2825.0,0.009420833045623671
2824.0,0.009308757154214354
2823.0,0.009218399470161044
2822.0,0.009143641324243829
2821.0,0.009075053171613216
2820.0,0.008996910090052344
2819.0,0.008899823882393989
2818.0,0.008792966059187415
2817.0,0.00869484797665031
2816.0,0.008611889761668162
2815.0,0.008531884876082203
2814.0,0.0084421695242613
2813.0,0.008349578956609236
2812.0,0.008275098295173363
2811.0,0.008229433692717208
2810.0,0.008199705470067212
2809.0,0.008162587860710205
2808.0,0.008108522789044934
2807.0,0.008049015916077618
2806.0,0.007999040861458835
2805.0,0.007958475216450099
2804.0,0.007915910088569237
2803.0,0.007866442365162915
2802.0,0.007816632909171149
2801.0,0.007769861879232454
2800.0,0.007715515083497618
2799.0,0.00764061181223755
2798.0,0.007548608609365152
2797.0,0.007459219656515994
2796.0,0.007389617209005009
2795.0,0.007341911589508712
2794.0,0.007309000379184487
2793.0,0.0072847228212928015
2792.0,0.007265738456855823
2791.0,0.007247832217149256
2790.0,0.007224820989972588
2789.0,0.007191565903161362
2788.0,0.00714775264097153
2787.0,0.007101060155721197
2786.0,0.007065402574323304
2785.0,0.0070502898109404515
2784.0,0.007050137179304623
2783.0,0.0070482173100452974
2782.0,0.007034136912096721
2781.0,0.007012328094969308
2780.0,0.006987851504313684
2779.0,0.006950422630328334
2778.0,0.006884339916151267
2777.0,0.006795743664121936
2776.0,0.0067170775884721635
2775.0,0.006674917538415367
2774.0,0.006661565310065707
2773.0,0.0066474786861278855
2772.0,0.006617126381852112
2771.0,0.006581179626838405
2770.0,0.006552978043135482
2769.0,0.006527494168092887
2768.0,0.006492188560280747
2767.0,0.006447959183230375
2766.0,0.006407495570256994
2765.0,0.006377706947391707
2764.0,0.006353828855313291
2763.0,0.006329273208091839
2762.0,0.006302934235571512
2761.0,0.006277076876413776
2760.0,0.0062552127969004185
2759.0,0.00624150698641106
2758.0,0.006235700459707992
2757.0,0.0062299571771215635
2756.0,0.006217388828426295
2755.0,0.0062016109823852614
2754.0,0.006190249734648944
2753.0,0.006181185698758225
2752.0,0.006164946360361471
2751.0,0.006140470741413183
2750.0,0.006117275784702739
2749.0,0.00610035055314496
2748.0,0.006084123976739566
2747.0,0.006065111808197349
2746.0,0.006050650723126322
2745.0,0.006049057303959221
2744.0,0.00605804841528476
2743.0,0.006068230488078596
2742.0,0.006072330422228333
2741.0,0.0060672164719653265
2740.0,0.006053538029698319
2739.0,0.006037535257818735
2738.0,0.006027000245943258
2737.0,0.0060220537956717675
2736.0,0.00601665939788675
2735.0,0.006011641903333757
2734.0,0.006016598542544492
2733.0,0.006034164499309904
2732.0,0.0060508656869490245
2731.0,0.006049818865383624
2730.0,0.006026365127087008
2729.0,0.005987129347481272
2728.0,0.005943263619039596
2727.0,0.005911791626252955
2726.0,0.005912563923740698
2725.0,0.005950183259315716
2724.0,0.006003049740652416
2723.0,0.006040812875951297
2722.0,0.006050791031742114
2721.0,0.0060412847888545555
2720.0,0.006024422125804068
2719.0,0.006005600569618817
2718.0,0.005986175779911548
2717.0,0.005965763010646139
2716.0,0.0059407957084236795
2715.0,0.005907266232200519
2714.0,0.00586708723323545
2713.0,0.005828392225794239
2712.0,0.005800104327657355
2711.0,0.0057880063052261465
2710.0,0.005792207683293554
2709.0,0.005805262431209978
2708.0,0.005816843671915773
2707.0,0.005824237723365827
2706.0,0.005833413041448288
2705.0,0.00584624852407486
2704.0,0.00585364275404166
2703.0,0.005847205207829026
2702.0,0.005832030853945801
2701.0,0.005820070269072969
2700.0,0.005814669008429136
2699.0,0.00580885101886819
2698.0,0.0057947986507680335
2697.0,0.005768455445827289
2696.0,0.005729726915754773
2695.0,0.005687303072701022
2694.0,0.00565990000077818
2693.0,0.005662212657122268
2692.0,0.005688126525263166
2691.0,0.005714770133871755
2690.0,0.0057247776373761765
2689.0,0.0057208961895073435
2688.0,0.005719761107893441
2687.0,0.005734280602961118
2686.0,0.005761102539656483
2685.0,0.005782200869906934
2684.0,0.005781270981579869
2683.0,0.005760658956527479
2682.0,0.005737216575392647
2681.0,0.005720596819812114
2680.0,0.005704598209364534
2679.0,0.005685630813534402
2678.0,0.005678682966613103
2677.0,0.00570049821592492
2676.0,0.005741044138711194
2675.0,0.005766008086464587
2674.0,0.0057516698194196355
2673.0,0.005710707335760864
2672.0,0.005680156468236448
2671.0,0.005686862908337861
2670.0,0.005724215129438758
2669.0,0.005760150337892707
2668.0,0.005770710258744703
2667.0,0.005766934831836991
2666.0,0.00578404021408006
2665.0,0.00584009476045837
2664.0,0.005913559836553409
2663.0,0.0059685017894465404
2662.0,0.005993875960593547
2661.0,0.006007486082613844
2660.0,0.00602587555159128
2659.0,0.006046084525013529
2658.0,0.006057762586218398
2657.0,0.00606015964678581
2656.0,0.0060590765944771915
2655.0,0.00605357549540814
2654.0,0.006033570553286202
2653.0,0.00599207725324593
2652.0,0.005938406530544265
2651.0,0.005896436643308188
2650.0,0.005884087591767308
2649.0,0.005891460912149036
2648.0,0.005885873310092287
2647.0,0.005844622200473239
2646.0,0.0057778921275535786
2645.0,0.0057134093446118295
2644.0,0.005664639124044591
2643.0,0.005624437440316904
2642.0,0.005586015501997303
2641.0,0.005556422003877432
2640.0,0.005545925051995806
2639.0,0.005552174939379289
2638.0,0.005559818129871671
2637.0,0.00555304520523495
2636.0,0.005527958211547964
2635.0,0.005494973341536564
2634.0,0.005467318176806049
2633.0,0.005445891810369681
2632.0,0.005418646112627501
2631.0,0.005376837631082547
2630.0,0.005325888513602611
2629.0,0.005276843526801898
2628.0,0.0052341954036907445
2627.0,0.0051969383956925975
2626.0,0.0051634801950111945
2625.0,0.005129019159573429
2624.0,0.005087098621569275
2623.0,0.005041371372977312
2622.0,0.005006372693918729
2621.0,0.004986230513681632
2620.0,0.0049617190291918805
2619.0,0.004911491185315076
2618.0,0.004839209325498207
2617.0,0.004767033980593107
2616.0,0.004708687226054384
2615.0,0.004663298845587633
2614.0,0.004630747394140058
2613.0,0.004617151158372187
2612.0,0.004626393893208695
2611.0,0.0046579109227751605
2610.0,0.004709413992327988
2609.0,0.004769240203007474
2608.0,0.004811166266443936
2607.0,0.0048125838045786256
2606.0,0.004777583457739522
2605.0,0.004730106788979751
2604.0,0.004685724415847077
2603.0,0.004642831311144117
2602.0,0.004598580668837775
2601.0,0.004556969924398483
2600.0,0.004518852333173257
2599.0,0.004477535611875861
2598.0,0.004428891736969265
2597.0,0.004377506108039436
2596.0,0.004330915706560456
2595.0,0.004294960498516946
2594.0,0.00427506070823007
2593.0,0.004273686846800298
2592.0,0.0042846594501778626
2591.0,0.004295057136248816
2590.0,0.004293919329873916
2589.0,0.004279518084378557
2588.0,0.004264098175459846
2587.0,0.00427081650033524
2586.0,0.004313068104203949
2585.0,0.004371446087564285
2584.0,0.004403968558947838
2583.0,0.004388659868501237
2582.0,0.004344964232538222
2581.0,0.004305139321602762
2580.0,0.004280333422687939
2579.0,0.00426563463344176
2578.0,0.00425818485484
2577.0,0.004251149114576519
2576.0,0.004225797922656428
2575.0,0.004173466341864686
2574.0,0.004115561171494843
2573.0,0.0040778707470678546
2572.0,0.004051908378030601
2571.0,0.004006880387740588
2570.0,0.003936973646358643
2569.0,0.0038744087013138796
2568.0,0.00385629962682386
2567.0,0.0038951765569192375
2566.0,0.003975910167612997
2565.0,0.004059202728519015
2564.0,0.004092450633150204
2563.0,0.004046486674689056
2562.0,0.003950889224953137
2561.0,0.003874608428691053
2560.0,0.003863067980107337
2559.0,0.0039042769447586194
2558.0,0.003954736452784267
2557.0,0.003981671080833463
2556.0,0.003980048776271079
2555.0,0.003966814844872622
2554.0,0.00396448491722466
2553.0,0.003979066153090413
2552.0,0.003990967139348832
2551.0,0.003977932630310473
2550.0,0.003947135443791394
2549.0,0.003932074083679696
2548.0,0.003955584385472202
2547.0,0.004006922942462543
2546.0,0.004055804569043539
2545.0,0.004077113861760373
2544.0,0.004061835148992865
2543.0,0.004017695928794344
2542.0,0.003965295805428629
2541.0,0.003926217842511323
2540.0,0.003909212058849265
2539.0,0.00390936659181992
2538.0,0.003919147425206238
2537.0,0.003935536680595152
2536.0,0.003957794671261609
2535.0,0.00398331746464069
2534.0,0.004006966241344427
2533.0,0.004024673385948638
2532.0,0.004038903285554034
2531.0,0.004056038133996089
2530.0,0.004072488784278238
2529.0,0.004071595932532185
2528.0,0.004048961084568912
2527.0,0.004033581332859745
2526.0,0.004059084152099216
2525.0,0.004112657343298994
2524.0,0.004139988544246775
2523.0,0.004110087157598618
2522.0,0.004050282257386282
2521.0,0.004005545968028269
2520.0,0.003988348769751308
2519.0,0.003985298977240194
2518.0,0.00398806521820567
2517.0,0.003994650065673772
2516.0,0.003999334809165027
2515.0,0.004004718245368633
2514.0,0.004027138009431477
2513.0,0.0040679429253663545
2512.0,0.004096444549252086
2511.0,0.004086641550187226
2510.0,0.00405759824111512
2509.0,0.004051812216811644
2508.0,0.0040822916283927155
2507.0,0.00412335552998012
2506.0,0.004143638644670383
2505.0,0.004125865686510631
2504.0,0.004066171078417901
2503.0,0.003981261756075715
2502.0,0.003910844627432077
2501.0,0.003887658166454323
2500.0,0.0039047281827262054
2499.0,0.003928484758752736
2498.0,0.003938289190176998
2497.0,0.003936522018058165
2496.0,0.003929586327889319
2495.0,0.003921037440989736
2494.0,0.003918843676433611
2493.0,0.003929049396942017
2492.0,0.00394321476540274
2491.0,0.003946379123655518
2490.0,0.003933969104726759
2489.0,0.003910545958999618
2488.0,0.003880772943718972
2487.0,0.0038529956114837704
2486.0,0.0038402084669466796
2485.0,0.0038442961709284846
2484.0,0.0038507489359787183
2483.0,0.003850369327089107
2482.0,0.003850963279718249
2481.0,0.0038553772564107296
2480.0,0.003847613333863231
2479.0,0.0038177110213803937
2478.0,0.0037812502028954902
2477.0,0.003755989822675382
2476.0,0.0037394739462160483
2475.0,0.0037291057662048113
2474.0,0.003739869223598284
2473.0,0.0037764341737734682
2472.0,0.003811296688845673
2471.0,0.003820959013877358
2470.0,0.003822607315051384
2469.0,0.0038420612927068942
2468.0,0.0038658553504650377
2467.0,0.003864331752495803
2466.0,0.0038476731434002
2465.0,0.003856121862593635
2464.0,0.0038995911358110594
2463.0,0.003945635980377815
2462.0,0.003965734275749846
2461.0,0.0039591410658957205
2460.0,0.003933569954411603
2459.0,0.0038987004343266447
2458.0,0.0038820547636379326
2457.0,0.003917072786509699
2456.0,0.004004009099761347
2455.0,0.004103604697938685
2454.0,0.0041739977499568115
2453.0,0.004198189946103762
2452.0,0.004182631329314415
2451.0,0.004153313875142937
2450.0,0.004147348627685746
2449.0,0.00417884263093384
2448.0,0.0042118348814644225
2447.0,0.0041911328846716165
2446.0,0.004100210204270012
2445.0,0.003970696581351965
2444.0,0.0038447628543558984
2443.0,0.003753758308231699
2442.0,0.0037217838543342086
2441.0,0.003751501041210013
2440.0,0.0038040303587218603
2439.0,0.0038259055782360408
2438.0,0.00380365010529711
2437.0,0.003770878875422156
2436.0,0.003763527978024651
2435.0,0.003791309214752573
2434.0,0.003846010901447987
2433.0,0.0039054441754105586
2432.0,0.003930885086842008
2431.0,0.003894644145356208
2430.0,0.0038158347765592333
2429.0,0.003743506495944522
2428.0,0.003704110245890236
2427.0,0.003691567765327224
2426.0,0.0037022301867457707
2425.0,0.0037399270875452945
2424.0,0.0037837847665327783
2423.0,0.0037948300151322105
2422.0,0.0037715991698139897
2421.0,0.003764653173978715
2420.0,0.0038135851635066565
2419.0,0.003893448510604659
2418.0,0.00394331120879669
2417.0,0.003930081069057034
2416.0,0.003869226044617799
2415.0,0.0037997115633599775
2414.0,0.0037569792104131918
2413.0,0.0037589955308948413
2412.0,0.0037973572386556208
2411.0,0.0038398156501443185
2410.0,0.0038497043648123234
2409.0,0.0038076265282868177
2408.0,0.0037218391287455518
2407.0,0.003626413695988653
2406.0,0.003565100059479875
2405.0,0.003563159667797318
2404.0,0.0036104549979966696
2403.0,0.003675118740382814
2402.0,0.0037296522997960924
2401.0,0.003761541329726642
2400.0,0.0037729467636631016
2399.0,0.0037828245069298225
2398.0,0.003816218441770867
2397.0,0.0038727691727285978
2396.0,0.003915192721511824
2395.0,0.003908991962542781
2394.0,0.0038665519974221737
2393.0,0.0038323429134453453
2392.0,0.003830494099703356
2391.0,0.0038487828572498564
2390.0,0.0038706057961771104
2389.0,0.00389814387438396
2388.0,0.003938403720394988
2387.0,0.003985421456821842
2386.0,0.004025842564758936
2385.0,0.004053161714635741
2384.0,0.004072507601105353
2383.0,0.004095910094614517
2382.0,0.0041306730441649404
2381.0,0.0041668802963706975
2380.0,0.004186227621709349
2379.0,0.004195378404578173
2378.0,0.0042312889346804786
2377.0,0.004309040760308738
2376.0,0.00437980595212983
2375.0,0.004378269678268938
2374.0,0.004313683614148684
2373.0,0.004257058861298739
2372.0,0.004245744150791396
2371.0,0.004260862824188231
2370.0,0.0043074251538444165
2369.0,0.004429490725987301
2368.0,0.0046206584894951195
2367.0,0.004789942526010246
2366.0,0.00485455555713657
2365.0,0.004811210705142615
2364.0,0.004717213204978014
2363.0,0.004650277116556065
2362.0,0.004730238586254192
2361.0,0.005032580596848626
2360.0,0.005385492887953886
2359.0,0.0055512515086738904
2358.0,0.005550203407655684
2357.0,0.005580221026352702
2356.0,0.005729155619682341
2355.0,0.005849463754457394
2354.0,0.0058620611662531
2353.0,0.005878910881987338
2352.0,0.006067389370577083
2351.0,0.006441531387971985
2350.0,0.006729829048665886
2349.0,0.006632983225948296
2348.0,0.006052795543979421
2347.0,0.005238932541934945
2346.0,0.004704228752440708
2345.0,0.004746527997178226
2344.0,0.005224243076572426
2343.0,0.005696391434165611
2342.0,0.006002399672393033
2341.0,0.006240608837955939
2340.0,0.006449260364260431
2339.0,0.006575245753028381
2338.0,0.006562670210582034
2337.0,0.006488209016167703
2336.0,0.00642615002515535
2335.0,0.006418595300996478
2334.0,0.006431600229860184
2333.0,0.00647040784798101
2332.0,0.006497340404921075
2331.0,0.006547470868995045
2330.0,0.006616584495681455
2329.0,0.006841981174512447
2328.0,0.007266852838221689
2327.0,0.007824087441471742
2326.0,0.008321140551630503
2325.0,0.008548281242778377
2324.0,0.008457170174241626
2323.0,0.008132138733132534
2322.0,0.007765957550785917
2321.0,0.007490432233744878
2320.0,0.007306847540410081
2319.0,0.00717707336557342
2318.0,0.007040425013146456
2317.0,0.006912650581312591
2316.0,0.006777297538761526
2315.0,0.006687026196050873
2314.0,0.006652277973978104
2313.0,0.006698693508212427
2312.0,0.006756993740364826
2311.0,0.0067979309615082105
2310.0,0.006797471601799107
2309.0,0.0067799751396081
2308.0,0.0067204355205047325
2307.0,0.006614992078202904
2306.0,0.0064750123600821035
2305.0,0.0063499431835084795
2304.0,0.006246895641376513
2303.0,0.006159142055434472
2302.0,0.006061091731434737
2301.0,0.005967195413006688
2300.0,0.005890548747639968
2299.0,0.005872423707885022
2298.0,0.005921540374970703
2297.0,0.0060103494272749
2296.0,0.006061173915946
2295.0,0.006050905213184213
2294.0,0.00603790453953848
2293.0,0.006098991891623908
2292.0,0.006229481427372878
2291.0,0.006358237926518627
2290.0,0.006439052314581985
2289.0,0.0064731791095848845
2288.0,0.006469027621615536
2287.0,0.006415669531741911
2286.0,0.006318419940082818
2285.0,0.006198898997473032
2284.0,0.006070258374338434
2283.0,0.0059343331888759105
2282.0,0.005816657696194306
2281.0,0.005747197635443317
2280.0,0.005707993238884355
2279.0,0.0056380068468884605
2278.0,0.005509576818457817
2277.0,0.005363204839547965
2276.0,0.005254048829425514
2275.0,0.005208043046029608
2274.0,0.005225426035548416
2273.0,0.005292261875439
2272.0,0.005367582005013442
2271.0,0.005405669831817486
2270.0,0.005397105305807842
2269.0,0.005364014532155449
2268.0,0.005314279538091966
2267.0,0.005238131270111344
2266.0,0.005147934316895025
2265.0,0.005084575938567958
2264.0,0.00507513289888163
2263.0,0.005111718127984337
2262.0,0.005168320923248741
2261.0,0.005207588129821001
2260.0,0.005198990751222595
2259.0,0.005155567130219109
2258.0,0.005130564592048089
2257.0,0.005129974349385993
2256.0,0.005072630222021322
2255.0,0.004905706502289995
2254.0,0.004722434163101113
2253.0,0.004675752853610633
2252.0,0.0047841501361592315
2251.0,0.004922066828695268
2250.0,0.004995818306846755
2249.0,0.005037904383336012
2248.0,0.005106237484638875
2247.0,0.005182359877809263
2246.0,0.005211892392558021
2245.0,0.005188945238301582
2244.0,0.00515714695388209
2243.0,0.005159420253184886
2242.0,0.005206362533675505
2241.0,0.005264354211431421
2240.0,0.005277904519063089
2239.0,0.005236964557486056
2238.0,0.0052086803695538374
2237.0,0.005250926760962651
2236.0,0.0053135690914973025
2235.0,0.005294241493615715
2234.0,0.00517559258789558
2233.0,0.005031877177335712
2232.0,0.004903477082714011
2231.0,0.004760004662718359
2230.0,0.004600296071701065
2229.0,0.004500373211796547
2228.0,0.0045237685203808825
2227.0,0.0046479843782738966
2226.0,0.004801702838469836
2225.0,0.004922191524017612
2224.0,0.004968322227837945
2223.0,0.004941138793915807
2222.0,0.0048948725315433065
2221.0,0.0048750530081374905
2220.0,0.004846684830945516
2219.0,0.004746286184676542
2218.0,0.004594057287654234
2217.0,0.004477495715285358
2216.0,0.004432718630879056
2215.0,0.004428238982264934
2214.0,0.004458225506093448
2213.0,0.004551738037987932
2212.0,0.004681936772546445
2211.0,0.004767833774272595
2210.0,0.004778228547872442
2209.0,0.004744754027461894
2208.0,0.004667703230881318
2207.0,0.004519600261493422
2206.0,0.004361414352239859
2205.0,0.004336570667424469
2204.0,0.004493000282667162
2203.0,0.004704441793817004
2202.0,0.00481698291653793
2201.0,0.0047935451641754065
2200.0,0.004689401817590519
2199.0,0.0045689219720490585
2198.0,0.004496090190180977
2197.0,0.004525601954044177
2196.0,0.004636300006647828
2195.0,0.004729890302808538
2194.0,0.004734777506537834
2193.0,0.004663230304366553
2192.0,0.004558580842714141
2191.0,0.004454558043840246
2190.0,0.004412307445103842
2189.0,0.004509558433628844
2188.0,0.004733880585054603
2187.0,0.00494863160016776
2186.0,0.005012432045886564
2185.0,0.004901812917346957
2184.0,0.004713819447839711
2183.0,0.004583455795965645
2182.0,0.0045917490125353885
2181.0,0.00469213107848513
2180.0,0.004715407817614925
2179.0,0.004521977000487967
2178.0,0.004153829001753749
2177.0,0.003787532077107316
2176.0,0.003546236682002913
2175.0,0.0034271191782180035
2174.0,0.003410326703695753
2173.0,0.0035337111628708263
2172.0,0.003827460706358601
2171.0,0.0042580864231875305
2170.0,0.004738947673619028
2169.0,0.005132669657135743
2168.0,0.005289016454580166
2167.0,0.005192632331085236
2166.0,0.005077141983078211
2165.0,0.005270599726361722
2164.0,0.005827017243238788
2163.0,0.006349211896871228
2162.0,0.0062135837579671265
2161.0,0.00503107666836021
2160.0,0.0030564657381208153
2159.0,0.0011397252836813758
2158.0,7.902771184905277e-05
2157.0,-1.1792492102993602e-05
2156.0,0.00036831308491384873
2155.0,0.0007187572019591701
2154.0,0.0009365374237035537
2153.0,0.001149988035384847
2152.0,0.001409874810268036
2151.0,0.001651785274195759
2150.0,0.001856758617202131
2149.0,0.002063576022913176
2148.0,0.002247968102438646
2147.0,0.0023220371885943358
2146.0,0.002253100802305305
2145.0,0.0021066049893106965
2144.0,0.0019855649657744092
2143.0,0.0019814795647532914
2142.0,0.0021357348274848808
2141.0,0.002374310063696665
2140.0,0.002529266719798372
2139.0,0.0024986786121621845
2138.0,0.0023386794433248657
2137.0,0.0021461090745888154
2136.0,0.0019370326746802873
2135.0,0.0017167074992315823
2134.0,0.0015771785993476443
2133.0,0.0015998413421805678
2132.0,0.001731968673394564
2131.0,0.001867477059585878
2130.0,0.00199350387948931
2129.0,0.0021535333737199105
2128.0,0.002330232637408365
2127.0,0.0024765365347115213
2126.0,0.0026210020884014384
2125.0,0.00282322013601409
2124.0,0.0030451116287888366
2123.0,0.0031820559483751428
2122.0,0.0032178902976634787
2121.0,0.003245714950772842
2120.0,0.0033320600147426355
2119.0,0.0034538821312366536
2118.0,0.0035811120618317945
2117.0,0.0037200448019810758
2116.0,0.0038539977163683124
2115.0,0.003928597849119932
2114.0,0.003933026568870935
2113.0,0.003924318975913749
2112.0,0.003941253274787338
2111.0,0.003957618151097976
2110.0,0.003947888410676624
2109.0,0.003929432127421433
2108.0,0.00390987872231742
2107.0,0.0038580561386733865
2106.0,0.0037670216084181056
2105.0,0.003691744474512655
2104.0,0.003683139783788471
2103.0,0.003728903416186721
2102.0,0.0037880702535618887
2101.0,0.003842280291431791
2100.0,0.0038809840037887736
2099.0,0.003873744409820335
2098.0,0.003790879751264925
2097.0,0.0036387360016352475
2096.0,0.003466389396853043
2095.0,0.0033454823586074912
2094.0,0.003329300979551817
2093.0,0.003400389325313294
2092.0,0.0034751296660787212
2091.0,0.0034916646966178053
2090.0,0.0034734666785371047
2089.0,0.003476269932169853
2088.0,0.0035039686171736677
2087.0,0.0035320280505595388
2086.0,0.0035743370226277637
2085.0,0.0036565478860125476
2084.0,0.0037455875426715118
2083.0,0.0037838052950116144
2082.0,0.0037793659119265393
2081.0,0.0037859122857678944
2080.0,0.003800234801019416
2079.0,0.0037599928817583003
2078.0,0.0036523391947227623
2077.0,0.003545632890039927
2076.0,0.0034980537335461926
2075.0,0.00349695263810654
2074.0,0.003501179138563346
2073.0,0.003488187103669038
2072.0,0.0034484660083909033
2071.0,0.003395176721368332
2070.0,0.0033782054286045724
2069.0,0.003433147407959254
2068.0,0.0035163342851576226
2067.0,0.0035428850612228184
2066.0,0.003482555691763779
2065.0,0.003374532536485366
2064.0,0.003274467500012439
2063.0,0.0032352601262995214
2062.0,0.003296812671359426
2061.0,0.003419706308424684
2060.0,0.0034751079457706092
2059.0,0.0033868346946149567
2058.0,0.00323927123938587
2057.0,0.003163047239485576
2056.0,0.003187087058112741
2055.0,0.0033067728190551374
2054.0,0.0036023414304173756
2053.0,0.004113058813787476
2052.0,0.004628353786288872
2051.0,0.004795761471175546
2050.0,0.004472181016464555
2049.0,0.0038727276220263587
2048.0,0.003309622737407255
2047.0,0.00291708246997056
2046.0,0.0027119449763688937
2045.0,0.0026889183817290904
2044.0,0.0027580389481187545
2043.0,0.0027831979088892645
2042.0,0.0027679635661941155
2041.0,0.0028459965456244804
2040.0,0.0030275348046448795
2039.0,0.003132090558691539
2038.0,0.003036038092579284
2037.0,0.002817487979401544
2036.0,0.0025962123267941344
2035.0,0.0023910826254163416
2034.0,0.002215173353404836
2033.0,0.0021357195940968038
2032.0,0.002139936823848786
2031.0,0.0021037113757094894
2030.0,0.001978927274004778
2029.0,0.0018724686935791043
2028.0,0.0018825694725833572
2027.0,0.001985198861287315
2026.0,0.002110018942651606
2025.0,0.0022014161881503723
2024.0,0.0021864806933834416
2023.0,0.0020321255408543406
2022.0,0.0018460266346211913
2021.0,0.0017760152703712
2020.0,0.0018011928525537694
2019.0,0.0017770091159044986
2018.0,0.001680902656512706
2017.0,0.0016385431807798751
2016.0,0.0016915180525212997
2015.0,0.001742359794650978
2014.0,0.0017539300028894611
2013.0,0.0018029444521951714
2012.0,0.00191321902122911
2011.0,0.001988414462418081
2010.0,0.0019376362931219381
2009.0,0.0017452605319714745
2008.0,0.0014233880802378513
2007.0,0.0010451087280439453
2006.0,0.0008059895044641471
2005.0,0.0008698493333738956
2004.0,0.0011360918728293271
2003.0,0.0013317596379879859
2002.0,0.0013272099455211338
2001.0,0.001223178569727521
2000.0,0.0011632178251731184
1999.0,0.0011810819958586669
1998.0,0.0012575985152610382
1997.0,0.0013818011853658522
1996.0,0.0015115051811981665
1995.0,0.0015873832516359074
1994.0,0.0016223954722592343
1993.0,0.001698175127785645
1992.0,0.0018481741847271756
1991.0,0.0020272016059605423
1990.0,0.0022130923984388486
1989.0,0.0024131951206150257
1988.0,0.0025772558284710874
1987.0,0.002632983584948163
1986.0,0.0026045535010101204
1985.0,0.0025943384441619623
1984.0,0.0026584611193677093
1983.0,0.002792157199428276
1982.0,0.0029905326549193234
1981.0,0.0031751177706730365
1980.0,0.0031131533116324885
1979.0,0.002594765428657048
1978.0,0.0017431778553988805
1977.0,0.0009660126417004944
1976.0,0.00053502227909387
1975.0,0.0004230081601668311
1974.0,0.0005380584895228139
1973.0,0.0008286952069254802
1972.0,0.0011658664332860062
1971.0,0.0013817978814862912
1970.0,0.0014640133812026234
1969.0,0.0015446783325339286
1968.0,0.0016775881464156624
1967.0,0.0017703569260638617
1966.0,0.0017646311040420623
1965.0,0.001721783072495462
1964.0,0.0016962616135608004
1963.0,0.0016776484682847876
1962.0,0.0016631573093277958
1961.0,0.0016634945307139443
1960.0,0.0016537179596995862
1959.0,0.001638982130307048
1958.0,0.0017261487166462847
1957.0,0.0019859371172307044
1956.0,0.0022831233825195037
1955.0,0.0024024325803483236
1954.0,0.0023271044141827974
1953.0,0.002257684831431234
1952.0,0.002345861059233621
1951.0,0.002565320389052104
1950.0,0.0028271576534363626
1949.0,0.0030679100196756683
1948.0,0.003230553216044752
1947.0,0.0032899325342398986
1946.0,0.003317007931011087
1945.0,0.0034103645152258584
1944.0,0.0035434907808764137
1943.0,0.0035847649999170214
1942.0,0.003489430874625679
1941.0,0.003355888263460809
1940.0,0.0032586032390633105
1939.0,0.0031640370202675487
1938.0,0.0030281879251753945
1937.0,0.0028588238519526568
1936.0,0.0026586535460812266
1935.0,0.002405828590609173
1934.0,0.0021267233218678957
1933.0,0.0019032555136606335
1932.0,0.0017582825346424721
1931.0,0.0016399501279734984
1930.0,0.0015199572588245587
1929.0,0.0014172473644539951
1928.0,0.0013415102146980148
1927.0,0.001267964078355823
1926.0,0.0012079336899443152
1925.0,0.0011896503854035927
1924.0,0.0011971507006008865
1923.0,0.0011969102144196073
1922.0,0.0011986310547808395
1921.0,0.0012275059153899698
1920.0,0.0012572578303886401
1919.0,0.0012345088355090674
1918.0,0.0011818606907746379
1917.0,0.0011513592841166662
1916.0,0.0011176581796586323
1915.0,0.0010419218454901604
1914.0,0.0009669160347471261
1913.0,0.0009746151354405271
1912.0,0.0010619817213952734
1911.0,0.0011465116210544542
1910.0,0.0011859532695850067
1909.0,0.0012045565079068774
1908.0,0.0012153216164391798
1907.0,0.0011897753608955566
1906.0,0.001142911439560999
1905.0,0.0011182324726153846
1904.0,0.0011165395183262024
1903.0,0.0011198331048334121
1902.0,0.0011517821778147985
1901.0,0.001247324766905012
1900.0,0.0013844655561702835
1899.0,0.0014992837797379072
1898.0,0.0015750184890562314
1897.0,0.0016303305170231276
1896.0,0.0016546909228645525
1895.0,0.00163711621890421
1894.0,0.0016291943759693464
1893.0,0.00169194886658671
1892.0,0.0018012592966542736
1891.0,0.00187983708090835
1890.0,0.001916260541098085
1889.0,0.001966612307344056
1888.0,0.0020423138977029454
1887.0,0.0021197894692158445
1886.0,0.0022116704616416735
1885.0,0.0023356208261285935
1884.0,0.0024461512235954847
1883.0,0.0024811226564079277
1882.0,0.0024559974052752323
1881.0,0.0024453821372794537
1880.0,0.002484576045834991
1879.0,0.0025411433309916447
1878.0,0.0025935434536359554
1877.0,0.0026605029170621046
1876.0,0.002732788407806705
1875.0,0.0027748894419108577
1874.0,0.0028038625375375655
1873.0,0.0028790580421291304
1872.0,0.0030069732561595957
1871.0,0.0031168440745213723
1870.0,0.003152474038877362
1869.0,0.0031443395533317722
1868.0,0.0031167108945006116
1867.0,0.0030339420831283293
1866.0,0.002899565558811079
1865.0,0.002754489270373069
1864.0,0.0026067745771091696
1863.0,0.0024429111538404377
1862.0,0.0022834485567891274
1861.0,0.002167682351442544
1860.0,0.002080179801435835
1859.0,0.0019567751982057183
1858.0,0.001782900806074566
1857.0,0.0016180267886324465
1856.0,0.0015112923720670395
1855.0,0.0014489333439973101
1854.0,0.001404933493333392
1853.0,0.0013640393337364647
1852.0,0.0013251292660958125
1851.0,0.0012740581387825885
1850.0,0.001216313939736635
1849.0,0.0011955758683636682
1848.0,0.001234835378894213
1847.0,0.00129503591239316
1846.0,0.0013110031500210857
1845.0,0.0012595356206809762
1844.0,0.0011810560490802102
1843.0,0.0011040793470596848
1842.0,0.0010426864405304955
1841.0,0.0010192396713578728
1840.0,0.0010275536669723502
1839.0,0.0010374722784202992
1838.0,0.0010564654125656226
1837.0,0.0011038390500948299
1836.0,0.0011601618578936206
1835.0,0.0011936155530192826
1834.0,0.0012150439254903994
1833.0,0.0012605548261141264
1832.0,0.0013306624873198752
1831.0,0.0013733074568017239
1830.0,0.0014032073504534328
1829.0,0.0014820184573699569
1828.0,0.0015905419698990257
1827.0,0.0016687831107850713
1826.0,0.0016944211455675552
1825.0,0.0017238892756806564
1824.0,0.0017892246168348981
1823.0,0.0018388734415786699
1822.0,0.0018516335797170436
1821.0,0.00186528569822766
1820.0,0.0018993133450767004
1819.0,0.001922196899243945
1818.0,0.0019400132948204207
1817.0,0.0020136562286564835
1816.0,0.0021657267282971845
1815.0,0.0023535912777679175
1814.0,0.002534111607693698
1813.0,0.0027142095092236706
1812.0,0.002891623474404308
1811.0,0.003033900148851962
1810.0,0.0031400834769054467
1809.0,0.003237207108335103
1808.0,0.0033292259407241166
1807.0,0.0034083253092520426
1806.0,0.003497207230983292
1805.0,0.0036258898494164844
1804.0,0.0037714159026104943
1803.0,0.0038797415355924054
1802.0,0.003914971704573306
1801.0,0.0039041379392786074
1800.0,0.003859752375188941
1799.0,0.003763828044046763
1798.0,0.0036345887263962645
1797.0,0.0035204915815870604
1796.0,0.003443876531153336
1795.0,0.003383090009787741
1794.0,0.0032781241980916025
1793.0,0.0030993415479789316
1792.0,0.0028786098468598174
1791.0,0.0026571763049625134
1790.0,0.002473747177726888
1789.0,0.002364626417220731
1788.0,0.002312347268809852
1787.0,0.002257628421843032
1786.0,0.0021702026527135286
1785.0,0.0020822535308578707
1784.0,0.0020325080936955016
1783.0,0.002029202704289792
1782.0,0.0020347049335242935
1781.0,0.002050173832450458
1780.0,0.002086370170327711
1779.0,0.0021149727210558284
1778.0,0.002115611586533523
1777.0,0.002106664679639418
1776.0,0.0021319309845054648
1775.0,0.0021953954111816245
1774.0,0.0022312887428682293
1773.0,0.0022160924039042462
1772.0,0.0022358821749410207
1771.0,0.0022872961515321318
1770.0,0.0023122536722331635
1769.0,0.0023117973443831713
1768.0,0.0022931552693124906
1767.0,0.0022744628252997856
1766.0,0.0022856123397450284
1765.0,0.0023622668122132992
1764.0,0.002480789375780176
1763.0,0.002568588192798562
1762.0,0.002605515547785711
1761.0,0.002665455899520707
1760.0,0.0027742264180284403
1759.0,0.0028934819974734396
1758.0,0.0029643954765937843
1757.0,0.0029931933717412982
1756.0,0.0030589674416988616
1755.0,0.003178252839580788
1754.0,0.0033315306379533022
1753.0,0.0035099613254113027
1752.0,0.003710323579395005
1751.0,0.003906274001976886
1750.0,0.0040665311043253105
1749.0,0.004190158140520943
1748.0,0.004300414139198535
1747.0,0.004386307445803829
1746.0,0.004423442864302508
1745.0,0.004446420329477001
1744.0,0.0044853368614836825
1743.0,0.004519415490885472
1742.0,0.00451903432637334
1741.0,0.004487265461096436
1740.0,0.004429886192994052
1739.0,0.004367631209750093
1738.0,0.004327217387522352
1737.0,0.004349748977782723
1736.0,0.004386208881685349
1735.0,0.004303227871043177
1734.0,0.00421553531554387
1733.0,0.004291101523979279
1732.0,0.004438477754845934
1731.0,0.004545786118184876
1730.0,0.004570179765209499
1729.0,0.004551469007315458
1728.0,0.004554028778741351
1727.0,0.004583314735015857
1726.0,0.0046108476782539334
1725.0,0.0046536139855031
1724.0,0.004722123623807669
1723.0,0.004796610378401825
1722.0,0.004881241954885469
1721.0,0.005011445410664912
1720.0,0.0051783769076755234
1719.0,0.005295297856254965
1718.0,0.005404719324675622
1717.0,0.005646032443067465
1716.0,0.00591653316033211
1715.0,0.0060738445170240435
1714.0,0.006154047800404247
1713.0,0.006244037106863167
1712.0,0.006363622909713535
1711.0,0.006484515330902323
1710.0,0.006607255241868091
1709.0,0.006779703836685132
1708.0,0.007029196289456153
1707.0,0.007294281320686585
1706.0,0.007537091738449712
1705.0,0.007789094991032863
1704.0,0.00803027193933363
1703.0,0.008257550169026663
1702.0,0.008468207073180124
1701.0,0.00869945394554535
1700.0,0.00911081468399704
1699.0,0.009504733835888329
1698.0,0.009758418152045506
1697.0,0.010029736119703475
1696.0,0.010390173153440669
1695.0,0.010759487504556187
1694.0,0.01104340363275198
1693.0,0.011308542813995615
1692.0,0.011610860814834548
1691.0,0.011948478851657122
1690.0,0.012311339397068476
1689.0,0.012668764611087891
1688.0,0.01298631246349434
1687.0,0.01326583276443372
1686.0,0.013549949153297484
1685.0,0.014003197838999216
1684.0,0.0148450648055247
1683.0,0.01560352571254707
1682.0,0.01594349346880364
1681.0,0.01612694796089317
1680.0,0.016332414277745514
1679.0,0.016579245912428577
1678.0,0.016835608736092064
1677.0,0.01710500427711558
1676.0,0.017430588458078527
1675.0,0.017832818656138
1674.0,0.018188417120368897
1673.0,0.018454458104467934
1672.0,0.018709066236573476
1671.0,0.019008425197778588
1670.0,0.019390606273375882
1669.0,0.019805181573731002
1668.0,0.020109946778586386
1667.0,0.020262252366102226
1666.0,0.0203382552641763
1665.0,0.020436005531531992
1664.0,0.02060204108149106
1663.0,0.02084583431595385
1662.0,0.02108389446170201
1661.0,0.021223289641414074
1660.0,0.021300768804032758
1659.0,0.021354712248548145
1658.0,0.021383143603285297
1657.0,0.021385215519101344
1656.0,0.02142154652563985
1655.0,0.021438220195331585
1654.0,0.021425815503789036
1653.0,0.021723799267209215
1652.0,0.022003829069997035
1651.0,0.022012458727350286
1650.0,0.02196167678825923
1649.0,0.02189341850519885
1648.0,0.021830922764346537
1647.0,0.02184327546908975
1646.0,0.02184877508582113
1645.0,0.021731018154489242
1644.0,0.021564551525133577
1643.0,0.02141400090614267
1642.0,0.02126147570724295
1641.0,0.021103947183489676
1640.0,0.020962060199010025
1639.0,0.020826681866921763
1638.0,0.020673991613025074
1637.0,0.020499902643650047
1636.0,0.020420160879367266
1635.0,0.0204077041095815
1634.0,0.020267586088595663
1633.0,0.02002294325116847
1632.0,0.019764698235691592
1631.0,0.01952429236437828
1630.0,0.019305559649391846
1629.0,0.019098238989679266
1628.0,0.01889814128268901
1627.0,0.018699814422164753
1626.0,0.018486245991301588
1625.0,0.0182537434975404
1624.0,0.01801130824988694
1623.0,0.017781024360744285
1622.0,0.017532841686742608
1621.0,0.017238596447024964
1620.0,0.01694095715497407
1619.0,0.0166621824598623
1618.0,0.016381021054642907
1617.0,0.01611755774070171
1616.0,0.01594598085548659
1615.0,0.01585461130362553
1614.0,0.015792015178331505
1613.0,0.01574589931258095
1612.0,0.015760139918494235
1611.0,0.015938881420449757
1610.0,0.016371437425521915
1609.0,0.01711152344406528
1608.0,0.018205867730432056
1607.0,0.01966488500430171
1606.0,0.021403902273127967
1605.0,0.023325503879026935
1604.0,0.025334876670383383
1603.0,0.02716388579131386
1602.0,0.028356397204528073
1601.0,0.02856383337852958
1600.0,0.027753355641248117
1599.0,0.026120166812177572
1598.0,0.023989307072880297
1597.0,0.021747882678278416
1596.0,0.01970109397139848
1595.0,0.017993661501415684
1594.0,0.016639503366217997
1593.0,0.015575712653514245
1592.0,0.014715306373130958
1591.0,0.014006406351427643
1590.0,0.013461619256333632
1589.0,0.013135444390425813
1588.0,0.013078454317683914
1587.0,0.013304827156865547
1586.0,0.013764048072582087
1585.0,0.01430045250266498
1584.0,0.014701296518087277
1583.0,0.014744195687690163
1582.0,0.014299225440787506
1581.0,0.013466896457780063
1580.0,0.012525586121534892
1579.0,0.011685952268956686
1578.0,0.010971721037690476
1577.0,0.010336811907924104
1576.0,0.009840601121548902
1575.0,0.009542731258131498
1574.0,0.009364085036905792
1573.0,0.009235198276598218
1572.0,0.009121901633619398
1571.0,0.00898840349908197
1570.0,0.008848904928305876
1569.0,0.008735126506455105
1568.0,0.008655083873724195
1567.0,0.008604870628463795
1566.0,0.00856814990188421
1565.0,0.008504806626646249
1564.0,0.008440557528563132
1563.0,0.008409852693485372
1562.0,0.008461131247885655
1561.0,0.008538766239104207
1560.0,0.008481002021270927
1559.0,0.008547142828934423
1558.0,0.008806018610679025
1557.0,0.008879805123761832
1556.0,0.008895169186563157
1555.0,0.008930683023333164
1554.0,0.008963431186306495
1553.0,0.009043617732493332
1552.0,0.009179783768458386
1551.0,0.009327030999875119
1550.0,0.009446583401972028
1549.0,0.009545767430414265
1548.0,0.009650982076285551
1547.0,0.009783405207237446
1546.0,0.009914275677721702
1545.0,0.010009306875327677
1544.0,0.010070590737110838
1543.0,0.010094809822550243
1542.0,0.010085118382922996
1541.0,0.010083224573013867
1540.0,0.010137203225224527
1539.0,0.010144043996903308
1538.0,0.01007001693408582
1537.0,0.010038392798847887
1536.0,0.010061854378383528
1535.0,0.010059469128921934
1534.0,0.009969975821789843
1533.0,0.00985628239214609
1532.0,0.009760159337578669
1531.0,0.009675270552570473
1530.0,0.009628077372718853
1529.0,0.009625927742450245
1528.0,0.009645988652910824
1527.0,0.009653186460764764
1526.0,0.009634677091895994
1525.0,0.009623176112467463
1524.0,0.009647885672106721
1523.0,0.009668679787843706
1522.0,0.00966249783356538
1521.0,0.009707980343132777
1520.0,0.009818265699786617
1519.0,0.00993491549585284
1518.0,0.010011606756940288
1517.0,0.010043656942602192
1516.0,0.010061126290740238
1515.0,0.010062776851776194
1514.0,0.010057018514347597
1513.0,0.010081998582840226
1512.0,0.010160696653724204
1511.0,0.010286558924982675
1510.0,0.010442132755984958
1509.0,0.010604958752445617
1508.0,0.01076469812860201
1507.0,0.010990430881250776
1506.0,0.011201110516742586
1505.0,0.011323127079790482
1504.0,0.011544711491540946
1503.0,0.011928672680067542
1502.0,0.012480465710509352
1501.0,0.01330767610082639
1500.0,0.01459600758947531
1499.0,0.016662993368740376
1498.0,0.02019776468023325
1497.0,0.02623783274293024
1496.0,0.034671078254550035
1495.0,0.04338847813587199
1494.0,0.05027050808298886
1493.0,0.0542468501114109
1492.0,0.054407818926991425
1491.0,0.0499884486259217
1490.0,0.042122382496370646
1489.0,0.03422150803240457
1488.0,0.02851007135428
1487.0,0.02470145955912201
1486.0,0.022016567266042775
1485.0,0.02005679015226935
1484.0,0.01859265958290798
1483.0,0.017421111628604234
1482.0,0.01645297476653603
1481.0,0.015744154096053547
1480.0,0.01530270824295096
1479.0,0.01502875586834777
1478.0,0.014839951948895529
1477.0,0.014732478091157734
1476.0,0.014685063241206879
1475.0,0.014640708705734477
1474.0,0.014586860105131081
1473.0,0.014626896329623034
1472.0,0.01478484387629686
1471.0,0.014923601519600711
1470.0,0.015042041029479074
1469.0,0.015236281691662731
1468.0,0.01549676299918347
1467.0,0.01574900003256818
1466.0,0.015968156220820907
1465.0,0.016228427015783444
1464.0,0.016570680296321704
1463.0,0.016911037913100554
1462.0,0.017290993038692644
1461.0,0.017819010395542952
1460.0,0.01863324865847303
1459.0,0.020019407533772064
1458.0,0.02313268454853796
1457.0,0.02946077760151245
1456.0,0.037558753079588225
1455.0,0.0447121918535071
1454.0,0.05053476680603328
1453.0,0.054998505769396785
1452.0,0.05719597292104091
1451.0,0.05658314945347297
1450.0,0.05383040387376081
1449.0,0.050077459163026763
1448.0,0.04615207508588804
1447.0,0.04272619706474604
1446.0,0.04006119898521721
1445.0,0.037887299433591676
1444.0,0.03582517435922531
1443.0,0.03375784458193851
1442.0,0.03182571365007473
1441.0,0.030168703822816258
1440.0,0.02879564586203287
1439.0,0.02759387619021616
1438.0,0.026342057104293166
1437.0,0.024819875353376916
1436.0,0.023202227116645643
1435.0,0.021910258667737027
1434.0,0.021014048405661966
1433.0,0.02029778705981125
1432.0,0.019608371443640922
1431.0,0.01895227378026042
1430.0,0.018398842386903147
1429.0,0.017957047586072607
1428.0,0.017600513095518525
1427.0,0.01734636541257922
1426.0,0.017178291938738596
1425.0,0.017026107225477642
1424.0,0.016867720107538144
1423.0,0.016744534700629823
1422.0,0.01668903568795095
1421.0,0.016665131955694946
1420.0,0.01659500079379402
1419.0,0.016463030929199415
1418.0,0.01632524661569945
1417.0,0.016189841439168278
1416.0,0.016037569294850437
1415.0,0.015874844814299443
1414.0,0.0157135691144493
1413.0,0.015551569464966487
1412.0,0.015374533068483805
1411.0,0.015173674283702292
1410.0,0.014952211577750014
1409.0,0.014721567035987641
1408.0,0.014487066988783933
1407.0,0.01425897773836526
1406.0,0.014024735705974865
1405.0,0.013755430196727973
1404.0,0.013472785345900153
1403.0,0.013241650958811472
1402.0,0.013094874138312371
1401.0,0.01298767452213839
1400.0,0.012855957327813118
1399.0,0.012699534848072368
1398.0,0.012557100813105397
1397.0,0.012426540331498918
1396.0,0.012277349897619489
1395.0,0.012120454916825587
1394.0,0.011988703538318862
1393.0,0.011898572807694185
1392.0,0.011862606058551151
1391.0,0.011889412023789403
1390.0,0.011968960857447742
1389.0,0.012076036340386006
1388.0,0.01219493073469912
1387.0,0.01233275249502943
1386.0,0.012477811526881086
1385.0,0.012599955943399618
1384.0,0.012700051685319128
1383.0,0.012800449402682382
1382.0,0.012922172155823149
1381.0,0.01306460985710595
1380.0,0.013211347690580064
1379.0,0.013355638391427057
1378.0,0.0134994258752313
1377.0,0.01363920004628573
1376.0,0.013757026024087463
1375.0,0.013821762116465026
1374.0,0.013793221887694523
1373.0,0.013660394262455952
1372.0,0.013468240654234638
1371.0,0.013279593642785803
1370.0,0.013106335575289365
1369.0,0.012920264221083735
1368.0,0.01271775757929973
1367.0,0.012533734487535631
1366.0,0.012396183217935765
1365.0,0.012282141672806682
1364.0,0.012131593763531106
1363.0,0.011908616597552643
1362.0,0.011631907313687705
1361.0,0.011334099114722138
1360.0,0.011035931960570382
1359.0,0.010757441059894002
1358.0,0.010512336390565088
1357.0,0.01029863655880826
1356.0,0.01010729636195349
1355.0,0.009938683411342835
1354.0,0.009799479801046753
1353.0,0.009689269412500597
1352.0,0.009593712650078284
1351.0,0.009507638829072424
1350.0,0.00942694748728213
1349.0,0.009336225968382537
1348.0,0.00922185514424725
1347.0,0.009080951198757903
1346.0,0.008915149477318137
1345.0,0.008727156199031798
1344.0,0.008536529865206213
1343.0,0.008375867970200214
1342.0,0.008256912065590864
1341.0,0.008153809365970993
1340.0,0.008039913109972133
1339.0,0.007925173609994127
1338.0,0.007834997106446065
1337.0,0.007779851364430072
1336.0,0.007764481925308731
1335.0,0.007799217354682832
1334.0,0.007885553495870874
1333.0,0.008003295226410564
1332.0,0.008124026461229675
1331.0,0.00823128972107353
1330.0,0.00831521736471158
1329.0,0.008360714791484421
1328.0,0.008353579268118149
1327.0,0.00829586281398604
1326.0,0.008198862163702657
1325.0,0.008072129772015015
1324.0,0.007929183066560222
1323.0,0.007789165146724996
1322.0,0.007666123284467204
1321.0,0.007563837229319574
1320.0,0.007488742525861533
1319.0,0.0074539786899527095
1318.0,0.00746144008439052
1317.0,0.007494206405721161
1316.0,0.007536499936344192
1315.0,0.007582623877606514
1314.0,0.007620794420879639
1313.0,0.007629401880171272
1312.0,0.007598820767977901
1311.0,0.007541258177619414
1310.0,0.007466626802593019
1309.0,0.0073674135073347
1308.0,0.007237110222838492
1307.0,0.00709145682117792
1306.0,0.00695113388591383
1305.0,0.006817229052798796
1304.0,0.006680139641157238
1303.0,0.0065398005575192705
1302.0,0.0064041622277872575
1301.0,0.006275582541684642
1300.0,0.006153846002706367
1299.0,0.006044901522250904
1298.0,0.005955960211288032
1297.0,0.005886101955354887
1296.0,0.00583106456878656
1295.0,0.005789808490104978
1294.0,0.005758238275190172
1293.0,0.005725823692323001
1292.0,0.0056853790815811125
1291.0,0.0056385035698798165
1290.0,0.00558635218072401
1289.0,0.005525390153199212
1288.0,0.005459435310572233
1287.0,0.005404542688531926
1286.0,0.005372231962740458
1285.0,0.005357509662108585
1284.0,0.005349868750585619
1283.0,0.005343896987150253
1282.0,0.005333163621559528
1281.0,0.005305077985773536
1280.0,0.005253461343979788
1279.0,0.005188006134559919
1278.0,0.005122895601163925
1277.0,0.0050629954006791884
1276.0,0.005007504679733729
1275.0,0.0049579598654992205
1274.0,0.004913927029316017
1273.0,0.004870158673985606
1272.0,0.004826565576685281
1271.0,0.004794219490175208
1270.0,0.0047836728467904165
1269.0,0.004793658376091836
1268.0,0.004817228695427105
1267.0,0.004849743633719362
1266.0,0.004887748279309859
1265.0,0.004929817366467772
1264.0,0.004980215165271527
1263.0,0.005041598690381078
1262.0,0.005102970820991209
1261.0,0.005146003749516202
1260.0,0.005167733385006852
1259.0,0.00518476276217722
1258.0,0.005211920059552285
1257.0,0.00525033112326437
1256.0,0.0052988569460523955
1255.0,0.0053618893387871736
1254.0,0.005439968691486979
1253.0,0.005525048756168211
1252.0,0.005611047534858955
1251.0,0.0056990463037447075
1250.0,0.005788735157354591
1249.0,0.005876661389873573
1248.0,0.0059665556710701995
1247.0,0.006067948258475021
1246.0,0.006180250157304936
1245.0,0.0062907096186424535
1244.0,0.006391412278483473
1243.0,0.006485573369723319
1242.0,0.006572953610177087
1241.0,0.006643583160061424
1240.0,0.006693500462866302
1239.0,0.006735379188607249
1238.0,0.006784879338253275
1237.0,0.00684460978575877
1236.0,0.006908777952720449
1235.0,0.006975099768407288
1234.0,0.007044377099424504
1233.0,0.007115750273694054
1232.0,0.007189685649453548
1231.0,0.007269831200337737
1230.0,0.007356563788411541
1229.0,0.007443987593900983
1228.0,0.007526369876121666
1227.0,0.0076015914456591255
1226.0,0.007666736465717184
1225.0,0.007718926952591479
1224.0,0.00776365665952005
1223.0,0.00781266482518259
1222.0,0.007868323333345802
1221.0,0.007918954945351383
1220.0,0.007955769010131123
1219.0,0.007985747550188719
1218.0,0.008020767921728077
1217.0,0.00806273610064059
1216.0,0.00810867435365438
1215.0,0.008163336213198001
1214.0,0.008235354629109595
1213.0,0.008324117053268236
1212.0,0.008419043290991721
1211.0,0.008510749501455132
1210.0,0.008597498266352699
1209.0,0.008682856539373174
1208.0,0.008773205405332413
1207.0,0.008876513515617988
1206.0,0.00899843845248154
1205.0,0.009139130306998533
1204.0,0.009295724086247487
1203.0,0.009464877478450824
1202.0,0.00963937005084307
1201.0,0.00980540028891421
1200.0,0.00994877142342488
1199.0,0.010064643808860536
1198.0,0.010159215773222676
1197.0,0.010241809342226404
1196.0,0.010317207728354042
1195.0,0.01038612278754365
1194.0,0.010449502183327474
1193.0,0.01050963574248891
1192.0,0.010569018916275423
1191.0,0.010631841510702934
1190.0,0.010707963179629916
1189.0,0.010813770227039162
1188.0,0.010967034756601917
1187.0,0.011179959663496008
1186.0,0.011457024736205697
1185.0,0.011795792416987985
1184.0,0.012179882765251657
1183.0,0.012563672012515528
1182.0,0.012871033521575252
1181.0,0.013023320451135113
1180.0,0.012979509307320884
1179.0,0.012758006843994744
1178.0,0.012424475049581794
1177.0,0.012058533787115477
1176.0,0.011727203422081639
1175.0,0.01147542228178491
1174.0,0.011319647108644498
1173.0,0.011246103851009107
1172.0,0.011226475782942762
1171.0,0.011239588569099353
1170.0,0.011277272213937557
1169.0,0.011335277810203579
1168.0,0.011408621605294551
1167.0,0.011495843934400691
1166.0,0.01160001463809594
1165.0,0.011723884932780603
1164.0,0.011870901841684944
1163.0,0.012053736522288246
1162.0,0.012295371365381988
1161.0,0.012616745619469863
1160.0,0.013025109164660095
1159.0,0.013513690653536945
1158.0,0.014062665656186642
1157.0,0.014630469997150855
1156.0,0.015144002565006705
1155.0,0.015510684668739637
1154.0,0.01565741318471398
1153.0,0.015565250952882068
1152.0,0.015275216310507028
1151.0,0.014872661250005883
1150.0,0.014457967789988889
1149.0,0.01410739624812309
1148.0,0.013849137117545568
1147.0,0.013673124399863998
1146.0,0.013556926877129997
1145.0,0.01348179106490488
1144.0,0.013436467277827342
1143.0,0.013417774615016469
1142.0,0.013426374457190828
1141.0,0.013457213446506834
1140.0,0.013496925269451853
1139.0,0.01353480719063212
1138.0,0.013571647712128973
1137.0,0.013611830137471862
1136.0,0.013652187618186137
1135.0,0.013686531806750259
1134.0,0.013716447480641051
1133.0,0.013748925516570643
1132.0,0.013787422066375773
1131.0,0.013833955057251702
1130.0,0.01389506781995915
1129.0,0.013975155432810839
1128.0,0.014066606501995375
1127.0,0.014156704608421465
1126.0,0.0142432584132835
1125.0,0.014334674061945663
1124.0,0.014437295400826708
1123.0,0.014552029006032075
1122.0,0.014679330253094362
1121.0,0.014816331343824637
1120.0,0.014953200314598198
1119.0,0.015085995502568714
1118.0,0.01522937991493845
1117.0,0.015399458338299057
1116.0,0.015584236387294087
1115.0,0.01574811675031833
1114.0,0.015868953565537733
1113.0,0.015955800634435705
1112.0,0.016027357176017863
1111.0,0.01609167804844212
1110.0,0.01615186804435713
1109.0,0.016214480108866593
1108.0,0.016282324913468968
1107.0,0.01634976103939986
1106.0,0.01641207766129367
1105.0,0.016470908330734363
1104.0,0.016530219051118074
1103.0,0.016598007366244533
1102.0,0.016688509989982763
1101.0,0.016809233816876802
1100.0,0.016945218018962947
1099.0,0.017071591883537185
1098.0,0.017181785444239282
1097.0,0.017286326961306258
1096.0,0.01738848084032027
1095.0,0.017481906416306967
1094.0,0.01757079906346471
1093.0,0.0176669081752115
1092.0,0.01776482461561338
1091.0,0.01784575990723174
1090.0,0.017910571520122338
1089.0,0.017984949652994593
1088.0,0.018086895742790158
1087.0,0.018212140206984518
1086.0,0.018355073758817696
1085.0,0.01851740034251542
1084.0,0.01868846624807066
1083.0,0.01884545909467121
1082.0,0.01898651273453248
1081.0,0.019137938574296548
1080.0,0.019314933344832093
1079.0,0.019500180370786616
1078.0,0.019676435116454536
1077.0,0.019856174392281767
1076.0,0.02006172172021045
1075.0,0.020296769429069286
1074.0,0.020552139986198547
1073.0,0.020817441546787125
1072.0,0.021068172686474724
1071.0,0.021258972033878304
1070.0,0.021349312891828523
1069.0,0.02132468270481125
1068.0,0.021184688373017492
1067.0,0.02093246426850885
1066.0,0.020586533646827717
1065.0,0.020181494272863955
1064.0,0.019746739908067325
1063.0,0.019298733253040785
1062.0,0.01885320104821771
1061.0,0.01842595414105264
1060.0,0.018021434383385028
1059.0,0.017637041173247804
1058.0,0.017277830237609176
1057.0,0.016951328232785022
1056.0,0.016650513876253003
1055.0,0.016358910198973477
1054.0,0.016071880164199692
1053.0,0.015798445757976644
1052.0,0.015544858602129352
1051.0,0.01531389400560958
1050.0,0.01511701003067379
1049.0,0.014963650210538988
1048.0,0.014839060801679696
1047.0,0.01471540778640365
1046.0,0.014583497904189086
1045.0,0.01445449922139774
1044.0,0.014335282077787954
1043.0,0.014223077079972245
1042.0,0.01412440570327754
1041.0,0.014061569948069338
1040.0,0.01405891370341121
1039.0,0.014139782430096233
1038.0,0.01434322088611164
1037.0,0.014730789746621079
1036.0,0.015366926377885035
1035.0,0.016288937686771827
1034.0,0.017483004944923535
1033.0,0.01886946755019877
1032.0,0.020304795831452446
1031.0,0.021616315035914983
1030.0,0.022654082851608755
1029.0,0.023302920872519672
1028.0,0.023457252605785663
1027.0,0.023052704286122834
1026.0,0.022156892923325185
1025.0,0.02098033454055547
1024.0,0.019761517867243207
1023.0,0.0186523340760416
1022.0,0.017698923433416898
1021.0,0.016884053477676835
1020.0,0.016170126801701573
1019.0,0.015526227442266546
1018.0,0.01494274433851801
1017.0,0.01442634217459391
1016.0,0.01397955713607664
1015.0,0.013590442233245924
1014.0,0.013241834202987187
1013.0,0.01292237621324845
1012.0,0.012626926951225255
1011.0,0.012356347646359643
1010.0,0.012122101785226349
1009.0,0.011943976165784114
1008.0,0.01183746656552204
1007.0,0.011803866644676048
1006.0,0.011827871154710956
1005.0,0.01187261873519168
1004.0,0.011873740499665875
1003.0,0.01175533335408217
1002.0,0.011474425801838498
1001.0,0.011054743283087125
1000.0,0.010572398895858315
999.0,0.010110021729542902
998.0,0.009720169372338567
997.0,0.009417008727765946
996.0,0.009188197836797807
995.0,0.009010723462946627
994.0,0.00886418814294454
993.0,0.008740999559372
992.0,0.008647391462863453
991.0,0.008590877758483596
990.0,0.008564742935997256
989.0,0.00854799210157534
988.0,0.008523056446651633
987.0,0.008491470596296218
986.0,0.008469595782797372
985.0,0.008469421202975353
984.0,0.00848501244674096
983.0,0.00849622181594847
982.0,0.008482599970921535
981.0,0.008433579235709514
980.0,0.008347895534986705
979.0,0.008225845038139251
978.0,0.008063335197199362
977.0,0.00785580661165377
976.0,0.007611364546563658
975.0,0.007358790884084431
974.0,0.00713638437179084
973.0,0.006970583097757652
972.0,0.006868105058649453
971.0,0.006825246985349972
970.0,0.006836120246735338
969.0,0.006891115179063101
968.0,0.006973578223433797
967.0,0.00706001942782691
966.0,0.007121484129563316
965.0,0.0071275156741558085
964.0,0.007056719624741633
963.0,0.006907056235354689
962.0,0.006691450945939724
961.0,0.006422439729227729
960.0,0.006109802240878478
959.0,0.0057751432000323205
958.0,0.005454639718573004
957.0,0.005177265754327906
956.0,0.004947760519118993
955.0,0.004757280066024477
954.0,0.0046021294014198365
953.0,0.004484664568492877
952.0,0.004403044972991618
951.0,0.004349841800099997
950.0,0.0043189910645458855
949.0,0.004308156831961511
948.0,0.004315828280154872
947.0,0.004340009629922656
946.0,0.004376323648575204
945.0,0.004412014324193213
944.0,0.0044245813824540965
943.0,0.004393481728666906
942.0,0.004314564231551597
941.0,0.004200229485505615
940.0,0.004067491540584221
939.0,0.0039290382781005904
938.0,0.003790299821520758
937.0,0.003647423265845714
936.0,0.003490985680713205
935.0,0.003319357773779978
934.0,0.003147013679750005
933.0,0.0029930067098271756
932.0,0.0028630723144052427
931.0,0.002749845166409073
930.0,0.0026487121370961843
929.0,0.0025649403737562308
928.0,0.0025036112200106757
927.0,0.002460419990807799
926.0,0.0024277827639216723
925.0,0.0024059251941496006
924.0,0.0024029905176461714
923.0,0.002426497306930807
922.0,0.002479038621693191
921.0,0.0025608539263260247
920.0,0.0026718165809219672
919.0,0.002811969573633546
918.0,0.0029859341139959767
917.0,0.003207292343286084
916.0,0.003493414064580487
915.0,0.0038547713291991435
914.0,0.004293393226570174
913.0,0.004808811140391285
912.0,0.005392507294746204
911.0,0.006010583137602915
910.0,0.006601837996243587
909.0,0.007100761159876703
908.0,0.00745809405163023
907.0,0.007641911532540818
906.0,0.007634144638639075
905.0,0.007432958842883173
904.0,0.007054717089775012
903.0,0.006532695409541427
902.0,0.00591326409384112
901.0,0.005248934375544034
900.0,0.004591934685508801
899.0,0.0039883622038103805
898.0,0.003467211343649225
897.0,0.0030325694922555563
896.0,0.0026733991321528996
895.0,0.0023812187533826246
894.0,0.0021529983704830866
893.0,0.001980436046175444
892.0,0.001847365037582675
891.0,0.0017407193705404715
890.0,0.0016592263001589651
889.0,0.0016102812067130719
888.0,0.001601699886728064
887.0,0.0016361659182918854
886.0,0.0017094569199854436
885.0,0.0018138868500862868
884.0,0.001947426203883185
883.0,0.0021201999607186276
882.0,0.0023476422788939084
881.0,0.00263200768730326
880.0,0.0029487071193952455
879.0,0.003253714893790732
878.0,0.003510418611009756
877.0,0.0037117898016413367
876.0,0.003873663820127252
875.0,0.004005143392376995
874.0,0.004084906361343586
873.0,0.004063896116679698
872.0,0.003893246249972348
871.0,0.0035600805825114733
870.0,0.0031054073284811374
869.0,0.0026076526083917174
868.0,0.0021475470255031097
867.0,0.0017806916551761469
866.0,0.0015244895067754258
865.0,0.0013604657143110998
864.0,0.0012536662201858024
863.0,0.0011764422047215034
862.0,0.0011172505785976665
861.0,0.0010722559850948245
860.0,0.0010356632225832392
859.0,0.0010008778704353877
858.0,0.0009675508989091166
857.0,0.0009435667905528591
856.0,0.000939836625026589
855.0,0.000963060689023099
854.0,0.0010118833669211808
853.0,0.0010804681629789144
852.0,0.001168711401668068
851.0,0.0012894080305514682
850.0,0.001460893288143198
849.0,0.0016871648850448583
848.0,0.001944225238080733
847.0,0.0021899165383240174
846.0,0.0023922322543539747
845.0,0.00254833336309249
844.0,0.0026745007151547182
843.0,0.0027811632430057975
842.0,0.0028602141904101944
841.0,0.0028919118114529817
840.0,0.0028590857544303957
839.0,0.0027566976300286462
838.0,0.002592361866661728
837.0,0.002379829224988651
836.0,0.002134555849147065
835.0,0.0018769957854015903
834.0,0.0016344181546674285
833.0,0.0014313496222240277
832.0,0.00127683995956231
831.0,0.0011626474345537586
830.0,0.001073453527385958
829.0,0.0010001865375533648
828.0,0.0009466546504355838
827.0,0.0009243061847600889
826.0,0.0009384558966697015
825.0,0.000979105493196384
824.0,0.001027294106553214
823.0,0.0010697418429989024
822.0,0.0011046708976091193
821.0,0.0011350129193740746
820.0,0.0011620141084015372
819.0,0.0011863734955864253
818.0,0.0012095634846642847
817.0,0.0012312290797076228
816.0,0.0012485640519735303
815.0,0.0012608180624437103
814.0,0.0012725799205951412
813.0,0.0012912152416489683
812.0,0.001323112993846836
811.0,0.0013713585632265934
810.0,0.0014307622123530973
809.0,0.0014847506285413127
808.0,0.0015170038822680913
807.0,0.001532490864084992
806.0,0.0015581827063180075
805.0,0.0016121571328844356
804.0,0.0016779708709311007
803.0,0.0017209883314604803
802.0,0.001727788430416181
801.0,0.0017197076748428717
800.0,0.001729907003675913
799.0,0.0017787129799279426
798.0,0.0018684795492379044
797.0,0.0019877703394998916
796.0,0.002116577830856479
795.0,0.0022371223481798107
794.0,0.002345255039818887
793.0,0.0024473651553714275
792.0,0.002548550660734592
791.0,0.002654036130839043
790.0,0.0027800008674432088
789.0,0.0029471787837860135
788.0,0.003157886033423138
787.0,0.0033902345399007897
786.0,0.003621567173179966
785.0,0.0038502259328237164
784.0,0.0040916075240410785
783.0,0.004362890100135446
782.0,0.00467622849926435
781.0,0.005039572609209359
780.0,0.005460505346318343
779.0,0.005953651312018554
778.0,0.006540058048469768
777.0,0.007227430472988336
776.0,0.007995870682778
775.0,0.00882279902055308
774.0,0.009722622179438475
773.0,0.010737200380619108
772.0,0.011879528104421447
771.0,0.01311259752660627
770.0,0.01439439397358249
769.0,0.01571183265488785
768.0,0.017050219667982883
767.0,0.01836624101505388
766.0,0.0196284879765131
765.0,0.020860190765831746
764.0,0.02210950671074824
763.0,0.023401952286343043
762.0,0.024745037660252878
761.0,0.02614017166569338
760.0,0.027549857829397992
759.0,0.028879475234934282
758.0,0.030027717306639293
757.0,0.030932361858780198
756.0,0.031550491846650555
755.0,0.03185428778121588
754.0,0.03188941220387338
753.0,0.03178363458689577
752.0,0.031655322941246886
751.0,0.031553183683163705
750.0,0.03149242771110186
749.0,0.031468546844602194
748.0,0.03138801644258561
747.0,0.031044546582526193
746.0,0.03023365192367341
745.0,0.028884707041263002
744.0,0.027067299829328567
743.0,0.02492434934557817
742.0,0.022635027864315024
741.0,0.02038388317165734
740.0,0.01830080078819691
739.0,0.016422992518747057
738.0,0.014720536421589263
737.0,0.013148571576940948
736.0,0.011676579181628417
735.0,0.010294752784219863
734.0,0.009013328164156651
733.0,0.007852784740112403
732.0,0.006830012151510224
731.0,0.005956396014004484
730.0,0.005242883240285823
729.0,0.004690908417470482
728.0,0.004272740245537365
727.0,0.0039335618139729606
726.0,0.0036248533374334015
725.0,0.003334026495981666
724.0,0.0030795394300424522
723.0,0.0028832273688777672
722.0,0.002748251645250027
721.0,0.0026523522296358695
720.0,0.0025595080183081487
719.0,0.0024517905629229744
718.0,0.0023487630147761944
717.0,0.0022864609105549376
716.0,0.002291356527704038
715.0,0.0023858766221758095
714.0,0.00260544616473277
713.0,0.002994755831901237
712.0,0.003599808244144579
711.0,0.004491325361272475
710.0,0.00579307947410912
709.0,0.007655332183413882
708.0,0.010187364295269584
707.0,0.013435435908713808
706.0,0.01743841664695269
705.0,0.022273611167336463
704.0,0.028019028977672798
703.0,0.03471449313479529
702.0,0.04241963815520012
701.0,0.05127700469612159
700.0,0.06144687347420122
699.0,0.07298792032266747
698.0,0.08575619942093897
697.0,0.09903170865183211
696.0,0.11064224728863735
695.0,0.11664946600697487
694.0,0.11377730502219544
693.0,0.1029370991941801
692.0,0.0882762160933159
691.0,0.07353884399452829
690.0,0.06067569585351931
689.0,0.050286563436509224
688.0,0.04224107388878944
687.0,0.03608794828056653
686.0,0.0313384310037783
685.0,0.02761646117771438
684.0,0.02465329436002841
683.0,0.022238253564391415
682.0,0.02021759415132106
681.0,0.01849996282627271
680.0,0.017021422759523702
679.0,0.015724233556748124
678.0,0.014580363448809378
677.0,0.013601122640018861
676.0,0.012792481890998846
675.0,0.012108892240322928
674.0,0.01150276418746058
673.0,0.010979040839914925
672.0,0.010549527278430889
671.0,0.010159112458723477
670.0,0.009710169825981572
669.0,0.009135135135115761
668.0,0.008546413623276523
667.0,0.00815339118654487
666.0,0.00789372860364617
665.0,0.007593636158502868
664.0,0.007228222723337889
663.0,0.006849061292630729
662.0,0.006509291777964516
661.0,0.006220004484812445
660.0,0.005952194535779734
659.0,0.005670301581088888
658.0,0.005358178119043183
657.0,0.005023322614022746
656.0,0.004680228281588105
655.0,0.004324456966499805
654.0,0.003951188141051103
653.0,0.003594064413940612
652.0,0.0033185147406207226
651.0,0.0031750418754522315
650.0,0.0031539238678105555
649.0,0.0031891273026290017
648.0,0.003202059892330675
647.0,0.003139864600569243
646.0,0.0029977820838757337
645.0,0.002816723539010465
644.0,0.0026514087313425916
643.0,0.00253580775525597
642.0,0.002471655415224032
641.0,0.0024454533907210634
640.0,0.002446537419230812
639.0,0.002466268160051261
638.0,0.0024992490446807993
637.0,0.002549802753647204
636.0,0.002619431605474558
635.0,0.0026854498693172912
634.0,0.0027127068445042986
633.0,0.002694211024880426
632.0,0.0026613842766449874
631.0,0.002651106635409746
630.0,0.0026750982378083467
629.0,0.002717597602944939
628.0,0.002752867649383324
627.0,0.002765751423357797
626.0,0.002764809575469214
625.0,0.0027753603355899284
624.0,0.002816329351551898
623.0,0.00288964623891989
622.0,0.0029850179193051905
621.0,0.0030720389942755395
620.0,0.0030850741482835245
619.0,0.0029520577711651085
618.0,0.0026742166938060474
617.0,0.0023578630608723054
616.0,0.0021314659997289723
615.0,0.0020457941631551874
614.0,0.002060477613317638
613.0,0.0020913215573126753
612.0,0.0020595233057657744
611.0,0.001935726743657839
610.0,0.0017624308224041818
609.0,0.001603254354738945
608.0,0.0014659696815265272
607.0,0.001315010733564128
606.0,0.0011532210541647
605.0,0.0010334802532113198
604.0,0.0009837330919905546
603.0,0.0009777790449252734
602.0,0.00099146761358768
601.0,0.0010294091860041828
600.0,0.0010746102761689594
