cm-1,A
4000.0,0.0015717572441591582
3999.0,0.001549580680556965
3998.0,0.0014974712638504504
3997.0,0.0014968266364073874
3996.0,0.001576934390972385
3995.0,0.0016767486901957222
3994.0,0.0017005163598735667
3993.0,0.0016185317286371934
3992.0,0.001491806224254097
3991.0,0.0014122968566058726
3990.0,0.0014243419684639687
3989.0,0.0014927347152465095
3988.0,0.001552271981247787
3987.0,0.001567452352824703
3986.0,0.0015597000416231119
3985.0,0.0015799310252933227
3984.0,0.0016489054235667988
3983.0,0.0017393483814519845
3982.0,0.001805678361068739
3981.0,0.0018298889317270922
3980.0,0.0018290050583008033
3979.0,0.0018225405316160057
3978.0,0.0018146579254639424
3977.0,0.0018039953682183352
3976.0,0.001800417134809649
3975.0,0.00181225067924914
3974.0,0.0018301798930730386
3973.0,0.0018394677621163544
3972.0,0.0018450494482204474
3971.0,0.0018680868178429155
3970.0,0.0019162472504476568
3969.0,0.0019781201503437365
3968.0,0.0020353108659222994
3967.0,0.0020753874302264757
3966.0,0.0020874809159947254
3965.0,0.0020628568307804766
3964.0,0.0020123138691799597
3963.0,0.0019678891112971716
3962.0,0.001960797796438216
3961.0,0.0019905397150097306
3960.0,0.002033946695513533
3959.0,0.002076969768982825
3958.0,0.002106529034092473
3957.0,0.0021122949061540353
3956.0,0.002095092634603739
3955.0,0.0020673522754303354
3954.0,0.0020373686246052056
3953.0,0.0019938145180505218
3952.0,0.0019153846106694603
3951.0,0.0018010738596675882
3950.0,0.0016940795960959818
3949.0,0.0016425531286165971
3948.0,0.0016322129840678004
3947.0,0.0016121141650253523
3946.0,0.0015822866837896426
3945.0,0.0015736193043766169
3944.0,0.0015981823293893293
3943.0,0.0016421626793863614
3942.0,0.0016653482851418109
3941.0,0.0016840157059394376
3940.0,0.0017878331721017894
3939.0,0.0019830353239786965
3938.0,0.0021390426599610214
3937.0,0.0021476622056626994
3936.0,0.002036062816397749
3935.0,0.0019041765188851072
3934.0,0.0018123012928747085
3933.0,0.0017590161776612368
3932.0,0.0017269945810960653
3931.0,0.0016975142011604561
3930.0,0.0016733160624201318
3929.0,0.001675349272335245
3928.0,0.0016956738477686608
3927.0,0.0017163304115445782
3926.0,0.0017310738244266863
3925.0,0.001745535891845328
3924.0,0.0017499892312448865
3923.0,0.001753554251109582
3922.0,0.001817584720145849
3921.0,0.001904685667366751
3920.0,0.0019030314164589328
3919.0,0.0018346565723114053
3918.0,0.0018206483566299255
3917.0,0.0018977259676962064
3916.0,0.001988855833973232
3915.0,0.002076671392638337
3914.0,0.0022384680533243887
3913.0,0.0024779879485927496
3912.0,0.002698883937600199
3911.0,0.002831001059074167
3910.0,0.002845068310873289
3909.0,0.0027305232056942987
3908.0,0.0024636805058356913
3907.0,0.002059311116760181
3906.0,0.0016195124389038113
3905.0,0.0013280825791442317
3904.0,0.0012720575679849274
3903.0,0.0013274850065546286
3902.0,0.0014252046810718949
3901.0,0.0016310705039561425
3900.0,0.0018728642485748102
3899.0,0.001965443276137165
3898.0,0.0019093123348573118
3897.0,0.001895881445959707
3896.0,0.0020009415418582926
3895.0,0.002094354770082126
3894.0,0.002103516048424928
3893.0,0.002167319219798825
3892.0,0.0023858884217830435
3891.0,0.002511722408621281
3890.0,0.002326974532092581
3889.0,0.0021661966854677316
3888.0,0.0022959934531455043
3887.0,0.002505608016100257
3886.0,0.00256828115452052
3885.0,0.0024036880356051718
3884.0,0.002053087466679944
3883.0,0.0018499101054574667
3882.0,0.0019345268088214124
3881.0,0.0020922038041931773
3880.0,0.0020960226591894503
3879.0,0.0018877665650095408
3878.0,0.0017660846500462445
3877.0,0.0019396950110699375
3876.0,0.002137589181091066
3875.0,0.002091586175661714
3874.0,0.0018289590680579696
3873.0,0.0015272026236659453
3872.0,0.0014358637128145824
3871.0,0.0016597450739003765
3870.0,0.0019355655061718611
3869.0,0.0018681930815367294
3868.0,0.0015978458433974735
3867.0,0.0016370114096522993
3866.0,0.001870506176997657
3865.0,0.0019157556636357725
3864.0,0.0018680159331667524
3863.0,0.001894913071386508
3862.0,0.0019908453381628517
3861.0,0.0021380892501455706
3860.0,0.0022396280336281745
3859.0,0.002212792037815795
3858.0,0.002030470633895317
3857.0,0.0017263376297889876
3856.0,0.0014001851524719881
3855.0,0.001293067766784466
3854.0,0.0017807081534366013
3853.0,0.0022825073914802163
3852.0,0.0017024959727880555
3851.0,0.0011117201735527625
3850.0,0.0015480239645450727
3849.0,0.0023168350764637704
3848.0,0.0027622653202683707
3847.0,0.0028840094171478465
3846.0,0.0028490657332776717
3845.0,0.0027445506925881267
3844.0,0.0025918216537789453
3843.0,0.0023335355419836497
3842.0,0.0019160030973471268
3841.0,0.0014434336696661806
3840.0,0.0011085971305165644
3839.0,0.0010536989061639456
3838.0,0.001188247987509459
3837.0,0.0013164843460257412
3836.0,0.0014631310865842618
3835.0,0.0017657691772046354
3834.0,0.002161538341209801
3833.0,0.0024889094006209727
3832.0,0.00268016662203571
3831.0,0.002763651662438486
3830.0,0.002815621057586615
3829.0,0.00289252615854861
3828.0,0.0029401641590749952
3827.0,0.002840890841074839
3826.0,0.002539067512471957
3825.0,0.002157347247889005
3824.0,0.001929286608907337
3823.0,0.0019222815869151264
3822.0,0.0021093575842824775
3821.0,0.0024029957064271175
3820.0,0.002291392236854045
3819.0,0.001961929370882485
3818.0,0.0021375761839324617
3817.0,0.002634841431983274
3816.0,0.002920965140665369
3815.0,0.002795526683495485
3814.0,0.0026082607751480064
3813.0,0.0028386335888593425
3812.0,0.0032669140348801163
3811.0,0.0034214420814960853
3810.0,0.003333167892605996
3809.0,0.0033165671666687746
3808.0,0.003498824307286608
3807.0,0.0036213131183441237
3806.0,0.0033266491061226125
3805.0,0.002834133912240465
3804.0,0.0026462321050567017
3803.0,0.0027236019121485715
3802.0,0.0028157442368056075
3801.0,0.00262717157768692
3800.0,0.002009369193121402
3799.0,0.001678323762383015
3798.0,0.00203543952588706
3797.0,0.002589261293002474
3796.0,0.0029223492701197827
3795.0,0.003033900086856473
3794.0,0.003164933565056042
3793.0,0.0034122843801186143
3792.0,0.0036161024785746213
3791.0,0.0036720482439851817
3790.0,0.003662652059203352
3789.0,0.0036696693436176434
3788.0,0.0036792296795077045
3787.0,0.0036502430952772566
3786.0,0.0035734468573539752
3785.0,0.0034461146613692824
3784.0,0.0032675116883438254
3783.0,0.003109622691931736
3782.0,0.0030824022143245704
3781.0,0.0031728517096941454
3780.0,0.003278407417751597
3779.0,0.0033103032674038375
3778.0,0.003242032590036497
3777.0,0.003230953654011084
3776.0,0.003383037749049328
3775.0,0.0035283167457410437
3774.0,0.0034919875857440507
3773.0,0.0033332321006673037
3772.0,0.003214447068311475
3771.0,0.0031950873649364752
3770.0,0.003187881552023127
3769.0,0.003086017836162607
3768.0,0.002979801982334131
3767.0,0.0030432548476402007
3766.0,0.003192423450313647
3765.0,0.003207121740336017
3764.0,0.003057863065417699
3763.0,0.002947845130650738
3762.0,0.0029837800942334705
3761.0,0.003014061544507288
3760.0,0.00295594722285873
3759.0,0.0028950696625804706
3758.0,0.0028265753434565115
3757.0,0.002701809305764132
3756.0,0.002557430353428896
3755.0,0.0023906036595739894
3754.0,0.002066209800678401
3753.0,0.001478576484742407
3752.0,0.0009529845642417549
3751.0,0.0010266748483879883
3750.0,0.0013441534796221066
3749.0,0.0013235487288173154
3748.0,0.0012883145913334564
3747.0,0.0016401166714039845
3746.0,0.0023053170031645245
3745.0,0.0030539857034825183
3744.0,0.003352550987886653
3743.0,0.0028852932877844865
3742.0,0.0025098287028541976
3741.0,0.002668201910855062
3740.0,0.0026935594678113733
3739.0,0.0022600893873671924
3738.0,0.0016490101898788234
3737.0,0.0012330516536282392
3736.0,0.0012084658092636107
3735.0,0.0013596564292211793
3734.0,0.0013695576446695352
3733.0,0.0014867362161233998
3732.0,0.0019542470607528794
3731.0,0.0025334094136633045
3730.0,0.0030038291474625734
3729.0,0.0033123024901277175
3728.0,0.0033855089229138033
3727.0,0.0032137655539361295
3726.0,0.002954081283833962
3725.0,0.00276551655395455
3724.0,0.0026888303961550277
3723.0,0.0026526603010173008
3722.0,0.0026103541544029133
3721.0,0.0026155333512441503
3720.0,0.0027382679888331833
3719.0,0.0029655115711756668
3718.0,0.0031799368671781357
3717.0,0.0032794915502343098
3716.0,0.0032743369261089934
3715.0,0.003211166899645728
3714.0,0.0030589966777493935
3713.0,0.002847532583869155
3712.0,0.00285710284998956
3711.0,0.0031471910675730645
3710.0,0.003343813784699311
3709.0,0.003441822634885145
3708.0,0.0036604989404345053
3707.0,0.003929912176380569
3706.0,0.0041044830765271005
3705.0,0.004179257907367283
3704.0,0.004224748302186601
3703.0,0.004301372680759966
3702.0,0.004439096174478565
3701.0,0.004578662561923801
3700.0,0.004683269184996943
3699.0,0.0048605201717149766
3698.0,0.005128116819583236
3697.0,0.005318387580336384
3696.0,0.005316820390178209
3695.0,0.0051802268840203764
3694.0,0.0050048593843486444
3693.0,0.004787212256621275
3692.0,0.004511633490321039
3691.0,0.00433386597638422
3690.0,0.004454209413577474
3689.0,0.0046829843550510305
3688.0,0.004669184841459143
3687.0,0.004647696654056017
3686.0,0.005028378921667415
3685.0,0.005691876320027287
3684.0,0.006223919471616168
3683.0,0.006413307506918058
3682.0,0.006344741345427987
3681.0,0.006187858463147105
3680.0,0.005993084317126997
3679.0,0.005753076135613797
3678.0,0.005604826317510596
3677.0,0.005769286173467549
3676.0,0.006313789160995199
3675.0,0.006541029636992752
3674.0,0.006009127807758921
3673.0,0.005752418005417963
3672.0,0.006222826275615706
3671.0,0.0068989570443580995
3670.0,0.007596448825356048
3669.0,0.007987069148963454
3668.0,0.008027368867268611
3667.0,0.008315166373940511
3666.0,0.00888049718408256
3665.0,0.009371954529411908
3664.0,0.009723024193795254
3663.0,0.010025749249753782
3662.0,0.010280320569512353
3661.0,0.010401969896968502
3660.0,0.010393234472675485
3659.0,0.010406898237257843
3658.0,0.010629135283330177
3657.0,0.011069455358708276
3656.0,0.011411664025033692
3655.0,0.011321416685385832
3654.0,0.01097857986588103
3653.0,0.01061139537015116
3652.0,0.010081652105975536
3651.0,0.009471962018568944
3650.0,0.009662215164520907
3649.0,0.010799084614863699
3648.0,0.011503824554252692
3647.0,0.011623414405542171
3646.0,0.011978530261744095
3645.0,0.012682123760283204
3644.0,0.013454777065165657
3643.0,0.014089916826151285
3642.0,0.014576920645863464
3641.0,0.014983689670817792
3640.0,0.015346575248287739
3639.0,0.015652471743897334
3638.0,0.01586456916782293
3637.0,0.01600306924969841
3636.0,0.016154389770765932
3635.0,0.01633403713978216
3634.0,0.016462794078183816
3633.0,0.016492492478679153
3632.0,0.016510231632573345
3631.0,0.016604255517652572
3630.0,0.016928190942327177
3629.0,0.017712934308547385
3628.0,0.018391702334331194
3627.0,0.0186036123387877
3626.0,0.019037499058179665
3625.0,0.019698633144299246
3624.0,0.02009387867077154
3623.0,0.020176136837821497
3622.0,0.020161096594604428
3621.0,0.02022891699813787
3620.0,0.020457696347925033
3619.0,0.020759093852145066
3618.0,0.02089002659935466
3617.0,0.020894706703916865
3616.0,0.02100446883951076
3615.0,0.02123957610899505
3614.0,0.02156740521411307
3613.0,0.021992434000206007
3612.0,0.022456915999709212
3611.0,0.02294413271470117
3610.0,0.023505348263811777
3609.0,0.0241571412363423
3608.0,0.024809138715465993
3607.0,0.025247093247959478
3606.0,0.025436464386195047
3605.0,0.025576169059466976
3604.0,0.025762380208953946
3603.0,0.02598101275432475
3602.0,0.026247939802473506
3601.0,0.026566590041376202
3600.0,0.02687462124162513
3599.0,0.027131576591957484
3598.0,0.027373871869970944
3597.0,0.027633360022258305
3596.0,0.02792703859912054
3595.0,0.028266033657369884
3594.0,0.028621499853013675
3593.0,0.02894219414212131
3592.0,0.02921319919156391
3591.0,0.02939005945961653
3590.0,0.029419453933347956
3589.0,0.02944333562549931
3588.0,0.029852645928637112
3587.0,0.030605285291143
3586.0,0.031168659443443103
3585.0,0.03152951594455045
3584.0,0.03194429679931245
3583.0,0.03237557789735413
3582.0,0.03274836304306129
3581.0,0.033088790314146736
3580.0,0.03342708048799941
3579.0,0.033750475142486726
3578.0,0.03406581374213967
3577.0,0.034414127037840504
3576.0,0.034827318881940905
3575.0,0.03528632463763535
3574.0,0.03573393998108743
3573.0,0.036104889265875136
3572.0,0.03633911134518949
3571.0,0.03638135860197355
3570.0,0.036218559874385665
3569.0,0.035960723753235474
3568.0,0.03592356577052828
3567.0,0.03628941081364736
3566.0,0.03669833246763948
3565.0,0.03695548237396745
3564.0,0.03734136009418466
3563.0,0.03793168306749217
3562.0,0.038575497356953016
3561.0,0.039199526335416755
3560.0,0.039797380133770204
3559.0,0.04034269812798359
3558.0,0.04080187075635469
3557.0,0.041167475784323594
3556.0,0.0414440668068779
3555.0,0.041654046117203684
3554.0,0.041853271498854795
3553.0,0.04211306645600345
3552.0,0.042436346924529564
3551.0,0.04275908089477554
3550.0,0.043045340789936756
3549.0,0.043290937372194326
3548.0,0.043508751671626045
3547.0,0.043779088533531026
3546.0,0.0441759616774664
3545.0,0.04463621114528991
3544.0,0.045057213785666225
3543.0,0.045441620362472436
3542.0,0.04583570690487625
3541.0,0.046248787594843514
3540.0,0.046663028485177435
3539.0,0.04706602475605697
3538.0,0.047454724749629085
3537.0,0.04782288006256514
3536.0,0.04815909474143685
3535.0,0.04847496323521538
3534.0,0.048811002020843965
3533.0,0.049182733133321825
3532.0,0.0495530982332941
3531.0,0.04987855067378228
3530.0,0.05016456497108406
3529.0,0.0504407748524012
3528.0,0.05070758307570502
3527.0,0.05094032167719896
3526.0,0.05114612401841894
3525.0,0.05137921671765041
3524.0,0.051703902549160685
3523.0,0.05214787541259934
3522.0,0.05268254329306089
3521.0,0.053247570343009656
3520.0,0.053776338885129914
3519.0,0.05422114665054086
3518.0,0.05459398405259076
3517.0,0.05495789236639796
3516.0,0.055346214616999366
3515.0,0.05571511910725208
3514.0,0.056005682260642946
3513.0,0.056236048982752064
3512.0,0.05650232188536589
3511.0,0.05687600657097366
3510.0,0.05731997971598325
3509.0,0.0577193085342337
3508.0,0.05800512125357486
3507.0,0.05821057625628199
3506.0,0.05839854465785348
3505.0,0.058613640404155155
3504.0,0.0589104892343193
3503.0,0.05930662514603362
3502.0,0.059719577757414495
3501.0,0.06005723167835051
3500.0,0.060308798349765436
3499.0,0.060523969732685326
3498.0,0.06078158142883199
3497.0,0.06114356813111356
3496.0,0.06159959070340622
3495.0,0.06208025194907234
3494.0,0.06253257202199852
3493.0,0.06295314408452336
3492.0,0.06334217831942547
3491.0,0.06367044413192191
3490.0,0.06391220405464257
3489.0,0.06408574826502875
3488.0,0.06424589911169244
3487.0,0.06444613764226663
3486.0,0.06471680758666132
3485.0,0.06506319118920582
3484.0,0.06546168669521103
3483.0,0.06586552096663875
3482.0,0.06623203842906761
3481.0,0.06655479667137393
3480.0,0.0668739050765381
3479.0,0.06723628197794396
3478.0,0.06764026251898336
3477.0,0.06803274863850779
3476.0,0.0683643087074793
3475.0,0.06864052814266558
3474.0,0.06891521821446042
3473.0,0.0692300171672415
3472.0,0.06956646850773782
3471.0,0.06987106264670234
3470.0,0.07012743289763866
3469.0,0.07038404577942736
3468.0,0.07069668463888518
3467.0,0.07106423832148834
3466.0,0.07144370655483999
3465.0,0.07180846275001729
3464.0,0.07215824129639631
3463.0,0.07248571507305429
3462.0,0.07276937416087764
3461.0,0.07300840528591514
3460.0,0.07324246088299906
3459.0,0.07352028087423697
3458.0,0.07385491375807805
3457.0,0.07421542701618748
3456.0,0.07455526076556757
3455.0,0.07485284940326736
3454.0,0.07512844306619935
3453.0,0.07541149548996702
3452.0,0.07569602531815783
3451.0,0.07594501137763066
3450.0,0.07614281668661799
3449.0,0.07632139045418651
3448.0,0.07653625665508156
3447.0,0.0768135703944764
3446.0,0.0771333963546927
3445.0,0.0774752570927478
3444.0,0.07783562095639038
3443.0,0.07821057814731716
3442.0,0.07860047942834934
3441.0,0.07899627254366935
3440.0,0.07935850671317403
3439.0,0.07964846756899299
3438.0,0.07987967104770503
3437.0,0.08011431010817609
3436.0,0.08038926980233427
3435.0,0.08067409987551927
3434.0,0.08092825337045852
3433.0,0.08116285687037193
3432.0,0.08141727356278639
3431.0,0.08170163814948211
3430.0,0.08199915806815194
3429.0,0.08230495541340245
3428.0,0.08262892058034085
3427.0,0.08296225928768076
3426.0,0.08327240241264455
3425.0,0.0835335716230049
3424.0,0.08374090743012626
3423.0,0.08390160366904777
3422.0,0.08403772540434559
3421.0,0.0841955371432948
3420.0,0.08441597793123333
3419.0,0.0846885664000557
3418.0,0.0849625148866648
3417.0,0.08521005082125208
3416.0,0.0854613146588318
3415.0,0.08576354376842558
3414.0,0.08611604589195736
3413.0,0.08646626295621056
3412.0,0.08676891978003658
3411.0,0.08702808675168285
3410.0,0.08727787272694519
3409.0,0.087538510220491
3408.0,0.08779807613316812
3407.0,0.08802645231626169
3406.0,0.0881989612178846
3405.0,0.0883195003579513
3404.0,0.08842988656115952
3403.0,0.08858676077497876
3402.0,0.08881570219399336
3401.0,0.08909039748354997
3400.0,0.08935976738571125
3399.0,0.08958482225897962
3398.0,0.0897498490795019
3397.0,0.08985433978893417
3396.0,0.08991159482789113
3395.0,0.08995578833696638
3394.0,0.09003930623192623
3393.0,0.09020711536516748
3392.0,0.09045887909900688
3391.0,0.09074088678467453
3390.0,0.09098425226317271
3389.0,0.09114524315418109
3388.0,0.09121887053366355
3387.0,0.09123878227466765
3386.0,0.09126688270695327
3385.0,0.09136114407646244
3384.0,0.09152675161341954
3383.0,0.09170220015047545
3382.0,0.09181727760724238
3381.0,0.09186663921234242
3380.0,0.09191169640005702
3379.0,0.09200543225695865
3378.0,0.09213491524650778
3377.0,0.09224940196715888
3376.0,0.09232052189553655
3375.0,0.09235019109196999
3374.0,0.09234362615549549
3373.0,0.09231128106433088
3372.0,0.09229048570638773
3371.0,0.09232784744733982
3370.0,0.09242473204814496
3369.0,0.09251945778875677
3368.0,0.0925415277228176
3367.0,0.09247919554847805
3366.0,0.092384787929464
3365.0,0.0923227346803494
3364.0,0.0923246929074963
3363.0,0.09238642691122206
3362.0,0.09248310674040904
3361.0,0.09257763204395551
3360.0,0.09263002161519189
3359.0,0.09261919743838795
3358.0,0.09255829308520223
3357.0,0.09248093026905432
3356.0,0.09241217439090306
3355.0,0.09235648567543438
3354.0,0.09231059345277898
3353.0,0.09227600837267978
3352.0,0.09225526174825227
3351.0,0.09224495650427586
3350.0,0.0922352727296148
3349.0,0.09220903404309164
3348.0,0.09214282824275088
3347.0,0.09202927284642758
3346.0,0.09190420738704816
3345.0,0.0918285910327114
3344.0,0.09182244541606696
3343.0,0.09182998787975681
3342.0,0.09177352595962726
3341.0,0.09163355731092208
3340.0,0.0914543923224389
3339.0,0.09128086022727047
3338.0,0.091123875199644
3337.0,0.09098746169411427
3336.0,0.09088684058893792
3335.0,0.09081987947959871
3334.0,0.09075206927506384
3333.0,0.09065499225356331
3332.0,0.09054135193983054
3331.0,0.09044212616495476
3330.0,0.09036124030579444
3329.0,0.09027214751881255
3328.0,0.09015276907802493
3327.0,0.09000600091290287
3326.0,0.08984763456493873
3325.0,0.08969135075125756
3324.0,0.08954637904879033
3323.0,0.08941335144804265
3322.0,0.0892804234242907
3321.0,0.08913736329269072
3320.0,0.08899412405369554
3319.0,0.08886928586763694
3318.0,0.08875523165561529
3317.0,0.08860999733905892
3316.0,0.08839849844672058
3315.0,0.08813783461316564
3314.0,0.08789022323562139
3313.0,0.08770650987414366
3312.0,0.08758059201912598
3311.0,0.08746473851774762
3310.0,0.08732561265021034
3309.0,0.08717492970378557
3308.0,0.08704332797103471
3307.0,0.08693574539641039
3306.0,0.08682450178342388
3305.0,0.08668007565282049
3304.0,0.08649543040784773
3303.0,0.0862827995699123
3302.0,0.08606148108432674
3301.0,0.08585510943330665
3300.0,0.0856863637990995
3299.0,0.08555963529647774
3298.0,0.08545305376889933
3297.0,0.08533914361777298
3296.0,0.08521086912569081
3295.0,0.08507473255990702
3294.0,0.08492472894847033
3293.0,0.08474596984875073
3292.0,0.08455037235357415
3291.0,0.08438541309662113
3290.0,0.08428552280060198
3289.0,0.08422274921078303
3288.0,0.08412704748701809
3287.0,0.08395736269746579
3286.0,0.08373795221504779
3285.0,0.08352291100849307
3284.0,0.08334271421536994
3283.0,0.08319103504827914
3282.0,0.08304549918596511
3281.0,0.08288604161393937
3280.0,0.08270206279092007
3279.0,0.08250102080826889
3278.0,0.08230920032614421
3277.0,0.08214911426849061
3276.0,0.08201663068803532
3275.0,0.08189498858797584
3274.0,0.08178620326866004
3273.0,0.08170442915593785
3272.0,0.08163806192190379
3271.0,0.08154747278292154
3270.0,0.08140950503808261
3269.0,0.08123911169919314
3268.0,0.08105662799079945
3267.0,0.0808605362799497
3266.0,0.0806524221712804
3265.0,0.08046409390286885
3264.0,0.08032827213861456
3263.0,0.08023305907566033
3262.0,0.08013830956201308
3261.0,0.0800317706323403
3260.0,0.07993443102091342
3259.0,0.07985205978501167
3258.0,0.07975982573680078
3257.0,0.07964381420240196
3256.0,0.07952144691000493
3255.0,0.07940607490495882
3254.0,0.07928081582176254
3253.0,0.07912955556162334
3252.0,0.07896973239923992
3251.0,0.07882877008996589
3250.0,0.07870648408276214
3249.0,0.07858228937581324
3248.0,0.0784426828118006
3247.0,0.0782772246151554
3246.0,0.07806310186862311
3245.0,0.07779027008701976
3244.0,0.07750326312631096
3243.0,0.07727984846862655
3242.0,0.07715080527797454
3241.0,0.0770606111494851
3240.0,0.07692127215090266
3239.0,0.07669854558874513
3238.0,0.07643686512855753
3237.0,0.0762021862397691
3236.0,0.07601192727170666
3235.0,0.07582988098669219
3234.0,0.07562212413943738
3233.0,0.07540078382262604
3232.0,0.07520510610075011
3231.0,0.07504987204825288
3230.0,0.07490840295644205
3229.0,0.0747458991704603
3228.0,0.07455580587589741
3227.0,0.07435883039765348
3226.0,0.07417432702572085
3225.0,0.07399625011049377
3224.0,0.07379474678501383
3223.0,0.07354342298101418
3222.0,0.07325179578137173
3221.0,0.07296625112921037
3220.0,0.07272399662017713
3219.0,0.07250596115821195
3218.0,0.0722554862001816
3217.0,0.0719451338090884
3216.0,0.07160443624520613
3215.0,0.0712844869914748
3214.0,0.07101604350070428
3213.0,0.07080411292538913
3212.0,0.07063722998822089
3211.0,0.07048052263441484
3210.0,0.07027745241033413
3209.0,0.06999051972903571
3208.0,0.06964106948355839
3207.0,0.06928785488554047
3206.0,0.0689679688191074
3205.0,0.06867764000873847
3204.0,0.06840602603361551
3203.0,0.06815882782573816
3202.0,0.06793660028704103
3201.0,0.06771108072796596
3200.0,0.06744638593332417
3199.0,0.06714049877293661
3198.0,0.06682675403132865
3197.0,0.06652815008452206
3196.0,0.0662253815114596
3195.0,0.06588344695956332
3194.0,0.06549955806129269
3193.0,0.06511211484397819
3192.0,0.06476477471495112
3191.0,0.06446898101981
3190.0,0.06420269400215764
3189.0,0.06393935311715401
3188.0,0.06367268396898532
3187.0,0.06341212767906629
3186.0,0.06315755788762256
3185.0,0.06288440592874976
3184.0,0.06256332121160342
3183.0,0.06219910930119439
3182.0,0.06183751870375468
3181.0,0.06151941864186793
3180.0,0.06123359847775173
3179.0,0.060930604857027455
3178.0,0.06058277687681291
3177.0,0.06021374178008541
3176.0,0.059864706823269366
3175.0,0.05955381074231005
3174.0,0.05927926127922096
3173.0,0.05903851433826527
3172.0,0.05882031463917574
3171.0,0.058586742056931006
3170.0,0.05828827402747199
3169.0,0.05790644414359456
3168.0,0.057476353956149334
3167.0,0.05706211946587449
3166.0,0.05670786751352039
3165.0,0.05640490323440109
3164.0,0.056102487609448436
3163.0,0.05575905080150434
3162.0,0.05538669794308074
3161.0,0.05503534943782087
3160.0,0.05473095218472386
3159.0,0.05444637497451098
3158.0,0.054141992396915764
3157.0,0.053819570555492816
3156.0,0.053519155342539815
3155.0,0.053266879207526714
3154.0,0.05303989521027241
3153.0,0.05278521950151506
3152.0,0.05246914282943567
3151.0,0.05210996894137546
3150.0,0.05176123460277776
3149.0,0.051456407285656446
3148.0,0.05117355439547078
3147.0,0.05086633086050021
3146.0,0.050527410299468604
3145.0,0.05020211330008825
3144.0,0.049932426323878586
3143.0,0.04970782325357664
3142.0,0.049484593316435635
3141.0,0.049236567787843216
3140.0,0.048968551698774176
3139.0,0.04869021123320083
3138.0,0.04839880064069181
3137.0,0.04808944066103439
3136.0,0.047767724073842756
3135.0,0.04745015347128825
3134.0,0.047159156660360545
3133.0,0.046909128157001274
3132.0,0.046686327219814715
3131.0,0.04645286215935903
3130.0,0.04618266053126252
3129.0,0.04588661545946199
3128.0,0.04559353297432118
3127.0,0.045312282968884725
3126.0,0.045026477854101424
3125.0,0.0447226863911452
3124.0,0.044409532771828006
3123.0,0.04410867515741478
3122.0,0.04383247366678179
3121.0,0.04357125881902975
3120.0,0.04330179667135531
3119.0,0.04301072135230717
3118.0,0.04271232041859534
3117.0,0.04243719636128089
3116.0,0.04219690165421164
3115.0,0.04196706848066726
3114.0,0.04171412177253934
3113.0,0.04143414887521812
3112.0,0.0411574354115905
3111.0,0.04091829516672938
3110.0,0.04072353110387242
3109.0,0.040544393939007106
3108.0,0.040340484144722
3107.0,0.04009831978593102
3106.0,0.039842933544983215
3105.0,0.03960077165665527
3104.0,0.03935956008071565
3103.0,0.03908509085816806
3102.0,0.03877432948224403
3101.0,0.03847045679948162
3100.0,0.03821905745678304
3099.0,0.03802439261103242
3098.0,0.037856279562640906
3097.0,0.03768146658124731
3096.0,0.03748031464622884
3095.0,0.037252978439543005
3094.0,0.03702114832282057
3093.0,0.03681236531054752
3092.0,0.03663087130464448
3091.0,0.03645232589645984
3090.0,0.03625377361681267
3089.0,0.036036719149442474
3088.0,0.03581548092334037
3087.0,0.035596399726686004
3086.0,0.035379184648891816
3085.0,0.03516628984492872
3084.0,0.034956412228972486
3083.0,0.034737796193332914
3082.0,0.03450137428468904
3081.0,0.034256870270379415
3080.0,0.03402608586305183
3079.0,0.03382387002073296
3078.0,0.03365275239988048
3077.0,0.03350637581756185
3076.0,0.03336573036694057
3075.0,0.033200550583090224
3074.0,0.032991790784040256
3073.0,0.03275322123748755
3072.0,0.03252149824716615
3071.0,0.032324998691419984
3070.0,0.03216399374990937
3069.0,0.0320142403324671
3068.0,0.0318429898163254
3067.0,0.031628865915539824
3066.0,0.031380157422862265
3065.0,0.03113319283636947
3064.0,0.030923296618844312
3063.0,0.03075413945352293
3062.0,0.030598697679724896
3061.0,0.03042760242739065
3060.0,0.030231857558195907
3059.0,0.030023249124953924
3058.0,0.029820415836409236
3057.0,0.02963672829179846
3056.0,0.029473423945548707
3055.0,0.029316677395311675
3054.0,0.029142918377874354
3053.0,0.028933578845321876
3052.0,0.02869298762988623
3051.0,0.028452458424933026
3050.0,0.028249270789015138
3049.0,0.028095837420619187
3048.0,0.027972317302224263
3047.0,0.02785087336392632
3046.0,0.027717372520800535
3045.0,0.027567836584351517
3044.0,0.02739977013858532
3043.0,0.02721739746147979
3042.0,0.0270361427651072
3041.0,0.02686710886662666
3040.0,0.026701472369321393
3039.0,0.026524618492348818
3038.0,0.026343658929899913
3037.0,0.02618354171191724
3036.0,0.02605439464612705
3035.0,0.02593674335163564
3034.0,0.02580394380988883
3033.0,0.02565211470005762
3032.0,0.025501843706717542
3031.0,0.025378319274740123
3030.0,0.025291029651902976
3029.0,0.02522374690110734
3028.0,0.02514421799160467
3027.0,0.025034179540463258
3026.0,0.024914895610229096
3025.0,0.024828908257602922
3024.0,0.024790483764879495
3023.0,0.02476939473114261
3022.0,0.024727201531759595
3021.0,0.024656584414006588
3020.0,0.02458163727975016
3019.0,0.02453363135215423
3018.0,0.024535289992507554
3017.0,0.02459416514407623
3016.0,0.024697083624471993
3015.0,0.02481463320654303
3014.0,0.02491952708844332
3013.0,0.02500400760641797
3012.0,0.02508235315752781
3011.0,0.025181695031209813
3010.0,0.02532823556470811
3009.0,0.025531747891508663
3008.0,0.02577758942443964
3007.0,0.026036201096095973
3006.0,0.026280998629362035
3005.0,0.026498025740007185
3004.0,0.0266889396096838
3003.0,0.026872644965291518
3002.0,0.027075301250376837
3001.0,0.027303069613396902
3000.0,0.027526090500477288
2999.0,0.027701849229728008
2998.0,0.027811883537403714
2997.0,0.027865010032803776
2996.0,0.02786866309802765
2995.0,0.02781399164143523
2994.0,0.0276887614086414
2993.0,0.027483194401073382
2992.0,0.027180590043788165
2991.0,0.026764569301346294
2990.0,0.02624896349623966
2989.0,0.025688211128204217
2988.0,0.025142423786077193
2987.0,0.024638648395188388
2986.0,0.02417187796192776
2985.0,0.023734592990079816
2984.0,0.0233324780828419
2983.0,0.022977019762506264
2982.0,0.022674104502696017
2981.0,0.02241718419546995
2980.0,0.022189608289803264
2979.0,0.0219792313218024
2978.0,0.021792385493358376
2977.0,0.02164373451966224
2976.0,0.021530495925608246
2975.0,0.02142791515614494
2974.0,0.021317089704558066
2973.0,0.02120831203607311
2972.0,0.02112916081664962
2971.0,0.021092699776747322
2970.0,0.021082720203521817
2969.0,0.02106772547262789
2968.0,0.021028759845297347
2967.0,0.020977315936691672
2966.0,0.02094343346408616
2965.0,0.020943110817262044
2964.0,0.020960668562059772
2963.0,0.02096950070141426
2962.0,0.020961561323325686
2961.0,0.020947654296355638
2960.0,0.02093835369358457
2959.0,0.02094182774910898
2958.0,0.020973146719994902
2957.0,0.021043821297223958
2956.0,0.021141956302276863
2955.0,0.0212424121535035
2954.0,0.02134055773073979
2953.0,0.02145950491666226
2952.0,0.021622846893597072
2951.0,0.021832690890433517
2950.0,0.022072282174422492
2949.0,0.022309101599024713
2948.0,0.02249735550156471
2947.0,0.022600904033649113
2946.0,0.02261894023485813
2945.0,0.02257035494653053
2944.0,0.022450817667902995
2943.0,0.022231202024974667
2942.0,0.021904682024130085
2941.0,0.021512294244374296
2940.0,0.02110646293337129
2939.0,0.020709793195120743
2938.0,0.020318343445974343
2937.0,0.019925475740020144
2936.0,0.019529104476449653
2935.0,0.019134178003126192
2934.0,0.018764893883259443
2933.0,0.01845500152760824
2932.0,0.018213318670353584
2931.0,0.018014829633916086
2930.0,0.017836316917394214
2929.0,0.0176826789957815
2928.0,0.01756212439695466
2927.0,0.01745954580215711
2926.0,0.01735384344226868
2925.0,0.017245229475329922
2924.0,0.017142777558102073
2923.0,0.01703601819732568
2922.0,0.016902478971637457
2921.0,0.016734745481490933
2920.0,0.016545726309601015
2919.0,0.016353606862469377
2918.0,0.016173336902981176
2917.0,0.016014609042567872
2916.0,0.01587416934638385
2915.0,0.015737160919012158
2914.0,0.015596091234656547
2913.0,0.015462440357058304
2912.0,0.015353798714314502
2911.0,0.015275092471921053
2910.0,0.015216511582959173
2909.0,0.015160935034338366
2908.0,0.01509050023909256
2907.0,0.014998370390851414
2906.0,0.014900088350684546
2905.0,0.014821359117865987
2904.0,0.014767338785173171
2903.0,0.014715951341453466
2902.0,0.014646458092124006
2901.0,0.014563305922479298
2900.0,0.014474930956457627
2899.0,0.01437616779677356
2898.0,0.014259910954427668
2897.0,0.014138536005428031
2896.0,0.014040955216045729
2895.0,0.013982989279130137
2894.0,0.013954538154024733
2893.0,0.013930945424205659
2892.0,0.013894163855772568
2891.0,0.01384634375979595
2890.0,0.013807903157333677
2889.0,0.013797850059643239
2888.0,0.013812951280431276
2887.0,0.013832387255579826
2886.0,0.01384254733689406
2885.0,0.013848440694961836
2884.0,0.01385560408438148
2883.0,0.013853786524744637
2882.0,0.013827095347603508
2881.0,0.013772821086147122
2880.0,0.013702968258492475
2879.0,0.013628098870661687
2878.0,0.013545751828024075
2877.0,0.0134422928191987
2876.0,0.013306038453258291
2875.0,0.013142907953237602
2874.0,0.012976375573463329
2873.0,0.01282702086671957
2872.0,0.01269200246192704
2871.0,0.012554157775510414
2870.0,0.012407573601427753
2869.0,0.01226287008459793
2868.0,0.012131758986053497
2867.0,0.012019609740122065
2866.0,0.011931881234324877
2865.0,0.011868287528381219
2864.0,0.011808524964636651
2863.0,0.01172457543308483
2862.0,0.011618095361052757
2861.0,0.011527929441499859
2860.0,0.011488320913413983
2859.0,0.011492183556820872
2858.0,0.011502987320808488
2857.0,0.011494575375946052
2856.0,0.01146761232980586
2855.0,0.011436590253960523
2854.0,0.011410624669377938
2853.0,0.011381650776208911
2852.0,0.011331154134830207
2851.0,0.011250280720547132
2850.0,0.011150365258627157
2849.0,0.011048837581423809
2848.0,0.010950447983089244
2847.0,0.010855229017523536
2846.0,0.010775029291361198
2845.0,0.010721037824625112
2844.0,0.010678229358051905
2843.0,0.010614420501284957
2842.0,0.010516967941769718
2841.0,0.010404106421954919
2840.0,0.010297923843985713
2839.0,0.010205663555343419
2838.0,0.01013455493894399
2837.0,0.010099980825811806
2836.0,0.010102521659315819
2835.0,0.010111109217163447
2834.0,0.0100870582204648
2833.0,0.01001948709286583
2832.0,0.009930289774463407
2831.0,0.009850794444171347
2830.0,0.009796495942330712
2829.0,0.009760980038418233
2828.0,0.00972632442146609
2827.0,0.009680393426721676
2826.0,0.009625667021982691
2825.0,0.009567062823630701
2824.0,0.009500212392539127
2823.0,0.009423844210341578
2822.0,0.009355922487334002
2821.0,0.009317948667464673
2820.0,0.009304455102598122
2819.0,0.009286762564951449
2818.0,0.009247680898304845
2817.0,0.009196074813245586
2816.0,0.009143694247835819
2815.0,0.009088489390611944
2814.0,0.009029870021201827
2813.0,0.008980234855087688
2812.0,0.008949366696721951
2811.0,0.008930204421876208
2810.0,0.008910227744565393
2809.0,0.008886888098041137
2808.0,0.008862841710621816
2807.0,0.008834823626723644
2806.0,0.008795097363496195
2805.0,0.0087392084196623
2804.0,0.008670033717832756
2803.0,0.00859988233731498
2802.0,0.008545134427616265
2801.0,0.00850744445424038
2800.0,0.008464896240545177
2799.0,0.008397500020869045
2798.0,0.008318363459015791
2797.0,0.008260817064638323
2796.0,0.008234865467280866
2795.0,0.008219072529139726
2794.0,0.008198304386766102
2793.0,0.008182510212463861
2792.0,0.008180029289700784
2791.0,0.008177098795277886
2790.0,0.008157522510580509
2789.0,0.008124165705193668
2788.0,0.00808665836854169
2787.0,0.008044216410742959
2786.0,0.007995014686114563
2785.0,0.007948385300820225
2784.0,0.007913602457477057
2783.0,0.007887744670729521
2782.0,0.007866574751586352
2781.0,0.007854650128648189
2780.0,0.00785205300122661
2779.0,0.007843725141215839
2778.0,0.007816330894056924
2777.0,0.0077780182230796115
2776.0,0.007749059948812998
2775.0,0.007739827682429588
2774.0,0.007748066251718977
2773.0,0.007766482681056687
2772.0,0.00778084965595565
2771.0,0.007771730149455029
2770.0,0.007732491342946377
2769.0,0.007680632628411729
2768.0,0.007640690898019033
2767.0,0.0076191167378048055
2766.0,0.007605346319456174
2765.0,0.007591545413225839
2764.0,0.007579201832959976
2763.0,0.007569310248919912
2762.0,0.007556675101127407
2761.0,0.007534856555140707
2760.0,0.007501260514997079
2759.0,0.007457776162595513
2758.0,0.007409533836133889
2757.0,0.007362380143402837
2756.0,0.007321110869650525
2755.0,0.007291389202788349
2754.0,0.007279766605961971
2753.0,0.0072851001038080655
2752.0,0.00729412325870717
2751.0,0.007295578708209028
2750.0,0.007293891355109619
2749.0,0.007296393818287911
2748.0,0.007291647894452363
2747.0,0.007259594643621579
2746.0,0.007205875824849151
2745.0,0.00716455449244543
2744.0,0.0071565000209653715
2743.0,0.007162283624428421
2742.0,0.0071490243084086635
2741.0,0.007110561831108642
2740.0,0.00706769206860764
2739.0,0.007037393071748614
2738.0,0.007017357347469104
2737.0,0.006998289042995524
2736.0,0.006977639139491465
2735.0,0.006959559963357061
2734.0,0.0069475217590098445
2733.0,0.006938954159104137
2732.0,0.006925610856782864
2731.0,0.006900313817311819
2730.0,0.006865018498203677
2729.0,0.00682993582961307
2728.0,0.006804089086197829
2727.0,0.006788741786939648
2726.0,0.006778283547773627
2725.0,0.006764593263982983
2724.0,0.006744316595671352
2723.0,0.006726826601228175
2722.0,0.006728945117331707
2721.0,0.0067542153096469765
2720.0,0.006783288521852098
2719.0,0.006794172403846304
2718.0,0.0067857161363701025
2717.0,0.006769085537884976
2716.0,0.006744571616053931
2715.0,0.006705744631891624
2714.0,0.006662173605348465
2713.0,0.006636683637339673
2712.0,0.006635896728808718
2711.0,0.006640529920092426
2710.0,0.006630038872268632
2709.0,0.0066024162349235405
2708.0,0.006567533104889798
2707.0,0.006535374363269405
2706.0,0.0065149634640284376
2705.0,0.006509804407226957
2704.0,0.0065076682867509
2703.0,0.006486854600172243
2702.0,0.00643851760296171
2701.0,0.006375443323289094
2700.0,0.006317900128819961
2699.0,0.0062819206184020005
2698.0,0.006278897902973369
2697.0,0.006308238185967586
2696.0,0.006346069827169133
2695.0,0.006357828882790453
2694.0,0.006332597157178235
2693.0,0.0062936158227271735
2692.0,0.006269874560294305
2691.0,0.0062678218336676885
2690.0,0.006275981640360472
2689.0,0.006285302976968133
2688.0,0.006295211356518121
2687.0,0.006306646542538121
2686.0,0.006316062313863494
2685.0,0.006315259937498185
2684.0,0.006298105393437379
2683.0,0.006271609405908248
2682.0,0.006254304626641758
2681.0,0.006254242989823822
2680.0,0.0062546165355686825
2679.0,0.006235587524725299
2678.0,0.006205724558118889
2677.0,0.0061936778106378085
2676.0,0.006209999993009657
2675.0,0.006235508827044675
2674.0,0.006249576289893523
2673.0,0.00625196556443863
2672.0,0.006251662855184525
2671.0,0.006251242664085938
2670.0,0.006249681060347564
2669.0,0.006248129191908735
2668.0,0.006245228924468431
2667.0,0.00623655657771181
2666.0,0.006223960385645816
2665.0,0.0062180747760426265
2664.0,0.006229199336402651
2663.0,0.006261182156265779
2662.0,0.006310395611554538
2661.0,0.006361242013917633
2660.0,0.0063896241212842205
2659.0,0.006386342555685136
2658.0,0.006372140083418487
2657.0,0.006371981600318656
2656.0,0.006379367855849161
2655.0,0.006369292890029086
2654.0,0.006342630183319786
2653.0,0.006329915619116506
2652.0,0.006345605355944405
2651.0,0.006366658956245244
2650.0,0.006366284848251427
2649.0,0.006344703529799904
2648.0,0.006315256933832595
2647.0,0.006282367360112014
2646.0,0.0062489112403959135
2645.0,0.006224709111412141
2644.0,0.006211480105419113
2643.0,0.006194787143296873
2642.0,0.006166849677966964
2641.0,0.006143164713404635
2640.0,0.006141629344481361
2639.0,0.006155517660485926
2638.0,0.006160633532394386
2637.0,0.0061407036100156985
2636.0,0.006096973890241165
2635.0,0.006042657591159714
2634.0,0.005994486119700936
2633.0,0.005960905407037495
2632.0,0.0059336738264242385
2631.0,0.005901747606953832
2630.0,0.00587271519217272
2629.0,0.0058634024965353694
2628.0,0.00586946297206521
2627.0,0.005867706582620954
2626.0,0.00585239551753269
2625.0,0.005843784002638637
2624.0,0.005850695713282415
2623.0,0.005850075959989522
2622.0,0.005818857542804753
2621.0,0.005765281320320433
2620.0,0.005713902000363251
2619.0,0.005677733385123619
2618.0,0.005661389998970778
2617.0,0.005671604194277166
2616.0,0.005703644085654179
2615.0,0.005728078881837858
2614.0,0.005710358901207608
2613.0,0.005642903211457741
2612.0,0.005550266587254062
2611.0,0.0054691963361600555
2610.0,0.005427510654245713
2609.0,0.005430030373848225
2608.0,0.005457564394328129
2607.0,0.005485205589718746
2606.0,0.0055019450193089705
2605.0,0.005507360808194907
2604.0,0.005497626119943596
2603.0,0.005469657129985307
2602.0,0.005431185528971351
2601.0,0.005387645322092353
2600.0,0.005328832456292662
2599.0,0.00525287862117898
2598.0,0.005194088496699047
2597.0,0.005193990385224423
2596.0,0.0052447819873361525
2595.0,0.005292100472168108
2594.0,0.005294371966306857
2593.0,0.005251015514272267
2592.0,0.005180144440062684
2591.0,0.005106262845377504
2590.0,0.005069513637213792
2589.0,0.005102054291081285
2588.0,0.005180795806078054
2587.0,0.005240771493709412
2586.0,0.00524770945119909
2585.0,0.00522479278691283
2584.0,0.00520136823994289
2583.0,0.005175110970779595
2582.0,0.005138128555406678
2581.0,0.005100287983371067
2580.0,0.0050648298661935065
2579.0,0.005016089553765819
2578.0,0.004954670177302127
2577.0,0.004914075359997763
2576.0,0.004917454378073668
2575.0,0.004943118568345383
2574.0,0.004956093671588787
2573.0,0.004953493968151061
2572.0,0.004956826920319644
2571.0,0.004975407717816507
2570.0,0.004996166015439964
2569.0,0.004998917729239578
2568.0,0.004972203320291215
2567.0,0.004926082337569635
2566.0,0.004890921870781195
2565.0,0.0048874524167252485
2564.0,0.004900811952651491
2563.0,0.0049051748285725595
2562.0,0.004906623052530863
2561.0,0.0049299181528150654
2560.0,0.00496844888266945
2559.0,0.0049874419253840546
2558.0,0.004978299775228845
2557.0,0.0049675554023837
2556.0,0.004963680143660079
2555.0,0.00493844083342382
2554.0,0.004879087990441376
2553.0,0.004820804659996127
2552.0,0.004804205201766961
2551.0,0.004828257000918554
2550.0,0.004861911079645726
2549.0,0.004877922052380593
2548.0,0.004862482940228742
2547.0,0.004816771210260627
2546.0,0.004762609960527488
2545.0,0.004727475605478674
2544.0,0.004717192046392812
2543.0,0.0047216245466193294
2542.0,0.004741487203934354
2541.0,0.004779026762118005
2540.0,0.004808969035479474
2539.0,0.004800037022566449
2538.0,0.004765856328894342
2537.0,0.004752870152497337
2536.0,0.004773241990398962
2535.0,0.004791744823491813
2534.0,0.00478553575645793
2533.0,0.004772372240415212
2532.0,0.004770243635463821
2531.0,0.004774132423111602
2530.0,0.0047856952995142124
2529.0,0.004822033801546942
2528.0,0.004878390085156951
2527.0,0.004921468204055829
2526.0,0.004934806640925272
2525.0,0.004932998927922916
2524.0,0.004920922447376638
2523.0,0.004883204300047329
2522.0,0.004828201782654037
2521.0,0.004796238766072907
2520.0,0.004802600614653331
2519.0,0.004814248952770584
2518.0,0.004805517877666191
2517.0,0.00479671611528293
2516.0,0.004814317474166529
2515.0,0.0048515185564328355
2514.0,0.004890683605596759
2513.0,0.004926421840096832
2512.0,0.004943014968991154
2511.0,0.004908257838846219
2510.0,0.004821054897096135
2509.0,0.004736482038674727
2508.0,0.004713498997864272
2507.0,0.004756823874382323
2506.0,0.004827584388353182
2505.0,0.004885671693627236
2504.0,0.004905650705646716
2503.0,0.004879921428784861
2502.0,0.004827003654818047
2501.0,0.004776982330030389
2500.0,0.004737790062629504
2499.0,0.004697289425600143
2498.0,0.00465931156726331
2497.0,0.004642678958664405
2496.0,0.004639288792287756
2495.0,0.0046146852311900214
2494.0,0.004563252501128114
2493.0,0.004523182533960286
2492.0,0.0045201508570947915
2491.0,0.004533414068166702
2490.0,0.00453397344972611
2489.0,0.004519347634834982
2488.0,0.00449474616781898
2487.0,0.004458273876019619
2486.0,0.004424243774919447
2485.0,0.00442480511301873
2484.0,0.004466375348192598
2483.0,0.004514569714224052
2482.0,0.004539018170228507
2481.0,0.004542853295051589
2480.0,0.004535350227409368
2479.0,0.004511137447139233
2478.0,0.0044737383111907204
2477.0,0.00444691833872505
2476.0,0.004445739566407737
2475.0,0.004465162842288412
2474.0,0.004504763709937058
2473.0,0.004566445243841151
2472.0,0.004618821025028296
2471.0,0.004610170497416553
2470.0,0.004536962170726717
2469.0,0.004460030264299634
2468.0,0.00443122760719539
2467.0,0.004439316916329775
2466.0,0.004446089706303478
2465.0,0.004436142120176515
2464.0,0.004410149151432476
2463.0,0.004369330494083679
2462.0,0.004333590768376899
2461.0,0.004341490801941974
2460.0,0.004405380736524958
2459.0,0.004492398149551547
2458.0,0.004566550556546728
2457.0,0.0046193246682375375
2456.0,0.004646101864824656
2455.0,0.004632002701383579
2454.0,0.004584253366618798
2453.0,0.004544206151863979
2452.0,0.004541545956778493
2451.0,0.004563464249550112
2450.0,0.004586674156386983
2449.0,0.0046082616486514535
2448.0,0.004627009485823822
2447.0,0.0046269012291311725
2446.0,0.004598895244135406
2445.0,0.004551681586403634
2444.0,0.004489828032899729
2443.0,0.00441487879796314
2442.0,0.004357127746726277
2441.0,0.004362805942735727
2440.0,0.004430865026229621
2439.0,0.004502520862696308
2438.0,0.004533271754550147
2437.0,0.0045377953486140585
2436.0,0.004547156263998221
2435.0,0.004563505745387829
2434.0,0.004577574977888307
2433.0,0.004589619707040352
2432.0,0.004590861758083481
2431.0,0.004563770536829309
2430.0,0.004521858076150698
2429.0,0.004507981291660123
2428.0,0.004530658344448397
2427.0,0.004544343486858228
2426.0,0.004517114746690802
2425.0,0.004475440863373268
2424.0,0.0044555805771619265
2423.0,0.004452263791444718
2422.0,0.004444777714401035
2421.0,0.004434524277585041
2420.0,0.0044271434495760115
2419.0,0.004414003517789649
2418.0,0.004398639053270016
2417.0,0.004405020246268889
2416.0,0.004433833467327913
2415.0,0.004449160093368486
2414.0,0.004437165189527775
2413.0,0.004438185078044615
2412.0,0.0044865240660090285
2411.0,0.004554786086292163
2410.0,0.004593943205875267
2409.0,0.004595279860532391
2408.0,0.004576673653110522
2407.0,0.004540711477496329
2406.0,0.004487389288539191
2405.0,0.004441267485785966
2404.0,0.004425889189129232
2403.0,0.004430574038134608
2402.0,0.004433878824104769
2401.0,0.0044390825916939694
2400.0,0.004455030429363802
2399.0,0.0044630591185912645
2398.0,0.004439147392143554
2397.0,0.004396365748295518
2396.0,0.004374738744028604
2395.0,0.004397269080059765
2394.0,0.0044567805211518825
2393.0,0.0045312736928230435
2392.0,0.004591777482414043
2391.0,0.004611836217357225
2390.0,0.004593132271727163
2389.0,0.004572200115135512
2388.0,0.004583644774974815
2387.0,0.004625366766720451
2386.0,0.004669968274896999
2385.0,0.004693556878804392
2384.0,0.004682102827546644
2383.0,0.004629092577735088
2382.0,0.004544192552185789
2381.0,0.00444979387418356
2380.0,0.004353125096011378
2379.0,0.004237920761988417
2378.0,0.004099405255809961
2377.0,0.00396385339748867
2376.0,0.003854591094876886
2375.0,0.0037721617280904104
2374.0,0.003734742157860465
2373.0,0.0037881618045451483
2372.0,0.0039209713089356744
2371.0,0.004023584686369427
2370.0,0.00401735436083072
2369.0,0.0039787314809372485
2368.0,0.004035458386892708
2367.0,0.004175646297247572
2366.0,0.004270580069463529
2365.0,0.004253510528689585
2364.0,0.004167741510899901
2363.0,0.004089899788985873
2362.0,0.0041034560340836145
2361.0,0.004251936340925337
2360.0,0.004423786329204039
2359.0,0.004417556046736618
2358.0,0.004210980951307898
2357.0,0.004018312966160985
2356.0,0.0040098156080480155
2355.0,0.004126533389140298
2354.0,0.00422647741349582
2353.0,0.004242471237940925
2352.0,0.004198502592868716
2351.0,0.00415910571449592
2350.0,0.004175803179460385
2349.0,0.004257604372417756
2348.0,0.004371911571873703
2347.0,0.004471118906828891
2346.0,0.004512255525194272
2345.0,0.004497816293050979
2344.0,0.004501209919220846
2343.0,0.00457833032970664
2342.0,0.004690035292376717
2341.0,0.0047394065813897495
2340.0,0.0046810537229634045
2339.0,0.004554930374421296
2338.0,0.004467058926253871
2337.0,0.004512375340258346
2336.0,0.0046562986118798945
2335.0,0.004753613850535844
2334.0,0.0046967764257995455
2333.0,0.004525051744117101
2332.0,0.0043575787022661705
2331.0,0.00429467428189998
2330.0,0.00438523584468565
2329.0,0.004657099678633258
2328.0,0.005065398595214593
2327.0,0.005510938756688928
2326.0,0.005889345336926222
2325.0,0.006144380268309502
2324.0,0.00624823264847148
2323.0,0.0062034435794984305
2322.0,0.0060800043775728
2321.0,0.005971866100062011
2320.0,0.005894947270684578
2319.0,0.005786363199011925
2318.0,0.005629228293388234
2317.0,0.005502193986047635
2316.0,0.005459940144012957
2315.0,0.005461435132246051
2314.0,0.005426301503281268
2313.0,0.005351817042754035
2312.0,0.005291352117823101
2311.0,0.005286089990026168
2310.0,0.005324391330465653
2309.0,0.005383587135178413
2308.0,0.0054400026647455834
2307.0,0.005478962276118619
2306.0,0.00549386031294668
2305.0,0.0054915901992597166
2304.0,0.005477285701006857
2303.0,0.005467724896660363
2302.0,0.005495069016701328
2301.0,0.005573345595491611
2300.0,0.005647951987845526
2299.0,0.005641636788529176
2298.0,0.005548758328912539
2297.0,0.005452446930258468
2296.0,0.0054262887919985505
2295.0,0.0054737162974487765
2294.0,0.00556270814459263
2293.0,0.005672096613326414
2292.0,0.005771547179062899
2291.0,0.005822074774424909
2290.0,0.0058257645621737145
2289.0,0.005836529002357435
2288.0,0.005882302847419521
2287.0,0.005914957351308006
2286.0,0.0058738588680716936
2285.0,0.00576217365989833
2284.0,0.005631363637705583
2283.0,0.0055234135713118915
2282.0,0.005463303954671362
2281.0,0.005463378127039839
2280.0,0.00549976656005508
2279.0,0.005511301371841439
2278.0,0.005460226893633311
2277.0,0.0053639580912756765
2276.0,0.0052481899004016294
2275.0,0.005112340999626363
2274.0,0.004969464134781954
2273.0,0.004873223780742701
2272.0,0.00486458920529691
2271.0,0.004926502767456511
2270.0,0.005013473407980167
2269.0,0.005083460341537399
2268.0,0.005091894405357019
2267.0,0.005012128218420535
2266.0,0.004889480027302577
2265.0,0.004815170480443217
2264.0,0.0048219209608028335
2263.0,0.00485658329087469
2262.0,0.00487357312203421
2261.0,0.004883114108824444
2260.0,0.004890159348070963
2259.0,0.004864171753063322
2258.0,0.004804057367554764
2257.0,0.00475745334200377
2256.0,0.004737509544431939
2255.0,0.004691634534652475
2254.0,0.004592112445232364
2253.0,0.004489537092730388
2252.0,0.00444140360016103
2251.0,0.004452444689151903
2250.0,0.004510473153647193
2249.0,0.004601344524319891
2248.0,0.004664169997099152
2247.0,0.0046216599069036505
2246.0,0.004492644696393754
2245.0,0.004393526737145744
2244.0,0.004395769598786502
2243.0,0.00446142828032247
2242.0,0.004547522171325455
2241.0,0.00466259344210773
2240.0,0.004780580287752203
2239.0,0.004807146621499802
2238.0,0.004703987196363057
2237.0,0.004557116416744694
2236.0,0.004462988959311902
2235.0,0.004421810770057518
2234.0,0.004398363619269191
2233.0,0.004393993850487722
2232.0,0.004401364475699397
2231.0,0.004375997697044854
2230.0,0.004311933719115948
2229.0,0.004264610868546556
2228.0,0.004253114491974646
2227.0,0.004230176342534651
2226.0,0.004191969189522075
2225.0,0.004210837490051728
2224.0,0.004305921427575175
2223.0,0.004388529859397907
2222.0,0.00439402292639491
2221.0,0.004362534871951752
2220.0,0.0043309027856986634
2219.0,0.004261537277251017
2218.0,0.004145778703084335
2217.0,0.004063246757651482
2216.0,0.00405672847973548
2215.0,0.004053678201502417
2214.0,0.003994836287735791
2213.0,0.003942611721704033
2212.0,0.003978822434998085
2211.0,0.0040808556006841894
2210.0,0.004174014961860194
2209.0,0.004228442925503109
2208.0,0.004244963303670739
2207.0,0.004226539942621749
2206.0,0.004209516343174768
2205.0,0.004240566885617015
2204.0,0.004287298020686325
2203.0,0.004268679053211154
2202.0,0.004197056535583841
2201.0,0.004175912430553061
2200.0,0.004234274273828267
2199.0,0.004290674839693152
2198.0,0.004303611708712068
2197.0,0.004312256101548492
2196.0,0.004300458505865537
2195.0,0.004183185051310407
2194.0,0.003976540865508717
2193.0,0.003817459257388403
2192.0,0.0037626904109538143
2191.0,0.0037302236809579094
2190.0,0.003682100846142434
2189.0,0.003682301200371149
2188.0,0.00372305853423628
2187.0,0.003700929486600344
2186.0,0.0036318862986963922
2185.0,0.003659969816098711
2184.0,0.0037578449977691297
2183.0,0.0036761599094339127
2182.0,0.003338080334314107
2181.0,0.003030022936079668
2180.0,0.00302604313855193
2179.0,0.0032392621948700118
2178.0,0.0034070289108101086
2177.0,0.0034217288428538073
2176.0,0.0033297519130654693
2175.0,0.003186965775472479
2174.0,0.003090432731492173
2173.0,0.003190425039753783
2172.0,0.003494319011262227
2171.0,0.003791666458346212
2170.0,0.0039021522978674762
2169.0,0.0038799221156827976
2168.0,0.003871225382167111
2167.0,0.0039059127734862387
2166.0,0.003960504282556049
2165.0,0.00407611536807773
2164.0,0.004250720689269521
2163.0,0.004320059922321419
2162.0,0.00407684942594319
2161.0,0.0034486905622855128
2160.0,0.002533913896618308
2159.0,0.0016039342702248854
2158.0,0.001057770562330078
2157.0,0.0011061002435658685
2156.0,0.0014893518262153005
2155.0,0.0017528491014649752
2154.0,0.0017664078145313087
2153.0,0.0017532558045506661
2152.0,0.0018643875054655456
2151.0,0.001979584766675963
2150.0,0.0019908870996101836
2149.0,0.002005272949087962
2148.0,0.0021410672762275018
2147.0,0.0023257913948229584
2146.0,0.0024193701813066963
2145.0,0.0023848420109698746
2144.0,0.0022502659724909493
2143.0,0.0020510252401775204
2142.0,0.0018767564069337211
2141.0,0.001836330611585513
2140.0,0.0019046030697237528
2139.0,0.0019402141423983952
2138.0,0.0018857026408735614
2137.0,0.0018125273382807753
2136.0,0.0017545644482740877
2135.0,0.0016708071824303808
2134.0,0.0016007788222464508
2133.0,0.0016669510551628815
2132.0,0.0018764001604137167
2131.0,0.002087433775360904
2130.0,0.002219457999554122
2129.0,0.0023475088675128887
2128.0,0.0025460770427057945
2127.0,0.002766485385265897
2126.0,0.00293054312345343
2125.0,0.0030329509761075693
2124.0,0.0030989477092038145
2123.0,0.003138230398636266
2122.0,0.0031871638451175925
2121.0,0.003300484781648714
2120.0,0.0034569749828090414
2119.0,0.0035689524627806435
2118.0,0.0036167064922392102
2117.0,0.0036760556034048345
2116.0,0.0037767468158579516
2115.0,0.0038436297668426388
2114.0,0.0038210096300172604
2113.0,0.0037508529712847786
2112.0,0.003678206084244913
2111.0,0.0035902191129778866
2110.0,0.0034982734577568976
2109.0,0.00346633657977401
2108.0,0.0035018225881184957
2107.0,0.003531971050650025
2106.0,0.0035346759634759
2105.0,0.0035710707363687914
2104.0,0.0036375012975462667
2103.0,0.0036282766205100346
2102.0,0.0035181086852510636
2101.0,0.0034415020555806862
2100.0,0.003498162662688034
2099.0,0.0035957544206914422
2098.0,0.0035861160887190463
2097.0,0.0034524948975441583
2096.0,0.003278378756909607
2095.0,0.003131341703082412
2094.0,0.0030632147943784453
2093.0,0.0031183946162981076
2092.0,0.003259409749397395
2091.0,0.0033744755166238913
2090.0,0.003419470143083067
2089.0,0.0034714006631618986
2088.0,0.0035851363351615813
2087.0,0.0037094719526891235
2086.0,0.0037950067913352006
2085.0,0.0038679577022525165
2084.0,0.003935659269805368
2083.0,0.003939240199652268
2082.0,0.0038703228475950842
2081.0,0.0038198112155487223
2080.0,0.003831259313400405
2079.0,0.003820703662562975
2078.0,0.0037278000735954673
2077.0,0.0036281276899909945
2076.0,0.0036041460324571055
2075.0,0.0036232249226083426
2074.0,0.0036362427893522503
2073.0,0.0036734004548293524
2072.0,0.003742733033656921
2071.0,0.00375538086701687
2070.0,0.0036610787459071896
2069.0,0.0035496037035136004
2068.0,0.0035178435005901714
2067.0,0.003538014033778943
2066.0,0.0035493134590350106
2065.0,0.0035737712972088212
2064.0,0.003647241553818687
2063.0,0.003741917903928539
2062.0,0.0038378119649583593
2061.0,0.003951193640812999
2060.0,0.004031448670149929
2059.0,0.003962142455889302
2058.0,0.003732674303290417
2057.0,0.0034858066475474646
2056.0,0.00334450060140759
2055.0,0.0033269323377616423
2054.0,0.003457613954698723
2053.0,0.0037673347823355464
2052.0,0.004114170562311626
2051.0,0.004214986790149365
2050.0,0.003978263720752726
2049.0,0.0036536543395614958
2048.0,0.0034788824700958247
2047.0,0.00336923537101395
2046.0,0.0031634284620336147
2045.0,0.002909960919989283
2044.0,0.002723289817751294
2043.0,0.0025833039280834602
2042.0,0.0024667958114366426
2041.0,0.0024563581114470383
2040.0,0.0025505664443488674
2039.0,0.0026161951993906307
2038.0,0.0026598195662269303
2037.0,0.002848227999309767
2036.0,0.0031193644506426
2035.0,0.0031145568297975632
2034.0,0.0027036078816701182
2033.0,0.002235602595369056
2032.0,0.002028750008604703
2031.0,0.001976677891320258
2030.0,0.0019237668937394758
2029.0,0.002000157887913173
2028.0,0.002298173702062285
2027.0,0.002587380844078531
2026.0,0.0026603567930164997
2025.0,0.002651455705701612
2024.0,0.0027333385834267636
2023.0,0.002776476986953561
2022.0,0.002607480511079398
2021.0,0.0023229795686066567
2020.0,0.0020825148440162594
2019.0,0.001852952177282072
2018.0,0.0016163866317007137
2017.0,0.001558168465032372
2016.0,0.0017396840971165143
2015.0,0.00190404050648635
2014.0,0.0018856065772807852
2013.0,0.0018665375133859825
2012.0,0.0020396314035071804
2011.0,0.0022825221177395503
2010.0,0.002383412483179024
2009.0,0.00235602638907505
2008.0,0.002297688294161746
2007.0,0.002160174232660884
2006.0,0.0019231998527414322
2005.0,0.0017574741017572434
2004.0,0.0017890239936505748
2003.0,0.0019133045234182642
2002.0,0.0020051629365916493
2001.0,0.0021000188847230296
2000.0,0.0022411783525622953
1999.0,0.002360807353630595
1998.0,0.0024348393501050715
1997.0,0.0025604570418732444
1996.0,0.002737196328354053
1995.0,0.0027845612999053016
1994.0,0.0026147183190695913
1993.0,0.0024176374811228445
1992.0,0.002404790339727637
1991.0,0.0025128960730283713
1990.0,0.002619453904442434
1989.0,0.002781263411092796
1988.0,0.0030350934554930213
1987.0,0.0032352290544527236
1986.0,0.0032795842695992447
1985.0,0.003296950885296864
1984.0,0.0034343797441579982
1983.0,0.003638680502413511
1982.0,0.003780120941269617
1981.0,0.003793650629928637
1980.0,0.003573966749161967
1979.0,0.0029997959318127953
1978.0,0.002245750299427264
1977.0,0.001770503693554587
1976.0,0.0017385301258155907
1975.0,0.0018349648328821384
1974.0,0.0018341299788607627
1973.0,0.0019171587122371063
1972.0,0.0022341866570916935
1971.0,0.0025546363316437683
1970.0,0.002604169702517632
1969.0,0.00243007667585238
1968.0,0.0022170539623693085
1967.0,0.001991863345408053
1966.0,0.0017564485521989962
1965.0,0.0016479066798550828
1964.0,0.001701514906835357
1963.0,0.001739831859572328
1962.0,0.0016472066101761531
1961.0,0.0015308934730397183
1960.0,0.0014888368184408462
1959.0,0.0014462948292322207
1958.0,0.0013680577956308234
1957.0,0.001373105070422026
1956.0,0.001501399904783909
1955.0,0.0016111628825856055
1954.0,0.0016406556168993692
1953.0,0.001732927483226495
1952.0,0.001964064294378945
1951.0,0.002184553752991648
1950.0,0.0022679393931570395
1949.0,0.00228003365095583
1948.0,0.0022882181385618957
1947.0,0.00222723410844445
1946.0,0.00208891217603516
1945.0,0.0020320719814467367
1944.0,0.002135939014094466
1943.0,0.0022170776322710606
1942.0,0.002093853182862755
1941.0,0.0018845693682929755
1940.0,0.001770055237997906
1939.0,0.0017322348762703948
1938.0,0.001712978634628349
1937.0,0.0017506144917270455
1936.0,0.0018472601022513943
1935.0,0.0018911124842400607
1934.0,0.0018317857848939704
1933.0,0.001777924398813073
1932.0,0.0018027994352500963
1931.0,0.0018144665785233558
1930.0,0.0017494226663145461
1929.0,0.0016957248084107234
1928.0,0.0017279700649912252
1927.0,0.001786448837996633
1926.0,0.0018138145516325482
1925.0,0.001868864274960985
1924.0,0.0019684694152035825
1923.0,0.0019880137691542844
1922.0,0.0018619353684938109
1921.0,0.0017376739892058192
1920.0,0.0017274081553026537
1919.0,0.0017521138931651365
1918.0,0.0017199555271241213
1917.0,0.0016754916383906024
1916.0,0.001670675739172827
1915.0,0.0016576574471375912
1914.0,0.001612388941201916
1913.0,0.0016197275363421574
1912.0,0.0017238450311528116
1911.0,0.0018148202005020884
1910.0,0.0017876698454363463
1909.0,0.0017071734895903433
1908.0,0.0016944108153336516
1907.0,0.0017470184231383416
1906.0,0.0018011309515568443
1905.0,0.0018492118853842125
1904.0,0.0018734290333332708
1903.0,0.001831092277265457
1902.0,0.0017595686206977952
1901.0,0.0017681945735795613
1900.0,0.0018643744753453844
1899.0,0.0019170534760807427
1898.0,0.0018476761444096998
1897.0,0.0017422786003566792
1896.0,0.001696992423537888
1895.0,0.001686718357311841
1894.0,0.001676820370584736
1893.0,0.0017170489048594097
1892.0,0.0018137408499093568
1891.0,0.0018672841260315358
1890.0,0.0018258716589076933
1889.0,0.0017849971956882945
1888.0,0.001814143609514175
1887.0,0.001840809116016326
1886.0,0.0018035202944787021
1885.0,0.0017592206430975211
1884.0,0.001765755809417251
1883.0,0.0017790271347431692
1882.0,0.0017610583789819728
1881.0,0.0017581483103555262
1880.0,0.0017975315426429833
1879.0,0.001820784933118139
1878.0,0.0017935007284245199
1877.0,0.0017813820941640019
1876.0,0.0018180978324957198
1875.0,0.0018250190342160091
1874.0,0.0017586185203743573
1873.0,0.0016953512430057508
1872.0,0.0016834145473596266
1871.0,0.001647876290500683
1870.0,0.001544102535835199
1869.0,0.0015096466689537439
1868.0,0.0016103774020087705
1867.0,0.0016676316233210104
1866.0,0.0016145476138450096
1865.0,0.0015669435488142695
1864.0,0.0015901589800589675
1863.0,0.0016224207552687198
1862.0,0.001605423110334514
1861.0,0.0015854980462030191
1860.0,0.0016112107250534535
1859.0,0.0016367184652423335
1858.0,0.0016258756645178563
1857.0,0.0016313486598561557
1856.0,0.0016804794425226916
1855.0,0.0017043379983345398
1854.0,0.0016668128939528637
1853.0,0.0016392384201325836
1852.0,0.0016721880779597261
1851.0,0.0017144955289824342
1850.0,0.0017060753480926311
1849.0,0.0016998102352311075
1848.0,0.0017552044430982007
1847.0,0.0018122656930602073
1846.0,0.0017922917542414745
1845.0,0.0017625420023222728
1844.0,0.001811447817289868
1843.0,0.001832736284224782
1842.0,0.0017931208056101602
1841.0,0.0018015906629506137
1840.0,0.0018815520521932153
1839.0,0.0019542806041773033
1838.0,0.0019728740917437744
1837.0,0.002002265398176194
1836.0,0.0020799849495133998
1835.0,0.0021322155572709167
1834.0,0.002115630723207197
1833.0,0.0021001326867156594
1832.0,0.0021471098377115506
1831.0,0.002216740256622025
1830.0,0.0022545705515013685
1829.0,0.0023115364348406378
1828.0,0.0024354273071956743
1827.0,0.0025440547996655244
1826.0,0.0025529334387301055
1825.0,0.0025399351035310883
1824.0,0.0025937161597744344
1823.0,0.0026552816868044508
1822.0,0.0026777471815805746
1821.0,0.0027110559179663327
1820.0,0.0027784381488825142
1819.0,0.002796258083305945
1818.0,0.0027300241376602254
1817.0,0.0027073635272302733
1816.0,0.0028089761713613786
1815.0,0.002936031867968452
1814.0,0.0029913047875549433
1813.0,0.003026256132905543
1812.0,0.0031327409004976436
1811.0,0.0032612292732691365
1810.0,0.003343655457531702
1809.0,0.003449419091453146
1808.0,0.0036189220685734344
1807.0,0.0037651529656171122
1806.0,0.0038426774434610015
1805.0,0.003932312863787564
1804.0,0.0040843928482901005
1803.0,0.004224424447131947
1802.0,0.004313749909134878
1801.0,0.00447856357403036
1800.0,0.004792764908398889
1799.0,0.005082085334554676
1798.0,0.005238482961711416
1797.0,0.005380780964716058
1796.0,0.0056229036692386925
1795.0,0.0059020707443494
1794.0,0.006141366993047907
1793.0,0.006487833438639607
1792.0,0.007100340168547397
1791.0,0.007743258440727471
1790.0,0.008262943156849223
1789.0,0.008829954787096627
1788.0,0.00954869869893896
1787.0,0.01038745827953916
1786.0,0.011361250192826338
1785.0,0.012558100296179976
1784.0,0.01391813864608488
1783.0,0.015257948019636092
1782.0,0.01658753479786768
1781.0,0.018126273888576922
1780.0,0.019909358532963134
1779.0,0.021607780021723078
1778.0,0.023074899299191563
1777.0,0.024493526556261455
1776.0,0.025989578556185885
1775.0,0.027460028854601602
1774.0,0.028842311905424113
1773.0,0.030485454070614502
1772.0,0.03263549237344579
1771.0,0.03471950837234099
1770.0,0.03650255404921518
1769.0,0.03845682873714089
1768.0,0.04084506108487392
1767.0,0.04342218563831495
1766.0,0.04590952186979145
1765.0,0.048401283799662166
1764.0,0.05113624176317394
1763.0,0.054308576835113934
1762.0,0.05799169212450748
1761.0,0.06186840951920013
1760.0,0.065431562340029
1759.0,0.06851774972275138
1758.0,0.07140772350855787
1757.0,0.07442875528809682
1756.0,0.07739164910881638
1755.0,0.0798434764822466
1754.0,0.08179499798615265
1753.0,0.08351086545894729
1752.0,0.08500551741060464
1751.0,0.08594703154223098
1750.0,0.08624202263972147
1749.0,0.08630949401797028
1748.0,0.08626396186390206
1747.0,0.08590007619501921
1746.0,0.08516715314781556
1745.0,0.08393723275016636
1744.0,0.08191906972974519
1743.0,0.0791744305855026
1742.0,0.07606725946660158
1741.0,0.0722404958273478
1740.0,0.0668319367514609
1739.0,0.060606205259601476
1738.0,0.0557546581208976
1737.0,0.05270392447278227
1736.0,0.04989388886019133
1735.0,0.044875237968189985
1734.0,0.03717643583397782
1733.0,0.030931395033155
1732.0,0.02776761176288142
1731.0,0.02573997522816744
1730.0,0.02378766264081478
1729.0,0.021932815674453616
1728.0,0.020402637361206212
1727.0,0.019246495727996176
1726.0,0.01834997773439363
1725.0,0.017556970496756093
1724.0,0.016769473361548003
1723.0,0.016048772485635198
1722.0,0.015549142931756191
1721.0,0.015251061986153867
1720.0,0.014927569027131587
1719.0,0.01434518631312448
1718.0,0.013567487361112893
1717.0,0.012931480988100645
1716.0,0.01249919843616447
1715.0,0.012188167962803708
1714.0,0.011998322823882378
1713.0,0.011863154338740408
1712.0,0.011680572284705084
1711.0,0.011436018784390682
1710.0,0.011197812866763296
1709.0,0.011012307604995056
1708.0,0.010857565720262264
1707.0,0.010694856510598994
1706.0,0.010553936746244122
1705.0,0.010498566073521266
1704.0,0.010521924898384896
1703.0,0.010614491714752998
1702.0,0.010716805871433947
1701.0,0.010801605914002067
1700.0,0.010833305725325763
1699.0,0.010768048208023505
1698.0,0.01081753640631739
1697.0,0.01104145213251765
1696.0,0.011269670250644376
1695.0,0.011352862346975731
1694.0,0.011441380382565309
1693.0,0.011647203877324243
1692.0,0.011853805923125443
1691.0,0.011998958884795729
1690.0,0.012162513201109715
1689.0,0.012406011175838299
1688.0,0.012654578068242103
1687.0,0.012815248874827538
1686.0,0.01284302020328787
1685.0,0.01299129997607408
1684.0,0.013523557225999988
1683.0,0.014007790405124086
1682.0,0.014378115367320036
1681.0,0.014736696793558417
1680.0,0.015023586819607075
1679.0,0.015252711274284826
1678.0,0.015474073628123901
1677.0,0.015713137842824253
1676.0,0.015988250202431463
1675.0,0.016288604385943612
1674.0,0.01652721470526261
1673.0,0.016699113079397705
1672.0,0.016851485906774186
1671.0,0.01701661847064351
1670.0,0.017297603587195457
1669.0,0.017649213028630383
1668.0,0.017928321776189575
1667.0,0.01814634557797227
1666.0,0.01833560903175519
1665.0,0.0184996969177206
1664.0,0.01866839266580044
1663.0,0.018902557632530837
1662.0,0.019182890014660472
1661.0,0.01940962951992344
1660.0,0.019582405995823383
1659.0,0.019713888440254287
1658.0,0.01982394950133614
1657.0,0.019930973443145275
1656.0,0.020053026715137447
1655.0,0.020093129166110103
1654.0,0.020176554480098925
1653.0,0.02046064027900551
1652.0,0.02043913675044554
1651.0,0.02040738926979381
1650.0,0.020515359931285712
1649.0,0.02056914876036962
1648.0,0.020561095260425176
1647.0,0.020633362065313115
1646.0,0.020705019463873216
1645.0,0.02069683216825649
1644.0,0.020694311163250566
1643.0,0.020694800690233186
1642.0,0.020678173105893875
1641.0,0.020634513549648303
1640.0,0.020573718026643963
1639.0,0.02050139615729205
1638.0,0.020386334336255953
1637.0,0.02023732055474495
1636.0,0.02014067465998285
1635.0,0.02004162567832964
1634.0,0.01989892014100401
1633.0,0.01980197259361363
1632.0,0.019706517854405442
1631.0,0.019565006313834607
1630.0,0.019378490566826573
1629.0,0.019165631528259237
1628.0,0.018956074935793023
1627.0,0.01877495897616444
1626.0,0.018618981684037618
1625.0,0.018437427477197878
1624.0,0.018188130560176857
1623.0,0.017874864499182918
1622.0,0.01754764642166418
1621.0,0.017270882458954234
1620.0,0.017051114070507693
1619.0,0.016810244402261892
1618.0,0.01646649370124356
1617.0,0.016005590163480566
1616.0,0.015509572587862407
1615.0,0.01513472663982525
1614.0,0.014911204875796495
1613.0,0.014704858629398822
1612.0,0.014419196796952475
1611.0,0.014081685598322225
1610.0,0.013757060374349806
1609.0,0.013452146353665543
1608.0,0.013147309494627037
1607.0,0.012858965758972732
1606.0,0.01260381171957348
1605.0,0.012351471066347638
1604.0,0.012082414357911183
1603.0,0.011806883068435456
1602.0,0.011539214922818473
1601.0,0.011277952980479901
1600.0,0.011022884310234899
1599.0,0.010789151430934103
1598.0,0.01058021055663003
1597.0,0.01037515846793643
1596.0,0.010155444082444853
1595.0,0.009935204752246834
1594.0,0.009740406410238182
1593.0,0.009563803437190592
1592.0,0.009382939247071518
1591.0,0.009201644092005896
1590.0,0.009041207823482823
1589.0,0.008899502568476133
1588.0,0.00875777875556496
1587.0,0.008611753459794754
1586.0,0.008469763092714116
1585.0,0.008323196795338012
1584.0,0.008169870311899589
1583.0,0.008038858819374346
1582.0,0.007935265995450688
1581.0,0.00783934585582544
1580.0,0.007743259169211043
1579.0,0.0076537380956320684
1578.0,0.007547715870329125
1577.0,0.007419660362199329
1576.0,0.0072538980642749724
1575.0,0.007071116292206896
1574.0,0.007004260067183604
1573.0,0.0070413665869490764
1572.0,0.007055079588235369
1571.0,0.006997965759521897
1570.0,0.006941514635657297
1569.0,0.0069021146571609324
1568.0,0.006845569830332514
1567.0,0.006801215099494972
1566.0,0.00677133092475939
1565.0,0.006736878783470285
1564.0,0.006715992669290231
1563.0,0.0067224678151504
1562.0,0.006750584671083099
1561.0,0.006685706900478218
1560.0,0.0065184583259097414
1559.0,0.006575009689652141
1558.0,0.006668215019333531
1557.0,0.006712887160925263
1556.0,0.006817502045919341
1555.0,0.006877190229603331
1554.0,0.00688253959424116
1553.0,0.006886518914788899
1552.0,0.006907601453613216
1551.0,0.006938613264036749
1550.0,0.006974575194796962
1549.0,0.007026725674700354
1548.0,0.007071919452050775
1547.0,0.00709830899553196
1546.0,0.007101994661547853
1545.0,0.007150759413615726
1544.0,0.007273743533766501
1543.0,0.007379869714027281
1542.0,0.007387347733969804
1541.0,0.007489873275217529
1540.0,0.007739442085857411
1539.0,0.00777769613435635
1538.0,0.007759320335914491
1537.0,0.007856360082951215
1536.0,0.00795332012737763
1535.0,0.007996583407687797
1534.0,0.008082911020193864
1533.0,0.00826798824253052
1532.0,0.008403099526949162
1531.0,0.008447865938213023
1530.0,0.008461739358376198
1529.0,0.008488252702126081
1528.0,0.008547096125972516
1527.0,0.008625224273685221
1526.0,0.00871546834476714
1525.0,0.008813852362703396
1524.0,0.00890265379639285
1523.0,0.008956741281421382
1522.0,0.009069380659151364
1521.0,0.009242213796489101
1520.0,0.009303622389683878
1519.0,0.009301340081619997
1518.0,0.00933815053941906
1517.0,0.009486349019079451
1516.0,0.009685457412703127
1515.0,0.009803287305283973
1514.0,0.00986482958591662
1513.0,0.009898483873270657
1512.0,0.009919384548839937
1511.0,0.009906231070745435
1510.0,0.009877807591985031
1509.0,0.00982053845776671
1508.0,0.009899397598346533
1507.0,0.010278861044054594
1506.0,0.01047890041516403
1505.0,0.010488420718423064
1504.0,0.010535058649283904
1503.0,0.010566551453900147
1502.0,0.01058584122073054
1501.0,0.010625813140591949
1500.0,0.010711572127054689
1499.0,0.010821183553493919
1498.0,0.010947091403204566
1497.0,0.01113812573043323
1496.0,0.01131075145413028
1495.0,0.011360608383441623
1494.0,0.011365229747813097
1493.0,0.01139254977843189
1492.0,0.011422306380955788
1491.0,0.01146234435925594
1490.0,0.011622856985277229
1489.0,0.011911695700924492
1488.0,0.012152016210529505
1487.0,0.012272817429824851
1486.0,0.012354140656139143
1485.0,0.01244421455205038
1484.0,0.012536178556985151
1483.0,0.012625488066983888
1482.0,0.012740068310976915
1481.0,0.012908215888171048
1480.0,0.013082359228197199
1479.0,0.013214589381908334
1478.0,0.013339365327195717
1477.0,0.013541484131878296
1476.0,0.013821837320222293
1475.0,0.014090110414897127
1474.0,0.014405280469669372
1473.0,0.015031521114285532
1472.0,0.015834912612838016
1471.0,0.016411252624447696
1470.0,0.01684964113744087
1469.0,0.017348263407462157
1468.0,0.017953223683193114
1467.0,0.018712900186784717
1466.0,0.01981302641550721
1465.0,0.021423483560234886
1464.0,0.02319301393814314
1463.0,0.024602094541617197
1462.0,0.02568936743662592
1461.0,0.02667232606888617
1460.0,0.027678287319231852
1459.0,0.028755290789713964
1458.0,0.03033686446699408
1457.0,0.03251432224802192
1456.0,0.033959953828982516
1455.0,0.03445885756299056
1454.0,0.0347648853800548
1453.0,0.03503435974815662
1452.0,0.03518788961834483
1451.0,0.03517351899097596
1450.0,0.0350371063898356
1449.0,0.03471548540542172
1448.0,0.03403589097660583
1447.0,0.03304313076509426
1446.0,0.03196584137855536
1445.0,0.03084491462741175
1444.0,0.02958465155959767
1443.0,0.028181700053082966
1442.0,0.026770289555635804
1441.0,0.02548774939485643
1440.0,0.02439402343503067
1439.0,0.023475278966663397
1438.0,0.022662872069206325
1437.0,0.02188402484034093
1436.0,0.021171763832514925
1435.0,0.02065657505901133
1434.0,0.020346571977210678
1433.0,0.020128230652085934
1432.0,0.019930002530259516
1431.0,0.019779269332981415
1430.0,0.019719113028249306
1429.0,0.019714452647577287
1428.0,0.01969205612272543
1427.0,0.019651634672895744
1426.0,0.019631287451092966
1425.0,0.01964617334306532
1424.0,0.019695829056673147
1423.0,0.01974036588355619
1422.0,0.019754509742224025
1421.0,0.01973510565853943
1420.0,0.019729483634171364
1419.0,0.019826844027558285
1418.0,0.019963399573981827
1417.0,0.02001621290183597
1416.0,0.019985269935955983
1415.0,0.019911511560558814
1414.0,0.01982705432751353
1413.0,0.019747688940375385
1412.0,0.01966530259193823
1411.0,0.019561054074519725
1410.0,0.01941386622482435
1409.0,0.019218001063454344
1408.0,0.018976899036993185
1407.0,0.01870907265604414
1406.0,0.018435338634635267
1405.0,0.018156204662319594
1404.0,0.017887985806058833
1403.0,0.017661393894514224
1402.0,0.017483889886725057
1401.0,0.01734342440031466
1400.0,0.017277257659507016
1399.0,0.01734422286464594
1398.0,0.017508132691197827
1397.0,0.01771953507396586
1396.0,0.01806427576608214
1395.0,0.018652643794803886
1394.0,0.01937421923972668
1393.0,0.02004626792570137
1392.0,0.020670558314679937
1391.0,0.021315878295415553
1390.0,0.02201658271731772
1389.0,0.02281832779343005
1388.0,0.023799658849255292
1387.0,0.02489556052203245
1386.0,0.025836283200353735
1385.0,0.02647629780809769
1384.0,0.026869251637238183
1383.0,0.027051764769508074
1382.0,0.026997030224776612
1381.0,0.026664464524498895
1380.0,0.026032456721284056
1379.0,0.02514699089043302
1378.0,0.024143310830423374
1377.0,0.023158093989645426
1376.0,0.022247369173289594
1375.0,0.021486543424388556
1374.0,0.021048154030912793
1373.0,0.021001883073191053
1372.0,0.021210354011161066
1371.0,0.021532157381604883
1370.0,0.02190604366898601
1369.0,0.02226820402795272
1368.0,0.022541511060816463
1367.0,0.022702105420365676
1366.0,0.022785422081079552
1365.0,0.022808404649503816
1364.0,0.02276147414566796
1363.0,0.022666367703888666
1362.0,0.022577470818337442
1361.0,0.022505557041506082
1360.0,0.022411726179608658
1359.0,0.022268964050614955
1358.0,0.022069059708612435
1357.0,0.021793187638938064
1356.0,0.02141653685781271
1355.0,0.020945249259087882
1354.0,0.020415830367446777
1353.0,0.019849674865902587
1352.0,0.019237013779582927
1351.0,0.018582520121694864
1350.0,0.01792218126962831
1349.0,0.017282987963008704
1348.0,0.016670415409356803
1347.0,0.016088161194464264
1346.0,0.015549558831752013
1345.0,0.015055640645192242
1344.0,0.01459660553417871
1343.0,0.014172366372024892
1342.0,0.013784901078560223
1341.0,0.013413178898676516
1340.0,0.013028181198420499
1339.0,0.012649224199730635
1338.0,0.012333297968138774
1337.0,0.012086317798281301
1336.0,0.011863490107630766
1335.0,0.01164166184369795
1334.0,0.01142738685929057
1333.0,0.011220061735735955
1332.0,0.011011167550808613
1331.0,0.010814744678274126
1330.0,0.010656978029670517
1329.0,0.010535518548613423
1328.0,0.010425407021695955
1327.0,0.01032218604218858
1326.0,0.010241433827370503
1325.0,0.010181824472299785
1324.0,0.010127214458420259
1323.0,0.01007472605307426
1322.0,0.010032333432424517
1321.0,0.009991011869078675
1320.0,0.009930591337612833
1319.0,0.009853165683388718
1318.0,0.009780612913259833
1317.0,0.009716706922236185
1316.0,0.009647253247108946
1315.0,0.009574409494347125
1314.0,0.009516811939408228
1313.0,0.00947848967410067
1312.0,0.009445885515607145
1311.0,0.009415605999003512
1310.0,0.009391986088986393
1309.0,0.009364104703128831
1308.0,0.009315718057875323
1307.0,0.00925522008621834
1306.0,0.009205284092702135
1305.0,0.009164477341783168
1304.0,0.0091111361584825
1303.0,0.009037771263221292
1302.0,0.0089552902250492
1301.0,0.008864277636000957
1300.0,0.008751809402023834
1299.0,0.00861480333683641
1298.0,0.008459796167676004
1297.0,0.00828020879137718
1296.0,0.008063479796302928
1295.0,0.00782231081174131
1294.0,0.007590773725217128
1293.0,0.007391411894602693
1292.0,0.007231786081902211
1291.0,0.007130424295677796
1290.0,0.007119292906085548
1289.0,0.007219047785980726
1288.0,0.00743052710198046
1287.0,0.00774807666010268
1286.0,0.00816427434179905
1285.0,0.00866534389750553
1284.0,0.009237487182960046
1283.0,0.009875360315822215
1282.0,0.010573264846232708
1281.0,0.01130890483073465
1280.0,0.012047877336239136
1279.0,0.012766878302825978
1278.0,0.013462566829911118
1277.0,0.014133469432179073
1276.0,0.014762874749155185
1275.0,0.015330287938965934
1274.0,0.015832112933237052
1273.0,0.016279211738616427
1272.0,0.016677195365635427
1271.0,0.017020992793879416
1270.0,0.01730542004981599
1269.0,0.017527696222884914
1268.0,0.017682459965224707
1267.0,0.01776609547408434
1266.0,0.017782587880643498
1265.0,0.017736507369112718
1264.0,0.017627169027833334
1263.0,0.017458091922532237
1262.0,0.017242095334278562
1261.0,0.016989214620634345
1260.0,0.016703310678617436
1259.0,0.016396621620164774
1258.0,0.016089267288554653
1257.0,0.015789278689354348
1256.0,0.015492757977889193
1255.0,0.015207894976621675
1254.0,0.01495720133182413
1253.0,0.014751535512192077
1252.0,0.01458341704201822
1251.0,0.01445046052223085
1250.0,0.014361910941559752
1249.0,0.014316818214645307
1248.0,0.014298654926172459
1247.0,0.014298728993835729
1246.0,0.014325670577575035
1245.0,0.014385347832340512
1244.0,0.014469689322521032
1243.0,0.014573879131545234
1242.0,0.01470613657375193
1241.0,0.014870439861211896
1240.0,0.015055671539012171
1239.0,0.015252374830104585
1238.0,0.015467650879751962
1237.0,0.01571407736716938
1236.0,0.015995501937680113
1235.0,0.01631269070941059
1234.0,0.016670682768605203
1233.0,0.017070628268441704
1232.0,0.017505644234936633
1231.0,0.017975858843373414
1230.0,0.018497547362065058
1229.0,0.01908411287082677
1228.0,0.019726517803962396
1227.0,0.02040769351623061
1226.0,0.021130161741946367
1225.0,0.021911749673014194
1224.0,0.022756260133700665
1223.0,0.023647995116428573
1222.0,0.024575269176676504
1221.0,0.02553713151730109
1220.0,0.02652385110442656
1219.0,0.027514573511711812
1218.0,0.028500427846016307
1217.0,0.02948367884213437
1216.0,0.030447202720532647
1215.0,0.03135675294212102
1214.0,0.032201268640230256
1213.0,0.03299489148969635
1212.0,0.03372992290444622
1211.0,0.03437181839075322
1210.0,0.03491429353596108
1209.0,0.03539087950850456
1208.0,0.03581921779485971
1207.0,0.03618434433026821
1206.0,0.03649034254317647
1205.0,0.03677678527780765
1204.0,0.03706958658646964
1203.0,0.03736728095620844
1202.0,0.03768849355609371
1201.0,0.038080234539001445
1200.0,0.03856440591785083
1199.0,0.03912621003142695
1198.0,0.03977157306493798
1197.0,0.04054616229752271
1196.0,0.0414783311054998
1195.0,0.04255351652684235
1194.0,0.04376779550093938
1193.0,0.04515698617642847
1192.0,0.0467443221835794
1191.0,0.04850876294035883
1190.0,0.050438958949542444
1189.0,0.05256327271596953
1188.0,0.05488087038352189
1187.0,0.057315774369181574
1186.0,0.059785985207799014
1185.0,0.062250242877881085
1184.0,0.06461858697492036
1183.0,0.0666847807399837
1182.0,0.06821377941873202
1181.0,0.06901433348224005
1180.0,0.06887967877150855
1179.0,0.0676054439483364
1178.0,0.06516126568838475
1177.0,0.061726246183200995
1176.0,0.05753567026587991
1175.0,0.05284365003474019
1174.0,0.047998864828331586
1173.0,0.04336361354852484
1172.0,0.03914867473099172
1171.0,0.03541829684237046
1170.0,0.03219767231467063
1169.0,0.02949071256412962
1168.0,0.027245402155341505
1167.0,0.025384466723127164
1166.0,0.023859336329941493
1165.0,0.022637467165733588
1164.0,0.021664627210742412
1163.0,0.020878372389344205
1162.0,0.020240419987712453
1161.0,0.01972789852485307
1160.0,0.019312935232967236
1159.0,0.018976444939227073
1158.0,0.018723755490579162
1157.0,0.018562683467752524
1156.0,0.018482206155021646
1155.0,0.018472312705282903
1154.0,0.01854680399885203
1153.0,0.01872603872446202
1152.0,0.019013456909115923
1151.0,0.019409357090674716
1150.0,0.019933155195353883
1149.0,0.020611704126116414
1148.0,0.021458090983184432
1147.0,0.022481692154065862
1146.0,0.023707788376560464
1145.0,0.02516342151889593
1144.0,0.02684717286235605
1143.0,0.02873395681184107
1142.0,0.030806209032573167
1141.0,0.03305008860650456
1140.0,0.03541210369505811
1139.0,0.037796343428123685
1138.0,0.040126853839614944
1137.0,0.04237309715718147
1136.0,0.04449407866707249
1135.0,0.04641980593818694
1134.0,0.04812385910608157
1133.0,0.049646053112851134
1132.0,0.05100611571047189
1131.0,0.052167994711759404
1130.0,0.05311363637928134
1129.0,0.0538574857748394
1128.0,0.05435559633266354
1127.0,0.05450558942795543
1126.0,0.05428060689843714
1125.0,0.053765718433338175
1124.0,0.053039707050003534
1123.0,0.052137301796333496
1122.0,0.051145128542682924
1121.0,0.05020731880004452
1120.0,0.049404144113565085
1119.0,0.04872392953515659
1118.0,0.04816756310132341
1117.0,0.04778311712279903
1116.0,0.04758338056257483
1115.0,0.04752629120766685
1114.0,0.04760616589091651
1113.0,0.04788621537811632
1112.0,0.04841626447520717
1111.0,0.04919277367682973
1110.0,0.05021868159995504
1109.0,0.05152017505771867
1108.0,0.05307135017993411
1107.0,0.05478200995910844
1106.0,0.05660104601078941
1105.0,0.05854994569731396
1104.0,0.0606148732586627
1103.0,0.06270510044485207
1102.0,0.06476980524910797
1101.0,0.06685049271244774
1100.0,0.06896019504388896
1099.0,0.07103258611010282
1098.0,0.07305792211173816
1097.0,0.07513028766634257
1096.0,0.07727847242172906
1095.0,0.07939387120598274
1094.0,0.08141159921716039
1093.0,0.08340806576545119
1092.0,0.0854370000720246
1091.0,0.08744705659785242
1090.0,0.08944255744391005
1089.0,0.09151511170416235
1088.0,0.09361237272572401
1087.0,0.09549609473600346
1086.0,0.09705575615296964
1085.0,0.09843369077145339
1084.0,0.09970806258836615
1083.0,0.10071566296478987
1082.0,0.10133030906194417
1081.0,0.10163803277703676
1080.0,0.10168741852871213
1079.0,0.10135158567213601
1078.0,0.10057758065239597
1077.0,0.09948711777443067
1076.0,0.09811290348074754
1075.0,0.09631934022414947
1074.0,0.09407157308634578
1073.0,0.09150146109528577
1072.0,0.08864820666754224
1071.0,0.08542303992900727
1070.0,0.08188242402577994
1069.0,0.07826266072912974
1068.0,0.07470788515028703
1067.0,0.07120594148667032
1066.0,0.06780738114591933
1065.0,0.0646923704120012
1064.0,0.0620028291270745
1063.0,0.05977798797397331
1062.0,0.05805656789331207
1061.0,0.05689175078521175
1060.0,0.05624593219267045
1059.0,0.055986452193383884
1058.0,0.05601334393196135
1057.0,0.05629631054933311
1056.0,0.05676621192363046
1055.0,0.05728677008099628
1054.0,0.05778565662379155
1053.0,0.05831322054257647
1052.0,0.05891328450435318
1051.0,0.05954127426130865
1050.0,0.060175244409858164
1049.0,0.0608731736895525
1048.0,0.06163701925782869
1047.0,0.062356570764033864
1046.0,0.0629516475697217
1045.0,0.0634343272851643
1044.0,0.06378573696074773
1043.0,0.06390605936406492
1042.0,0.06373364344849614
1041.0,0.06329264289705448
1040.0,0.06258413454715417
1039.0,0.06155798253078881
1038.0,0.060232274437376845
1037.0,0.05871742212653265
1036.0,0.05709431149154624
1035.0,0.05538130800731343
1034.0,0.053629393941170764
1033.0,0.051937076103067206
1032.0,0.050357715492324207
1031.0,0.04888725521765284
1030.0,0.04754715907579712
1029.0,0.0463848934104192
1028.0,0.04538131873686128
1027.0,0.04443938668250193
1026.0,0.04348072906370372
1025.0,0.04248785128482618
1024.0,0.041446309604259594
1023.0,0.040319115818880306
1022.0,0.03909331273404642
1021.0,0.03779227793160172
1020.0,0.036433390280200005
1019.0,0.03502416290593745
1018.0,0.03359842852718172
1017.0,0.03220464306355407
1016.0,0.030859865398183493
1015.0,0.02955766941966685
1014.0,0.02831179519286492
1013.0,0.0271508905853568
1012.0,0.0260808734099318
1011.0,0.025090673211627952
1010.0,0.024184662419775238
1009.0,0.02337532541007452
1008.0,0.022653707666254498
1007.0,0.021997091666295
1006.0,0.021397342097741648
1005.0,0.020854944346521007
1004.0,0.020353946370691534
1003.0,0.019870266293096732
1002.0,0.019398713616324687
1001.0,0.018947510795891628
1000.0,0.018514018752580824
999.0,0.01808992728269954
998.0,0.017682216350806863
997.0,0.017304425363370488
996.0,0.016952841013684668
995.0,0.01661298059597851
994.0,0.016284385253919148
993.0,0.015979085926211806
992.0,0.01569930825015686
991.0,0.015433818080389173
990.0,0.015171930673052544
989.0,0.014906287939110873
988.0,0.014629640594475017
987.0,0.014346084698473163
986.0,0.014077471599761523
985.0,0.013839931498755568
984.0,0.013619999632003027
983.0,0.013390140061666878
982.0,0.013140919316664338
981.0,0.0128813487463183
980.0,0.012615221655148862
979.0,0.01233757396332567
978.0,0.01205120683586611
977.0,0.011767269473635992
976.0,0.011490091737883679
975.0,0.01121865264843976
974.0,0.010963550447604397
973.0,0.010745563569719396
972.0,0.010571237652013881
971.0,0.010419064437246186
970.0,0.010256956752185246
969.0,0.010073224041719751
968.0,0.00988886596821955
967.0,0.009739408626961037
966.0,0.009644577373830628
965.0,0.009598470837846103
964.0,0.009591657177902231
963.0,0.009633528101389253
962.0,0.009740615801525184
961.0,0.009906447371654543
960.0,0.01009498653222603
959.0,0.010261695666831303
958.0,0.01037038646812858
957.0,0.010394526370948676
956.0,0.010322179629344702
955.0,0.010167510281783265
954.0,0.009962334521015529
953.0,0.009726704965575973
952.0,0.009460235037689592
951.0,0.00916699681266379
950.0,0.008868467369467187
949.0,0.008582133931363412
948.0,0.008307976791233452
947.0,0.008047627445052566
946.0,0.00781605824622602
945.0,0.007620028630429543
944.0,0.007443399452422356
943.0,0.007269266354971091
942.0,0.007102014383243423
941.0,0.006953548573891695
940.0,0.00682194831834294
939.0,0.006698919316058084
938.0,0.006586417025203399
937.0,0.006490193077214226
936.0,0.006405438421068818
935.0,0.006322679269447247
934.0,0.006240595441773109
933.0,0.006160932363541788
932.0,0.006078468355687858
931.0,0.005989024265136339
930.0,0.005902642977065439
929.0,0.005837395548496445
928.0,0.005801891905152699
927.0,0.005789391408506886
926.0,0.005783848823167653
925.0,0.005767162164176373
924.0,0.005727978376048017
923.0,0.0056715896984864955
922.0,0.005617277996684267
921.0,0.005579193891237528
920.0,0.005552919313783385
919.0,0.0055238773544480785
918.0,0.0054835155189418144
917.0,0.00543450996167593
916.0,0.0053859009845664725
915.0,0.005345675170660973
914.0,0.005312371100648843
913.0,0.005272893601786698
912.0,0.005214790700414931
911.0,0.005139965781620015
910.0,0.005059306117341275
909.0,0.004977341343523213
908.0,0.004893356595352911
907.0,0.004813839007842286
906.0,0.00474804194987332
905.0,0.0046923439433243855
904.0,0.004635547154120203
903.0,0.004578989105248926
902.0,0.004534252229679559
901.0,0.004501922672673894
900.0,0.004471902377410214
899.0,0.004445144201226513
898.0,0.0044321094900776
897.0,0.00442479055486172
896.0,0.004393558483096981
895.0,0.004322385278099011
894.0,0.00422965592787913
893.0,0.004143731136402762
892.0,0.004073260073171617
891.0,0.004009923358708721
890.0,0.003945443519417127
889.0,0.0038809440857133157
888.0,0.003837969072604447
887.0,0.00386724556804063
886.0,0.004026020041189082
885.0,0.0043347453371581045
884.0,0.004770440362860156
883.0,0.005309502365177788
882.0,0.005961891223520702
881.0,0.006753997963730659
880.0,0.00768937026290609
879.0,0.00873515778667511
878.0,0.009838190111436693
877.0,0.010946706309961574
876.0,0.012024137092694058
875.0,0.013047840054572421
874.0,0.013974338940367755
873.0,0.01468633514193787
872.0,0.01500986530248714
871.0,0.014850510709422737
870.0,0.014315270605843273
869.0,0.013643427609858157
868.0,0.013019268132422785
867.0,0.01248921462445602
866.0,0.012022520951327532
865.0,0.011581324539581314
864.0,0.011129700838684909
863.0,0.01063032585174378
862.0,0.010062086931129435
861.0,0.009427000863021399
860.0,0.008736913265602265
859.0,0.008011596713713695
858.0,0.007286493674188058
857.0,0.006602228910611636
856.0,0.005987436311945989
855.0,0.005459739801253492
854.0,0.005029475270297512
853.0,0.0046899172969761295
852.0,0.004418329422389278
851.0,0.0041993238426690435
850.0,0.004033401432082431
849.0,0.003911346835363625
848.0,0.00379662898292666
847.0,0.003650144485269024
846.0,0.0034626019816216304
845.0,0.0032486403262149376
844.0,0.0030216596908296915
843.0,0.002791649313352903
842.0,0.002575112219213478
841.0,0.0023852763743259023
840.0,0.00221759420033372
839.0,0.0020604322733264353
838.0,0.0019148441297570287
837.0,0.0017919541381317492
836.0,0.0016973471610626217
835.0,0.0016291814311149358
834.0,0.0015851668208881533
833.0,0.0015606113525932688
832.0,0.0015450491541673956
831.0,0.0015303214985693172
830.0,0.0015172008368804293
829.0,0.0015070708006887576
828.0,0.0014960444204705752
827.0,0.0014868162960302213
826.0,0.0014937819194218646
825.0,0.0015212703815728288
824.0,0.001548767987425476
823.0,0.0015550674581229808
822.0,0.0015448637206420673
821.0,0.001535998985157874
820.0,0.0015369212411719835
819.0,0.001551397386989296
818.0,0.0015872050361339183
817.0,0.0016432390988737385
816.0,0.0016994903020029935
815.0,0.0017347912680430646
814.0,0.0017483094224155782
813.0,0.0017525554548967499
812.0,0.0017551431837627574
811.0,0.001762758836566151
810.0,0.0017920396203673777
809.0,0.0018549227501454234
808.0,0.0019361148173521105
807.0,0.0020028455655072934
806.0,0.00203824552746484
805.0,0.0020539804909920894
804.0,0.002072577569538424
803.0,0.0021085455931653396
802.0,0.002162243863741203
801.0,0.0022188980242064463
800.0,0.00225642610045778
799.0,0.002266464638333878
798.0,0.0022653556861980603
797.0,0.0022738344351563057
796.0,0.0022925536557146103
795.0,0.002309889771592969
794.0,0.0023256232917813376
793.0,0.0023525295330175354
792.0,0.0024004210127467444
791.0,0.00247265373624915
790.0,0.0025708730950745468
789.0,0.002688843002328911
788.0,0.002811268140426121
787.0,0.002934545163972943
786.0,0.003078179254126928
785.0,0.003255683496178597
784.0,0.003443830441111198
783.0,0.0036039756491808017
782.0,0.0037260882855059546
781.0,0.0038286278574934003
780.0,0.003927247135297976
779.0,0.004036614869480024
778.0,0.004193324417407246
777.0,0.004431656783419613
776.0,0.004729335877959054
775.0,0.005015243380683841
774.0,0.005243871674398375
773.0,0.005430207936745805
772.0,0.005602595458749547
771.0,0.005764724901886578
770.0,0.0059250187318734895
769.0,0.006122503598564141
768.0,0.00638888298875407
767.0,0.006707843972838683
766.0,0.007041827564858823
765.0,0.00738232981698321
764.0,0.007748767566194147
763.0,0.00815660783887042
762.0,0.00861022939162219
761.0,0.009103733283224166
760.0,0.00959789813331468
759.0,0.010011887230708654
758.0,0.010271317684938646
757.0,0.010364813883026094
756.0,0.010343475932449185
755.0,0.01028527894470057
754.0,0.010267654574934303
753.0,0.010333314823772134
752.0,0.010447408574132778
751.0,0.010507317448769735
750.0,0.010427945378849654
749.0,0.010211100668361603
748.0,0.00991722519874983
747.0,0.009593866787897223
746.0,0.00925657836260535
745.0,0.00892213801419851
744.0,0.008630588669677246
743.0,0.008429549037555079
742.0,0.008342328134595355
741.0,0.00834121681370745
740.0,0.008340262903872998
739.0,0.008229532812335055
738.0,0.007942908646136781
737.0,0.007498576718779879
736.0,0.006976008808765789
735.0,0.00646248354966867
734.0,0.006012698338038847
733.0,0.005637730687327345
732.0,0.00532255199384565
731.0,0.005059273226060746
730.0,0.004864554702937465
729.0,0.004760227271993836
728.0,0.004741105568521746
727.0,0.004771448382200227
726.0,0.004813842742660033
725.0,0.004853858593974358
724.0,0.004902319527383448
723.0,0.004988870494192173
722.0,0.005148624941095609
721.0,0.005391147967378086
720.0,0.005675489556451634
719.0,0.005942689850387147
718.0,0.006182130518711436
717.0,0.00643842607844386
716.0,0.006753705906326842
715.0,0.007121385567154196
714.0,0.007484469753516097
713.0,0.00776033359638988
712.0,0.007878668518873852
711.0,0.007833279592257502
710.0,0.0077040214466552424
709.0,0.007594724714312374
708.0,0.007543932173238628
707.0,0.007518289676100701
706.0,0.007484040626139929
705.0,0.007445473348149691
704.0,0.007410987246247402
703.0,0.00736948870970364
702.0,0.007316999676967091
701.0,0.007269409135332118
700.0,0.007235231526621817
699.0,0.0072057446096044295
698.0,0.007182322955092805
697.0,0.0071807371282036
696.0,0.00719470394028188
695.0,0.007189258359081862
694.0,0.007141118535281248
693.0,0.007054319603917655
692.0,0.006932341966485005
691.0,0.006772437081540943
690.0,0.006600540213538869
689.0,0.006470927190205283
688.0,0.006405032668649641
687.0,0.00637074168474416
686.0,0.0063449869383587
685.0,0.00634432693205262
684.0,0.006374753547518954
683.0,0.006407146916133321
682.0,0.006422448157452264
681.0,0.006431970281651756
680.0,0.0064324113152411586
679.0,0.006388463703191422
678.0,0.006286603551261916
677.0,0.006171298849096604
676.0,0.006093892863194013
675.0,0.006063494340828604
674.0,0.006069078421260969
673.0,0.006095931999222502
672.0,0.0061081511891227305
671.0,0.0060529179708287174
670.0,0.005906805150257686
669.0,0.005694284387350423
668.0,0.005491236796396477
667.0,0.00544485647711682
666.0,0.0055041958647100014
665.0,0.005504144374290677
664.0,0.005433617505267625
663.0,0.005337684629430402
662.0,0.005257043082379592
661.0,0.005223555103194784
660.0,0.0052381128146853015
659.0,0.0052719111019000064
658.0,0.005292798279266098
657.0,0.005292159126095493
656.0,0.0052655950101255615
655.0,0.005204293127867576
654.0,0.005122966203860057
653.0,0.005057253371156763
652.0,0.005017391313042411
651.0,0.004973232331150872
650.0,0.004895014735353621
649.0,0.004779305223246651
648.0,0.004626592580912036
647.0,0.004434770348984523
646.0,0.004229785922110457
645.0,0.00406323391015611
644.0,0.003972205460904245
643.0,0.0039659623807288755
642.0,0.004037452628166818
641.0,0.00415234126704217
640.0,0.004227299658851942
639.0,0.004170092211902288
638.0,0.003976426053874962
637.0,0.0037463900410231663
636.0,0.0035823189327274553
635.0,0.003505825351322319
634.0,0.003473219532554174
633.0,0.0034376613278897274
632.0,0.003380886327335266
631.0,0.0033114790999235096
630.0,0.00325497510010914
629.0,0.0032214986756553057
628.0,0.00317616339375067
627.0,0.0030698711006093074
626.0,0.0029128793478706318
625.0,0.0027865253629620265
624.0,0.0027606042271232437
623.0,0.0028258725996219702
622.0,0.0029129854973414075
621.0,0.0029467023679404306
620.0,0.0028816123605609825
619.0,0.002728471136635456
618.0,0.002555463441095099
617.0,0.002426672196307489
616.0,0.0023446632492672287
615.0,0.0022857618616414256
614.0,0.002255288269255161
613.0,0.0022566481638651437
612.0,0.002242072941301198
611.0,0.0021621648917197894
610.0,0.00205187525859624
609.0,0.0019926125500328157
608.0,0.0019983720137200754
607.0,0.0020115084242030012
606.0,0.0019991949567373796
605.0,0.0019712700611043375
604.0,0.0019057277978372367
603.0,0.0017628105047173305
602.0,0.0015827333470852176
601.0,0.0014717984413382124
600.0,0.0014776435671457547
