cm-1,A
4000.0,0.0007308604512170913
3999.0,0.0007271966355204018
3998.0,0.0007300630359367349
3997.0,0.0007444611385934007
3996.0,0.0007640054223091437
3995.0,0.0007754129946855124
3994.0,0.000770045812476498
3993.0,0.0007512667789662908
3992.0,0.0007324103189637423
3991.0,0.0007260509004449506
3990.0,0.0007353908767190344
3989.0,0.0007539947481166966
3988.0,0.0007720585923900957
3987.0,0.0007822939654739043
3986.0,0.0007811451666354047
3985.0,0.000768500096343939
3984.0,0.0007486915810922322
3983.0,0.0007306555169652807
3982.0,0.0007235107132508435
3981.0,0.0007305579664550312
3980.0,0.0007471757539879655
3979.0,0.0007657352462525301
3978.0,0.0007810209830578334
3977.0,0.0007904064487470625
3976.0,0.000791347057521648
3975.0,0.0007816591742387568
3974.0,0.0007636479396507137
3973.0,0.0007452660172976486
3972.0,0.0007342210423794469
3971.0,0.0007305222389245194
3970.0,0.0007271763093294609
3969.0,0.0007187365863842669
3968.0,0.0007085268500715424
3967.0,0.0007061082215878236
3966.0,0.0007178509015305372
3965.0,0.0007418314728438371
3964.0,0.0007698667468401346
3963.0,0.0007927259946425469
3962.0,0.0008034692259427899
3961.0,0.0007996826399038581
3960.0,0.0007853208816710837
3959.0,0.0007691405009630794
3958.0,0.0007595939715080687
3957.0,0.0007588751289698955
3956.0,0.0007631442952120001
3955.0,0.0007677097981837414
3954.0,0.0007698745995887977
3953.0,0.0007681634336380101
3952.0,0.0007617278279486873
3951.0,0.0007528951288402921
3950.0,0.0007480864360163283
3949.0,0.0007524937189474909
3948.0,0.0007632422450180977
3947.0,0.0007714834089354258
3946.0,0.0007728405571854114
3945.0,0.0007726132951307203
3944.0,0.0007793225201450146
3943.0,0.0007935134956777723
3942.0,0.0008048933618399097
3941.0,0.0008028660069235825
3940.0,0.0007873146408311459
3939.0,0.0007676923429060498
3938.0,0.0007546278829636544
3937.0,0.0007515385796272372
3936.0,0.0007533061953473581
3935.0,0.0007524245688708057
3934.0,0.0007454803133073854
3933.0,0.0007367707498722245
3932.0,0.0007356971631753144
3931.0,0.0007476555905419732
3930.0,0.0007666785654394897
3929.0,0.0007773945349756443
3928.0,0.0007671899503992031
3927.0,0.0007393172456110551
3926.0,0.0007122569652078478
3925.0,0.0007046375134416158
3924.0,0.0007185132456616577
3923.0,0.0007388787266379418
3922.0,0.000749473655126412
3921.0,0.000743855393437375
3920.0,0.0007266163660623551
3919.0,0.0007103168102526956
3918.0,0.0007083879377944996
3917.0,0.0007267636729559471
3916.0,0.0007584301105484905
3915.0,0.000788866661000566
3914.0,0.0008078582697469438
3913.0,0.0008144702262595808
3912.0,0.0008134439106777447
3911.0,0.0008092646610191739
3910.0,0.0008031584108447662
3909.0,0.0007949273549439891
3908.0,0.0007850693862995668
3907.0,0.0007752639214208363
3906.0,0.0007679710985036277
3905.0,0.0007644243910909431
3904.0,0.000763299374968187
3903.0,0.0007629861276351722
3902.0,0.0007653051172091681
3901.0,0.0007744628170165677
3900.0,0.0007908650770718619
3899.0,0.0008082584753043693
3898.0,0.0008182357433458654
3897.0,0.0008168222010989032
3896.0,0.0008047960367008689
3895.0,0.0007855325089525045
3894.0,0.0007662047964470983
3893.0,0.0007580014157658414
3892.0,0.000767220066206276
3891.0,0.000785284953376297
3890.0,0.000795377392609676
3889.0,0.0007881555568391998
3888.0,0.0007686714193690749
3887.0,0.000752716159487867
3886.0,0.0007521686156614256
3885.0,0.0007617204830700402
3884.0,0.0007672078865832649
3883.0,0.0007642961963281736
3882.0,0.000761551188854214
3881.0,0.000766849878988657
3880.0,0.0007752646065292304
3879.0,0.0007753656231898609
3878.0,0.0007631484626714285
3877.0,0.000746056334093804
3876.0,0.0007384642271589066
3875.0,0.0007496989561703721
3874.0,0.0007716566694872277
3873.0,0.0007857072746936247
3872.0,0.000783160463764909
3871.0,0.000772740388567852
3870.0,0.0007675090749414289
3869.0,0.0007685090537413669
3868.0,0.0007663025290843214
3867.0,0.0007552898525023536
3866.0,0.0007400426735440441
3865.0,0.0007310379644232014
3864.0,0.0007338458437410366
3863.0,0.0007441348677604286
3862.0,0.0007548963661270472
3861.0,0.0007646349751873065
3860.0,0.0007762125555518785
3859.0,0.0007915382446195959
3858.0,0.0008085205271060303
3857.0,0.0008208977582472936
3856.0,0.0008216266499953473
3855.0,0.0008180297544330231
3854.0,0.0008245528891654579
3853.0,0.0008304147836895428
3852.0,0.0008194101389861399
3851.0,0.0007983856287662838
3850.0,0.0007805629988119696
3849.0,0.000770050060610612
3848.0,0.0007626884029088218
3847.0,0.0007531221499376792
3846.0,0.0007406126273541095
3845.0,0.0007313070978637857
3844.0,0.0007325451119462741
3843.0,0.0007441130163349519
3842.0,0.0007581201742901827
3841.0,0.0007666323482741467
3840.0,0.0007679932457114146
3839.0,0.0007665806250655256
3838.0,0.0007674633275678612
3837.0,0.0007704684997649407
3836.0,0.0007710716121805379
3835.0,0.0007677605948683964
3834.0,0.0007655795609438397
3833.0,0.000771400050242124
3832.0,0.000785505159227322
3831.0,0.0007996105743805254
3830.0,0.0008036981286492239
3829.0,0.0007952521592609215
3828.0,0.0007812831556451801
3827.0,0.0007719154239126018
3826.0,0.0007723886306119647
3825.0,0.0007800463485357284
3824.0,0.0007888327472582207
3823.0,0.0008007526387640868
3822.0,0.0008253156602062613
3821.0,0.0008570105394114643
3820.0,0.0008762899182759866
3819.0,0.0008752136300707032
3818.0,0.000862320926845352
3817.0,0.0008502319009055688
3816.0,0.0008421162271903069
3815.0,0.000830945879147494
3814.0,0.0008132896995701249
3813.0,0.0007947532559345978
3812.0,0.0007822248190345301
3811.0,0.0007761190162123522
3810.0,0.0007720321352876931
3809.0,0.0007694261618912215
3808.0,0.0007746463237131309
3807.0,0.00078951612658207
3806.0,0.0008037718714049794
3805.0,0.0008062780670124031
3804.0,0.0007964228589919433
3803.0,0.0007848994718878716
3802.0,0.0007816437233840799
3801.0,0.0007831351978862893
3800.0,0.0007827766161205558
3799.0,0.0007834752031611173
3798.0,0.0007913177729132357
3797.0,0.0008036716399178775
3796.0,0.0008080152999895432
3795.0,0.0007959354678696785
3794.0,0.0007731785319231009
3793.0,0.0007524735507649562
3792.0,0.0007425740790636248
3791.0,0.0007440740837440624
3790.0,0.0007519667335143558
3789.0,0.0007602177400052434
3788.0,0.0007638418672574862
3787.0,0.0007603710703318342
3786.0,0.0007514663579013515
3785.0,0.0007432879413619832
3784.0,0.0007426943407958129
3783.0,0.0007513625856699294
3782.0,0.0007634768463675055
3781.0,0.0007709168585163916
3780.0,0.0007698040419307937
3779.0,0.0007623876443283773
3778.0,0.000753983350046322
3777.0,0.0007485583572542569
3776.0,0.000748037082737216
3775.0,0.0007538932748948667
3774.0,0.0007668160536884747
3773.0,0.0007854421024445853
3772.0,0.000806169893086333
3771.0,0.0008228439115881012
3770.0,0.000828030006231197
3769.0,0.0008185340101828373
3768.0,0.00080043833545939
3767.0,0.0007859686853198006
3766.0,0.000784019426065805
3765.0,0.000792674221920496
3764.0,0.0008019602865938589
3763.0,0.0008045641201078852
3762.0,0.000801344212593666
3761.0,0.0007992518220320344
3760.0,0.0008058942700062341
3759.0,0.0008225980618636985
3758.0,0.0008431564379494079
3757.0,0.0008593923345716669
3756.0,0.0008679140712836192
3755.0,0.000871580316541535
3754.0,0.0008753839276348483
3753.0,0.0008804327279611159
3752.0,0.0008817113672188537
3751.0,0.0008731183869070979
3750.0,0.0008582725010237522
3749.0,0.0008470408438640744
3748.0,0.0008411731443814245
3747.0,0.0008343443885093843
3746.0,0.0008249179383359711
3745.0,0.0008169010208689481
3744.0,0.0008067640912665839
3743.0,0.0007891034814421151
3742.0,0.0007697132179693349
3741.0,0.0007570611465897966
3740.0,0.0007502528822784984
3739.0,0.0007392541932729154
3738.0,0.0007172680090200469
3737.0,0.0006929440961751473
3736.0,0.0006860921285631485
3735.0,0.0007091188232125891
3734.0,0.0007537011749940313
3733.0,0.0007967547587674172
3732.0,0.000817155033283298
3731.0,0.0008081909586231876
3730.0,0.0007776821120232921
3729.0,0.0007398811614180629
3728.0,0.0007085529763978214
3727.0,0.0006939678727585657
3726.0,0.0007013315091646197
3725.0,0.0007288296721703084
3724.0,0.0007656298786050345
3723.0,0.0007946516969843677
3722.0,0.0008027037297725199
3721.0,0.0007898245854724597
3720.0,0.0007681702032175607
3719.0,0.0007517727266853711
3718.0,0.0007477329314807273
3717.0,0.0007546599856206419
3716.0,0.0007664560411810824
3715.0,0.0007773175762455283
3714.0,0.0007868496489963285
3713.0,0.0008021866135515506
3712.0,0.0008280928102819126
3711.0,0.0008535612271127267
3710.0,0.000861910397622229
3709.0,0.0008502766065516349
3708.0,0.0008284474113089738
3707.0,0.0008055132375378773
3706.0,0.0007835272278739571
3705.0,0.0007615506463692977
3704.0,0.0007426789520751627
3703.0,0.0007344422509526077
3702.0,0.0007398564843544633
3701.0,0.0007508751879601646
3700.0,0.0007578144316804864
3699.0,0.0007606683815861684
3698.0,0.0007657679743709083
3697.0,0.0007753098754247159
3696.0,0.0007839536301867314
3695.0,0.0007861579479786795
3694.0,0.0007827838378511847
3693.0,0.0007798619064667729
3692.0,0.000782725082255718
3691.0,0.000792819738778117
3690.0,0.0008073728971259185
3689.0,0.0008218217576579762
3688.0,0.000832938628356053
3687.0,0.0008395106516799773
3686.0,0.000843540474051285
3685.0,0.0008497174508368599
3684.0,0.0008626538779266126
3683.0,0.0008839851291986434
3682.0,0.0009128851661220705
3681.0,0.0009472152736860967
3680.0,0.0009817924675320096
3679.0,0.0010083800920075918
3678.0,0.0010199332706908345
3677.0,0.0010186628467641402
3676.0,0.0010118582577705306
3675.0,0.001002460431615215
3674.0,0.0009914507868139448
3673.0,0.0009796296572225482
3672.0,0.0009682857166485371
3671.0,0.0009636497601052036
3670.0,0.0009722517580779111
3669.0,0.0009919801966717786
3668.0,0.001015452768303714
3667.0,0.0010393299750952449
3666.0,0.0010646789042091476
3665.0,0.0010920650584663807
3664.0,0.0011196829824599089
3663.0,0.0011456187432423918
3662.0,0.001170132536558302
3661.0,0.0011938677020384538
3660.0,0.0012148697427366278
3659.0,0.00123024303373818
3658.0,0.00124215547925392
3657.0,0.001257319761452979
3656.0,0.0012784301403939245
3655.0,0.001302200914496971
3654.0,0.0013253865077863017
3653.0,0.0013467684132912063
3652.0,0.001366400784917226
3651.0,0.0013868199012041292
3650.0,0.0014080934416097783
3649.0,0.0014252809621584594
3648.0,0.0014366708624673269
3647.0,0.0014458562191384688
3646.0,0.0014568339094705113
3645.0,0.0014726680681032105
3644.0,0.0014955089068474157
3643.0,0.0015248193437256015
3642.0,0.0015565265968246434
3641.0,0.0015864980660410541
3640.0,0.0016159306855179439
3639.0,0.001650907312698889
3638.0,0.0016941716623432622
3637.0,0.0017391497908363957
3636.0,0.0017754402368352295
3635.0,0.001801155340477323
3634.0,0.0018274136749139645
3633.0,0.0018660680690139723
3632.0,0.0019132943194482724
3631.0,0.0019512638599538208
3630.0,0.0019664486165911275
3629.0,0.0019633311976826346
3628.0,0.001964493797510945
3627.0,0.0019889559116302736
3626.0,0.0020356330018446835
3625.0,0.0020907590191478927
3624.0,0.0021369768896395557
3623.0,0.002161544739430684
3622.0,0.0021653073837613304
3621.0,0.0021637119495950957
3620.0,0.0021748509436055165
3619.0,0.0022025393942856583
3618.0,0.0022393599912070962
3617.0,0.0022832930072902097
3616.0,0.002338664465281425
3615.0,0.002403145818046501
3614.0,0.002460635666634086
3613.0,0.002491925837583614
3612.0,0.002494149049674832
3611.0,0.002484986723940941
3610.0,0.002489197688663824
3609.0,0.002521747181945839
3608.0,0.0025776788038417786
3607.0,0.0026388488744597937
3606.0,0.0026921337379820064
3605.0,0.0027367649901379855
3604.0,0.002778307661148117
3603.0,0.002821690788315989
3602.0,0.00286773788102369
3601.0,0.0029120596805492036
3600.0,0.002947700620659806
3599.0,0.002969759911175843
3598.0,0.0029777574865694576
3597.0,0.002976464020760089
3596.0,0.0029770816673609837
3595.0,0.002994892679461814
3594.0,0.00303982576253957
3593.0,0.003106907694940938
3592.0,0.0031771301134919548
3591.0,0.003228905054981808
3590.0,0.003249389518492932
3589.0,0.0032405247115001434
3588.0,0.0032194665137439005
3587.0,0.0032122737324018413
3586.0,0.003238459768815414
3585.0,0.0032963915404454446
3584.0,0.003366461769163027
3583.0,0.0034265138509946315
3582.0,0.0034666201821390184
3581.0,0.003492947990574212
3580.0,0.0035180342661537307
3579.0,0.0035484687395425816
3578.0,0.0035828401272036056
3577.0,0.003618348005918099
3576.0,0.0036544306950135686
3575.0,0.0036911011380871897
3574.0,0.0037280205359388665
3573.0,0.0037658525054921396
3572.0,0.0038051078960556015
3571.0,0.003842640429605474
3570.0,0.0038717113143984204
3569.0,0.003887080205504729
3568.0,0.003889554347434907
3567.0,0.0038875891669416787
3566.0,0.0038944643360735026
3565.0,0.003919103651502576
3564.0,0.003961355713914566
3563.0,0.0040163499993618144
3562.0,0.004078564333847821
3561.0,0.004141910321954509
3560.0,0.0041996795572760886
3559.0,0.004247370102275304
3558.0,0.004285149074446515
3557.0,0.004316880416090569
3556.0,0.004347310366910409
3555.0,0.004379817916326404
3554.0,0.004415103334834485
3553.0,0.004450949582346277
3552.0,0.004484894729300945
3551.0,0.004517746040810769
3550.0,0.004551910356025249
3549.0,0.004586148842100273
3548.0,0.0046147605842064895
3547.0,0.004633963896611156
3546.0,0.004648044829826013
3545.0,0.004666067503072254
3544.0,0.004693509431523182
3543.0,0.00473095004104607
3542.0,0.0047785185053487575
3541.0,0.004835036445179365
3540.0,0.004893322785800227
3539.0,0.004942064036363007
3538.0,0.004974783102141666
3537.0,0.004996150002519315
3536.0,0.005018961367177656
3535.0,0.005054970189590588
3534.0,0.005107876161326308
3533.0,0.005171115192247438
3532.0,0.005230344825788797
3531.0,0.005272110817264371
3530.0,0.005293847400349879
3529.0,0.005304939298358821
3528.0,0.005316942130424678
3527.0,0.005334524544537698
3526.0,0.005356224446780822
3525.0,0.005379563319990206
3524.0,0.005402989528227438
3523.0,0.005426696113699307
3522.0,0.005454054179364086
3521.0,0.005489566635096544
3520.0,0.005533266469833456
3519.0,0.005579143755660705
3518.0,0.005621635904352644
3517.0,0.005662421643845377
3516.0,0.005707943718386707
3515.0,0.005760570474097658
3514.0,0.005814444990064265
3513.0,0.005860224764618107
3512.0,0.005892853167986494
3511.0,0.0059157645004722795
3510.0,0.005938967358930427
3509.0,0.005972023666480318
3508.0,0.0060171056408109035
3507.0,0.006068077915992231
3506.0,0.006115932227245714
3505.0,0.006154472828026113
3504.0,0.006181894329666104
3503.0,0.006200606650325591
3502.0,0.006217048392044416
3501.0,0.006238958223481275
3500.0,0.006271173376557193
3499.0,0.006314047474680898
3498.0,0.006364773058110254
3497.0,0.00641880186316138
3496.0,0.0064704372013857795
3495.0,0.0065147345504197795
3494.0,0.006550726207322901
3493.0,0.006581993695440205
3492.0,0.006613269121514175
3491.0,0.006647788776140461
3490.0,0.006688489591096677
3489.0,0.006738781613011785
3488.0,0.00679902092610382
3487.0,0.0068633386403961615
3486.0,0.0069230601163705
3485.0,0.006973225120917742
3484.0,0.007013620155958815
3483.0,0.007044155234011966
3482.0,0.007063589823229214
3481.0,0.007075633438888127
3480.0,0.007092912651728423
3479.0,0.007128769827660725
3478.0,0.007183236189152025
3477.0,0.007240044911723828
3476.0,0.00728070206140188
3475.0,0.007302503437157342
3474.0,0.007321543751608171
3473.0,0.007357424968300382
3472.0,0.00741701740430226
3471.0,0.007492847999507959
3470.0,0.007571869063213735
3469.0,0.007642300273164652
3468.0,0.007695596284060529
3467.0,0.0077279670243244804
3466.0,0.007742466865745047
3465.0,0.007748101457359309
3464.0,0.007755616423346139
3463.0,0.007773574630915018
3462.0,0.007806331391360477
3461.0,0.00785294304246898
3460.0,0.007907482295984569
3459.0,0.007962117794838948
3458.0,0.008011250518223496
3457.0,0.008053164602134396
3456.0,0.008089362705973298
3455.0,0.00812390895150996
3454.0,0.008162399436388234
3453.0,0.00820917192034964
3452.0,0.00826482056787245
3451.0,0.008326422800963209
3450.0,0.008388311237309265
3449.0,0.00844175589957862
3448.0,0.008478308225614201
3447.0,0.008499469224573349
3446.0,0.008520712287861925
3445.0,0.008558504974667253
3444.0,0.008613961305587527
3443.0,0.008674133076524529
3442.0,0.008728366225422755
3441.0,0.008778471013652284
3440.0,0.00883112050726871
3439.0,0.008885888307774086
3438.0,0.008936204802145882
3437.0,0.008978876677912815
3436.0,0.009017614380308984
3435.0,0.009058075958738691
3434.0,0.009102473167645082
3433.0,0.009148598840964103
3432.0,0.009192075126442366
3431.0,0.009230432965551061
3430.0,0.009266889315695696
3429.0,0.009308865316003917
3428.0,0.009360589856896338
3427.0,0.009418216309017612
3426.0,0.009474030935498833
3425.0,0.009523768150969182
3424.0,0.009567977948703612
3423.0,0.009608542804145335
3422.0,0.009647223772910133
3421.0,0.009687087744773637
3420.0,0.00973188424498097
3419.0,0.009782807117127547
3418.0,0.009837310678358873
3417.0,0.009891078654025103
3416.0,0.009939783192843396
3415.0,0.009979803188086417
3414.0,0.010010035593904305
3413.0,0.010033931113606757
3412.0,0.01005822343193519
3411.0,0.010088486970202554
3410.0,0.010125681060672916
3409.0,0.010166388931190993
3408.0,0.010205770553020993
3407.0,0.010240818735724475
3406.0,0.010271891452000536
3405.0,0.010301293369468043
3404.0,0.010330298095870117
3403.0,0.010358256928917958
3402.0,0.0103848429508575
3401.0,0.010411378612706043
3400.0,0.010438400985099726
3399.0,0.01046370279051825
3398.0,0.010485407199083443
3397.0,0.010505992174286641
3396.0,0.010530098725006038
3395.0,0.010558122446626456
3394.0,0.010585037112494769
3393.0,0.010607080281764455
3392.0,0.010627632445425283
3391.0,0.010654598694992455
3390.0,0.01069286227366565
3389.0,0.01073980114478769
3388.0,0.01078590731467766
3387.0,0.01081884053083797
3386.0,0.01083059128816681
3385.0,0.010824860473631437
3384.0,0.010816546731466528
3383.0,0.010819392841291473
3382.0,0.010832210110321129
3381.0,0.010839090189101645
3380.0,0.010825212729359527
3379.0,0.010793039695873865
3378.0,0.010762012708327912
3377.0,0.010751580226998408
3376.0,0.01076393805956576
3375.0,0.010782528615316013
3374.0,0.010786890107047606
3373.0,0.010769574248584057
3372.0,0.010740332344943874
3371.0,0.010715778972440146
3370.0,0.010706131930887406
3369.0,0.010711082021574862
3368.0,0.01072503203237697
3367.0,0.010742223450332721
3366.0,0.010756617458790314
3365.0,0.01076125968286476
3364.0,0.010751910877339281
3363.0,0.010731374189588827
3362.0,0.010708176236059467
3361.0,0.010690119565278799
3360.0,0.010679318990417111
3359.0,0.010672929927015247
3358.0,0.010667089300978594
3357.0,0.010659286223935317
3356.0,0.010647914645127066
3355.0,0.010631396957028555
3354.0,0.01060905775551824
3353.0,0.010583014499455779
3352.0,0.010558195170560985
3351.0,0.010539206436088775
3350.0,0.01052703123514843
3349.0,0.010519522528853797
3348.0,0.01051451095709676
3347.0,0.010510169425447483
3346.0,0.01050210942927642
3345.0,0.010483684854565242
3344.0,0.010452280940297492
3343.0,0.010413703701013714
3342.0,0.010377031768065051
3341.0,0.010345746628795375
3340.0,0.010317174923683205
3339.0,0.010290491595343818
3338.0,0.010270578510654335
3337.0,0.010261073106376308
3336.0,0.010256527101751716
3335.0,0.010245670532094566
3334.0,0.010222206225607816
3333.0,0.010189491900257633
3332.0,0.010154682960835371
3331.0,0.010121097163549118
3330.0,0.01008740013513734
3329.0,0.010052592327659616
3328.0,0.010019948346558201
3327.0,0.009995343199677667
3326.0,0.009981394501647776
3325.0,0.009973337215376238
3324.0,0.00996160712645394
3323.0,0.009939441882174202
3322.0,0.009907983015156083
3321.0,0.009873934836279333
3320.0,0.009843259865650563
3319.0,0.009817789300251496
3318.0,0.009796240156667444
3317.0,0.009775800529785978
3316.0,0.009752443623891407
3315.0,0.00972225348570575
3314.0,0.009684506005239202
3313.0,0.009643005898088058
3312.0,0.009603257741095404
3311.0,0.00956863685972635
3310.0,0.00954000185901954
3309.0,0.009517739782995404
3308.0,0.009501552707977047
3307.0,0.009487488945832083
3306.0,0.009467551355663701
3305.0,0.009435291995139802
3304.0,0.00939282303910616
3303.0,0.009351094294692658
3302.0,0.009321449206226327
3301.0,0.009305812392160773
3300.0,0.009294782772860099
3299.0,0.009275505010506448
3298.0,0.009242365236925999
3297.0,0.00920108994969032
3296.0,0.009162546003704935
3295.0,0.009132357498613637
3294.0,0.009107178562264309
3293.0,0.009081528148587892
3292.0,0.009056595993331678
3291.0,0.0090394089044774
3290.0,0.00903309229048117
3289.0,0.009031359622542125
3288.0,0.009024695873856233
3287.0,0.009009345011572268
3286.0,0.008987018470080063
3285.0,0.00895795946678235
3284.0,0.00891996104264082
3283.0,0.008875447456369413
3282.0,0.008834486168976538
3281.0,0.008806559092378373
3280.0,0.008790929445061973
3279.0,0.008778345444053617
3278.0,0.008761591830684274
3277.0,0.008741766038094631
3276.0,0.00872459045232555
3275.0,0.008713543388665078
3274.0,0.008707516538817163
3273.0,0.00870290184968405
3272.0,0.008696194469836853
3271.0,0.008685660973315478
3270.0,0.008672374836105851
3269.0,0.008659751426663042
3268.0,0.008650757601883689
3267.0,0.008644714102849144
3266.0,0.008637251268807104
3265.0,0.008624608118872357
3264.0,0.008608677275609596
3263.0,0.00859692531914934
3262.0,0.00859562088514967
3261.0,0.008602717832390926
3260.0,0.00860882506034327
3259.0,0.008606335743047599
3258.0,0.00859682472987698
3257.0,0.008588343564706682
3256.0,0.00858633110387289
3255.0,0.008588925662913456
3254.0,0.008590946151019086
3253.0,0.00859039162276769
3252.0,0.008590063136264252
3251.0,0.00859399332219102
3250.0,0.008603132826450664
3249.0,0.00861342476950548
3248.0,0.008617035275859795
3247.0,0.008606471965150094
3246.0,0.008579535538300449
3245.0,0.008541470083310077
3244.0,0.008502540602838823
3243.0,0.008473405350302773
3242.0,0.0084612871597906
3241.0,0.008466579874393676
3240.0,0.008479829160952893
3239.0,0.00848394601598617
3238.0,0.008464981969803312
3237.0,0.008423733711686025
3236.0,0.008375187733849302
3235.0,0.008334878115003346
3234.0,0.008307246824956215
3233.0,0.008288022770347703
3232.0,0.008273501244717386
3231.0,0.008262358219021547
3230.0,0.008250254048294985
3229.0,0.00822981525401677
3228.0,0.008198685915513659
3227.0,0.008163264966904633
3226.0,0.008131213990412788
3225.0,0.008103246921193585
3224.0,0.008075385363050405
3223.0,0.008045975278282392
3222.0,0.00801581971477636
3221.0,0.007983559756384241
3220.0,0.00794690185288323
3219.0,0.00790867586797991
3218.0,0.00787600060574247
3217.0,0.007851258320146732
3216.0,0.007828014842298909
3215.0,0.007798679073327484
3214.0,0.00776340484064037
3213.0,0.0077283544881478865
3212.0,0.007697383460477096
3211.0,0.0076693738311973784
3210.0,0.007642961960157601
3209.0,0.0076198968413633255
3208.0,0.007602321356899573
3207.0,0.007588528214699908
3206.0,0.007572757550549978
3205.0,0.007549066157970864
3204.0,0.007515712905877495
3203.0,0.007476612297597343
3202.0,0.007438396582718998
3201.0,0.007405279334115741
3200.0,0.007376514612302425
3199.0,0.007348559847286461
3198.0,0.007318738330149923
3197.0,0.0072864936139526056
3196.0,0.007252631840947255
3195.0,0.007218960669669752
3194.0,0.007187954350037433
3193.0,0.007160924035911049
3192.0,0.007136270607813468
3191.0,0.007110666801905616
3190.0,0.007082223902779985
3189.0,0.007051732037705668
3188.0,0.007020936705197498
3187.0,0.006990950934492686
3186.0,0.0069629142996241525
3185.0,0.006938960039974115
3184.0,0.006920917104907944
3183.0,0.00690760562063001
3182.0,0.006894035692839766
3181.0,0.006874129879700123
3180.0,0.006844883727259891
3179.0,0.006808193249201956
3178.0,0.006768754313158226
3177.0,0.006730422545590602
3176.0,0.006694628190397336
3175.0,0.006661454350992658
3174.0,0.0066310167994883
3173.0,0.00660347205752778
3172.0,0.006578121049509928
3171.0,0.006552569384339387
3170.0,0.006522989407829629
3169.0,0.006486945308724116
3168.0,0.006447593410510939
3167.0,0.0064134304693563475
3166.0,0.006390366693212268
3165.0,0.006373934133838016
3164.0,0.006352847354715367
3163.0,0.0063218005673954724
3162.0,0.006287848849711682
3161.0,0.006261559467021641
3160.0,0.006244324326000921
3159.0,0.006228044740565533
3158.0,0.006205668481747018
3157.0,0.006177373058958842
3156.0,0.0061460746323881345
3155.0,0.006111385985553383
3154.0,0.006070882002710782
3153.0,0.006025343053716997
3152.0,0.00597991382817771
3151.0,0.0059400330718779
3150.0,0.005907487719148848
3149.0,0.00588062964085307
3148.0,0.005857325611376297
3147.0,0.005836583524952175
3146.0,0.005816955356556026
3145.0,0.005794319998018541
3144.0,0.005763604175307403
3143.0,0.0057242524373005855
3142.0,0.005682627387594312
3141.0,0.005646787546700528
3140.0,0.0056190514944850205
3139.0,0.005595415856294168
3138.0,0.005572040864406405
3137.0,0.005549415088861274
3136.0,0.0055292496175498125
3135.0,0.005510330650126201
3134.0,0.005489900477985172
3133.0,0.005467901459297209
3132.0,0.0054470648003869535
3131.0,0.005428290412339346
3130.0,0.005407936895505902
3129.0,0.005380996838391534
3128.0,0.005346438365189784
3127.0,0.005308633667302701
3126.0,0.005273585485381413
3125.0,0.005244331054325641
3124.0,0.005220032225327933
3123.0,0.005198412698522751
3122.0,0.00517749172753845
3121.0,0.00515473017931152
3120.0,0.005126741823377968
3119.0,0.005092293719244317
3118.0,0.005055251385528457
3117.0,0.005022127310166457
3116.0,0.004995739845094637
3115.0,0.0049728764658805245
3114.0,0.004949564814611614
3113.0,0.004927146631121504
3112.0,0.004910362614683182
3111.0,0.004899474080248338
3110.0,0.004886829604013382
3109.0,0.004863123456041079
3108.0,0.004827131838190412
3107.0,0.004787707392277552
3106.0,0.004755218875544568
3105.0,0.004731780763955966
3104.0,0.0047107089638365966
3103.0,0.00468535868521119
3102.0,0.004657052738011256
3101.0,0.004633167247756179
3100.0,0.004617756765678156
3099.0,0.004605758528944941
3098.0,0.004587806812076105
3097.0,0.004559978801562505
3096.0,0.004527674521812156
3095.0,0.0044994046682702
3094.0,0.00447706468166554
3093.0,0.004454014620987011
3092.0,0.004423308391391279
3091.0,0.004386337976578436
3090.0,0.004352116899225726
3089.0,0.004328686674510428
3088.0,0.004316615637577133
3087.0,0.004310608496376961
3086.0,0.004305145848046492
3085.0,0.004297254334701772
3084.0,0.004285739376037914
3083.0,0.004269971526036853
3082.0,0.004249633889242152
3081.0,0.004225082238276414
3080.0,0.004198064566055645
3079.0,0.004172021123546475
3078.0,0.004150421682423685
3077.0,0.004134018601101818
3076.0,0.004120214619167504
3075.0,0.004105465701019076
3074.0,0.0040876480430936035
3073.0,0.004066653365443226
3072.0,0.0040447058681558215
3071.0,0.0040260670196093406
3070.0,0.0040134659131224265
3069.0,0.004003482121826071
3068.0,0.00398887123745261
3067.0,0.0039675568257065185
3066.0,0.003946142601481355
3065.0,0.003930984475032004
3064.0,0.003918198020776999
3063.0,0.0038983491324072715
3062.0,0.003869887585412099
3061.0,0.0038422628479516377
3060.0,0.0038250588885803344
3059.0,0.003817629092637541
3058.0,0.0038114019097540133
3057.0,0.0037990830467853638
3056.0,0.0037792930111912783
3055.0,0.003755168845071445
3054.0,0.003731062397557241
3053.0,0.0037101175621631543
3052.0,0.003693509082605277
3051.0,0.003681270519669837
3050.0,0.003672904814016469
3049.0,0.0036656203409273953
3048.0,0.0036534177919007385
3047.0,0.00363178514863168
3046.0,0.0036033402162971183
3045.0,0.0035758098601483355
3044.0,0.0035535517001390833
3043.0,0.003534452284667024
3042.0,0.003516045382034082
3041.0,0.0035001314284049635
3040.0,0.0034891619787631714
3039.0,0.0034814829730065522
3038.0,0.0034738636117603245
3037.0,0.0034657703984450087
3036.0,0.003457352646680404
3035.0,0.003445267376666378
3034.0,0.0034253017544985933
3033.0,0.0033991812368134268
3032.0,0.003374928633883531
3031.0,0.003359878483945378
3030.0,0.0033548599935660896
3029.0,0.003355068325585164
3028.0,0.0033539359191860057
3027.0,0.0033461155735967085
3026.0,0.0033299335303413466
3025.0,0.0033081008002180928
3024.0,0.0032850859592540122
3023.0,0.003263685872055359
3022.0,0.0032449166838784847
3021.0,0.003230007484652849
3020.0,0.0032199866324608235
3019.0,0.0032135752358324245
3018.0,0.0032075007588521585
3017.0,0.003198628177520457
3016.0,0.003184387635453126
3015.0,0.003162593970361215
3014.0,0.0031340644710341923
3013.0,0.0031050527865275537
3012.0,0.0030833647647667915
3011.0,0.003071477276974877
3010.0,0.003065945915599617
3009.0,0.003063635493021661
3008.0,0.0030645230352470184
3007.0,0.0030670982139119297
3006.0,0.003065307033339273
3005.0,0.0030537019446287166
3004.0,0.0030341848180589137
3003.0,0.0030142727448893643
3002.0,0.002999524647760417
3001.0,0.002989685014000785
3000.0,0.0029814692944047164
2999.0,0.0029720394894916374
2998.0,0.0029595570984718403
2997.0,0.002943185924388216
2996.0,0.002923831693868473
2995.0,0.0029040094936425257
2994.0,0.0028861209685105238
2993.0,0.002871306697450419
2992.0,0.002859830733208534
2991.0,0.002851291548848786
2990.0,0.002843817819898965
2989.0,0.0028339384843220797
2988.0,0.0028181551762162887
2987.0,0.0027948874787899125
2986.0,0.002765680981598931
2985.0,0.0027354788185057106
2984.0,0.0027112405378168706
2983.0,0.002697901142209984
2982.0,0.0026932437551045784
2981.0,0.002687491856630364
2980.0,0.0026700569418024018
2979.0,0.00263874626261375
2978.0,0.0026021774127494867
2977.0,0.0025718446944089776
2976.0,0.0025515497811905105
2975.0,0.002534621594566676
2974.0,0.0025121098593012046
2973.0,0.002482349666406884
2972.0,0.0024517150864546444
2971.0,0.0024263189031698286
2970.0,0.002405001826022615
2969.0,0.002381069411937928
2968.0,0.0023491902474556455
2967.0,0.002309485233725833
2966.0,0.0022658503404788376
2965.0,0.002222511666599568
2964.0,0.0021818944780290883
2963.0,0.0021441484790460726
2962.0,0.0021080595237264483
2961.0,0.002073543533656433
2960.0,0.0020436193612914243
2959.0,0.0020229328148945133
2958.0,0.0020135094036990066
2957.0,0.0020123233626227455
2956.0,0.0020131099806628546
2955.0,0.0020101842230596657
2954.0,0.0020013405175553214
2953.0,0.0019889447571172134
2952.0,0.0019788187029588923
2951.0,0.0019760343246762175
2950.0,0.001980262826398645
2949.0,0.0019852245341795134
2948.0,0.0019831241778424445
2947.0,0.00196915940014593
2946.0,0.0019425612145744565
2945.0,0.0019061218757990212
2944.0,0.0018658703759089007
2943.0,0.0018287204053163086
2942.0,0.0017971744889082185
2941.0,0.0017668026689857102
2940.0,0.0017311205981139378
2939.0,0.0016886103900412212
2938.0,0.0016430136932953326
2937.0,0.0015969177252180664
2936.0,0.0015476232169094589
2935.0,0.0014900805500845538
2934.0,0.001422215999335555
2933.0,0.0013474782164212564
2932.0,0.001273760527572024
2931.0,0.001209761094891619
2930.0,0.001159183551845545
2929.0,0.0011171074131061341
2928.0,0.001074172420748404
2927.0,0.0010258443659862404
2926.0,0.0009765721376108361
2925.0,0.0009339818502702619
2924.0,0.0009015378985280625
2923.0,0.0008788507746474931
2922.0,0.0008672498639070013
2921.0,0.0008716280688764383
2920.0,0.0008958615122375778
2919.0,0.0009376787661301244
2918.0,0.0009886043789121542
2917.0,0.0010395091545503904
2916.0,0.0010869864808351064
2915.0,0.001134487747594829
2914.0,0.0011864730250763151
2913.0,0.001242014321392035
2912.0,0.0012950280883217563
2911.0,0.0013402665999540648
2910.0,0.0013773864910647943
2909.0,0.001409321685947856
2908.0,0.0014387465431436783
2907.0,0.0014665813344939991
2906.0,0.0014926903936918023
2905.0,0.0015169820873359038
2904.0,0.001540353651263665
2903.0,0.0015640013098481287
2902.0,0.0015869188344592336
2901.0,0.001604989241833262
2900.0,0.0016150778195501607
2899.0,0.0016201816246595368
2898.0,0.001627441008520654
2897.0,0.0016401980280414392
2896.0,0.0016540788088259166
2895.0,0.0016625214418725192
2894.0,0.0016638110265303927
2893.0,0.001661617329803717
2892.0,0.0016607375286557336
2891.0,0.001663838616466852
2890.0,0.001670342732529688
2889.0,0.0016761136507073456
2888.0,0.0016757866810267743
2887.0,0.0016681150012958683
2886.0,0.0016584803502663168
2885.0,0.0016541453806661454
2884.0,0.0016574042828344116
2883.0,0.001664430813419349
2882.0,0.0016702278616430532
2881.0,0.0016728986883048176
2880.0,0.00167369375542392
2879.0,0.0016740760229839525
2878.0,0.0016724667884279272
2877.0,0.0016636927284233208
2876.0,0.0016429349816883265
2875.0,0.001611468413653741
2874.0,0.0015769741307240107
2873.0,0.0015471169215299251
2872.0,0.0015241858657886673
2871.0,0.0015072259038172394
2870.0,0.0014965989605574348
2869.0,0.0014924612251914667
2868.0,0.0014899622587398976
2867.0,0.001480460051993033
2866.0,0.001458658510551233
2865.0,0.0014267990102644424
2864.0,0.001391036691708702
2863.0,0.0013553665896848146
2862.0,0.0013198493985750893
2861.0,0.0012823103816893746
2860.0,0.0012401339126464177
2859.0,0.0011911492607061494
2858.0,0.001134630986980862
2857.0,0.0010729396295352217
2856.0,0.0010130378427634806
2855.0,0.0009653177947360233
2854.0,0.00093829907327168
2853.0,0.0009324326011600048
2852.0,0.0009407594504465165
2851.0,0.0009577805818496788
2850.0,0.000985476606741802
2849.0,0.0010287693770428287
2848.0,0.0010867041175437735
2847.0,0.0011514454450711558
2846.0,0.0012151375339629978
2845.0,0.0012738816292798046
2844.0,0.001325675477545374
2843.0,0.0013682702748600024
2842.0,0.0014004790757035806
2841.0,0.0014234617499590332
2840.0,0.0014391050815387987
2839.0,0.0014482881163704361
2838.0,0.0014522408881895723
2837.0,0.0014548264328030436
2836.0,0.0014613747206510333
2835.0,0.0014737779715669492
2834.0,0.0014873269089098425
2833.0,0.0014942475912838949
2832.0,0.0014917693875965967
2831.0,0.0014857974537284924
2830.0,0.0014844544689713887
2829.0,0.0014888519500517758
2828.0,0.0014929273448288072
2827.0,0.0014922912512948618
2826.0,0.0014899053478092386
2825.0,0.0014910839009809095
2824.0,0.0014959417940097063
2823.0,0.001500062546345206
2822.0,0.001500467119714743
2821.0,0.0014975051999029263
2820.0,0.0014921352515772398
2819.0,0.0014847644456678598
2818.0,0.0014766949873005531
2817.0,0.0014698340174166048
2816.0,0.001464575096397832
2815.0,0.0014598872615493586
2814.0,0.0014554603675196493
2813.0,0.0014520699497427838
2812.0,0.0014500545772378266
2811.0,0.0014491020084855363
2810.0,0.0014490694161007935
2809.0,0.0014492704525754618
2808.0,0.0014475806708865702
2807.0,0.0014424746383587964
2806.0,0.0014356973165948394
2805.0,0.001430843687399597
2804.0,0.0014294234987688673
2803.0,0.0014296913999045364
2802.0,0.0014288277238635647
2801.0,0.0014249881733080583
2800.0,0.0014180931119792705
2799.0,0.0014106025128164104
2798.0,0.00140638723899729
2797.0,0.0014061976482217273
2796.0,0.0014054040207377608
2795.0,0.001399052378020636
2794.0,0.0013882456661156437
2793.0,0.0013784456581856872
2792.0,0.0013721342798808539
2791.0,0.0013667637046938788
2790.0,0.0013600801131618866
2789.0,0.0013537073392091404
2788.0,0.0013501617699043073
2787.0,0.0013492293562704424
2786.0,0.0013488502488611734
2785.0,0.001347542398632079
2784.0,0.0013449102790056193
2783.0,0.0013415808455591169
2782.0,0.0013391152666168216
2781.0,0.0013382249230860731
2780.0,0.0013372324373996129
2779.0,0.0013344455428524653
2778.0,0.0013313706530498804
2777.0,0.0013303085287149547
2776.0,0.001329094751169099
2775.0,0.0013224852512738541
2774.0,0.0013100540005891001
2773.0,0.0012987229996490302
2772.0,0.0012948715054244553
2771.0,0.0012969595336656315
2770.0,0.001298387782069357
2769.0,0.0012954967759802867
2768.0,0.0012904264461327565
2767.0,0.0012875591710076978
2766.0,0.0012891040559994834
2765.0,0.0012930156879018733
2764.0,0.0012938062804072558
2763.0,0.001286768094970773
2762.0,0.0012731747616659417
2761.0,0.0012600695372746433
2760.0,0.0012537432062802204
2759.0,0.0012546551071258175
2758.0,0.0012592435642576531
2757.0,0.0012641456368713427
2756.0,0.0012671041683384437
2755.0,0.0012665959302062652
2754.0,0.001263320444393009
2753.0,0.0012607858320983268
2752.0,0.0012621634995416925
2751.0,0.0012669292081070732
2750.0,0.0012715261056504296
2749.0,0.001271864086496017
2748.0,0.0012644417355157887
2747.0,0.0012479581490540948
2746.0,0.0012265638933593268
2745.0,0.0012094568538808597
2744.0,0.0012035073026020616
2743.0,0.0012065895210139927
2742.0,0.0012107951545807696
2741.0,0.0012115017481727052
2740.0,0.0012106564596973074
2739.0,0.0012116588892947767
2738.0,0.001214453018464724
2737.0,0.0012165632766982211
2736.0,0.0012164600509683083
2735.0,0.001214348932916438
2734.0,0.0012108505134253843
2733.0,0.0012063691785909507
2732.0,0.0012014285514550629
2731.0,0.0011968811420501849
2730.0,0.001193637112590329
2729.0,0.0011919415620431162
2728.0,0.001190694495145922
2727.0,0.001187850757386083
2726.0,0.0011820860649413298
2725.0,0.001174055712738874
2724.0,0.0011659057473301054
2723.0,0.001159941576730718
2722.0,0.0011577376186896287
2721.0,0.0011595113009755078
2720.0,0.0011638043854540479
2719.0,0.0011686405577596736
2718.0,0.001173512373019902
2717.0,0.0011791189152033402
2716.0,0.0011844431975506007
2715.0,0.0011856504026885803
2714.0,0.0011798021765065821
2713.0,0.0011690188925041248
2712.0,0.0011591626543373328
2711.0,0.001154192107716375
2710.0,0.0011528384777133196
2709.0,0.0011510919380945353
2708.0,0.0011469493667171293
2707.0,0.0011421927754160879
2706.0,0.0011399286578828664
2705.0,0.0011409132336371054
2704.0,0.0011427417290352966
2703.0,0.0011426626573554245
2702.0,0.0011404137894247715
2701.0,0.0011373826207910958
2700.0,0.0011336901457924026
2699.0,0.0011280929876982492
2698.0,0.0011210764152457136
2697.0,0.0011160218343437861
2696.0,0.0011158309112451242
2695.0,0.001119519630243168
2694.0,0.001123428553743772
2693.0,0.0011251496402172004
2692.0,0.0011254411154586088
2691.0,0.0011269752051914607
2690.0,0.0011319196596845382
2689.0,0.0011398524176042416
2688.0,0.0011472659831135927
2687.0,0.0011501250689835052
2686.0,0.0011474687108330246
2685.0,0.0011414089997911143
2684.0,0.0011333243224336215
2683.0,0.001122507970990613
2682.0,0.0011102497974430291
2681.0,0.0011024201306881834
2680.0,0.0011040677667525473
2679.0,0.0011121216279684175
2678.0,0.0011171246455638313
2677.0,0.0011129884840040607
2676.0,0.0011025644236209926
2675.0,0.0010928638307255143
2674.0,0.0010878376203709923
2673.0,0.0010872648416785425
2672.0,0.0010899312020321355
2671.0,0.0010944923420181413
2670.0,0.0010979138002294687
2669.0,0.0010964311098209994
2668.0,0.0010897478159974051
2667.0,0.0010830489772737646
2666.0,0.0010832851411106891
2665.0,0.0010929625908095023
2664.0,0.0011078293566965172
2663.0,0.0011208867137451875
2662.0,0.0011285233518538009
2661.0,0.0011330475354239813
2660.0,0.0011395819697806394
2659.0,0.001151154777263797
2658.0,0.0011666426662662818
2657.0,0.0011825751677096022
2656.0,0.0011962613705597954
2655.0,0.0012073854757390777
2654.0,0.00121734572028123
2653.0,0.0012270571644466908
2652.0,0.0012353145643092644
2651.0,0.0012398365482869645
2650.0,0.001240416530247583
2649.0,0.0012402301111881023
2648.0,0.0012426727890722156
2647.0,0.0012474313784065429
2646.0,0.001251442329419627
2645.0,0.0012538700381472022
2644.0,0.0012580047314689768
2643.0,0.001267074820529397
2642.0,0.0012799816108106429
2641.0,0.0012928648605218223
2640.0,0.001303381985232391
2639.0,0.0013109298706249033
2638.0,0.0013138123204361845
2637.0,0.001309961419049871
2636.0,0.0013016103559896663
2635.0,0.0012960643055747586
2634.0,0.001299057933735795
2633.0,0.0013088531685294278
2632.0,0.001318751921461014
2631.0,0.001324228577783177
2630.0,0.0013254408232537395
2629.0,0.0013241318928740177
2628.0,0.0013216384898037722
2627.0,0.0013196767111886812
2626.0,0.0013195335099257072
2625.0,0.0013193472751055844
2624.0,0.0013154509632757449
2623.0,0.0013084249999836238
2622.0,0.0013050947232639467
2621.0,0.0013117533598950761
2620.0,0.0013264147935248061
2619.0,0.0013404921717972322
2618.0,0.0013475644298280387
2617.0,0.0013484344479468863
2616.0,0.00134811315223218
2615.0,0.0013497643230263336
2614.0,0.0013517354923215084
2613.0,0.0013491446197598487
2612.0,0.0013386392995123567
2611.0,0.0013228589972498243
2610.0,0.0013097920780629014
2609.0,0.0013064772388523271
2608.0,0.0013132795562040469
2607.0,0.0013250892197449273
2606.0,0.001336391550808773
2605.0,0.0013432072135315506
2604.0,0.001342221669504054
2603.0,0.0013323084033210412
2602.0,0.0013179888006813213
2601.0,0.0013083236360672543
2600.0,0.001309728424150777
2599.0,0.0013203468517447225
2598.0,0.0013324182179387913
2597.0,0.0013395122368325373
2596.0,0.0013411568460450158
2595.0,0.0013410464654239186
2594.0,0.0013413222855984085
2593.0,0.0013394174403296975
2592.0,0.0013315979274778024
2591.0,0.0013197006510128238
2590.0,0.0013117878283140185
2589.0,0.0013140189722469935
2588.0,0.0013236463247546452
2587.0,0.001332643572250419
2586.0,0.0013366852514088777
2585.0,0.001337107370760786
2584.0,0.0013352497254519634
2583.0,0.0013300631054510216
2582.0,0.001322495947486338
2581.0,0.0013179529230524345
2580.0,0.0013214158589019108
2579.0,0.0013319927619697169
2578.0,0.0013438025066793674
2577.0,0.0013506009380828932
2576.0,0.0013491750381195817
2575.0,0.0013410253374767603
2574.0,0.0013321161620596569
2573.0,0.0013283498110871572
2572.0,0.0013293887927632953
2571.0,0.001329334172558367
2570.0,0.0013251103813829346
2569.0,0.0013210471436349114
2568.0,0.0013227698141712338
2567.0,0.0013294027921402773
2566.0,0.0013350834294479314
2565.0,0.0013361893586380747
2564.0,0.0013334762483514678
2563.0,0.0013289337374950867
2562.0,0.001324951793206401
2561.0,0.001325384607732059
2560.0,0.001332031066502705
2559.0,0.0013393280959254576
2558.0,0.0013377439251178109
2557.0,0.0013254016943466682
2556.0,0.001313226997785166
2555.0,0.0013152894758216725
2554.0,0.0013353433461349223
2553.0,0.0013651424518736303
2552.0,0.0013937652030571737
2551.0,0.0014148434378955352
2550.0,0.0014260065343882039
2549.0,0.0014267522972180211
2548.0,0.001419472941913003
2547.0,0.0014098470902742784
2546.0,0.0014029990734320636
2545.0,0.0013995727831892315
2544.0,0.001396986159552109
2543.0,0.0013935146730777901
2542.0,0.0013891994520645915
2541.0,0.0013835880838411324
2540.0,0.001375755054867774
2539.0,0.0013675600497923368
2538.0,0.001364406703769581
2537.0,0.0013707406955475797
2536.0,0.0013855846808003833
2535.0,0.0014036188420355287
2534.0,0.001419679390847685
2533.0,0.0014311811521073596
2532.0,0.001437788148689699
2531.0,0.001441095775391968
2530.0,0.0014440922694425383
2529.0,0.0014485231220558092
2528.0,0.0014525025804289471
2527.0,0.0014526726146561167
2526.0,0.0014491663911682532
2525.0,0.0014464139635902281
2524.0,0.0014480573395524213
2523.0,0.0014529462578260675
2522.0,0.0014577453398508184
2521.0,0.0014619898197911654
2520.0,0.00146815889790251
2519.0,0.0014766722037289834
2518.0,0.0014826642012970678
2517.0,0.001478902638303855
2516.0,0.0014620140632545199
2515.0,0.0014363371239732889
2514.0,0.0014124453533099347
2513.0,0.0014009612461964261
2512.0,0.0014050881498675774
2511.0,0.001417783373647011
2510.0,0.0014276440457020889
2509.0,0.0014292829280791275
2508.0,0.001427363604331787
2507.0,0.0014290545076915452
2506.0,0.0014338078674477994
2505.0,0.0014336810970051635
2504.0,0.0014239075213867303
2503.0,0.0014096865030821884
2502.0,0.001400649806639883
2501.0,0.0014010246013416892
2500.0,0.0014073544704720966
2499.0,0.0014136084439716331
2498.0,0.0014153810557964773
2497.0,0.0014106244691718783
2496.0,0.0014004628311072979
2495.0,0.0013898727693182642
2494.0,0.0013845298191168998
2493.0,0.0013856460098830806
2492.0,0.0013891230905964953
2491.0,0.0013895523272131603
2490.0,0.0013833718985644845
2489.0,0.0013694443130076288
2488.0,0.00135027395852711
2487.0,0.0013327135643584301
2486.0,0.001323374667053828
2485.0,0.0013217274825659616
2484.0,0.0013206673274028192
2483.0,0.0013152783037500817
2482.0,0.001308051529903262
2481.0,0.001303955834510043
2480.0,0.0013036426142849138
2479.0,0.0013039389655313603
2478.0,0.0013023221505966155
2477.0,0.0012980418430897907
2476.0,0.0012908698942233616
2475.0,0.0012816661852381559
2474.0,0.0012727983803554445
2473.0,0.0012655052552024307
2472.0,0.0012581117784227409
2471.0,0.00124901170436998
2470.0,0.0012396946918414823
2469.0,0.0012320538966761941
2468.0,0.0012240695906392605
2467.0,0.001211577460038276
2466.0,0.0011944847146863626
2465.0,0.0011790478016310102
2464.0,0.0011735836113822454
2463.0,0.0011825605763411196
2462.0,0.0012034839908358773
2461.0,0.0012275959083709596
2460.0,0.00124459818963783
2459.0,0.0012492729357258697
2458.0,0.0012444144360071517
2457.0,0.0012373977357979422
2456.0,0.001234585942559638
2455.0,0.0012382750238744957
2454.0,0.0012458663112099439
2453.0,0.0012505430217909415
2452.0,0.0012457031746878613
2451.0,0.001231516129158479
2450.0,0.001215656458664936
2449.0,0.0012056130307640917
2448.0,0.0012018402144524372
2447.0,0.001200042693324033
2446.0,0.0011976207469431431
2445.0,0.0011951600231840454
2444.0,0.0011936438647145839
2443.0,0.0011931499498711877
2442.0,0.0011928679185151615
2441.0,0.0011901480253554725
2440.0,0.001181731481441956
2439.0,0.0011687994493351636
2438.0,0.0011585817997556015
2437.0,0.0011574036788348755
2436.0,0.001163648412230724
2435.0,0.0011708396207532523
2434.0,0.0011756394298873256
2433.0,0.001178645778809555
2432.0,0.0011789748583388205
2431.0,0.0011734506536368692
2430.0,0.0011616590712300002
2429.0,0.0011475763858837698
2428.0,0.0011349896940164425
2427.0,0.0011242878559143033
2426.0,0.0011148690436156722
2425.0,0.0011083951582396535
2424.0,0.001108235265846961
2423.0,0.0011159322965251912
2422.0,0.0011275763817847912
2421.0,0.0011337622423375927
2420.0,0.0011266572637645743
2419.0,0.0011097184722366554
2418.0,0.0010972057338624198
2417.0,0.0011001324898325393
2416.0,0.001114860850921646
2415.0,0.0011294784495864455
2414.0,0.0011385448736177858
2413.0,0.001145563919517208
2412.0,0.0011527142593803317
2411.0,0.0011560155176660192
2410.0,0.0011522946184221445
2409.0,0.0011443394788718628
2408.0,0.0011355259680437004
2407.0,0.0011238915081079753
2406.0,0.0011057870205706192
2405.0,0.0010829265143813263
2404.0,0.0010623649219829528
2403.0,0.0010506340723538169
2402.0,0.0010495603638118799
2401.0,0.0010560506358031822
2400.0,0.0010642124504206458
2399.0,0.0010690885209441758
2398.0,0.0010700079105265675
2397.0,0.0010699270886525246
2396.0,0.0010713257845666696
2395.0,0.0010738004627404828
2394.0,0.0010752753725247384
2393.0,0.001073515986026365
2392.0,0.0010665736464172384
2391.0,0.0010542694786646485
2390.0,0.0010398052599258688
2389.0,0.001027842916843621
2388.0,0.0010203989494729474
2387.0,0.001016292267312758
2386.0,0.0010142449460351073
2385.0,0.0010135220578331606
2384.0,0.0010112187593135126
2383.0,0.0010026853534623854
2382.0,0.0009868771048006397
2381.0,0.0009690418164436455
2380.0,0.0009556868323955464
2379.0,0.0009479483850476094
2378.0,0.0009420363357654268
2377.0,0.0009353746675828372
2376.0,0.0009297035749432495
2375.0,0.0009279617940979243
2374.0,0.0009298100561722104
2373.0,0.0009299417117974228
2372.0,0.0009209877666847162
2371.0,0.0009003245111139512
2370.0,0.000875883767788352
2369.0,0.000862938903636696
2368.0,0.0008721034980757538
2367.0,0.0008995124645633608
2366.0,0.0009287634728531592
2365.0,0.0009429972340758855
2364.0,0.00093785212960193
2363.0,0.0009225302603141456
2362.0,0.000910042192786978
2361.0,0.0009071050632167095
2360.0,0.00090957541454432
2359.0,0.000910930316798757
2358.0,0.0009110560338051483
2357.0,0.0009126213472234316
2356.0,0.0009161110326370773
2355.0,0.0009189067938630518
2354.0,0.0009216791369917286
2353.0,0.0009247209775630925
2352.0,0.0009245775876181369
2351.0,0.0009200973793746414
2350.0,0.0009146348471840058
2349.0,0.0009136842137157184
2348.0,0.0009185992804243506
2347.0,0.0009296905509725074
2346.0,0.0009503619802431378
2345.0,0.0009785021492733422
2344.0,0.0010053545943601104
2343.0,0.0010184361038796347
2342.0,0.0010158179842250626
2341.0,0.001007596026917423
2340.0,0.0010060291795232809
2339.0,0.0010156264866043462
2338.0,0.001030005175347761
2337.0,0.0010408908461458886
2336.0,0.0010445705681235017
2335.0,0.0010453224484749714
2334.0,0.0010478745446050601
2333.0,0.0010544100490300129
2332.0,0.0010602084959272166
2331.0,0.0010625600829128202
2330.0,0.0010594994933201059
2329.0,0.0010602267493621958
2328.0,0.001079098867283854
2327.0,0.0011300109233430334
2326.0,0.0012102099051031858
2325.0,0.0012952529170587213
2324.0,0.0013539963770194557
2323.0,0.0013700849136156416
2322.0,0.0013536100172265794
2321.0,0.0013264225459654743
2320.0,0.0013028242170630595
2319.0,0.0012874796370593166
2318.0,0.0012785602473447118
2317.0,0.0012721038195093247
2316.0,0.0012601463548954051
2315.0,0.0012423394341485
2314.0,0.0012263700739998044
2313.0,0.0012219604972612064
2312.0,0.0012251804236234657
2311.0,0.0012266285431506243
2310.0,0.0012226787360670168
2309.0,0.0012207378596664764
2308.0,0.001225318680402497
2307.0,0.001234694934377869
2306.0,0.0012453796919119958
2305.0,0.0012587367904821297
2304.0,0.0012746595407415713
2303.0,0.0012889840803917798
2302.0,0.0012960566664795628
2301.0,0.0012964042152151317
2300.0,0.0012944210780437022
2299.0,0.001295779119020898
2298.0,0.0013037061811405652
2297.0,0.001319249294309286
2296.0,0.0013389914414732322
2295.0,0.0013581132317867486
2294.0,0.001374488814905167
2293.0,0.001389789878976776
2292.0,0.0014046987888528095
2291.0,0.0014173246592829255
2290.0,0.001427523029279401
2289.0,0.0014392239700340046
2288.0,0.0014560172067826773
2287.0,0.0014760312705538363
2286.0,0.0014938863362300952
2285.0,0.0015040371415717061
2284.0,0.0015010126723326576
2283.0,0.0014802970280490377
2282.0,0.0014454886915000436
2281.0,0.0014129295715084311
2280.0,0.00140198865748045
2279.0,0.0014176269148494659
2278.0,0.0014445496613584852
2277.0,0.0014610716937878316
2276.0,0.0014572813963117115
2275.0,0.001439647540936878
2274.0,0.0014206462979248242
2273.0,0.001407920233712848
2272.0,0.0014030601237548187
2271.0,0.0014056022840010644
2270.0,0.0014129598945462167
2269.0,0.0014171889135437036
2268.0,0.0014086232690910393
2267.0,0.0013868914821305255
2266.0,0.0013648398176840373
2265.0,0.0013560974212615642
2264.0,0.0013596411068161234
2263.0,0.0013619566924933674
2262.0,0.001355153548316736
2261.0,0.0013474705655725672
2260.0,0.0013536044488248072
2259.0,0.001376399402792312
2258.0,0.0014015511573738744
2257.0,0.0014093561567671048
2256.0,0.0013922825653287763
2255.0,0.0013605313589645297
2254.0,0.001331381031869093
2253.0,0.0013137612425451442
2252.0,0.0013053975633056933
2251.0,0.0013028728018193332
2250.0,0.0013080152693316117
2249.0,0.0013214853062631317
2248.0,0.0013364872652942917
2247.0,0.0013457069798220754
2246.0,0.0013512662540061857
2245.0,0.0013609368157611523
2244.0,0.0013757781783787432
2243.0,0.001388396007550504
2242.0,0.0013937314304935356
2241.0,0.0013948518325729996
2240.0,0.0013974417408513264
2239.0,0.0014039117542125141
2238.0,0.001414071212988084
2237.0,0.0014256046382157522
2236.0,0.0014318178495336112
2235.0,0.0014249379878780609
2234.0,0.0014057972513165957
2233.0,0.0013864930490880946
2232.0,0.0013777987556110626
2231.0,0.0013757465304833796
2230.0,0.001365439801157378
2229.0,0.0013400200007957527
2228.0,0.0013126737951380375
2227.0,0.0013057161726599488
2226.0,0.001327518087379676
2225.0,0.0013627683460027205
2224.0,0.0013895013045055922
2223.0,0.0014026531928713697
2222.0,0.0014137670597406291
2221.0,0.0014285804272580402
2220.0,0.0014355796538253328
2219.0,0.001422743716728322
2218.0,0.0013977946092071014
2217.0,0.0013821899005467715
2216.0,0.0013876027678332958
2215.0,0.0014052876638436646
2214.0,0.001417121554631968
2213.0,0.0014108393871890654
2212.0,0.0013859250843248196
2211.0,0.001352894200007606
2210.0,0.0013280949972406641
2209.0,0.0013241260732650413
2208.0,0.0013414634331925554
2207.0,0.0013683083371055635
2206.0,0.0013875818960213814
2205.0,0.0013856848604060575
2204.0,0.0013631851574410453
2203.0,0.0013398249263617715
2202.0,0.0013414966149161887
2201.0,0.0013757417047567918
2200.0,0.0014218385568164752
2199.0,0.0014506594987899228
2198.0,0.0014505648483313111
2197.0,0.001432532386378801
2196.0,0.0014184653216251489
2195.0,0.0014276637020233713
2194.0,0.0014648152384746137
2193.0,0.0015129550459574224
2192.0,0.0015450254619267913
2191.0,0.0015502966147402045
2190.0,0.0015416387232259304
2189.0,0.0015324788249291206
2188.0,0.00152024909866313
2187.0,0.001502336097156837
2186.0,0.0014924996329893536
2185.0,0.0015014052912387275
2184.0,0.0015100280126664558
2183.0,0.0014864338781468015
2182.0,0.0014290902679031856
2181.0,0.0013737788994680666
2180.0,0.0013551487484081027
2179.0,0.0013771486368289762
2178.0,0.0014211083741192741
2177.0,0.0014627921926911765
2176.0,0.0014803616828780286
2175.0,0.001465688820280865
2174.0,0.0014349365756227612
2173.0,0.001416703926951034
2172.0,0.0014255191376554145
2171.0,0.001456072213478282
2170.0,0.00150123253740068
2169.0,0.0015612514214270387
2168.0,0.001632397643021295
2167.0,0.0016991185604905254
2166.0,0.001745608039824164
2165.0,0.0017701719463831351
2164.0,0.001783958893600562
2163.0,0.0017934810332588995
2162.0,0.0017794924505859016
2161.0,0.0016931827383863483
2160.0,0.0014921956914814526
2159.0,0.0012029305573126147
2158.0,0.0009327156882144394
2157.0,0.0007844517245698475
2156.0,0.0007691896259710898
2155.0,0.0008259040909502546
2154.0,0.0008989795084246497
2153.0,0.0009696846603858182
2152.0,0.0010369112823391312
2151.0,0.001095860856374914
2150.0,0.0011346769286407858
2149.0,0.0011391788705431762
2148.0,0.0011045424598292238
2147.0,0.0010501534620110083
2146.0,0.0010144009468805557
2145.0,0.0010203609884035041
2144.0,0.0010523683806583097
2143.0,0.0010790056410082303
2142.0,0.0010898352888917737
2141.0,0.001094923315978322
2140.0,0.0010989247165732238
2139.0,0.0010959942375518019
2138.0,0.001084395116933406
2137.0,0.0010659506954449872
2136.0,0.0010343225591779594
2135.0,0.0009850254295928364
2134.0,0.0009368595702213978
2133.0,0.0009202891429950567
2132.0,0.0009404743942415812
2131.0,0.0009700507751222111
2130.0,0.000983676253350126
2129.0,0.0009831054656014619
2128.0,0.0009853789859708168
2127.0,0.0010002042623270442
2126.0,0.0010264065531125528
2125.0,0.0010592149862744156
2124.0,0.0010922328320158822
2123.0,0.0011188347101426456
2122.0,0.0011377170182168077
2121.0,0.001153337875089072
2120.0,0.0011683154391437585
2119.0,0.0011814695534116907
2118.0,0.0011953836240677855
2117.0,0.0012175756349424396
2116.0,0.0012493311270595114
2115.0,0.0012803391994435733
2114.0,0.0013001360405052083
2113.0,0.0013092892899956715
2112.0,0.0013140571307749837
2111.0,0.0013149911256854893
2110.0,0.001307944023470472
2109.0,0.0012934037456751642
2108.0,0.001277915484969346
2107.0,0.0012666731807298966
2106.0,0.0012593942587747358
2105.0,0.001253899493061883
2104.0,0.0012506144320402707
2103.0,0.0012527984849987843
2102.0,0.0012625869414610589
2101.0,0.0012765529393970673
2100.0,0.0012861316170982133
2099.0,0.0012841183663085981
2098.0,0.001268979154768716
2097.0,0.0012418848249949942
2096.0,0.0012040099041983703
2095.0,0.0011616110686581509
2094.0,0.0011296377203664483
2093.0,0.0011217595863067295
2092.0,0.00113763305848415
2091.0,0.0011653913608199282
2090.0,0.0011940316357638492
2089.0,0.001217441525414247
2088.0,0.0012303719723305534
2087.0,0.0012303452741704425
2086.0,0.0012233822231656848
2085.0,0.0012193523000691665
2084.0,0.00122023766285397
2083.0,0.0012201545275170869
2082.0,0.00121809891237941
2081.0,0.0012226752606729592
2080.0,0.0012419922376691052
2079.0,0.001274870124131855
2078.0,0.001313078593247472
2077.0,0.0013453580830407106
2076.0,0.0013605731780790887
2075.0,0.0013562345684453377
2074.0,0.0013454135738913868
2073.0,0.0013462339372336603
2072.0,0.0013602643975405338
2071.0,0.001368789496886743
2070.0,0.0013544628515369185
2069.0,0.001321031405496178
2068.0,0.0012894760774095923
2067.0,0.0012790980045142982
2066.0,0.001293832999434526
2065.0,0.001319724952511948
2064.0,0.001335078371030154
2063.0,0.001329741303320526
2062.0,0.001313055568809151
2061.0,0.0012992140991293188
2060.0,0.001290007353396094
2059.0,0.001279377934100118
2058.0,0.001268174928318767
2057.0,0.001260445126299706
2056.0,0.0012508638524897338
2055.0,0.0012355289472724073
2054.0,0.0012350835445060246
2053.0,0.001282781923204893
2052.0,0.0013804423200296822
2051.0,0.0014834655448374185
2050.0,0.0015391769738379506
2049.0,0.0015326922214742669
2048.0,0.001490381708883127
2047.0,0.0014467403664960405
2046.0,0.0014215370593381928
2045.0,0.0014206765371449367
2044.0,0.0014381989317860458
2043.0,0.0014582770040556619
2042.0,0.0014676359106062277
2041.0,0.0014664062781359999
2040.0,0.001462782185255222
2039.0,0.0014620176895890778
2038.0,0.0014649775642969786
2037.0,0.001468076316468094
2036.0,0.0014589502625764383
2035.0,0.0014233620694726226
2034.0,0.00136474396776957
2033.0,0.0013074170305017825
2032.0,0.0012717335714656486
2031.0,0.0012573603218369994
2030.0,0.0012581692480180958
2029.0,0.0012762949699603643
2028.0,0.0013102079197748501
2027.0,0.001342873839547127
2026.0,0.0013559233538208704
2025.0,0.0013488089880961754
2024.0,0.0013355781794660564
2023.0,0.001329079045287077
2022.0,0.001334784382840682
2021.0,0.0013510169691826987
2020.0,0.0013671684337024771
2019.0,0.001369572199744618
2018.0,0.0013563165739833756
2017.0,0.0013399299824835714
2016.0,0.001329140778088328
2015.0,0.0013175589851140623
2014.0,0.0012993791564844671
2013.0,0.001286537306911561
2012.0,0.0012991712216734283
2011.0,0.0013411007034793414
2010.0,0.0013903871191198144
2009.0,0.0014123017665601022
2008.0,0.0013832416665828069
2007.0,0.0013090765613695532
2006.0,0.0012220260431165142
2005.0,0.001155585061099933
2004.0,0.0011209665473327088
2003.0,0.001110313186457599
2002.0,0.001115519869611689
2001.0,0.0011332734569284948
2000.0,0.0011561469050909087
1999.0,0.0011731054478803398
1998.0,0.001181080072289746
1997.0,0.001188029775033469
1996.0,0.0012039020220670925
1995.0,0.0012335898235040655
1994.0,0.0012745164075850387
1993.0,0.0013119804056824752
1992.0,0.001323693589063155
1991.0,0.001303588368099972
1990.0,0.0012754057592820616
1989.0,0.0012696121596321587
1988.0,0.0012920422199260955
1987.0,0.0013253156253083527
1986.0,0.001354497177507724
1985.0,0.001376595161519352
1984.0,0.0013904580839261779
1983.0,0.0013983224495154527
1982.0,0.001416949670969811
1981.0,0.0014638191304622093
1980.0,0.001523753933536881
1979.0,0.0015487223929143432
1978.0,0.0015043679759150878
1977.0,0.0014064907296458876
1976.0,0.0012995835742069613
1975.0,0.0012144661639841322
1974.0,0.0011614309899140355
1973.0,0.0011400022059492333
1972.0,0.001135936736397549
1971.0,0.0011271544288393436
1970.0,0.0011081980057616864
1969.0,0.001097381328409764
1968.0,0.0011099386665588157
1967.0,0.0011349200456685685
1966.0,0.0011492062449202272
1965.0,0.0011435400489126914
1964.0,0.0011245138111201942
1963.0,0.0011022416198095564
1962.0,0.00108490601727932
1961.0,0.001074923292455613
1960.0,0.0010640365433281795
1959.0,0.0010426324616373498
1958.0,0.001017634350870189
1957.0,0.001008754491594709
1956.0,0.0010221726367802815
1955.0,0.0010399401266032377
1954.0,0.0010418839969644383
1953.0,0.0010286647043483094
1952.0,0.001017473265742164
1951.0,0.0010221737956051524
1950.0,0.0010427850409082096
1949.0,0.0010669736479201135
1948.0,0.0010773325978627303
1947.0,0.001064678619884531
1946.0,0.0010381717253750307
1945.0,0.0010158522583333552
1944.0,0.0010033319958449882
1943.0,0.0009904565875233713
1942.0,0.0009723142111747304
1941.0,0.0009600720555424291
1940.0,0.0009635675608321052
1939.0,0.000978306244711185
1938.0,0.000994255590298734
1937.0,0.0010065361536465214
1936.0,0.001014259006762641
1935.0,0.0010158935513623958
1934.0,0.0010110137785037869
1933.0,0.0010013693550076637
1932.0,0.0009863945591378953
1931.0,0.0009638611543417708
1930.0,0.0009396214329284397
1929.0,0.0009291527874961607
1928.0,0.0009414041367336097
1927.0,0.0009668539201462445
1926.0,0.0009869040981445871
1925.0,0.000991467627506372
1924.0,0.0009830481156474816
1923.0,0.0009686708651530569
1922.0,0.0009537287825470652
1921.0,0.0009410316439651049
1920.0,0.0009327613316823578
1919.0,0.0009318460181449283
1918.0,0.0009390902040355175
1917.0,0.0009490396567248655
1916.0,0.0009519473542684304
1915.0,0.0009441942128174353
1914.0,0.0009339285605667294
1913.0,0.0009324112078291872
1912.0,0.0009405634552371496
1911.0,0.0009485645933753619
1910.0,0.0009489656091668402
1909.0,0.0009439158569752787
1908.0,0.0009381457805803983
1907.0,0.0009332200179515871
1906.0,0.0009308248521003779
1905.0,0.0009340872456230472
1904.0,0.0009409945677595357
1903.0,0.0009427406816524568
1902.0,0.0009336575942668829
1901.0,0.0009181271142687246
1900.0,0.0009043049759263645
1899.0,0.0008960102469343166
1898.0,0.0008933954928929959
1897.0,0.0008960102395813689
1896.0,0.0009011975648197832
1895.0,0.0009039810536603833
1894.0,0.0009029828221285756
1893.0,0.0009023991448093805
1892.0,0.0009055968389670888
1891.0,0.0009104486701379646
1890.0,0.0009124801105673903
1889.0,0.0009110897352089845
1888.0,0.0009082350245379644
1887.0,0.0009034136738517455
1886.0,0.0008955592508635988
1885.0,0.0008862526369498477
1884.0,0.0008782125646228567
1883.0,0.0008730997754433283
1882.0,0.0008720376051303962
1881.0,0.000875041246111618
1880.0,0.000878755190368245
1879.0,0.0008791483040630654
1878.0,0.0008771750694455511
1877.0,0.0008781318767981018
1876.0,0.0008844768423520352
1875.0,0.0008918596619322712
1874.0,0.0008933603471730687
1873.0,0.0008859008529053038
1872.0,0.0008725523953725569
1871.0,0.0008611560092967759
1870.0,0.0008600875929327387
1869.0,0.0008708078061524879
1868.0,0.0008857854491913452
1867.0,0.0008972933061676278
1866.0,0.0009051275624336812
1865.0,0.0009125427766226038
1864.0,0.0009183912918503448
1863.0,0.0009173828582905177
1862.0,0.0009068453354126695
1861.0,0.0008895371646758692
1860.0,0.0008699333383534218
1859.0,0.0008523411558144623
1858.0,0.0008424466435735838
1857.0,0.0008444742470363689
1856.0,0.0008553829936108476
1855.0,0.0008669441943505385
1854.0,0.0008739082259821317
1853.0,0.0008762834536853829
1852.0,0.0008743163430635487
1851.0,0.0008682530940262883
1850.0,0.000861763821757016
1849.0,0.0008588795803418118
1848.0,0.0008580596930238638
1847.0,0.0008554501575583388
1846.0,0.0008540021476131276
1845.0,0.0008610034375989329
1844.0,0.0008745235222352388
1843.0,0.0008837513284974549
1842.0,0.000883489607768314
1841.0,0.0008771560912123197
1840.0,0.0008680692277312927
1839.0,0.0008568334005508885
1838.0,0.0008462214665304172
1837.0,0.0008422516015773556
1836.0,0.0008458850681080962
1835.0,0.0008500431967381161
1834.0,0.0008490735111931734
1833.0,0.0008455792435201665
1832.0,0.0008455199614468288
1831.0,0.0008507821943658909
1830.0,0.0008579714462260476
1829.0,0.000864825833716752
1828.0,0.0008697196873850712
1827.0,0.0008704831720293916
1826.0,0.0008698910150140624
1825.0,0.0008739478679600024
1824.0,0.0008832254901962725
1823.0,0.0008901943670915536
1822.0,0.0008894008657478913
1821.0,0.0008840096648230428
1820.0,0.000879039477933539
1819.0,0.0008741727745973738
1818.0,0.0008668338607581657
1817.0,0.0008599292580102918
1816.0,0.000860165035910208
1815.0,0.0008695041649375391
1814.0,0.0008845619938721147
1813.0,0.0009014829592363876
1812.0,0.0009175462574473132
1811.0,0.0009298755503771368
1810.0,0.0009368648200820788
1809.0,0.0009406533361001584
1808.0,0.0009445309946984717
1807.0,0.0009494472103759044
1806.0,0.000955298555925468
1805.0,0.0009630589395351722
1804.0,0.0009734486760581561
1803.0,0.0009845669696209882
1802.0,0.0009941414935442233
1801.0,0.0010024592896440883
1800.0,0.0010116177120374687
1799.0,0.0010212883548327896
1798.0,0.0010283695529974563
1797.0,0.0010314801439679966
1796.0,0.0010331814326770845
1795.0,0.0010382304248770437
1794.0,0.0010510925207027426
1793.0,0.0010707667823802451
1792.0,0.0010896445616293633
1791.0,0.001102693559605319
1790.0,0.001110144756543687
1789.0,0.001113185680889682
1788.0,0.0011131059833999753
1787.0,0.001111097306284496
1786.0,0.001107235419872117
1785.0,0.0011012108064877941
1784.0,0.0010943732649202785
1783.0,0.0010888014240029399
1782.0,0.0010851877181290487
1781.0,0.0010793721137615803
1780.0,0.0010657236640867808
1779.0,0.0010437130854001192
1778.0,0.0010163732104352704
1777.0,0.0009856868429557915
1776.0,0.0009523717546494124
1775.0,0.0009201720530727465
1774.0,0.0008976788228316157
1773.0,0.0008895819814718902
1772.0,0.0008881624837910197
1771.0,0.0008852218613701256
1770.0,0.0008806794599211478
1769.0,0.0008770313361362843
1768.0,0.0008750823225674942
1767.0,0.0008732666933680983
1766.0,0.0008695132031313612
1765.0,0.0008626948411522525
1764.0,0.0008538815277000496
1763.0,0.0008455802640009518
1762.0,0.0008391565976528285
1761.0,0.0008328089768674372
1760.0,0.0008224761470540279
1759.0,0.0008071073972544969
1758.0,0.0007926969840979804
1757.0,0.0007856985426896433
1756.0,0.0007838433721828371
1755.0,0.0007794696161025184
1754.0,0.0007697318853565787
1753.0,0.0007584621615354934
1752.0,0.000748917069406128
1751.0,0.000738926570095962
1750.0,0.0007250779998937088
1749.0,0.0007102882357555767
1748.0,0.0007025413562392774
1747.0,0.0007074837828055647
1746.0,0.0007240733144948387
1745.0,0.0007449140147861912
1744.0,0.0007616154689980978
1743.0,0.0007724514851077401
1742.0,0.0007868853219650047
1741.0,0.0008195922602655984
1740.0,0.00087398520961026
1739.0,0.0009325563017345198
1738.0,0.0009767330528935492
1737.0,0.0010082121513893772
1736.0,0.0010459580282921551
1735.0,0.0011090298992397667
1734.0,0.0011868067880006316
1733.0,0.0012525566181399315
1732.0,0.0012998884880814235
1731.0,0.0013402482743733685
1730.0,0.0013839828405688452
1729.0,0.0014323100115331314
1728.0,0.0014810550871579068
1727.0,0.0015282964706448184
1726.0,0.0015764553451882374
1725.0,0.001627572636335825
1724.0,0.0016805878999892982
1723.0,0.0017320121477579456
1722.0,0.0017789912056318487
1721.0,0.0018234192526481738
1720.0,0.0018716133628387038
1719.0,0.0019265849291017002
1718.0,0.0019759104055319427
1717.0,0.0020075132822477285
1716.0,0.0020266125430590956
1715.0,0.0020404422898902715
1714.0,0.002051326100780297
1713.0,0.002058980229814033
1712.0,0.0020594952326445435
1711.0,0.002046080577545311
1710.0,0.0020141943253988654
1709.0,0.001967572718152991
1708.0,0.0019155739976664116
1707.0,0.0018624130695298335
1706.0,0.0018033031982009832
1705.0,0.001740250651675898
1704.0,0.0016847459400838225
1703.0,0.001636696306080128
1702.0,0.0015893999801748695
1701.0,0.0015427601319308207
1700.0,0.0015017689634443843
1699.0,0.0014803222722437471
1698.0,0.0014762906049198357
1697.0,0.0014798392719910312
1696.0,0.0014865248673206525
1695.0,0.0014936361244687448
1694.0,0.0015000309927095856
1693.0,0.001508866790222818
1692.0,0.0015248030371929542
1691.0,0.0015459637505520576
1690.0,0.0015661774767567283
1689.0,0.0015820633390637969
1688.0,0.0015929708141374686
1687.0,0.0015985828309523454
1686.0,0.001604864384746332
1685.0,0.001618628268382907
1684.0,0.0016294884895501668
1683.0,0.0016391959231985304
1682.0,0.0016567444248109296
1681.0,0.0016797037688788352
1680.0,0.0016998165069326472
1679.0,0.0017090702833995797
1678.0,0.001709452794734751
1677.0,0.0017122898387241286
1676.0,0.001725197475604842
1675.0,0.0017428049492038363
1674.0,0.0017584182366271863
1673.0,0.001771076015050067
1672.0,0.0017816490311335783
1671.0,0.0017909839534177162
1670.0,0.0018008773790215175
1669.0,0.0018173575646099245
1668.0,0.0018406733302069786
1667.0,0.0018607313885819457
1666.0,0.0018722886106372913
1665.0,0.0018798671200436975
1664.0,0.001889008096773755
1663.0,0.0018978084993795052
1662.0,0.0019053830324378966
1661.0,0.001916337705046818
1660.0,0.0019295699879251227
1659.0,0.0019404570484121988
1658.0,0.0019479947534092748
1657.0,0.0019553069491292955
1656.0,0.001961805000351339
1655.0,0.0019680554011410932
1654.0,0.001971398996807688
1653.0,0.001974147365916385
1652.0,0.0019998146982980634
1651.0,0.002029097949863615
1650.0,0.0020462528682214545
1649.0,0.0020648766273278453
1648.0,0.0020915088786661665
1647.0,0.002122451411447573
1646.0,0.0021641008043474124
1645.0,0.0022233576412081114
1644.0,0.0022909816955291934
1643.0,0.0023576752820159445
1642.0,0.0024208113285590946
1641.0,0.0024786051603975083
1640.0,0.002528231505735573
1639.0,0.002567882343473577
1638.0,0.0025936986807056283
1637.0,0.0025905089548853484
1636.0,0.00253489679072601
1635.0,0.0024503646173858647
1634.0,0.002389845633891179
1633.0,0.00235780658511115
1632.0,0.00233100473897594
1631.0,0.0022952025206815956
1630.0,0.002249403266642409
1629.0,0.002198810338135041
1628.0,0.002146389519203783
1627.0,0.00209626619301938
1626.0,0.002055612223458115
1625.0,0.002026525891037795
1624.0,0.002000049338413515
1623.0,0.0019665765904725904
1622.0,0.0019339627479402367
1621.0,0.001913540795022681
1620.0,0.0019018880179652751
1619.0,0.001889846297376499
1618.0,0.0018720541348394887
1617.0,0.0018470811630419393
1616.0,0.0018192104356520014
1615.0,0.0017964085586412747
1614.0,0.001782865765591384
1613.0,0.0017776642031102682
1612.0,0.001775032102773367
1611.0,0.0017692589911772855
1610.0,0.0017625262959635676
1609.0,0.0017594794230154523
1608.0,0.0017567187163606709
1607.0,0.0017479985852091378
1606.0,0.0017359803799972394
1605.0,0.0017272929264014387
1604.0,0.0017214241254453297
1603.0,0.001714050727063263
1602.0,0.0017059079986022835
1601.0,0.0017002408053306073
1600.0,0.001695593191033976
1599.0,0.0016893741522077982
1598.0,0.0016840623953890052
1597.0,0.001682088486663444
1596.0,0.0016791855583193813
1595.0,0.001670981490655632
1594.0,0.001662377696565733
1593.0,0.001660436109372182
1592.0,0.0016619341388206166
1591.0,0.0016581729219744298
1590.0,0.0016487130551693181
1589.0,0.0016410031349487885
1588.0,0.001638413734118633
1587.0,0.0016378546435541399
1586.0,0.0016375418175501755
1585.0,0.0016389801255634001
1584.0,0.0016419844598271518
1583.0,0.0016464008712347865
1582.0,0.0016556472001082927
1581.0,0.0016710203236913008
1580.0,0.0016873934910561436
1579.0,0.001700506579897493
1578.0,0.001713155637905712
1577.0,0.0017274162022106214
1576.0,0.001736469560737656
1575.0,0.0017379577311433965
1574.0,0.0017389993616682591
1573.0,0.0017433641887259778
1572.0,0.0017497461821021152
1571.0,0.0017587758546396156
1570.0,0.0017737170059315896
1569.0,0.0017955187055893602
1568.0,0.0018177095820560468
1567.0,0.001835948654960248
1566.0,0.0018575527363537047
1565.0,0.0018894097984423837
1564.0,0.001923499793930992
1563.0,0.0019467178348040073
1562.0,0.0019593337085174137
1561.0,0.001978848719859661
1560.0,0.002032156139456373
1559.0,0.002087415093415661
1558.0,0.0021323207255968617
1557.0,0.0021877981223559968
1556.0,0.002241876410870896
1555.0,0.0022879276546180403
1554.0,0.0023340661839387697
1553.0,0.0023871090704899963
1552.0,0.0024446310250886773
1551.0,0.002501592065441161
1550.0,0.0025583689494364206
1549.0,0.002616905661776463
1548.0,0.002674054576441903
1547.0,0.0027270815139325637
1546.0,0.0027822605312690014
1545.0,0.002845334187211922
1544.0,0.0029098690148194363
1543.0,0.0029691118607813754
1542.0,0.0030334959247489664
1541.0,0.0031175029014130187
1540.0,0.003207244083292496
1539.0,0.0032853259140632925
1538.0,0.0033536059851204288
1537.0,0.003416629107323373
1536.0,0.003479116293095685
1535.0,0.003547829478690651
1534.0,0.003628594625778337
1533.0,0.0037188215137544285
1532.0,0.0038083504240786718
1531.0,0.003890832997410572
1530.0,0.00397055603922433
1529.0,0.004054813576292729
1528.0,0.00414005855856359
1527.0,0.004214772853593981
1526.0,0.004279110639176043
1525.0,0.004346852054741348
1524.0,0.004425980873164882
1523.0,0.004513212139837617
1522.0,0.004598150861558445
1521.0,0.004673103589275895
1520.0,0.004741833597491899
1519.0,0.00481150902952148
1518.0,0.0048880175488964315
1517.0,0.004968369359915859
1516.0,0.005042997885457255
1515.0,0.00511189173329978
1514.0,0.005184696686833867
1513.0,0.005268569907951784
1512.0,0.005360820812536874
1511.0,0.005454370155388268
1510.0,0.005549568867587679
1509.0,0.0056497578871157455
1508.0,0.0057416887790387484
1507.0,0.005793319124085145
1506.0,0.005832972576869798
1505.0,0.005904886312508075
1504.0,0.005990698089568265
1503.0,0.006070189687096315
1502.0,0.00614362611270986
1501.0,0.006215055793765474
1500.0,0.0062860721364991455
1499.0,0.0063544703209065
1498.0,0.006418219830293282
1497.0,0.006474101302674324
1496.0,0.006521745718029631
1495.0,0.006569997386944388
1494.0,0.006631619931437581
1493.0,0.006710234174077599
1492.0,0.00679581450930737
1491.0,0.006871408194530475
1490.0,0.006930688008536905
1489.0,0.0069864198164383325
1488.0,0.0070476347434894095
1487.0,0.007110274123103706
1486.0,0.007174253299999291
1485.0,0.007245002654047851
1484.0,0.007321006699168263
1483.0,0.007394626329464196
1482.0,0.007461647501156577
1481.0,0.007525278738714413
1480.0,0.007590685857262518
1479.0,0.007659314904484939
1478.0,0.007731027764966064
1477.0,0.007805166227439403
1476.0,0.007879062707190292
1475.0,0.007947692766998068
1474.0,0.008004241734865804
1473.0,0.008039313289414738
1472.0,0.008057735793112503
1471.0,0.008082941712716951
1470.0,0.008126460902709028
1469.0,0.008180983339175715
1468.0,0.008235777502716429
1467.0,0.008284180402609455
1466.0,0.008324415126751503
1465.0,0.008356873626697688
1464.0,0.008387713375970543
1463.0,0.00842912479405709
1462.0,0.00848764051538622
1461.0,0.008561844976130143
1460.0,0.008642686224816192
1459.0,0.008712948856505323
1458.0,0.008743406172986606
1457.0,0.008723363954269677
1456.0,0.00870215640979533
1455.0,0.008720784637191252
1454.0,0.00876953463849438
1453.0,0.008826832684593866
1452.0,0.008875790522124317
1451.0,0.00891239819763401
1450.0,0.008942762027035657
1449.0,0.008967320462831097
1448.0,0.008981199992272032
1447.0,0.008990716591622693
1446.0,0.009010553291709076
1445.0,0.009040321706736744
1444.0,0.009064219098661447
1443.0,0.009072177027619577
1442.0,0.009070726066049735
1441.0,0.009072777966206884
1440.0,0.009082138294861026
1439.0,0.009090615263700596
1438.0,0.009081260094683593
1437.0,0.009038671408007029
1436.0,0.008982317874277586
1435.0,0.00895623695409758
1434.0,0.008970169620635467
1433.0,0.009000875944678159
1432.0,0.009024392947010082
1431.0,0.009031611697605847
1430.0,0.009030653596772022
1429.0,0.009033929256523347
1428.0,0.009048919218144427
1427.0,0.00907728925620818
1426.0,0.009114290450789228
1425.0,0.009146298500067101
1424.0,0.009163566904900857
1423.0,0.009180219789343774
1422.0,0.009215805901931379
1421.0,0.009263753193430325
1420.0,0.009290814850139432
1419.0,0.009278348854462057
1418.0,0.009263818050227583
1417.0,0.009286666898277852
1416.0,0.009338467881952014
1415.0,0.00939971501089353
1414.0,0.009466201151467764
1413.0,0.009536904405081193
1412.0,0.009600843179412177
1411.0,0.00964725325315927
1410.0,0.009679485855400521
1409.0,0.00970428042707578
1408.0,0.0097169267968727
1407.0,0.009706833199993306
1406.0,0.009671095051602905
1405.0,0.009615618690602451
1404.0,0.009553363528126276
1403.0,0.009503159838851223
1402.0,0.009475024944431946
1401.0,0.009456837347796494
1400.0,0.009422347284974505
1399.0,0.009364183930924442
1398.0,0.009306831876266521
1397.0,0.009264779733755533
1396.0,0.009218349633636064
1395.0,0.009148856196644394
1394.0,0.009073139095381615
1393.0,0.009017919770061595
1392.0,0.008983086766154735
1391.0,0.00895494139415589
1390.0,0.008925655835875363
1389.0,0.0088869726690532
1388.0,0.008824478368944622
1387.0,0.008737671642263765
1386.0,0.008652030375438055
1385.0,0.008586365844926657
1384.0,0.008531260014700493
1383.0,0.008470882904385111
1382.0,0.008404152354638017
1381.0,0.008338627958893109
1380.0,0.00827521437578785
1379.0,0.00821108872139026
1378.0,0.00814984593486588
1377.0,0.00809469565317751
1376.0,0.008037347150281537
1375.0,0.007965914383983173
1374.0,0.007884587975957163
1373.0,0.007811166621518678
1372.0,0.007751930784820029
1371.0,0.0076964717238828025
1370.0,0.0076334096830599635
1369.0,0.0075589400688107836
1368.0,0.007478440598932532
1367.0,0.007404437789059072
1366.0,0.0073467611030470035
1365.0,0.0073020081364478535
1364.0,0.007253880348157379
1363.0,0.007189183620217097
1362.0,0.007115322537887279
1361.0,0.007049596283122439
1360.0,0.0069957222592446425
1359.0,0.006945605387814455
1358.0,0.006893304226679164
1357.0,0.006837522107099278
1356.0,0.006778131251939014
1355.0,0.006717207351712517
1354.0,0.00666043132604261
1353.0,0.006611418890327454
1352.0,0.006566778855397986
1351.0,0.006520875486765692
1350.0,0.006473610871968798
1349.0,0.006429681591775823
1348.0,0.006392088173412061
1347.0,0.006360097205037682
1346.0,0.00633212386172788
1345.0,0.006308007029761835
1344.0,0.00628907898674481
1343.0,0.006276632271506909
1342.0,0.006268023189489651
1341.0,0.006253132750056656
1340.0,0.00621872305099646
1339.0,0.006160781811481005
1338.0,0.006087645020218345
1337.0,0.006008186823229872
1336.0,0.005925508520037165
1335.0,0.005842138153557321
1334.0,0.005762180016944586
1333.0,0.005686999281773925
1332.0,0.0056144737030669085
1331.0,0.005544203627622697
1330.0,0.005478755392310982
1329.0,0.0054184138184345965
1328.0,0.0053595154014127126
1327.0,0.0052997030801271465
1326.0,0.00524074186145913
1325.0,0.005184874837272405
1324.0,0.00513254961991446
1323.0,0.00508469305383979
1322.0,0.005042910445235011
1321.0,0.0050058703628713935
1320.0,0.004968939861927823
1319.0,0.00492917692817508
1318.0,0.004888251328284544
1317.0,0.004849158712075863
1316.0,0.004812742599625673
1315.0,0.004778397251910059
1314.0,0.004745402131119925
1313.0,0.004713149746998378
1312.0,0.004682278282461802
1311.0,0.0046550587540724695
1310.0,0.004632115699007693
1309.0,0.004609602828311416
1308.0,0.004582557906544394
1307.0,0.0045508246782572145
1306.0,0.004518876600018547
1305.0,0.004490059330056585
1304.0,0.004464196850779109
1303.0,0.004440337174238515
1302.0,0.00441843225515991
1301.0,0.004398449722058183
1300.0,0.004380700199168129
1299.0,0.004366644256590788
1298.0,0.0043565388439985335
1297.0,0.004346966025658559
1296.0,0.004333906341444787
1295.0,0.004317834418767835
1294.0,0.004302561601131122
1293.0,0.004289540195001328
1292.0,0.004276651004578335
1291.0,0.004262089835101363
1290.0,0.0042458568522768
1289.0,0.004227541311138542
1288.0,0.004206383434102585
1287.0,0.004183951388280525
1286.0,0.004163244832314494
1285.0,0.004144641903254158
1284.0,0.004125808559150854
1283.0,0.0041056096969044635
1282.0,0.004084811703500713
1281.0,0.004062793482251663
1280.0,0.004037245415414639
1279.0,0.004008180538592771
1278.0,0.003979226858374842
1277.0,0.003953891500720623
1276.0,0.003933085868085058
1275.0,0.003916789433120557
1274.0,0.0039051520153114824
1273.0,0.0038971105529551726
1272.0,0.0038905994346157876
1271.0,0.0038851779042224453
1270.0,0.003882257106025966
1269.0,0.003882017950718337
1268.0,0.0038824874484608583
1267.0,0.003882273159567763
1266.0,0.0038816773408066677
1265.0,0.003880264440201565
1264.0,0.003875887625486266
1263.0,0.003867677871244952
1262.0,0.0038581978941686808
1261.0,0.0038510608999963716
1260.0,0.003847537298920614
1259.0,0.003846520322865421
1258.0,0.003846717120564558
1257.0,0.0038479510918173762
1256.0,0.0038509848392829
1255.0,0.0038565109077925456
1254.0,0.0038638094700129307
1253.0,0.0038706063628572932
1252.0,0.0038751527301564307
1251.0,0.00387810405955895
1250.0,0.0038812836597919686
1249.0,0.003885243106331678
1248.0,0.003889630668908464
1247.0,0.0038952610771600792
1246.0,0.0039034883777404198
1245.0,0.003913437892456768
1244.0,0.003921851196473641
1243.0,0.0039259757308319895
1242.0,0.003924983500423686
1241.0,0.003918583512475673
1240.0,0.003906460181357908
1239.0,0.0038896714993216465
1238.0,0.003870553410585391
1237.0,0.003850364758367875
1236.0,0.0038286557291577154
1235.0,0.0038054260687524046
1234.0,0.003781926312239132
1233.0,0.0037586334289467114
1232.0,0.0037344062782690337
1231.0,0.003708686329573784
1230.0,0.0036830249793900214
1229.0,0.00365943891360392
1228.0,0.003638270238166032
1227.0,0.0036180676959668475
1226.0,0.003596392020460218
1225.0,0.0035705449681771983
1224.0,0.0035390083683462976
1223.0,0.003502927706201314
1222.0,0.0034654153391999766
1221.0,0.0034290981699927068
1220.0,0.0033948320526106957
1219.0,0.0033621437588513387
1218.0,0.003329746287228093
1217.0,0.0032963410983718293
1216.0,0.003262400362247813
1215.0,0.0032306187140250754
1214.0,0.003203189866021846
1213.0,0.0031792751712444284
1212.0,0.0031564674939443915
1211.0,0.0031337377456116143
1210.0,0.00311148813754652
1209.0,0.0030901569403419325
1208.0,0.003070959370476259
1207.0,0.0030567957292955243
1206.0,0.0030496834972308937
1205.0,0.0030476254349811366
1204.0,0.0030460937489245536
1203.0,0.0030422422556143306
1202.0,0.003036153126957285
1201.0,0.0030289969684583504
1200.0,0.0030222368343852555
1199.0,0.003018038926485395
1198.0,0.003017880294625127
1197.0,0.0030205701225101207
1196.0,0.0030234255304508544
1195.0,0.003025383892776558
1194.0,0.0030275100931787596
1193.0,0.0030307152308550896
1192.0,0.003034648571806817
1191.0,0.003038779085867246
1190.0,0.0030430973820507134
1189.0,0.0030477474391581564
1188.0,0.0030530674641583793
1187.0,0.0030597415046587514
1186.0,0.00306793845734818
1185.0,0.003076929074046764
1184.0,0.0030865734876115774
1183.0,0.003098195709117674
1182.0,0.003112570877286441
1181.0,0.003127975851249832
1180.0,0.0031419187063764496
1179.0,0.003153871313084415
1178.0,0.0031642126189551324
1177.0,0.0031713229009046754
1176.0,0.0031725669252291385
1175.0,0.003168462941394807
1174.0,0.0031636234809721132
1173.0,0.0031627661504374125
1172.0,0.003167167195284624
1171.0,0.0031749699839020273
1170.0,0.003182958490349238
1169.0,0.0031879192215374247
1168.0,0.003188518506069608
1167.0,0.0031870053264529538
1166.0,0.003187798810658076
1165.0,0.0031935578383538612
1164.0,0.003203486317083727
1163.0,0.0032154139543840434
1162.0,0.0032280653124523435
1161.0,0.003241033317822767
1160.0,0.0032540567582687576
1159.0,0.003266975931918501
1158.0,0.003279265910488934
1157.0,0.0032892196677722293
1156.0,0.0032950270143079865
1155.0,0.0032975939209506752
1154.0,0.003301309420191003
1153.0,0.003310880272493935
1152.0,0.0033276377407873447
1151.0,0.003349265144819972
1150.0,0.003372557798691907
1149.0,0.0033961365485477707
1148.0,0.0034207064342492892
1147.0,0.003446894201484014
1146.0,0.0034731067403116402
1145.0,0.0034962551554041602
1144.0,0.0035150259289468055
1143.0,0.0035315260499629983
1142.0,0.003548677760348744
1141.0,0.0035667470533359827
1140.0,0.003583942968157312
1139.0,0.0035998554420099546
1138.0,0.0036162984604024683
1137.0,0.0036347436263311425
1136.0,0.003654927224107282
1135.0,0.003676382232811801
1134.0,0.003699338400341051
1133.0,0.003723102666290376
1132.0,0.0037449460099255715
1131.0,0.003761826973940509
1130.0,0.003772865275431159
1129.0,0.0037800941477276985
1128.0,0.003787971342837008
1127.0,0.0038021562708350975
1126.0,0.0038266477258278473
1125.0,0.003860712780449558
1124.0,0.0038991270457833767
1123.0,0.003935660130400021
1122.0,0.003965992080628688
1121.0,0.003988506877304924
1120.0,0.004004672926518976
1119.0,0.004018729497404467
1118.0,0.004034310303763558
1117.0,0.004050467486065853
1116.0,0.004063201003957837
1115.0,0.0040713242729993925
1114.0,0.004077859482007982
1113.0,0.004084883846526925
1112.0,0.004090928505207577
1111.0,0.0040955961821649315
1110.0,0.00410292669111401
1109.0,0.00411688577763825
1108.0,0.0041362549426728875
1107.0,0.004157130031894943
1106.0,0.004178099822520575
1105.0,0.004199635071227734
1104.0,0.004220398435419757
1103.0,0.004238193864863868
1102.0,0.004253618455497933
1101.0,0.0042694845880320255
1100.0,0.004286736236091767
1099.0,0.004303315212865051
1098.0,0.0043161831212983675
1097.0,0.0043222342955209474
1096.0,0.004319332253388302
1095.0,0.004309653269314882
1094.0,0.004300498471472737
1093.0,0.004298341989533703
1092.0,0.004303139743981586
1091.0,0.004310763201187493
1090.0,0.004318546845521641
1089.0,0.0043253712408192185
1088.0,0.004329854864646411
1087.0,0.004334445255628148
1086.0,0.00434907051675944
1085.0,0.00438211134427762
1084.0,0.0044251752827261775
1083.0,0.0044527391607810714
1082.0,0.004441745599942095
1081.0,0.00438997563816699
1080.0,0.004313780758361316
1079.0,0.004231737058877655
1078.0,0.0041526420850674225
1077.0,0.004075629553536138
1076.0,0.003997250189672205
1075.0,0.0039169961811635024
1074.0,0.0038373712738466563
1073.0,0.0037608158153654607
1072.0,0.003687938863289531
1071.0,0.0036178418179955854
1070.0,0.0035482443455152777
1069.0,0.0034757911998642248
1068.0,0.003398818815876536
1067.0,0.0033203975500847114
1066.0,0.003246483863640082
1065.0,0.00318028900812258
1064.0,0.003120285041176574
1063.0,0.0030641074708105073
1062.0,0.0030121473247698913
1061.0,0.002966131467711265
1060.0,0.0029257170388430867
1059.0,0.0028880155788021705
1058.0,0.002850279393069593
1057.0,0.0028126041761083126
1056.0,0.0027779728801206054
1055.0,0.0027490573885981745
1054.0,0.002724308895243314
1053.0,0.00269842899249979
1052.0,0.0026687448097649086
1051.0,0.0026403602671102176
1050.0,0.0026218277883018823
1049.0,0.002615532997756731
1048.0,0.002615405879149153
1047.0,0.002613619127909392
1046.0,0.0026061291220082967
1045.0,0.002592041202957582
1044.0,0.002571077621789483
1043.0,0.002543032886701363
1042.0,0.00250828886438067
1041.0,0.002468118912722413
1040.0,0.002424908637400823
1039.0,0.002381476013706402
1038.0,0.002339229592585267
1037.0,0.0022978622641353216
1036.0,0.0022578751055626223
1035.0,0.0022217651106115777
1034.0,0.0021908588944273095
1033.0,0.002162709363189618
1032.0,0.002134239280344492
1031.0,0.0021063142614293215
1030.0,0.002082819330483282
1029.0,0.0020666258811254637
1028.0,0.0020593446786087094
1027.0,0.002063489780745885
1026.0,0.002080922707114029
1025.0,0.0021094114431648827
1024.0,0.002144035075738156
1023.0,0.0021822180820500474
1022.0,0.0022247121138537617
1021.0,0.002271399222654289
1020.0,0.002318726607827832
1019.0,0.0023614853608347336
1018.0,0.0023940368979795206
1017.0,0.00240903510551572
1016.0,0.0023988249735072058
1015.0,0.00236117768613103
1014.0,0.002302088202538336
1013.0,0.0022312139667645305
1012.0,0.002156699795562066
1011.0,0.0020854515926995933
1010.0,0.002024167844842104
1009.0,0.0019762694311815186
1008.0,0.0019393531962317852
1007.0,0.0019082402209341536
1006.0,0.0018796882222716642
1005.0,0.001852968660801277
1004.0,0.0018281564946751407
1003.0,0.0018063683010703536
1002.0,0.001789794403695314
1001.0,0.0017783365925585822
1000.0,0.0017672463677292326
999.0,0.0017513448872513975
998.0,0.001731416859008227
997.0,0.0017133508577257045
996.0,0.0017006167306463115
995.0,0.001690603634188837
994.0,0.0016793504054657131
993.0,0.0016669285045956429
992.0,0.0016559950493820366
991.0,0.0016471813358912655
990.0,0.0016388584815917487
989.0,0.0016306060276517695
988.0,0.0016240581145896636
987.0,0.0016200845963918954
986.0,0.0016173368543332144
985.0,0.0016142245950230244
984.0,0.0016105732671498427
983.0,0.001606541025032035
982.0,0.0016015275061152844
981.0,0.0015953884265242136
980.0,0.0015895581258098031
979.0,0.0015854405378287351
978.0,0.0015821206483910785
977.0,0.001576866577309391
976.0,0.0015677752372002941
975.0,0.001555333906458282
974.0,0.0015419664279416982
973.0,0.0015306763183489487
972.0,0.0015231242401560325
971.0,0.0015176326708748206
970.0,0.0015096476890666937
969.0,0.0014958720235167693
968.0,0.0014778870278685475
967.0,0.0014602408508544349
966.0,0.0014449734356993802
965.0,0.0014296741533958985
964.0,0.0014113096302729882
963.0,0.0013902026445662642
962.0,0.0013692988297426137
961.0,0.0013508317114259458
960.0,0.0013348575624762752
959.0,0.0013203612817992956
958.0,0.0013069575463725072
957.0,0.0012958345950374109
956.0,0.001288992295225294
955.0,0.0012865174003972774
954.0,0.0012846001000353202
953.0,0.0012778786042890585
952.0,0.0012645336128518396
951.0,0.0012480511441616384
950.0,0.0012335649910568528
949.0,0.0012236792772102971
948.0,0.0012181777922400275
947.0,0.0012157959872697308
946.0,0.0012148255502455183
945.0,0.0012132326477407524
944.0,0.0012096506296853861
943.0,0.001203869732083728
942.0,0.0011959236058114977
941.0,0.0011857790253322125
940.0,0.0011745136231346525
939.0,0.0011643239382664748
938.0,0.001156184525275533
937.0,0.0011486783303351984
936.0,0.0011403144289824974
935.0,0.0011317690523882562
934.0,0.0011245310833150717
933.0,0.0011185621477180652
932.0,0.0011128380004533781
931.0,0.0011070142227188149
930.0,0.0011006609389173562
929.0,0.0010917837390966966
928.0,0.0010784529974960035
927.0,0.0010619298637456176
926.0,0.001046305983122011
925.0,0.0010347205111967846
924.0,0.0010272550131145584
923.0,0.0010223643978768142
922.0,0.0010184975476760073
921.0,0.0010139570777034032
920.0,0.0010071214317549772
919.0,0.0009982332935595422
918.0,0.0009900759537229786
917.0,0.0009853391103506546
916.0,0.0009831787032148415
915.0,0.0009793590508615974
914.0,0.000970660683362207
913.0,0.0009591483236169789
912.0,0.0009511799472722848
911.0,0.0009512252821858467
910.0,0.0009567441155663055
909.0,0.0009603176168429318
908.0,0.0009572037515707377
907.0,0.0009497373382714386
906.0,0.0009437067241845733
905.0,0.0009414529243061643
904.0,0.0009397163192579317
903.0,0.0009336851460916031
902.0,0.0009218461923114108
901.0,0.0009067547869242684
900.0,0.0008920927250626477
899.0,0.0008797258174879101
898.0,0.0008692964955967354
897.0,0.0008598068321439411
896.0,0.0008508118257946559
895.0,0.0008420393203601353
894.0,0.0008330275729749317
893.0,0.0008244790795386319
892.0,0.0008198616252367752
891.0,0.0008246634446885371
890.0,0.0008440771400052105
889.0,0.000882256443463155
888.0,0.0009432845079796973
887.0,0.0010308504749631205
886.0,0.0011464871765636737
885.0,0.0012895819674610559
884.0,0.0014594060040040938
883.0,0.0016560599623201221
882.0,0.0018796173136949013
881.0,0.002129068823142412
880.0,0.0024007820107511757
879.0,0.0026863937580185702
878.0,0.0029739359443054455
877.0,0.003254085960510574
876.0,0.003525700247727346
875.0,0.0037929280429588076
874.0,0.004053072458860054
873.0,0.004283433149953037
872.0,0.0044410937661831336
871.0,0.004483817044960946
870.0,0.004399757845454061
869.0,0.004219231363108647
868.0,0.00399797330819055
867.0,0.0037892141821156064
866.0,0.0036248644942600706
865.0,0.0035130181019189686
864.0,0.0034479742822796375
863.0,0.003422048526701445
862.0,0.0034304325130889357
861.0,0.003469290840314454
860.0,0.003533070839345137
859.0,0.0036144845316105614
858.0,0.0037052806620264675
857.0,0.0037949438711657067
856.0,0.003867799278590626
855.0,0.0039022859060656003
854.0,0.003876348448833707
853.0,0.0037787325126174
852.0,0.0036196512016584146
851.0,0.003429593611796838
850.0,0.0032411304244439514
849.0,0.0030689835681616696
848.0,0.0029117191407385117
847.0,0.002771784550463767
846.0,0.0026634493060735125
845.0,0.002595353113668958
844.0,0.002552935167732127
843.0,0.0025074085053262093
842.0,0.0024413265330935933
841.0,0.0023599841784079792
840.0,0.0022794179849947626
839.0,0.002210171211159468
838.0,0.002152726203711126
837.0,0.0021020264529041815
836.0,0.0020532591023358225
835.0,0.002005880559407351
834.0,0.00196392862258724
833.0,0.0019310368450189425
832.0,0.0019051521910128186
831.0,0.001880492520713636
830.0,0.0018547883522197226
829.0,0.0018314107621112369
828.0,0.0018131823092482151
827.0,0.001797374268750446
826.0,0.0017792888439563648
825.0,0.0017583425119401998
824.0,0.0017377219592724109
823.0,0.0017199116114134444
822.0,0.0017054740838684944
821.0,0.0016948500307420989
820.0,0.001688681075725652
819.0,0.001686690039946519
818.0,0.0016874119424986405
817.0,0.0016887136768440406
816.0,0.0016884050355752286
815.0,0.00168531277851378
814.0,0.001680195203762739
813.0,0.0016748324520589764
812.0,0.0016701933163108238
811.0,0.0016661953069424295
810.0,0.0016625785144620546
809.0,0.0016586723894493794
808.0,0.0016529857423781863
807.0,0.0016450095379347911
806.0,0.0016369294379825648
805.0,0.0016311510791953915
804.0,0.0016265920109516962
803.0,0.0016205219271253945
802.0,0.0016142819449634534
801.0,0.0016134747081132648
800.0,0.0016210155128684465
799.0,0.0016333574111053548
798.0,0.001645772846054661
797.0,0.001658291996204199
796.0,0.001673263716436744
795.0,0.001689465642241485
794.0,0.0017026048565307508
793.0,0.001710623773164745
792.0,0.0017148924903092155
791.0,0.0017166741707857168
790.0,0.0017159980337832607
789.0,0.0017141308269176332
788.0,0.001713675389087526
787.0,0.0017149444966654956
786.0,0.0017145889971441758
785.0,0.0017094611293212688
784.0,0.0017006905177985362
783.0,0.001692782725538613
782.0,0.0016894321440389928
781.0,0.0016910487389343019
780.0,0.0016956839754798947
779.0,0.0017011350537257225
778.0,0.0017058737003938632
777.0,0.0017086569073663923
776.0,0.0017083178464470665
775.0,0.0017049263470877043
774.0,0.0017011043502840714
773.0,0.0017008484496586229
772.0,0.0017060913771552028
771.0,0.0017148063014890166
770.0,0.0017229374303177566
769.0,0.0017276962741089048
768.0,0.0017286336051165452
767.0,0.0017265812172702244
766.0,0.0017228228118816593
765.0,0.001719171413696484
764.0,0.0017181821906648086
763.0,0.0017228284433464564
762.0,0.0017347598392695048
761.0,0.0017513261175343912
760.0,0.001764890296035508
759.0,0.0017680044974615963
758.0,0.001760894023905839
757.0,0.001752086634577941
756.0,0.0017501063449594264
755.0,0.0017558985858168899
754.0,0.0017643841027976431
753.0,0.0017711959377485105
752.0,0.0017756464377212768
751.0,0.0017789185256101483
750.0,0.0017825211478075444
749.0,0.0017880412656846299
748.0,0.0017958514772160004
747.0,0.0018040645725930227
746.0,0.0018107383883253169
745.0,0.0018170354352453648
744.0,0.0018265344378701632
743.0,0.001841735064859669
742.0,0.0018628608285174014
741.0,0.001889381620222604
740.0,0.00192049871016989
739.0,0.001954660353329056
738.0,0.0019912049832556114
737.0,0.0020324141870388646
736.0,0.00208136966833864
735.0,0.002137689645295005
734.0,0.002198092023248347
733.0,0.00226158853730908
732.0,0.0023311532515466887
731.0,0.0024092241149085082
730.0,0.0024946151004692193
729.0,0.0025858471852631833
728.0,0.002684753542421353
727.0,0.002793015311164526
726.0,0.0029052489723751067
725.0,0.0030083337526137935
724.0,0.003089064581976001
723.0,0.0031418216119219206
722.0,0.0031684467055371106
721.0,0.003172456948899025
720.0,0.0031558232604177155
719.0,0.0031219997202244776
718.0,0.0030804476430238495
717.0,0.003046728950300198
716.0,0.0030370866028154265
715.0,0.003058527498600784
714.0,0.0030990743037081206
713.0,0.0031290915521655647
712.0,0.0031191145347830296
711.0,0.0030618896611293543
710.0,0.002977259083179567
709.0,0.0028939701356175025
708.0,0.0028276073405154143
707.0,0.002775873250790224
706.0,0.0027304821576103868
705.0,0.0026891552595403375
704.0,0.002657228921296837
703.0,0.002641871964166236
702.0,0.0026452017379585842
701.0,0.0026595789307669484
700.0,0.0026685618551675646
699.0,0.0026561288556990995
698.0,0.0026182885188185665
697.0,0.002565396984891735
696.0,0.00251283828992128
695.0,0.0024706487456036563
694.0,0.0024409942784522805
693.0,0.0024213068076666296
692.0,0.002407289946963781
691.0,0.002394862448961862
690.0,0.0023819003132331765
689.0,0.0023681047477682447
688.0,0.002353071215921202
687.0,0.0023368371071656245
686.0,0.002322800760137877
685.0,0.0023159230170174978
684.0,0.002315931867583808
683.0,0.0023158059234416814
682.0,0.0023096320568757266
681.0,0.002299536643442343
680.0,0.002292137780981033
679.0,0.002289900620471115
678.0,0.002290105533169191
677.0,0.0022903486683096067
676.0,0.002290880181614987
675.0,0.0022922002211264348
674.0,0.002292590494995761
673.0,0.0022907788871909724
672.0,0.0022889552307914086
671.0,0.0022899411435240904
670.0,0.0022916801958335698
669.0,0.0022884685668731284
668.0,0.0022811763362349975
667.0,0.00227301332702462
666.0,0.0022615479648228124
665.0,0.002248047581735458
664.0,0.00223686491830663
663.0,0.0022324559707513473
662.0,0.002236901291478789
661.0,0.0022457583187492614
660.0,0.002250296955087551
659.0,0.0022465242547589064
658.0,0.0022396358473770156
657.0,0.0022375655437818203
656.0,0.0022425440542088552
655.0,0.0022517442804033594
654.0,0.0022611963120131645
653.0,0.002267385016329614
652.0,0.002267433883354168
651.0,0.0022610678842318816
650.0,0.0022518062799819607
649.0,0.0022430495684050773
648.0,0.0022343736653683624
647.0,0.002224486665671184
646.0,0.002215037687649024
645.0,0.00220824494853375
644.0,0.0022032676829412635
643.0,0.002198248453629471
642.0,0.0021931630698325565
641.0,0.0021869320669766434
640.0,0.0021753286180364265
639.0,0.0021572301304928
638.0,0.0021391645137216917
637.0,0.0021261683633671323
636.0,0.0021126833971508597
635.0,0.002092827939205161
634.0,0.0020760386009810064
633.0,0.002077658204187334
632.0,0.002093909740416305
631.0,0.002099902085418797
630.0,0.0020779893117244437
629.0,0.0020397131338829554
628.0,0.0020118966377439583
627.0,0.002008148866218401
626.0,0.00201910368536727
625.0,0.002026715471953249
624.0,0.002021040288834745
623.0,0.002001231266262502
622.0,0.0019693023926952292
621.0,0.0019279954396804679
620.0,0.0018831405213813155
619.0,0.0018458633173362737
618.0,0.001826489256147475
617.0,0.0018244259812560891
616.0,0.0018292703747737281
615.0,0.0018308119590869096
614.0,0.0018238802644927085
613.0,0.0018061990893692382
612.0,0.0017791916343153215
611.0,0.0017543281663012253
610.0,0.0017500939767762743
609.0,0.0017763277013616375
608.0,0.0018253231450762217
607.0,0.0018787709309338505
606.0,0.001921219163528469
605.0,0.0019457827195137303
604.0,0.0019505152298952074
603.0,0.0019374868520578162
602.0,0.0019152688882120923
601.0,0.001893723730796111
600.0,0.0018764174349573657
599.0,0.0018624250176219066
598.0,0.0018501919275834182
597.0,0.0018350563743577434
596.0,0.0018085728858274284
595.0,0.0017688314832564975
594.0,0.0017274426867266365
593.0,0.001696223627366125
592.0,0.001673819448422206
591.0,0.0016529454696320705
590.0,0.0016319909001214663
589.0,0.0016121127803358378
588.0,0.0015911425757941023
587.0,0.001569846008893178
586.0,0.0015562018838908842
585.0,0.0015496807793881763
584.0,0.0015283040409079336
583.0,0.0014709051205615132
582.0,0.0013881055177145198
581.0,0.001308436000646574
580.0,0.0012388368732670955
579.0,0.0011638396192075432
578.0,0.001081270384845576
577.0,0.0010143990801010877
576.0,0.000985087523826575
575.0,0.0009848089966263828
574.0,0.0009784057262647162
573.0,0.0009446117900348844
572.0,0.0009005854108319958
571.0,0.0008818812894026546
570.0,0.0008990328114402361
569.0,0.0009185495425437077
568.0,0.0009006002434159427
567.0,0.0008471183097317069
566.0,0.0007982183605422866
565.0,0.000781417424331974
564.0,0.000786179490279391
563.0,0.0007829499570308836
562.0,0.0007491526242041113
561.0,0.0006849898225508219
560.0,0.0006187427038452384
559.0,0.0006006848634156818
558.0,0.0006644714422954136
557.0,0.000784731458832367
556.0,0.0008917826305695443
555.0,0.0009284974366315329
554.0,0.0009000457781018064
553.0,0.0008540515809663941
552.0,0.00081281755612129
551.0,0.0007587982780144535
550.0,0.000679041534774558
