cm-1,A
4000.0,-0.002325584745219683
3999.0,-0.0023198331073436378
3998.0,-0.002352955780711931
3997.0,-0.002413470382083999
3996.0,-0.0024602804186286487
3995.0,-0.002459938411708256
3994.0,-0.0024212070145371006
3993.0,-0.0023855197053931545
3992.0,-0.002387260122608755
3991.0,-0.0024178635599986847
3990.0,-0.002434262879777753
3989.0,-0.0023983331656309715
3988.0,-0.002308734803597075
3987.0,-0.0022040927655005106
3986.0,-0.0021299288487724877
3985.0,-0.0021082194990172613
3984.0,-0.002129124853566788
3983.0,-0.002163186969483012
3982.0,-0.0021798870767563983
3981.0,-0.002159898070726432
3980.0,-0.0021062000810192468
3979.0,-0.002047614099927533
3978.0,-0.0020283609928148354
3977.0,-0.0020719648793377987
3976.0,-0.002150006039529532
3975.0,-0.0022022477166662325
3974.0,-0.0021924702977968594
3973.0,-0.0021399750232533495
3972.0,-0.002083742003108943
3971.0,-0.002042243073615427
3970.0,-0.0020119083041834343
3969.0,-0.001987687048720911
3968.0,-0.001974790459412584
3967.0,-0.0019712013283495955
3966.0,-0.0019634682199544994
3965.0,-0.0019446682700710498
3964.0,-0.0019293528361580999
3963.0,-0.0019389982579870952
3962.0,-0.0019725928742284245
3961.0,-0.0020022288441750536
3960.0,-0.0019998823390770977
3959.0,-0.0019684231770343346
3958.0,-0.0019388770896017465
3957.0,-0.0019347575903515693
3956.0,-0.001962899328458969
3955.0,-0.002025458159208758
3954.0,-0.002119743695655967
3953.0,-0.002217071729736262
3952.0,-0.0022795883351747837
3951.0,-0.002294884639348892
3950.0,-0.0022872155856194787
3949.0,-0.0022967603373435673
3948.0,-0.00232944288255072
3947.0,-0.0023349038173632796
3946.0,-0.002246928861953797
3945.0,-0.0020819552008180487
3944.0,-0.0019534880149926336
3943.0,-0.0019569692444249224
3942.0,-0.002067495601198545
3941.0,-0.0021479318333494255
3940.0,-0.002096341725690013
3939.0,-0.0019792876572471557
3938.0,-0.0019382494670476275
3937.0,-0.0020069779068377673
3936.0,-0.0020991389773229226
3935.0,-0.0021447261908334172
3934.0,-0.002170075049572717
3933.0,-0.0022109463687915347
3932.0,-0.002235097011404074
3931.0,-0.0022005084072490005
3930.0,-0.002123361169704345
3929.0,-0.0020599450776362755
3928.0,-0.0020404795659749305
3927.0,-0.0020405646098845707
3926.0,-0.0020464596183773593
3925.0,-0.0020753152756397327
3924.0,-0.00211816680003333
3923.0,-0.002114612429345247
3922.0,-0.0020374537656188407
3921.0,-0.0019917484633995754
3920.0,-0.002059352468364365
3919.0,-0.0021350507464982524
3918.0,-0.002091153549031113
3917.0,-0.001961224155182564
3916.0,-0.0018657097228141437
3915.0,-0.0018197577813475647
3914.0,-0.0017528776518969868
3913.0,-0.0016793515599569176
3912.0,-0.0016605460239079882
3911.0,-0.001698723011776899
3910.0,-0.0017692515671666681
3909.0,-0.0018510034816512878
3908.0,-0.0019419705482645261
3907.0,-0.0020151184353482347
3906.0,-0.0020487322793416004
3905.0,-0.0020578098063203897
3904.0,-0.0021122602735348227
3903.0,-0.002229959794763773
3902.0,-0.002288529376214074
3901.0,-0.0022101390612076837
3900.0,-0.002121703189199536
3899.0,-0.0021579272810513216
3898.0,-0.0022435610100869988
3897.0,-0.002222727496921313
3896.0,-0.002111414407998909
3895.0,-0.002061751169293197
3894.0,-0.002104321922297968
3893.0,-0.0021283941939561233
3892.0,-0.002098093492185772
3891.0,-0.002170417151700352
3890.0,-0.0023596763885723234
3889.0,-0.0023097091013316515
3888.0,-0.001952623725329291
3887.0,-0.0016687227899814406
3886.0,-0.001713904220555805
3885.0,-0.0020324547959714844
3884.0,-0.0023487302559464258
3883.0,-0.0023595706581791354
3882.0,-0.0021959399472528405
3881.0,-0.002150647423241083
3880.0,-0.002265170994350937
3879.0,-0.002416719616633759
3878.0,-0.0023687142717972037
3877.0,-0.002107053865006074
3876.0,-0.001969172425379799
3875.0,-0.002139555404720543
3874.0,-0.0024528273027459
3873.0,-0.0025825763737943154
3872.0,-0.00233829007511706
3871.0,-0.0019498428861076111
3870.0,-0.0018730782540670376
3869.0,-0.00222067786684049
3868.0,-0.00248283469902634
3867.0,-0.002246755990360741
3866.0,-0.0019202704096310062
3865.0,-0.001922009242759897
3864.0,-0.0020496212640729455
3863.0,-0.00204259717511863
3862.0,-0.0019310642140932133
3861.0,-0.0018650328935949168
3860.0,-0.0019247087250016288
3859.0,-0.002057990638125809
3858.0,-0.0022026995832994797
3857.0,-0.002300350599774164
3856.0,-0.0023138903230822926
3855.0,-0.002143306973921526
3854.0,-0.0016748810736443064
3853.0,-0.0014733703433325663
3852.0,-0.00204419852194846
3851.0,-0.0023815623162190607
3850.0,-0.0020480202342179153
3849.0,-0.0017500134201692066
3848.0,-0.00175253297365218
3847.0,-0.0018511025627283486
3846.0,-0.0019279125981780292
3845.0,-0.00202185718463816
3844.0,-0.002159712131697542
3843.0,-0.0023550778029881834
3842.0,-0.002553447322860147
3841.0,-0.002643411156644138
3840.0,-0.0025922965333035767
3839.0,-0.0024381106301327197
3838.0,-0.0022866853817303714
3837.0,-0.0022293063688376483
3836.0,-0.0022244707286052092
3835.0,-0.002140440471458771
3834.0,-0.0019735888070752505
3833.0,-0.0018180596894309268
3832.0,-0.0017490249939274786
3831.0,-0.00176290494042296
3830.0,-0.0017760330849188209
3829.0,-0.0017205965659206866
3828.0,-0.0016614088252023896
3827.0,-0.0017440928248294522
3826.0,-0.001996339318602257
3825.0,-0.0022086635358935887
3824.0,-0.002166263561303579
3823.0,-0.0019677784646075893
3822.0,-0.0018443815864710696
3821.0,-0.0019657525263118694
3820.0,-0.0024069391013986
3819.0,-0.0025966149146479977
3818.0,-0.0021703880766412572
3817.0,-0.0016376451969205893
3816.0,-0.0014368970421385421
3815.0,-0.001553812512543878
3814.0,-0.0015880833785109037
3813.0,-0.001299644328933495
3812.0,-0.0010391160424761039
3811.0,-0.0010803147420421506
3810.0,-0.0012078749730892822
3809.0,-0.0011934542276510083
3808.0,-0.001134729979983918
3807.0,-0.0013199076538364983
3806.0,-0.0017845392689103063
3805.0,-0.0020554252339727358
3804.0,-0.0018278221945093069
3803.0,-0.0014744825523131519
3802.0,-0.001360070676421449
3801.0,-0.0016101905883773703
3800.0,-0.0020466055393021767
3799.0,-0.002094842662127638
3798.0,-0.0017812496306216534
3797.0,-0.0016005201749696805
3796.0,-0.0016440019163129985
3795.0,-0.0016771313374305706
3794.0,-0.0015177556038791958
3793.0,-0.0012575849568581656
3792.0,-0.001106359497375275
3791.0,-0.0011117776401348093
3790.0,-0.001179588172784963
3789.0,-0.0012515774029853233
3788.0,-0.0013052182612812565
3787.0,-0.0013106420217326312
3786.0,-0.001277086176240642
3785.0,-0.0013038129124756217
3784.0,-0.001448052348871862
3783.0,-0.0015986234381592107
3782.0,-0.0016138613363715871
3781.0,-0.001530182547277002
3780.0,-0.001474119018640676
3779.0,-0.0015034589340614628
3778.0,-0.0015516931647529169
3777.0,-0.001469202669180077
3776.0,-0.001281542747781454
3775.0,-0.0012014827593428614
3774.0,-0.001294290449548827
3773.0,-0.001388410259942679
3772.0,-0.001348006937116274
3771.0,-0.0012438658026793946
3770.0,-0.0012330376639478058
3769.0,-0.0013394765536226816
3768.0,-0.0013925357899477915
3767.0,-0.0012908373418079868
3766.0,-0.0011976706242451023
3765.0,-0.0012696858283497104
3764.0,-0.0014273618283330318
3763.0,-0.0014702728349423114
3762.0,-0.0014069744922590452
3761.0,-0.0014440064884874218
3760.0,-0.0015824881634974612
3759.0,-0.0016646862368153836
3758.0,-0.001688424868499942
3757.0,-0.0017248522462761165
3756.0,-0.0017391440399562126
3755.0,-0.0016965017675186142
3754.0,-0.0017215474294078135
3753.0,-0.0019084228459118535
3752.0,-0.0020185472401531446
3751.0,-0.001819076869432455
3750.0,-0.0016864426650995412
3749.0,-0.0019170973895531029
3748.0,-0.0020743954372558823
3747.0,-0.0017759015774040003
3746.0,-0.0012509763207257376
3745.0,-0.0008119824797545487
3744.0,-0.0008087611558750471
3743.0,-0.0012686452513225293
3742.0,-0.001385102698839502
3741.0,-0.0011169868216722714
3740.0,-0.001181232426769722
3739.0,-0.0016088288300519886
3738.0,-0.002028960435364229
3737.0,-0.002296677089420965
3736.0,-0.0024700616012977364
3735.0,-0.002526215703492169
3734.0,-0.0023728806809396475
3733.0,-0.00204674193343263
3732.0,-0.00178694972219321
3731.0,-0.0017028412261786635
3730.0,-0.0015951440372998747
3729.0,-0.0013662810030163472
3728.0,-0.0012292359995782426
3727.0,-0.0013670930304752584
3726.0,-0.0016657476130052902
3725.0,-0.0018626023286838368
3724.0,-0.0018482526092816086
3723.0,-0.0017634270317219035
3722.0,-0.0017266358148891256
3721.0,-0.0016964885527638324
3720.0,-0.0015851191937179031
3719.0,-0.001406368841300157
3718.0,-0.0012930716198865898
3717.0,-0.0013204261164680483
3716.0,-0.0014153975850134557
3715.0,-0.001497122766909451
3714.0,-0.0015959857885481732
3713.0,-0.0016862468593114386
3712.0,-0.0016074788536994799
3711.0,-0.001404351967655964
3710.0,-0.0012918016013050895
3709.0,-0.00122787944246167
3708.0,-0.0011173045923209158
3707.0,-0.0010222067793120605
3706.0,-0.0009980430159626892
3705.0,-0.0010003728506647706
3704.0,-0.0009740980461260809
3703.0,-0.0009153488011638374
3702.0,-0.0008483862140165246
3701.0,-0.0008009574630242801
3700.0,-0.0007204927657581076
3699.0,-0.0005230226278082548
3698.0,-0.00032079240961850435
3697.0,-0.00031751819677223146
3696.0,-0.0004961477183090691
3695.0,-0.0006589332901075782
3694.0,-0.0007330069528743563
3693.0,-0.0008329127932624218
3692.0,-0.0009830242720129962
3691.0,-0.0009755975420794993
3690.0,-0.0006685631712642975
3689.0,-0.0003358714421213939
3688.0,-0.0003336147804384156
3687.0,-0.00045863167513905505
3686.0,-0.00030249573803457254
3685.0,7.061477406673268e-05
3684.0,0.0003374852971611778
3683.0,0.0003987739797361896
3682.0,0.0003578045931908096
3681.0,0.0002751749098148801
3680.0,9.9607976016239e-05
3679.0,-9.942798023137526e-05
3678.0,-8.098823392745525e-05
3677.0,0.00026504331439618223
3676.0,0.0007755007852569239
3675.0,0.000891516929160732
3674.0,0.0005562315249445799
3673.0,0.0005968700836702784
3672.0,0.0010032356703415651
3671.0,0.00116888465401431
3670.0,0.0011374875098704527
3669.0,0.001097557970483361
3668.0,0.0011961799884905467
3667.0,0.0015854338740799827
3666.0,0.0020389334300381905
3665.0,0.0023154518670586172
3664.0,0.002458122486805849
3663.0,0.0025879913527698823
3662.0,0.002715734047239682
3661.0,0.0027894779224245693
3660.0,0.0028281375513411165
3659.0,0.0029375042246186697
3658.0,0.0031826087762057975
3657.0,0.0034878294899622596
3656.0,0.0036579454557125243
3655.0,0.0036289980798439557
3654.0,0.0036315503572277863
3653.0,0.0036987521001762506
3652.0,0.003556431422097628
3651.0,0.0032875011501148875
3650.0,0.003413421031655456
3649.0,0.0038867691336456865
3648.0,0.004102667437260697
3647.0,0.004092668915581301
3646.0,0.004291666938938074
3645.0,0.004789543083963899
3644.0,0.00537808696001103
3643.0,0.005832898277465975
3642.0,0.006088473643807633
3641.0,0.006228153166967329
3640.0,0.006349495671734521
3639.0,0.006474242182299375
3638.0,0.006575451782274934
3637.0,0.00669151869502895
3636.0,0.006882670978226169
3635.0,0.007080303747490179
3634.0,0.0071488413705234274
3633.0,0.007102970552196389
3632.0,0.007130208732120178
3631.0,0.007323193006200589
3630.0,0.007712026816955814
3629.0,0.008266800380086684
3628.0,0.008551557980625703
3627.0,0.0085690082328695
3626.0,0.008806212309118759
3625.0,0.009063961521651329
3624.0,0.00902840868615739
3623.0,0.008856886738777086
3622.0,0.008814151093063967
3621.0,0.008961245113488931
3620.0,0.009186766611133393
3619.0,0.00934180327936069
3618.0,0.009370325341565903
3617.0,0.0094579910411297
3616.0,0.009745816840004678
3615.0,0.01009372439116895
3614.0,0.010323243775568588
3613.0,0.010420577972823857
3612.0,0.010507130255253658
3611.0,0.010702586718555764
3610.0,0.01099995887206863
3609.0,0.011313877419374528
3608.0,0.01160458725504861
3607.0,0.011853692207048405
3606.0,0.01206590229466066
3605.0,0.012246922545904152
3604.0,0.012354498123349485
3603.0,0.012397207064727325
3602.0,0.01245756229571873
3601.0,0.012576337685020443
3600.0,0.012716823471059895
3599.0,0.012847371578342894
3598.0,0.01296303929405614
3597.0,0.013078951669320014
3596.0,0.013251547201064168
3595.0,0.013511396583362954
3594.0,0.013797581386513404
3593.0,0.014020200434472975
3592.0,0.014171893592844927
3591.0,0.014278171850461208
3590.0,0.014360206943370864
3589.0,0.014495667353485328
3588.0,0.014779874314760483
3587.0,0.015079367327982183
3586.0,0.01523275400761797
3585.0,0.01538410468505462
3584.0,0.015657062149848248
3583.0,0.015970876532548684
3582.0,0.01624883898902204
3581.0,0.016486972415635414
3580.0,0.016704327846472362
3579.0,0.016922977496128342
3578.0,0.017161414423010127
3577.0,0.017414466653398804
3576.0,0.01766556157278442
3575.0,0.017893680986959537
3574.0,0.01808074323236234
3573.0,0.018207087866402016
3572.0,0.01826036648829703
3571.0,0.018256439212549404
3570.0,0.018249264832653284
3569.0,0.01832852733730594
3568.0,0.018575022517342762
3567.0,0.01888589986728516
3566.0,0.019046509236489925
3565.0,0.019142033637918766
3564.0,0.019415859174451076
3563.0,0.019875016474180787
3562.0,0.020384454268256035
3561.0,0.02085768093455508
3560.0,0.021263948606978084
3559.0,0.02159055775882436
3558.0,0.021839275494122262
3557.0,0.022021235947358924
3556.0,0.022159246383117406
3555.0,0.022290048561315532
3554.0,0.022435844235881408
3553.0,0.02258598182201561
3552.0,0.022715105995943743
3551.0,0.022838186096274492
3550.0,0.022997491545894377
3549.0,0.023185618603789634
3548.0,0.023360175867084575
3547.0,0.023530903437123506
3546.0,0.023739397321874908
3545.0,0.023988392077848128
3544.0,0.02426716556855914
3543.0,0.024582926788555483
3542.0,0.02491530071446298
3541.0,0.025198496703893167
3540.0,0.02538054506082131
3539.0,0.02548254572596049
3538.0,0.025578184102634946
3537.0,0.025717788430043388
3536.0,0.02587974838324284
3535.0,0.026021507041608417
3534.0,0.026140680021443798
3533.0,0.02625971919484278
3532.0,0.026391075415061714
3531.0,0.026536831642048363
3530.0,0.026699053645549732
3529.0,0.026863351537859056
3528.0,0.02700440897707592
3527.0,0.027123674347979014
3526.0,0.027262719406762975
3525.0,0.027455515545091826
3524.0,0.027693743644081385
3523.0,0.02794520774922394
3522.0,0.028195427371187368
3521.0,0.02845238480406391
3520.0,0.028710395923515167
3519.0,0.028942038130333664
3518.0,0.02913349009804063
3517.0,0.029305482132579275
3516.0,0.029480466012830872
3515.0,0.029645333409222402
3514.0,0.029772570283674478
3513.0,0.029868857049911282
3512.0,0.029981307753927468
3511.0,0.03015322518640115
3510.0,0.030387088585344293
3509.0,0.030646315882747674
3508.0,0.030897606941932068
3507.0,0.031139727650257402
3506.0,0.03138049291097856
3505.0,0.03161268389613449
3504.0,0.03182768182936916
3503.0,0.032021335346836974
3502.0,0.03219988162849786
3501.0,0.032388877893141786
3500.0,0.03260512206817201
3499.0,0.03283183115952429
3498.0,0.033042941082521385
3497.0,0.03323105907264873
3496.0,0.03341230281931682
3495.0,0.033614601618770654
3494.0,0.03385994674504712
3493.0,0.0341471374390936
3492.0,0.03443986972788513
3491.0,0.034682661258027284
3490.0,0.03484702084670677
3489.0,0.03496120233780128
3488.0,0.03508968320552135
3487.0,0.03528769074185347
3486.0,0.03557499468947843
3485.0,0.03593137634760381
3484.0,0.036294344763279966
3483.0,0.036574945383519686
3482.0,0.0367139937021316
3481.0,0.036746958444202366
3480.0,0.03679663496311491
3479.0,0.03697192177627372
3478.0,0.03728123956161723
3477.0,0.03764568267259441
3476.0,0.037974185886491464
3475.0,0.03821998612405786
3474.0,0.03839348398285862
3473.0,0.03854258971356981
3472.0,0.03871077291220773
3471.0,0.03890113475091463
3470.0,0.0390828379351297
3469.0,0.0392362871837516
3468.0,0.03938703628127988
3467.0,0.03958978233411958
3466.0,0.03988159091060495
3465.0,0.040252714669154074
3464.0,0.040650248211589975
3463.0,0.041005617463010686
3462.0,0.04127316565871547
3461.0,0.04146353450317316
3460.0,0.04164374452139667
3459.0,0.04188724192371456
3458.0,0.04220923369186089
3457.0,0.04255229132616846
3456.0,0.04283805540326654
3455.0,0.043037502408071686
3454.0,0.04318711834143638
3453.0,0.04333869193553722
3452.0,0.04351213116062553
3451.0,0.04370314880191725
3450.0,0.04391270451026513
3449.0,0.04414301313571335
3448.0,0.0443864711807289
3447.0,0.04463819377627357
3446.0,0.04491771402459221
3445.0,0.04525173135621905
3444.0,0.04562357393693161
3443.0,0.04597261156006926
3442.0,0.0462569044823312
3441.0,0.04648539451656241
3440.0,0.046684925981373054
3439.0,0.04686389844056464
3438.0,0.047022369333272813
3437.0,0.04718058534907086
3436.0,0.047369730019514486
3435.0,0.047599987383756655
3434.0,0.04784811510361397
3433.0,0.048071604227252776
3432.0,0.04823758575047718
3431.0,0.0483483249335013
3430.0,0.04844602038193167
3429.0,0.04858363002165609
3428.0,0.04878588299246241
3427.0,0.04902984803347697
3426.0,0.04926042916096622
3425.0,0.04943013080863756
3424.0,0.04953487231038373
3423.0,0.04961257785097207
3422.0,0.04969677262032874
3421.0,0.049772282132374404
3420.0,0.04979334778448278
3419.0,0.0497514260177945
3418.0,0.04970041830994233
3417.0,0.04970036982475637
3416.0,0.04975338069865982
3415.0,0.049811363330910984
3414.0,0.04983933153857536
3413.0,0.04985002550787328
3412.0,0.04987710269206211
3411.0,0.049936564991101946
3410.0,0.050021985204878494
3409.0,0.05011816864137798
3408.0,0.050205435356880705
3407.0,0.05026097510560237
3406.0,0.05027281329237304
3405.0,0.05025332725078494
3404.0,0.05022758321893047
3403.0,0.05021149820073854
3402.0,0.05021189059019145
3401.0,0.05024210303103536
3400.0,0.050316106492758216
3399.0,0.050424193151970026
3398.0,0.05053141645931653
3397.0,0.050600819766800496
3396.0,0.05060814072606889
3395.0,0.050545284245567874
3394.0,0.050441028941399485
3393.0,0.05037627936494407
3392.0,0.050435123277730164
3391.0,0.05061973911493194
3390.0,0.05083941036487955
3389.0,0.05099458448860009
3388.0,0.051053176409320576
3387.0,0.05104462854363868
3386.0,0.05101353948612411
3385.0,0.051002343564160155
3384.0,0.05104652324240777
3383.0,0.05114574558485356
3382.0,0.051248890313991546
3381.0,0.05129740196888547
3380.0,0.051280848654045384
3379.0,0.05123015219648291
3378.0,0.05116593329268044
3377.0,0.05108024379119766
3376.0,0.050970174405986134
3375.0,0.05086291377737534
3374.0,0.050797951401488954
3373.0,0.05079126036641465
3372.0,0.05081853637619693
3371.0,0.05083167454695749
3370.0,0.05079757234169384
3369.0,0.05072386714989348
3368.0,0.05063894875385076
3367.0,0.050552005635004435
3366.0,0.05045365395400363
3365.0,0.05035843679100062
3364.0,0.050316750844500324
3363.0,0.05036347066909594
3362.0,0.05046736873777635
3361.0,0.05054977632001755
3360.0,0.05054932873254276
3359.0,0.05046107298387219
3358.0,0.05032765861630863
3357.0,0.05020958503915325
3356.0,0.05014884048194379
3355.0,0.05013550624385779
3354.0,0.05011458098663425
3353.0,0.05004159863673277
3352.0,0.04992619830979173
3351.0,0.049812326412118836
3350.0,0.04973062472001228
3349.0,0.04968534121524229
3348.0,0.04966590633808763
3347.0,0.04964238980060462
3346.0,0.049565558921441225
3345.0,0.049413582399325404
3344.0,0.04923868511016232
3343.0,0.04912716610601837
3342.0,0.04910038215051871
3341.0,0.04908662493813467
3340.0,0.04900673270282456
3339.0,0.0488609888539744
3338.0,0.04871012242403272
3337.0,0.048591410730295784
3336.0,0.04848753683358173
3335.0,0.04837390198386359
3334.0,0.04826229417170584
3333.0,0.04818344580887837
3332.0,0.04814479646629955
3331.0,0.0481202435648743
3330.0,0.048073992373871825
3329.0,0.04798317532728975
3328.0,0.04784212046604738
3327.0,0.04766193055107717
3326.0,0.04747350322787638
3325.0,0.04731870666795912
3324.0,0.0472183412612903
3323.0,0.04714576591702853
3322.0,0.0470483879575787
3321.0,0.04690295163252015
3320.0,0.04673726961841129
3319.0,0.04658967020431826
3318.0,0.04646132496473785
3317.0,0.0463224661054473
3316.0,0.04615611793661729
3315.0,0.045975735938487174
3314.0,0.0458007836444234
3313.0,0.04563264226854881
3312.0,0.04546151220955591
3311.0,0.045287954103615524
3310.0,0.04512978680248431
3309.0,0.04500802214054126
3308.0,0.04492683522256554
3307.0,0.044866901231101666
3306.0,0.044802389240346185
3305.0,0.04472682228992562
3304.0,0.04465601578072902
3303.0,0.044599675407989606
3302.0,0.0445368504907808
3301.0,0.04443135009112353
3300.0,0.04426923416848706
3299.0,0.04407243329647278
3298.0,0.04387704585089757
3297.0,0.04370702932661893
3296.0,0.04356942894236777
3295.0,0.04346639467670499
3294.0,0.043408106131579825
3293.0,0.043411820950214855
3292.0,0.04347912009515438
3291.0,0.04357024416649491
3290.0,0.043615028204998484
3289.0,0.04356384536316436
3288.0,0.0434268116608707
3287.0,0.04325617764839149
3286.0,0.043095682034401464
3285.0,0.04295701277222781
3284.0,0.04283640466753386
3283.0,0.042730343887904906
3282.0,0.04263221757319668
3281.0,0.042531214325413964
3280.0,0.04241885034023389
3279.0,0.04228769027116041
3278.0,0.042127546713348896
3277.0,0.04193899527336597
3276.0,0.041749735904109
3275.0,0.041598169786231695
3274.0,0.04149492030959758
3273.0,0.041417505401988935
3272.0,0.041347834666734425
3271.0,0.04129446626933018
3270.0,0.041267362119966636
3269.0,0.041249888357135264
3268.0,0.041213922220262975
3267.0,0.041151428052942585
3266.0,0.0410735632227531
3265.0,0.04098704997053102
3264.0,0.04089042512554233
3263.0,0.04078669783320061
3262.0,0.04068083001876762
3261.0,0.04056475483740798
3260.0,0.04042372371398669
3259.0,0.04026887384060926
3258.0,0.040149209507874185
3257.0,0.04010921925699103
3256.0,0.040132681304833405
3255.0,0.040145606308931096
3254.0,0.040082551141786445
3253.0,0.03994401963104197
3252.0,0.03978262469001944
3251.0,0.03964266637556241
3250.0,0.0395269836038135
3249.0,0.03941511563259865
3248.0,0.03929287986866249
3247.0,0.03915695960195757
3246.0,0.039006414546932586
3245.0,0.038848260747411545
3244.0,0.03870986364603989
3243.0,0.038625982069953914
3242.0,0.03860106124490529
3241.0,0.0385893678685255
3240.0,0.03852589179393771
3239.0,0.03838713989706742
3238.0,0.03821860971760967
3237.0,0.038088622474858475
3236.0,0.03801142182890063
3235.0,0.03793083951701868
3234.0,0.03778825944647189
3233.0,0.03759435743292133
3232.0,0.037416969254155136
3231.0,0.03730279502855877
3230.0,0.037231134707403524
3229.0,0.03714629454760963
3228.0,0.037016087420334035
3227.0,0.03684942749285823
3226.0,0.036668856756731476
3225.0,0.03648003268219188
3224.0,0.03627048695888797
3223.0,0.03603414152113026
3222.0,0.03579494334105156
3221.0,0.035597532986671974
3220.0,0.03546061428036588
3219.0,0.03534250082876198
3218.0,0.03517512653136022
3217.0,0.03493844939839163
3216.0,0.034685838436565336
3215.0,0.03449146820680497
3214.0,0.03438017731402332
3213.0,0.034311337667942386
3212.0,0.03422265499291281
3211.0,0.03408113408118134
3210.0,0.033898092051875134
3209.0,0.03370632192678092
3208.0,0.033525803041633585
3207.0,0.0333533608516389
3206.0,0.03318598999650503
3205.0,0.033041001634472204
3204.0,0.032935270030653774
3203.0,0.0328468793133599
3202.0,0.032722010119201554
3201.0,0.032530866598757875
3200.0,0.032300593682186025
3199.0,0.032082119813642285
3198.0,0.03189810171910562
3197.0,0.03173768688666099
3196.0,0.03158932188900404
3195.0,0.031454691422670294
3194.0,0.031329877289036086
3193.0,0.03119505169324653
3192.0,0.031032248527326903
3191.0,0.030842641441214305
3190.0,0.030638534908735297
3189.0,0.03042613387238658
3188.0,0.03020751606957614
3187.0,0.029996143545437948
3186.0,0.029818125436305312
3185.0,0.029687322459782887
3184.0,0.029579503644347423
3183.0,0.029442539127827225
3182.0,0.029239750415725414
3181.0,0.028982601294916754
3180.0,0.028722052243601866
3179.0,0.02851084593398162
3178.0,0.028367118015662662
3177.0,0.028262654017736685
3176.0,0.028143831591472636
3175.0,0.027973466320146065
3174.0,0.027760708811061546
3173.0,0.027550814587325854
3172.0,0.027382728990371252
3171.0,0.027257467263013757
3170.0,0.02714580848619351
3169.0,0.027015482952101606
3168.0,0.026847972506513433
3167.0,0.026645343970559583
3166.0,0.026435055492908595
3165.0,0.026254919180157873
3164.0,0.026114760951822198
3163.0,0.025980474099304842
3162.0,0.025812671565613086
3161.0,0.025615282417648537
3160.0,0.025428075300238395
3159.0,0.025275065513696703
3158.0,0.025140408847996523
3157.0,0.024997376448149648
3156.0,0.02484142592070257
3155.0,0.024684659707786098
3154.0,0.02453167494212561
3153.0,0.02437470296197681
3152.0,0.024207172541009993
3151.0,0.024032918427608876
3150.0,0.02386401128602649
3149.0,0.023714019302276845
3148.0,0.023590486904101714
3147.0,0.023488604308187763
3146.0,0.023390846847250454
3145.0,0.02327358374689063
3144.0,0.023116585155282733
3143.0,0.022915330585303928
3142.0,0.022692627724190916
3141.0,0.022493261559836438
3140.0,0.022351616287057903
3139.0,0.022258707348682225
3138.0,0.022172412143857068
3137.0,0.02206667034256219
3136.0,0.02195974918953655
3135.0,0.021887152125949917
3134.0,0.021855897305384554
3133.0,0.021834008295485218
3132.0,0.021782003420065102
3131.0,0.02168749840981796
3130.0,0.02156764204825782
3129.0,0.021444001731792544
3128.0,0.02132047487526077
3127.0,0.02118504450483517
3126.0,0.021026886416484793
3125.0,0.02084381757181608
3124.0,0.02063839699759011
3123.0,0.020420406144458825
3122.0,0.020213237115223024
3121.0,0.0200451680664469
3120.0,0.019925258577125012
3119.0,0.019832307750560628
3118.0,0.019736755097381778
3117.0,0.019630389823298306
3116.0,0.01952720767563721
3115.0,0.019442860914446653
3114.0,0.01938499549101122
3113.0,0.019358190211899693
3112.0,0.019361356889873668
3111.0,0.019378582769708205
3110.0,0.01938581158097005
3109.0,0.01937173245232223
3108.0,0.01934494112608586
3107.0,0.019315164835863697
3106.0,0.01927160502724675
3105.0,0.01918463560275583
3104.0,0.019032382922109903
3103.0,0.01882384473738942
3102.0,0.018593257454031314
3101.0,0.01837506461916795
3100.0,0.0181861373852193
3099.0,0.018027702477032663
3098.0,0.017896465118118415
3097.0,0.017789065814701372
3096.0,0.017698402618968174
3095.0,0.017612141117873164
3094.0,0.01751865683325922
3093.0,0.017415089839472788
3092.0,0.0173108377850328
3091.0,0.01722683443486156
3090.0,0.01718672308173236
3089.0,0.01719701007035409
3088.0,0.017232560560814666
3087.0,0.017249990647106257
3086.0,0.01722540419439455
3085.0,0.0171754169983817
3084.0,0.017133385462264183
3083.0,0.017108621351964854
3082.0,0.017076226060978174
3081.0,0.017006793995318417
3080.0,0.016897374476816076
3079.0,0.016769295923510095
3078.0,0.016646063131890012
3077.0,0.016542228613061764
3076.0,0.01646531382407301
3075.0,0.01641578805315278
3074.0,0.01638066128356198
3073.0,0.016334481567117278
3072.0,0.016257451722535215
3071.0,0.016152694965404016
3070.0,0.016040233204665202
3069.0,0.01593288332974425
3068.0,0.015824424177325137
3067.0,0.015705089916375644
3066.0,0.01558151657243391
3065.0,0.0154739141106266
3064.0,0.015395294983537724
3063.0,0.015338898356203782
3062.0,0.015285451604484003
3061.0,0.015217947570298769
3060.0,0.015132361567897216
3059.0,0.015043142867466056
3058.0,0.014977818506914032
3057.0,0.014953306201545113
3056.0,0.014948116552521457
3055.0,0.014907048901059445
3054.0,0.014785584641496308
3053.0,0.014589106606530698
3052.0,0.014362283599225645
3051.0,0.014141331388166593
3050.0,0.013923333250111958
3049.0,0.013680758678820973
3048.0,0.01340013376777082
3047.0,0.01310201464304461
3046.0,0.012825925711954698
3045.0,0.012602232931905603
3044.0,0.012436001883474827
3043.0,0.012311745498238096
3042.0,0.012211299543898185
3041.0,0.0121244603555269
3040.0,0.012044821698502201
3039.0,0.011962936177704688
3038.0,0.011869493019582369
3037.0,0.011764939222291361
3036.0,0.011662314770706329
3035.0,0.011580258448738338
3034.0,0.011532331336567139
3033.0,0.011518660239819048
3032.0,0.011524706403372444
3031.0,0.011531920513618822
3030.0,0.011532659741568335
3029.0,0.011528978926957832
3028.0,0.011516421391103634
3027.0,0.011483341814026965
3026.0,0.01143265182112868
3025.0,0.011390453984435975
3024.0,0.011380498944577365
3023.0,0.011399197676147747
3022.0,0.011427951369143458
3021.0,0.011461913612900897
3020.0,0.011511737847890762
3019.0,0.01158099296079425
3018.0,0.011658907222933754
3017.0,0.011736478934079574
3016.0,0.011815503999413779
3015.0,0.011897323352599423
3014.0,0.011976047448977005
3013.0,0.012050176782105078
3012.0,0.012130283881592697
3011.0,0.012225627394720748
3010.0,0.012329206287946749
3009.0,0.012421831737800246
3008.0,0.01248727554574363
3007.0,0.012522356879061523
3006.0,0.012540333112481941
3005.0,0.01256972719767879
3004.0,0.012638170415537654
3003.0,0.0127460070907576
3002.0,0.012858438264080549
3001.0,0.012932604986359567
3000.0,0.012956576324190505
2999.0,0.012955829506010517
2998.0,0.012963567751846854
2997.0,0.012992201098591418
2996.0,0.013035671973237108
2995.0,0.013091890202688045
2994.0,0.013171622753679852
2993.0,0.013284307180324056
2992.0,0.013422819575922531
2991.0,0.01356930403447604
2990.0,0.013712448456604857
2989.0,0.013854339303213371
2988.0,0.014003849021290253
2987.0,0.014171095220132615
2986.0,0.014367029330080452
2985.0,0.014596932899172979
2984.0,0.014851011989161063
2983.0,0.015110588444443011
2982.0,0.015367448286952343
2981.0,0.01562743114831318
2980.0,0.015891059583023105
2979.0,0.016145330896362227
2978.0,0.016384367771708902
2977.0,0.016625098347403805
2976.0,0.016886258843349197
2975.0,0.01715939719271159
2974.0,0.017415824566597887
2973.0,0.01763794623982191
2972.0,0.01782836050961601
2971.0,0.017994104721647617
2970.0,0.018140482762857894
2969.0,0.018279028118993686
2968.0,0.018419514138747047
2967.0,0.01854801489261358
2966.0,0.018631068873028248
2965.0,0.018648434268911662
2964.0,0.018611378602002158
2963.0,0.018542273942605828
2962.0,0.018449229625709933
2961.0,0.018325295468893426
2960.0,0.018161600408822122
2959.0,0.01795439667369914
2958.0,0.017705381669539767
2957.0,0.01741913322726214
2956.0,0.017095809556881118
2955.0,0.016732809045942345
2954.0,0.016340558556512022
2953.0,0.0159466343658539
2952.0,0.015566312883353632
2951.0,0.015177916116655494
2950.0,0.014750826059567516
2949.0,0.014294420322478511
2948.0,0.013854203190698713
2947.0,0.013456286015677003
2946.0,0.01308591338876279
2945.0,0.012730974458207703
2944.0,0.012419712561914237
2943.0,0.012192524316385126
2942.0,0.012052041709759417
2941.0,0.01195985694642416
2940.0,0.011875013541391073
2939.0,0.011782284649079645
2938.0,0.011691865476471957
2937.0,0.011624426333238054
2936.0,0.01158948494334825
2935.0,0.011569659474304132
2934.0,0.011535271547703525
2933.0,0.011483797672490132
2932.0,0.011451779646975623
2931.0,0.011473704445740944
2930.0,0.0115404525234647
2929.0,0.011612006434066562
2928.0,0.01166321785139051
2927.0,0.011701327872486723
2926.0,0.011747200013096091
2925.0,0.011818378631345947
2924.0,0.011923008050853745
2923.0,0.012049145724841661
2922.0,0.01215808853300672
2921.0,0.012205642957520059
2920.0,0.012177019961991149
2919.0,0.012092170703031993
2918.0,0.011980179115818659
2917.0,0.011857949831675183
2916.0,0.011734323205599868
2915.0,0.011620821359559719
2914.0,0.011530161093085786
2913.0,0.011468850579259438
2912.0,0.011433479415212909
2911.0,0.011412790915876754
2910.0,0.011389992813703028
2909.0,0.011346347400624162
2908.0,0.011263941132119263
2907.0,0.011128897876958336
2906.0,0.01094055198825572
2905.0,0.010720817064270726
2904.0,0.010506255033405661
2903.0,0.010322406992154465
2902.0,0.010165711035821052
2901.0,0.010014089159710136
2900.0,0.009849309932784234
2899.0,0.009672545426770447
2898.0,0.009501862902597224
2897.0,0.00935963731642229
2896.0,0.009260243872902777
2895.0,0.009198154084426383
2894.0,0.009150389852566297
2893.0,0.009094581975635412
2892.0,0.00902468526555744
2891.0,0.008946839961724549
2890.0,0.008863570102348763
2889.0,0.00876934423162427
2888.0,0.008659684569634908
2887.0,0.008539296390477841
2886.0,0.008418772041003608
2885.0,0.008305612786050595
2884.0,0.008199554958915964
2883.0,0.008095562511027714
2882.0,0.00799225483084186
2881.0,0.007895821435531063
2880.0,0.007813715179949627
2879.0,0.00774463209782989
2878.0,0.007678517828498399
2877.0,0.007607345165149784
2876.0,0.007531367567410803
2875.0,0.0074554841158741
2874.0,0.007386707291372502
2873.0,0.007337782081036684
2872.0,0.007322984231580221
2871.0,0.0073406246939264515
2870.0,0.007363003266277975
2869.0,0.007354836729502559
2868.0,0.0073020585065574056
2867.0,0.007220041276109271
2866.0,0.0071363501487718
2865.0,0.0070725226747391165
2864.0,0.007042548425638381
2863.0,0.007055016118124643
2862.0,0.0071079324251080035
2861.0,0.0071840834722081935
2860.0,0.007261255270653607
2859.0,0.007330167748312844
2858.0,0.007399257824644137
2857.0,0.0074779009303773125
2856.0,0.007557098951460691
2855.0,0.007608865592151959
2854.0,0.007604807704709497
2853.0,0.007535451978697207
2852.0,0.007410249788513236
2851.0,0.007244626251219497
2850.0,0.007049120036557574
2849.0,0.0068274526900125795
2848.0,0.006579731301132345
2847.0,0.006308249596464166
2846.0,0.006026833841757466
2845.0,0.005761579008129094
2844.0,0.0055339936498376
2843.0,0.005341753329997059
2842.0,0.005164245714627957
2841.0,0.004993060783118812
2840.0,0.004848179546189459
2839.0,0.004755155367003706
2838.0,0.004709958867395001
2837.0,0.004674159542352645
2836.0,0.00461032996731967
2835.0,0.004517101570926375
2834.0,0.004424193216763853
2833.0,0.004358734025213702
2832.0,0.004319012983450435
2831.0,0.004283604837601987
2830.0,0.004240396453709914
2829.0,0.004196412615518082
2828.0,0.004162147603715959
2827.0,0.00413545068325078
2826.0,0.004105645687289128
2825.0,0.004068544116026482
2824.0,0.004029387391519607
2823.0,0.003993250087090893
2822.0,0.003960838731566211
2821.0,0.003932116816519832
2820.0,0.003906423071887236
2819.0,0.0038806504936667865
2818.0,0.00385569984606005
2817.0,0.003844077905304607
2816.0,0.0038594146278236327
2815.0,0.003893109245475851
2814.0,0.003913086325304545
2813.0,0.003895695642703317
2812.0,0.003851347136484819
2811.0,0.003811728282318968
2810.0,0.003797201780916812
2809.0,0.003802911699121523
2808.0,0.0038110493301241923
2807.0,0.003803819849084963
2806.0,0.0037680917722525548
2805.0,0.0037043990426458883
2804.0,0.00363410143336194
2803.0,0.0035856155122036375
2802.0,0.003567317982211944
2801.0,0.0035610351719161546
2800.0,0.0035474985113198576
2799.0,0.003527721222654645
2798.0,0.0035099525118879376
2797.0,0.0034867426062874666
2796.0,0.0034420359970331197
2795.0,0.003380454719758832
2794.0,0.003332211896922479
2793.0,0.0033201678641363638
2792.0,0.003331889021482527
2791.0,0.0033354528469445
2790.0,0.0033178909232107878
2789.0,0.003295033835810637
2788.0,0.0032842677003430886
2787.0,0.0032807294049946372
2786.0,0.003265825435941369
2785.0,0.0032295794727105294
2784.0,0.0031761857853229505
2783.0,0.003114620419666917
2782.0,0.0030545264225362656
2781.0,0.00300979841976715
2780.0,0.002994723946086287
2779.0,0.003009180542734976
2778.0,0.00303349034606259
2777.0,0.003045341815197268
2776.0,0.003039316884055521
2775.0,0.0030269812238217396
2774.0,0.0030192711286856026
2773.0,0.003012991658964269
2772.0,0.0029969078745045357
2771.0,0.0029675780953804737
2770.0,0.002935822201596266
2769.0,0.002917550350618225
2768.0,0.0029185620713689546
2767.0,0.002927383700507355
2766.0,0.002923225646850218
2765.0,0.0028932897515193687
2764.0,0.0028452580818838684
2763.0,0.002802192677231608
2762.0,0.002782099614859499
2761.0,0.0027834917538039914
2760.0,0.002792060109115508
2759.0,0.00280020791240293
2758.0,0.002815411282932654
2757.0,0.0028459405760102715
2756.0,0.002883960425619945
2755.0,0.0029097807408313033
2754.0,0.0029102662604783428
2753.0,0.00288710215400104
2752.0,0.0028489663853066907
2751.0,0.0028049669948197074
2750.0,0.002767920521687839
2749.0,0.00275245655757129
2748.0,0.002761941464643529
2747.0,0.0027830724885666083
2746.0,0.002800499144244745
2745.0,0.0028119075404415567
2744.0,0.0028207898842933484
2743.0,0.0028191634384925066
2742.0,0.0027913858184307454
2741.0,0.00273872612970318
2740.0,0.0026886962456267836
2739.0,0.0026707746881608416
2738.0,0.002687325063310264
2737.0,0.0027141980061172613
2736.0,0.0027266353018946237
2735.0,0.0027190366003739313
2734.0,0.0026994569953329457
2733.0,0.0026738470697860303
2732.0,0.002642230878365878
2731.0,0.002607368464174707
2730.0,0.002580074106449461
2729.0,0.002571036362702118
2728.0,0.0025782674970574303
2727.0,0.0025862085182929906
2726.0,0.002579819830369383
2725.0,0.002559475350405513
2724.0,0.002540380884328841
2723.0,0.002537071087270309
2722.0,0.0025490606669255596
2721.0,0.0025607080750755006
2720.0,0.002555425860154524
2719.0,0.0025301639556428498
2718.0,0.0024961501934688633
2717.0,0.002465312989684525
2716.0,0.0024382095517463892
2715.0,0.0024087409098904073
2714.0,0.0023777824159292495
2713.0,0.0023555704875781024
2712.0,0.002349664936628794
2711.0,0.0023577324712570407
2710.0,0.0023752216915974896
2709.0,0.0024018518682668985
2708.0,0.0024338443314310338
2707.0,0.0024558377151502253
2706.0,0.002450987505562831
2705.0,0.0024203508527385273
2704.0,0.002384503218011357
2703.0,0.002363848411783412
2702.0,0.002362389001874161
2701.0,0.002371791162839248
2700.0,0.0023852940214158513
2699.0,0.0024022417658004624
2698.0,0.0024218767716399497
2697.0,0.002437821191931374
2696.0,0.002441937144191282
2695.0,0.002434496352095962
2694.0,0.002428642057866897
2693.0,0.0024397650362860063
2692.0,0.002467048346598508
2691.0,0.0024898918187114807
2690.0,0.0024883649244463596
2689.0,0.002465847807911552
2688.0,0.0024455660043082375
2687.0,0.002444331614080638
2686.0,0.0024558789630196604
2685.0,0.0024611873241448586
2684.0,0.002449812107480559
2683.0,0.0024276766349008144
2682.0,0.00240777026712961
2681.0,0.0023980280059328705
2680.0,0.002397679501661646
2679.0,0.0024023950784850213
2678.0,0.002411380364409272
2677.0,0.0024286480909387342
2676.0,0.002457321172949777
2675.0,0.002493658844965034
2674.0,0.0025279241920217214
2673.0,0.0025503199196151823
2672.0,0.002555364558287727
2671.0,0.0025432001515182396
2670.0,0.002520503777396311
2669.0,0.0025014360615769277
2668.0,0.0025052177481275978
2667.0,0.002550143126245536
2666.0,0.0026448778967981734
2665.0,0.002778994409756973
2664.0,0.0029223947221248513
2663.0,0.0030420985248174916
2662.0,0.0031267318099661634
2661.0,0.003192088605843838
2660.0,0.0032584450822955944
2659.0,0.003327374403615655
2658.0,0.0033850367756467223
2657.0,0.0034213930938314444
2656.0,0.003436283515919481
2655.0,0.0034316928757777672
2654.0,0.003412134791608257
2653.0,0.0033927476975917767
2652.0,0.0033914578229655417
2651.0,0.0034081346382741637
2650.0,0.003422411021450189
2649.0,0.003418623411080347
2648.0,0.0034034861152841536
2647.0,0.0033919601918892487
2646.0,0.0033861577334185124
2645.0,0.0033776105697803805
2644.0,0.0033631762417544696
2643.0,0.00334714064517849
2642.0,0.0033316666652380275
2641.0,0.003315922570261245
2640.0,0.00330322066857445
2639.0,0.003299242460418135
2638.0,0.0033023932147188094
2637.0,0.003302776585212031
2636.0,0.003292118096427368
2635.0,0.003270281819094672
2634.0,0.003241878547488021
2633.0,0.0032111414336870097
2632.0,0.003181145947228424
2631.0,0.003155039992813127
2630.0,0.003136812226075811
2629.0,0.003129407796375422
2628.0,0.003128784857177008
2627.0,0.0031206592428638423
2626.0,0.003090501148318079
2625.0,0.003041956370731763
2624.0,0.0029994190576283176
2623.0,0.002985217899972566
2622.0,0.002995920717253839
2621.0,0.003004823978030014
2620.0,0.002987196331202712
2619.0,0.0029413728789534363
2618.0,0.002888712544562592
2617.0,0.0028549213600720744
2616.0,0.0028470352194340885
2615.0,0.002847190514489676
2614.0,0.0028328842992522505
2613.0,0.0028024195405811523
2612.0,0.002770923683829977
2611.0,0.002742916122666734
2610.0,0.00270567404747149
2609.0,0.002656609258380181
2608.0,0.002619797187932869
2607.0,0.002619354652057578
2606.0,0.0026473592650518877
2605.0,0.0026735706929940347
2604.0,0.002679087040828387
2603.0,0.0026640273927844
2602.0,0.0026309943423451004
2601.0,0.0025837446650935868
2600.0,0.0025399640507159484
2599.0,0.0025227566279900403
2598.0,0.0025345204071077557
2597.0,0.002555044319872939
2596.0,0.0025686071680323047
2595.0,0.002576629628519304
2594.0,0.002580178586958445
2593.0,0.0025701445425171813
2592.0,0.002542295018284772
2591.0,0.002504285493585245
2590.0,0.002458646586957867
2589.0,0.002397574656506931
2588.0,0.002329020727733949
2587.0,0.002289864465658255
2586.0,0.0023102476235398435
2585.0,0.0023713960772456053
2584.0,0.0024179584195275945
2583.0,0.0024126806113086118
2582.0,0.002367107696256891
2581.0,0.0023211357665311938
2580.0,0.002307344955188733
2579.0,0.00233433646372722
2578.0,0.0023863245208933393
2577.0,0.0024318516916132862
2576.0,0.0024441633652925393
2575.0,0.002422805339876934
2574.0,0.002393241529343124
2573.0,0.0023814599472397925
2572.0,0.002390830259894004
2571.0,0.0024045492040136156
2570.0,0.002404688908154329
2569.0,0.0023844154639794867
2568.0,0.0023463241782508207
2567.0,0.0022971103378115173
2566.0,0.0022478110952610774
2565.0,0.0022151442196570803
2564.0,0.00221246138150914
2563.0,0.0022329348599980266
2562.0,0.002247021754740535
2561.0,0.00222790214930786
2560.0,0.002180318423357923
2559.0,0.0021349339890860608
2558.0,0.0021141016669091583
2557.0,0.0021150756739819997
2556.0,0.0021286878697948236
2555.0,0.0021559655919220887
2554.0,0.0021931757786413
2553.0,0.0022170288915396644
2552.0,0.0022079875268874605
2551.0,0.0021816942902276055
2550.0,0.0021733934382291795
2549.0,0.0021893029099991617
2548.0,0.002196568374930652
2547.0,0.0021696923061262146
2546.0,0.002126339012305494
2545.0,0.0021025660108374565
2544.0,0.002105970817147798
2543.0,0.002111530824177657
2542.0,0.0020990157497293173
2541.0,0.0020772351797951785
2540.0,0.0020683022539309693
2539.0,0.0020795027310577733
2538.0,0.00209666160570801
2537.0,0.0021006301250208947
2536.0,0.0020861683823089473
2535.0,0.0020644781146746593
2534.0,0.002048073877679753
2533.0,0.0020362758074209987
2532.0,0.0020206633216567063
2531.0,0.002004522414675267
2530.0,0.0020082693522073835
2529.0,0.002047717216876569
2528.0,0.0021085545390584015
2527.0,0.002149550488788824
2526.0,0.0021353889052272202
2525.0,0.0020681635075488966
2524.0,0.0019880448505764
2523.0,0.0019415172401003253
2522.0,0.0019448562773062847
2521.0,0.0019755994245057042
2520.0,0.0019975949513554823
2519.0,0.0019899156765806753
2518.0,0.0019507138825738102
2517.0,0.0018864400581997598
2516.0,0.00181357110074563
2515.0,0.0017652703061951606
2514.0,0.0017726821472242057
2513.0,0.0018293525339445533
2512.0,0.00188838526737995
2511.0,0.0019066445108845667
2510.0,0.0018829480971278524
2509.0,0.001846162416773118
2508.0,0.0018200756069395542
2507.0,0.0018129178922072992
2506.0,0.0018273404797397525
2505.0,0.0018581866673420982
2504.0,0.001883378103473218
2503.0,0.001877305716470666
2502.0,0.0018381147608001781
2501.0,0.0017910930867252582
2500.0,0.0017635428471751424
2499.0,0.0017643735044817039
2498.0,0.0017850015384831604
2497.0,0.0018069888753998531
2496.0,0.001810194380641192
2495.0,0.0017892056779303038
2494.0,0.0017651967624948933
2493.0,0.0017683027251969448
2492.0,0.0018020667778890333
2491.0,0.0018341144976894565
2490.0,0.0018261351806415135
2489.0,0.0017672628252763142
2488.0,0.0016806253890376184
2487.0,0.0016088493165314216
2486.0,0.0015910688464021105
2485.0,0.0016342842094177103
2484.0,0.0016984910952875126
2483.0,0.0017248881189411134
2482.0,0.0016908531240234339
2481.0,0.0016300582441820316
2480.0,0.0015913786256275043
2479.0,0.0015877773539392042
2478.0,0.0015944913750075493
2477.0,0.001586574055922618
2476.0,0.0015639628871554024
2475.0,0.001543684618437549
2474.0,0.0015394529218034567
2473.0,0.0015488669355056641
2472.0,0.0015540546757777723
2471.0,0.001537293284722923
2470.0,0.0015016850968415734
2469.0,0.0014735558998542706
2468.0,0.0014795591869172912
2467.0,0.0015242596560682319
2466.0,0.0015914200164403331
2465.0,0.001657864929625618
2464.0,0.0017015442617268261
2463.0,0.0017097982053539363
2462.0,0.001694838530549604
2461.0,0.0016955114914047813
2460.0,0.0017472182604938349
2459.0,0.001847505686662896
2458.0,0.0019596275383479723
2457.0,0.0020480197672614556
2456.0,0.0021007495442754674
2455.0,0.0021201796765946074
2454.0,0.002108263098262399
2453.0,0.0020692629122696766
2452.0,0.0020171860006158717
2451.0,0.001969963150152006
2450.0,0.0019375961879760763
2449.0,0.0019194210962235228
2448.0,0.0019096973691335602
2447.0,0.0019025771927704198
2446.0,0.0018940350626241906
2445.0,0.0018822335616925966
2444.0,0.001866513210821707
2443.0,0.0018469064202777776
2442.0,0.001825871268444718
2441.0,0.0018077696371693198
2440.0,0.0017927271432477822
2439.0,0.0017736373910508339
2438.0,0.001745851719123771
2437.0,0.00171996890989007
2436.0,0.001718137022200368
2435.0,0.0017535525786887569
2434.0,0.001814983141769567
2433.0,0.0018719143053505544
2432.0,0.0018942092701764524
2431.0,0.0018702382973083977
2430.0,0.0018128300086957703
2429.0,0.001750731334053686
2428.0,0.0017100872797327794
2427.0,0.0016982263005792773
2426.0,0.001702081357263276
2425.0,0.0017019571422592487
2424.0,0.0016911104834219023
2423.0,0.0016873758769083065
2422.0,0.001722086614570871
2421.0,0.0018052571064923377
2420.0,0.0018983843129760946
2419.0,0.0019366604363068212
2418.0,0.0018915957441643207
2417.0,0.0018055587617115286
2416.0,0.0017516481117768093
2415.0,0.0017629134146429303
2414.0,0.0018151108071988117
2413.0,0.0018730680520234431
2412.0,0.0019283910439897019
2411.0,0.0019818207454557666
2410.0,0.0020103221210321974
2409.0,0.001976754209485337
2408.0,0.001872551685465111
2407.0,0.001737561707773456
2406.0,0.0016351873679205271
2405.0,0.0016112866423182962
2404.0,0.001668634932099883
2403.0,0.0017676967199525277
2402.0,0.0018519382399309063
2401.0,0.001885445162679702
2400.0,0.001875752084217802
2399.0,0.0018602418870866805
2398.0,0.00186951474063879
2397.0,0.0019042726398535302
2396.0,0.0019428084059818643
2395.0,0.001963270667618994
2394.0,0.001958183466514584
2393.0,0.0019351653578298413
2392.0,0.001909391654687014
2391.0,0.001894145992629381
2390.0,0.0018945361136616001
2389.0,0.0019072809714806545
2388.0,0.0019238305437698196
2387.0,0.0019327089967317293
2386.0,0.0019226125448336766
2385.0,0.0018886714178817372
2384.0,0.001836850893247025
2383.0,0.0017787823378332258
2382.0,0.0017196736861906942
2381.0,0.0016516443209760416
2380.0,0.0015607275347552007
2379.0,0.001442625156169192
2378.0,0.001313863328266268
2377.0,0.0012083021860464947
2376.0,0.0011576273728549683
2375.0,0.0011687280962136698
2374.0,0.0012215760297730857
2373.0,0.001292025133125181
2372.0,0.0013759333926307532
2371.0,0.0014765295044693798
2370.0,0.0015713698216144713
2369.0,0.001615373695964567
2368.0,0.001586728381813749
2367.0,0.001507168750898894
2366.0,0.0014004691992984316
2365.0,0.0012584633519962763
2364.0,0.001091666110932058
2363.0,0.000994487478013962
2362.0,0.0010922164962408943
2361.0,0.0013759883660894937
2360.0,0.0016398720329133566
2359.0,0.0016843267500828668
2358.0,0.001536611712452503
2357.0,0.0014193838815144194
2356.0,0.0015198783965884575
2355.0,0.001812749656592613
2354.0,0.002159778000546347
2353.0,0.002442579944860842
2352.0,0.0025939555793822195
2351.0,0.0025916826689983846
2350.0,0.0024681635665207507
2349.0,0.0023162411702964793
2348.0,0.0021965244194871066
2347.0,0.0021387448875960975
2346.0,0.0021833634628686325
2345.0,0.0023110209576465536
2344.0,0.002431153777882441
2343.0,0.00247700087756547
2342.0,0.0024956661343833175
2341.0,0.0025136646179526865
2340.0,0.0025118227875472023
2339.0,0.0025100069525409575
2338.0,0.002520144077716109
2337.0,0.0025259660805704
2336.0,0.0024806440256867953
2335.0,0.002385509911007363
2334.0,0.0022902763587825475
2333.0,0.0022581301546269104
2332.0,0.0022897484823719986
2331.0,0.002366265631946889
2330.0,0.00251683857568825
2329.0,0.0028849044010652637
2328.0,0.0035600064800522637
2327.0,0.00444446217356993
2326.0,0.0052451678981056404
2325.0,0.005640925099466655
2324.0,0.005528021119852741
2323.0,0.005067796369114927
2322.0,0.0045592869195148255
2321.0,0.004195664968048534
2320.0,0.004011243601002461
2319.0,0.003967106213082115
2318.0,0.003995191959216376
2317.0,0.0040369933977465865
2316.0,0.0040366375998082925
2315.0,0.003997137979826771
2314.0,0.0039354085550751166
2313.0,0.0038618970847744136
2312.0,0.003757883400633268
2311.0,0.0036368089861945714
2310.0,0.0035402156401763123
2309.0,0.0035019578596086984
2308.0,0.003507657742372946
2307.0,0.003530559190628329
2306.0,0.0035644025631354865
2305.0,0.003616799513329998
2304.0,0.003676717397598628
2303.0,0.003723126678112968
2302.0,0.0037509790734682
2301.0,0.0037837417194246407
2300.0,0.0038447679746926753
2299.0,0.003944790876968875
2298.0,0.004074042096940471
2297.0,0.00421309461285295
2296.0,0.004337899391316433
2295.0,0.004442875553474632
2294.0,0.00454872054776193
2293.0,0.004680435653122322
2292.0,0.0048340482644551866
2291.0,0.004973902845954885
2290.0,0.005074525838935406
2289.0,0.005143675759104229
2288.0,0.005200936707201057
2287.0,0.005232286989638293
2286.0,0.0051940772026263194
2285.0,0.005062097120824968
2284.0,0.004872132613707395
2283.0,0.004694286618926499
2282.0,0.004574763089242104
2281.0,0.004503990055055541
2280.0,0.004445967417081142
2279.0,0.004384776654348532
2278.0,0.0043316130111534755
2277.0,0.004289372237061194
2276.0,0.0042322808260251655
2275.0,0.004140839977624333
2274.0,0.004042212570706359
2273.0,0.003992728845687826
2272.0,0.004009400988417823
2271.0,0.004038421198986686
2270.0,0.004004592108536525
2269.0,0.003884990930588971
2268.0,0.0037239433917580786
2267.0,0.003577700218472919
2266.0,0.003460785643642615
2265.0,0.003350806268477517
2264.0,0.003235615464278555
2263.0,0.0031438152985209422
2262.0,0.0031232690166319074
2261.0,0.003192287667679362
2260.0,0.003314051668376292
2259.0,0.0034165748877993994
2258.0,0.003433973022370315
2257.0,0.0033406350509175217
2256.0,0.003168860662893217
2255.0,0.002997997977578039
2254.0,0.002902090048049388
2253.0,0.002896299040645326
2252.0,0.002938531479696136
2251.0,0.002990205825079916
2250.0,0.0030473378879632973
2249.0,0.0031030867610688127
2248.0,0.0031185454296948057
2247.0,0.0030702333366155387
2246.0,0.0030042679833907644
2245.0,0.0029928201298185454
2244.0,0.0030434779762912676
2243.0,0.0030941794113446344
2242.0,0.0030990026897331703
2241.0,0.003068632178195329
2240.0,0.0030229802572791465
2239.0,0.0029568061840105847
2238.0,0.0028769562441873582
2237.0,0.002825971700905989
2236.0,0.002834762317036404
2235.0,0.0028846767269275824
2234.0,0.002947387223785657
2233.0,0.003027953207815411
2232.0,0.003136662999446489
2231.0,0.003247690447408179
2230.0,0.003320312445695681
2229.0,0.0033393604809500163
2228.0,0.0033075925971297556
2227.0,0.003222698376306251
2226.0,0.003099214576978755
2225.0,0.0029867003684214007
2224.0,0.0029220622167810935
2223.0,0.0028798024826834673
2222.0,0.002813173920009307
2221.0,0.00272403669859658
2220.0,0.00264807160688483
2219.0,0.0025927739952470536
2218.0,0.002541713286990346
2217.0,0.002505036790919385
2216.0,0.002507176553382264
2215.0,0.0025303437860859793
2214.0,0.0025265326046405813
2213.0,0.002487245717143785
2212.0,0.002452438514507413
2211.0,0.0024474199399643504
2210.0,0.0024572732263067765
2209.0,0.002460833885758436
2208.0,0.00244068788520552
2207.0,0.0023708397099552183
2206.0,0.00225887874284427
2205.0,0.002196621125256866
2204.0,0.002279292947054903
2203.0,0.0024569625591961655
2202.0,0.002557274023235872
2201.0,0.0024977896448617905
2200.0,0.002400882638877877
2199.0,0.0024270635248249814
2198.0,0.002560420572878737
2197.0,0.002644502895308488
2196.0,0.0026021724812746684
2195.0,0.0025329579687593685
2194.0,0.0025915675912453378
2193.0,0.0028294117910110197
2192.0,0.003149721066788681
2191.0,0.0033858755507724814
2190.0,0.003428434242267267
2189.0,0.003323451100088845
2188.0,0.0032389622716141463
2187.0,0.003275097493974694
2186.0,0.003321288039998051
2185.0,0.003150688720204784
2184.0,0.002664348269427654
2183.0,0.002004344422008248
2182.0,0.001449885425873522
2181.0,0.0012404660840412752
2180.0,0.0014212123645380593
2179.0,0.001798904668979212
2178.0,0.002055947457764484
2177.0,0.002003848323983957
2176.0,0.0017628885818589944
2175.0,0.0016135076846092306
2174.0,0.0016882402225562197
2173.0,0.0019048799807007996
2172.0,0.002180933791636279
2171.0,0.0025759481671231606
2170.0,0.003146599788962862
2169.0,0.0037678645370446896
2168.0,0.004214340219375076
2167.0,0.004394825856957405
2166.0,0.004421881004077
2165.0,0.004475215718219338
2164.0,0.004617769838041126
2163.0,0.004658074066440708
2162.0,0.004123522364795034
2161.0,0.0025409031498902345
2160.0,2.581114923638772e-05
2159.0,-0.002498594383646891
2158.0,-0.004000659373288257
2157.0,-0.004208664631189801
2156.0,-0.0036308083855162514
2155.0,-0.002893180583100728
2154.0,-0.002265809366758267
2153.0,-0.0017456167605919635
2152.0,-0.00129139056573497
2151.0,-0.0009041172161571757
2150.0,-0.0005752324344597881
2149.0,-0.0003057612098641812
2148.0,-0.00016363698744531496
2147.0,-0.00023878401225539093
2146.0,-0.0005155744589154607
2145.0,-0.0008238562452752013
2144.0,-0.0009541650393903314
2143.0,-0.0008200554411889019
2142.0,-0.0004968788380567582
2141.0,-0.00013497399918614583
2140.0,0.00014336966613047507
2139.0,0.00025717413559966695
2138.0,0.00012944802850521332
2137.0,-0.0002884226018970835
2136.0,-0.0009111882037233531
2135.0,-0.001499940558380366
2134.0,-0.0018016314005713063
2133.0,-0.0017214612272895388
2132.0,-0.0013444109932515484
2131.0,-0.0008265736671622525
2130.0,-0.0003022953396673067
2129.0,0.00012459439190990476
2128.0,0.0003945093915373039
2127.0,0.0005276097293233191
2126.0,0.0006119568645294397
2125.0,0.0007337535398218228
2124.0,0.0009223227514635148
2123.0,0.00115812836348383
2122.0,0.0014086933371483426
2121.0,0.0016517671121810957
2120.0,0.0018883075763491551
2119.0,0.0021402954036649066
2118.0,0.0024158091469506965
2117.0,0.002672259097205149
2116.0,0.002838725967863085
2115.0,0.002882007018905374
2114.0,0.0028370543286491802
2113.0,0.002766989987625957
2112.0,0.0027129604897654946
2111.0,0.0026849627851641615
2110.0,0.002680752194457371
2109.0,0.00268919408883595
2108.0,0.0026876823160665057
2107.0,0.0026588406828583814
2106.0,0.002613234898265316
2105.0,0.0025847567886393905
2104.0,0.0025969720607522807
2103.0,0.0026374470151895083
2102.0,0.0026684565543716255
2101.0,0.002661589270917665
2100.0,0.0026126710838106303
2099.0,0.0025145209611742423
2098.0,0.0023271795524112226
2097.0,0.002014050215955871
2096.0,0.0016216952578146492
2095.0,0.0012946854590280834
2094.0,0.001177541649370927
2093.0,0.0013010080271573146
2092.0,0.0015742145538808908
2091.0,0.0018715329882951401
2090.0,0.0020980919768127776
2089.0,0.002207608858557032
2088.0,0.002214024221751193
2087.0,0.002194852410050174
2086.0,0.002238278199848566
2085.0,0.002361269420149196
2084.0,0.0025004570924248544
2083.0,0.002594177555253994
2082.0,0.0026508725322208046
2081.0,0.0027163383088475855
2080.0,0.002794632730284293
2079.0,0.002822288883818274
2078.0,0.002719981426976589
2077.0,0.002468758759936065
2076.0,0.002141699025259122
2075.0,0.0018607859814019911
2074.0,0.0017050957571109636
2073.0,0.0016602233437553278
2072.0,0.0016612248343787963
2071.0,0.0016750895392335396
2070.0,0.0017190929005227074
2069.0,0.0017995583089506946
2068.0,0.0018749918888479817
2067.0,0.0018917222339094476
2066.0,0.0018319165609427626
2065.0,0.0017200295466608426
2064.0,0.0016027372129756756
2063.0,0.0015151268459612966
2062.0,0.0014448848299095903
2061.0,0.0013484129401336283
2060.0,0.001234284885482826
2059.0,0.0011994669571563032
2058.0,0.001309585503127751
2057.0,0.0014683215522057046
2056.0,0.0015280985729965641
2055.0,0.0015516239681873743
2054.0,0.0018113460212718273
2053.0,0.0024186769502248474
2052.0,0.0030648606623471094
2051.0,0.0032661995888676916
2050.0,0.002847375661693499
2049.0,0.002121495191817153
2048.0,0.0015352502351925978
2047.0,0.0012322320084511675
2046.0,0.0010812984837487217
2045.0,0.0009483512048375554
2044.0,0.0008166235627374528
2043.0,0.0007319699541395554
2042.0,0.0007338820792946977
2041.0,0.0008135306249108748
2040.0,0.0008913315014518006
2039.0,0.0008730704357719434
2038.0,0.0007367232509132972
2037.0,0.0005272918330909086
2036.0,0.00027953491062478533
2035.0,2.6813584642208007e-06
2034.0,-0.00026897767943026573
2033.0,-0.0004990766909034499
2032.0,-0.0007230110138218051
2031.0,-0.0009863727938841241
2030.0,-0.001209436219758232
2029.0,-0.0012445137370560736
2028.0,-0.0010931707868350828
2027.0,-0.0009354594396498493
2026.0,-0.0009035427468504678
2025.0,-0.0009536602822561385
2024.0,-0.0009910689330753307
2023.0,-0.0010110199909225937
2022.0,-0.0010367254900777215
2021.0,-0.0010317007531336572
2020.0,-0.0009579626733465429
2019.0,-0.0008452630357865645
2018.0,-0.000737342659723714
2017.0,-0.0006371791227777506
2016.0,-0.0005603198226159498
2015.0,-0.0005658406184559461
2014.0,-0.0006662342156890496
2013.0,-0.0007613369430382165
2012.0,-0.0007349573981658051
2011.0,-0.0006029145236730808
2010.0,-0.0005109269863201433
2009.0,-0.00059980453371451
2008.0,-0.0008831839572271102
2007.0,-0.0012284867807858852
2006.0,-0.0014342981934988741
2005.0,-0.0013729156515589172
2004.0,-0.0011032418004493405
2003.0,-0.0008188024980358311
2002.0,-0.0006542358564981855
2001.0,-0.000566423577362306
2000.0,-0.0004156952763254007
1999.0,-0.00013827056184570583
1998.0,0.00017162057431809497
1997.0,0.0003626042090044655
1996.0,0.00038417617421411033
1995.0,0.00033525247617399636
1994.0,0.00037031403401914
1993.0,0.0005713950950957357
1992.0,0.0008695886743518163
1991.0,0.0011118549191913452
1990.0,0.0012229817069932102
1989.0,0.0012572332248574937
1988.0,0.0013135903759991835
1987.0,0.0014409253317697471
1986.0,0.0016272028972512086
1985.0,0.001855327387086437
1984.0,0.002141865636232457
1983.0,0.0025037258829455787
1982.0,0.002874679592701032
1981.0,0.0030525668263236376
1980.0,0.002778352398592453
1979.0,0.001959947901178402
1978.0,0.0008409104474415459
1977.0,-0.00010937825002295658
1976.0,-0.0005975468818617653
1975.0,-0.0007247865747054022
1974.0,-0.0007626722929507167
1973.0,-0.0008370378351869481
1972.0,-0.0008793370880814185
1971.0,-0.0008018160936953758
1970.0,-0.0006249305001279305
1969.0,-0.00045148483280913875
1968.0,-0.0003780992221906509
1967.0,-0.00041861761704813376
1966.0,-0.00047030086227416016
1965.0,-0.0003888302670479347
1964.0,-0.0001528575270828426
1963.0,6.779335148014687e-05
1962.0,4.7709617532996906e-05
1961.0,-0.00026543448394103866
1960.0,-0.0006698226247536421
1959.0,-0.0008962888421976447
1958.0,-0.000830956713768975
1957.0,-0.0005517449750250913
1956.0,-0.00022320040972587216
1955.0,1.8043514073217727e-05
1954.0,0.00011551939717980046
1953.0,9.868330685668851e-05
1952.0,5.270063484936289e-05
1951.0,4.641101889266055e-05
1950.0,8.799818010185329e-05
1949.0,0.000124486621453394
1948.0,0.00010314386011308057
1947.0,3.870057675541038e-05
1946.0,-6.3197984178251995e-06
1945.0,-1.2813950109489755e-05
1944.0,-4.736281313339201e-05
1943.0,-0.00018130455329308038
1942.0,-0.00037880849037965725
1941.0,-0.0005271337104358683
1940.0,-0.0005853150472679692
1939.0,-0.0006217156088955777
1938.0,-0.0006953456236793629
1937.0,-0.0007764540157639084
1936.0,-0.0008030707187986982
1935.0,-0.000765318839215777
1934.0,-0.0006977437237768098
1933.0,-0.0006252212655223413
1932.0,-0.000564065416039942
1931.0,-0.0005520084508984224
1930.0,-0.0006085551989584814
1929.0,-0.0007081813222835742
1928.0,-0.0008007413377637709
1927.0,-0.000856445313471028
1926.0,-0.0008808629018445863
1925.0,-0.0008694305393266474
1924.0,-0.0008231719834138455
1923.0,-0.0007535449259378343
1922.0,-0.0006809529514971652
1921.0,-0.0006149667036228399
1920.0,-0.0005702966556138257
1919.0,-0.0005772308336141135
1918.0,-0.0006471590236879256
1917.0,-0.0007473648539709746
1916.0,-0.0008274181429084317
1915.0,-0.0008663196221327194
1914.0,-0.0008808575673859989
1913.0,-0.0008818840124362605
1912.0,-0.0008757737129372696
1911.0,-0.0008784388102134589
1910.0,-0.0008928552713851328
1909.0,-0.0009055307810400504
1908.0,-0.000906623537742375
1907.0,-0.0009093876451379648
1906.0,-0.0009358298602516989
1905.0,-0.000967609758868046
1904.0,-0.000987767178592423
1903.0,-0.001001766995685959
1902.0,-0.0010234196388890881
1901.0,-0.0010506414347018133
1900.0,-0.0010612558428522213
1899.0,-0.001046247133695461
1898.0,-0.0010332400901061055
1897.0,-0.0010474235464526275
1896.0,-0.0010950365898796783
1895.0,-0.001156987317762194
1894.0,-0.001198580228598063
1893.0,-0.001190819488458531
1892.0,-0.0011384864815993953
1891.0,-0.001084541225677167
1890.0,-0.0010776706855410733
1889.0,-0.0011289741356353795
1888.0,-0.0011926683400175608
1887.0,-0.001221421282107432
1886.0,-0.0012216486589480622
1885.0,-0.0012159567611799572
1884.0,-0.0012011170793615308
1883.0,-0.0011620754408098685
1882.0,-0.0011038971356277204
1881.0,-0.001061184619958148
1880.0,-0.0010541325333010554
1879.0,-0.0010671225295141016
1878.0,-0.0010817620263020389
1877.0,-0.0010901648943316075
1876.0,-0.0010976984693397648
1875.0,-0.00111880199126186
1874.0,-0.0011492274291624778
1873.0,-0.001163361818706824
1872.0,-0.0011481760630021002
1871.0,-0.0011221118643748565
1870.0,-0.0011066199254980546
1869.0,-0.0011016271230326106
1868.0,-0.0011079264088402904
1867.0,-0.0011182462345800648
1866.0,-0.0011160489530588104
1865.0,-0.0010970330273156839
1864.0,-0.001055869333176683
1863.0,-0.0009934089205513304
1862.0,-0.0009308685510717725
1861.0,-0.0008920612641185397
1860.0,-0.0008799751254280341
1859.0,-0.0008812545196883806
1858.0,-0.0008858423788379703
1857.0,-0.00088383330021111
1856.0,-0.0008596616303116517
1855.0,-0.000811594209052639
1854.0,-0.0007607809583343424
1853.0,-0.0007277216343364043
1852.0,-0.0006988206010744655
1851.0,-0.0006375675378975884
1850.0,-0.0005695235540380261
1849.0,-0.0005292878358440639
1848.0,-0.0004960704435824788
1847.0,-0.00041872807052330697
1846.0,-0.0003023395135331847
1845.0,-0.00019994094151630937
1844.0,-0.00014384886200060612
1843.0,-0.00011714838698542208
1842.0,-6.88573058466686e-05
1841.0,-7.5952602285977826e-06
1840.0,3.1165452053234354e-05
1839.0,4.982422602307782e-05
1838.0,5.8404652547197015e-05
1837.0,6.238419200629971e-05
1836.0,7.176789625312589e-05
1835.0,0.00011840409943896305
1834.0,0.0002137284675306785
1833.0,0.0003282235970973684
1832.0,0.0004311660139362022
1831.0,0.0005179596590175178
1830.0,0.0005757212863784127
1829.0,0.0006034814829554759
1828.0,0.000657397749740623
1827.0,0.0007602756023802055
1826.0,0.0008489397224006158
1825.0,0.0008860891600797772
1824.0,0.0008991153379651453
1823.0,0.0009250249449411626
1822.0,0.000940212509969356
1821.0,0.0008862729088639915
1820.0,0.0007621536877940142
1819.0,0.0006168515596739095
1818.0,0.0005037027425557885
1817.0,0.0004678005123049892
1816.0,0.0005127766757464375
1815.0,0.0006022467019131676
1814.0,0.0006794053592030593
1813.0,0.0007153168336188811
1812.0,0.0007485156808165203
1811.0,0.0008130016991971731
1810.0,0.0008957737528847353
1809.0,0.0009549841619432035
1808.0,0.0009737866312008606
1807.0,0.0009819362583700997
1806.0,0.0010062597157395638
1805.0,0.001038750139285758
1804.0,0.001062199787619511
1803.0,0.001084018962746366
1802.0,0.0011126454656414557
1801.0,0.0011276649518345474
1800.0,0.0011308955631868902
1799.0,0.001138979369704348
1798.0,0.0011696586727826998
1797.0,0.0012147796536023468
1796.0,0.0012722196164667958
1795.0,0.0013494592036716888
1794.0,0.0014251492695764477
1793.0,0.001465672761467137
1792.0,0.0014823376203232696
1791.0,0.0014998482835155555
1790.0,0.0015373039053999385
1789.0,0.0015722190360558125
1788.0,0.001589580370146679
1787.0,0.0016161333570850357
1786.0,0.001667456985983507
1785.0,0.0017141182357146862
1784.0,0.0017399660474076194
1783.0,0.0017845015313881583
1782.0,0.0018479395354359099
1781.0,0.0018694746955603475
1780.0,0.0018663617537218336
1779.0,0.0018835695503212173
1778.0,0.0019311806645817466
1777.0,0.0019769583702779637
1776.0,0.0020516278380149633
1775.0,0.0022165497146656695
1774.0,0.002417821512824778
1773.0,0.002546784330308748
1772.0,0.002613434474614637
1771.0,0.002726655992620018
1770.0,0.0029120629048735493
1769.0,0.0030700507743271453
1768.0,0.0031547333717915427
1767.0,0.003237847642933722
1766.0,0.0033732749431883494
1765.0,0.003540913678934334
1764.0,0.003722742777632229
1763.0,0.003943098547959901
1762.0,0.004193719423887124
1761.0,0.004414126440155602
1760.0,0.004661578039960389
1759.0,0.005012249564426004
1758.0,0.00543938661434646
1757.0,0.005853455819008296
1756.0,0.0062756260565694
1755.0,0.0068056317542487445
1754.0,0.007436123890948384
1753.0,0.0081009072759428
1752.0,0.008895038847867137
1751.0,0.010019963542119203
1750.0,0.01146798671371381
1749.0,0.013101684713597034
1748.0,0.014921666166358764
1747.0,0.017011294101528424
1746.0,0.01935232224103754
1745.0,0.021965874389292032
1744.0,0.024988248720229318
1743.0,0.028417013303560577
1742.0,0.0321169535779182
1741.0,0.03618923504084829
1740.0,0.04089603050880985
1739.0,0.045881375639479284
1738.0,0.05027582857810156
1737.0,0.05391523636145104
1736.0,0.05760913902199332
1735.0,0.06284301344757096
1734.0,0.06997764183173841
1733.0,0.07649916551604935
1732.0,0.08137845730613487
1731.0,0.08605097479926756
1730.0,0.09130617573265906
1729.0,0.09683667216879506
1728.0,0.10218625945999625
1727.0,0.10744127586103502
1726.0,0.11287773907109548
1725.0,0.11858254905722262
1724.0,0.12451607890488109
1723.0,0.1304829421701758
1722.0,0.1360802612419664
1721.0,0.14102246066044324
1720.0,0.14570134086746864
1719.0,0.15124045955489163
1718.0,0.1580721679605179
1717.0,0.16403885305852978
1716.0,0.16748946457899738
1715.0,0.16976071619342434
1714.0,0.1714543698506945
1713.0,0.17166655706153336
1712.0,0.17007293406595816
1711.0,0.1671865704666776
1710.0,0.1632266864455477
1709.0,0.15793081047463306
1708.0,0.15124533856799702
1707.0,0.1430975991760481
1706.0,0.13312704070186593
1705.0,0.12240759779738189
1704.0,0.11355098995858769
1703.0,0.10731877379707926
1702.0,0.1017524632510034
1701.0,0.09355499562678661
1700.0,0.08273776292263578
1699.0,0.07431631378742413
1698.0,0.06959544145643555
1697.0,0.06567599567244642
1696.0,0.060685233117776474
1695.0,0.05563794741403359
1694.0,0.052174584671248185
1693.0,0.05005766231841693
1692.0,0.048309349564991486
1691.0,0.046419841894703634
1690.0,0.04444587954882489
1689.0,0.04272209563279236
1688.0,0.041462340453812925
1687.0,0.04056515694122251
1686.0,0.03971914834168831
1685.0,0.03863728604613636
1684.0,0.03720619604865866
1683.0,0.035843316095332374
1682.0,0.03495608894492522
1681.0,0.034227938520180856
1680.0,0.03337492773027856
1679.0,0.032474512932845
1678.0,0.031679961294277116
1677.0,0.03096389446401107
1676.0,0.030160868751805972
1675.0,0.02921571469585231
1674.0,0.028320670603896425
1673.0,0.02765747507775687
1672.0,0.02713674088489211
1671.0,0.026559185062916508
1670.0,0.02587679064661072
1669.0,0.02515920444191737
1668.0,0.024519757313461833
1667.0,0.023998209961390914
1666.0,0.02353789715026705
1665.0,0.023077796373496176
1664.0,0.022576058688200458
1663.0,0.02203640125753388
1662.0,0.021528910402891323
1661.0,0.021109211989902992
1660.0,0.020775995566243915
1659.0,0.020462725371426974
1658.0,0.020155003206939155
1657.0,0.019899567435087348
1656.0,0.019743408401514367
1655.0,0.01961175059278959
1654.0,0.0195501051562389
1653.0,0.019523118477706856
1652.0,0.01921534110240711
1651.0,0.01902127373696555
1650.0,0.018995779372957648
1649.0,0.01893334310742742
1648.0,0.018836767893191823
1647.0,0.018777416436524228
1646.0,0.018700172811464636
1645.0,0.01860430009308947
1644.0,0.01852534452791725
1643.0,0.018435937684771656
1642.0,0.018328059296892466
1641.0,0.018198652221920738
1640.0,0.018066978552747453
1639.0,0.017951149962437737
1638.0,0.017846700842253264
1637.0,0.017746417000601738
1636.0,0.01760461378634415
1635.0,0.01732292299028264
1634.0,0.016989652023503495
1633.0,0.016753080584379045
1632.0,0.016532480969346966
1631.0,0.016269278223716314
1630.0,0.015988611262832998
1629.0,0.015722304328411055
1628.0,0.015466156856973806
1627.0,0.01521810570068877
1626.0,0.01499751941833357
1625.0,0.014790894440984949
1624.0,0.014572992520356074
1623.0,0.014346044065746539
1622.0,0.014164193199847921
1621.0,0.014082076677215147
1620.0,0.014095063473261876
1619.0,0.014152955735556815
1618.0,0.014264503363569887
1617.0,0.014452089191368193
1616.0,0.014586756072016635
1615.0,0.014584448359520073
1614.0,0.014493517094054467
1613.0,0.014303022761654287
1612.0,0.013976727348015132
1611.0,0.013534966862869542
1610.0,0.013028367496449776
1609.0,0.012500677577445194
1608.0,0.011985257274859686
1607.0,0.011508364822184758
1606.0,0.011069836668201487
1605.0,0.010637700311731679
1604.0,0.010208318641331576
1603.0,0.009791901532581792
1602.0,0.009397560638009391
1601.0,0.009031504739774154
1600.0,0.008698816722223201
1599.0,0.008407955370743209
1598.0,0.008159408635601802
1597.0,0.007943781115080855
1596.0,0.007752894756875153
1595.0,0.00759830936506639
1594.0,0.007501959797622412
1593.0,0.007455710529957527
1592.0,0.0074265382143995015
1591.0,0.007400225654811292
1590.0,0.007397661519804286
1589.0,0.007441421263702279
1588.0,0.007539501431066395
1587.0,0.007705002521286267
1586.0,0.007976836725396915
1585.0,0.008388778467336853
1584.0,0.00896085879053697
1583.0,0.009689339185173918
1582.0,0.010484992927165603
1581.0,0.01122490541385875
1580.0,0.011831153185605573
1579.0,0.012245546471854708
1578.0,0.012334652661681725
1577.0,0.011937218074739946
1576.0,0.011056083635778521
1575.0,0.010068425948546955
1574.0,0.009349370135745544
1573.0,0.008851093212163109
1572.0,0.008378093415532297
1571.0,0.007827415397597279
1570.0,0.007228879556320735
1569.0,0.006688005404224618
1568.0,0.006314547391293657
1567.0,0.006094398850316613
1566.0,0.00590411273932241
1565.0,0.005684913135093702
1564.0,0.005498640643743925
1563.0,0.005413718592141547
1562.0,0.005402139764355482
1561.0,0.005313567471120882
1560.0,0.005147504936785549
1559.0,0.005094765304075594
1558.0,0.004995360918270783
1557.0,0.00495356675792173
1556.0,0.004975130509594201
1555.0,0.004920850578340996
1554.0,0.004806963688798231
1553.0,0.004705245337154088
1552.0,0.0046501412780204435
1551.0,0.004600161006568343
1550.0,0.004529646635839815
1549.0,0.004471428507182863
1548.0,0.0044430858055940926
1547.0,0.004435556200060855
1546.0,0.004411618940419653
1545.0,0.004376613069860409
1544.0,0.004344187701820336
1543.0,0.004313075512918454
1542.0,0.004283960349385933
1541.0,0.004302107963160436
1540.0,0.004297874925706132
1539.0,0.004167795082478816
1538.0,0.00409756536383064
1537.0,0.00417782191398066
1536.0,0.004276212871545856
1535.0,0.004324412400176907
1534.0,0.004372936281404189
1533.0,0.004457191572799241
1532.0,0.004542043370126024
1531.0,0.0046003806702899375
1530.0,0.004629777756267866
1529.0,0.004643352960231934
1528.0,0.004643875267124833
1527.0,0.004621233884335255
1526.0,0.004582339112982069
1525.0,0.004551185318421096
1524.0,0.004531863938172341
1523.0,0.004480685449831347
1522.0,0.004401668660550589
1521.0,0.004320857352582412
1520.0,0.004252379161078269
1519.0,0.004225655777642884
1518.0,0.004202884350286453
1517.0,0.004182854659974752
1516.0,0.004199616902519913
1515.0,0.004287263110350591
1514.0,0.00447969448800036
1513.0,0.00477790966652028
1512.0,0.005221509366392645
1511.0,0.005815522246521362
1510.0,0.006610501239636498
1509.0,0.0077103289883462735
1508.0,0.00957496224546324
1507.0,0.012356815188179035
1506.0,0.014391063513999016
1505.0,0.014655904103083789
1504.0,0.013861130793683927
1503.0,0.012493220056857164
1502.0,0.010785694735930006
1501.0,0.008996981040070797
1500.0,0.007369920826242521
1499.0,0.006038500531075148
1498.0,0.004987223240947731
1497.0,0.004223007133270595
1496.0,0.0037141127462272973
1495.0,0.003377802195903565
1494.0,0.003197273367965263
1493.0,0.0031627374250569
1492.0,0.00321072860050213
1491.0,0.003283251159046461
1490.0,0.0034247445628883405
1489.0,0.0037059067004267254
1488.0,0.004055893612727991
1487.0,0.004364920049815514
1486.0,0.004672743817303851
1485.0,0.005038699908876001
1484.0,0.005457119677406516
1483.0,0.005906903617612704
1482.0,0.006390168901773581
1481.0,0.006919602016024639
1480.0,0.007433887787344908
1479.0,0.007875972041716207
1478.0,0.0082672977954137
1477.0,0.008678051407865853
1476.0,0.009104923355952501
1475.0,0.009481954476496975
1474.0,0.00979590504219404
1473.0,0.010067004058532301
1472.0,0.010238490349680253
1471.0,0.010283768593947994
1470.0,0.01031749277370677
1469.0,0.010405163453417333
1468.0,0.010539929188136274
1467.0,0.01072535983520527
1466.0,0.011024036301389133
1465.0,0.011489486529729184
1464.0,0.012044068627236375
1463.0,0.012549040670287614
1462.0,0.012993483906553454
1461.0,0.013431196902597316
1460.0,0.013889937320059224
1459.0,0.014373897986717007
1458.0,0.014940410458026184
1457.0,0.015518726261783279
1456.0,0.01579468492177269
1455.0,0.015789889957563502
1454.0,0.01569822169663665
1453.0,0.015554805144223013
1452.0,0.015347420836656932
1451.0,0.015084046083491894
1450.0,0.014804617302715747
1449.0,0.014523799715236041
1448.0,0.014213455278260071
1447.0,0.013893632646034292
1446.0,0.01362883136695937
1445.0,0.013429606795078299
1444.0,0.013266310299463329
1443.0,0.0130877994897447
1442.0,0.012885362509818105
1441.0,0.012685480772599934
1440.0,0.01250460242854792
1439.0,0.012289998177858533
1438.0,0.011931882773204807
1437.0,0.011341817136654747
1436.0,0.0105812330355299
1435.0,0.009859443157686523
1434.0,0.009254825438516162
1433.0,0.008687793685788054
1432.0,0.008101480670456952
1431.0,0.007515970664324082
1430.0,0.006978187045462587
1429.0,0.006540755930765807
1428.0,0.006233604317222252
1427.0,0.006055823322120032
1426.0,0.005972453965887059
1425.0,0.005972327566667362
1424.0,0.006118997138800444
1423.0,0.006421219411785074
1422.0,0.0068385350922824575
1421.0,0.007406269043889035
1420.0,0.00833709981642736
1419.0,0.009835031050906284
1418.0,0.011777972445612354
1417.0,0.01401791356583313
1416.0,0.016642736616430703
1415.0,0.019771991956811803
1414.0,0.023475233388361254
1413.0,0.02775747726582721
1412.0,0.03235137183973131
1411.0,0.03656999299704572
1410.0,0.03967492060185635
1409.0,0.041330399125998805
1408.0,0.04144072153669318
1407.0,0.03995333346186385
1406.0,0.03703159044541736
1405.0,0.03320985828456312
1404.0,0.029301973631875866
1403.0,0.025964882239433974
1402.0,0.023335927111195264
1401.0,0.021151215411360016
1400.0,0.01910627332592189
1399.0,0.01717010514278128
1398.0,0.01556630065183462
1397.0,0.0143750445023254
1396.0,0.013399543261210296
1395.0,0.0124612171018108
1394.0,0.01159077290688217
1393.0,0.010903025890571148
1392.0,0.010405327231269846
1391.0,0.010020565157555426
1390.0,0.009703052693476297
1389.0,0.00945177403727904
1388.0,0.009274375241425416
1387.0,0.009166508844051013
1386.0,0.009128490905963984
1385.0,0.009166992899651227
1384.0,0.009278674896843836
1383.0,0.00944814363076403
1382.0,0.009673621043679484
1381.0,0.009968097988826058
1380.0,0.010331374593105694
1379.0,0.010739655212888468
1378.0,0.011157804840268213
1377.0,0.01157156922546896
1376.0,0.011988697752701734
1375.0,0.012409814338077904
1374.0,0.012790218740936114
1373.0,0.013068208411270304
1372.0,0.013213839750544944
1371.0,0.013206296375487682
1370.0,0.013008068503888612
1369.0,0.012585507353334854
1368.0,0.011957215654056799
1367.0,0.011195455178981076
1366.0,0.010380194555228785
1365.0,0.0095457876932683
1364.0,0.00868755156712107
1363.0,0.007832347127542449
1362.0,0.007091880703938605
1361.0,0.006572744841203279
1360.0,0.006263003317759185
1359.0,0.006087043638206998
1358.0,0.006006751465670821
1357.0,0.006033464836102216
1356.0,0.006184150122170967
1355.0,0.006455264486135204
1354.0,0.006845124848698807
1353.0,0.007376987432629991
1352.0,0.008077513406080063
1351.0,0.008970074886802414
1350.0,0.01008478470395411
1349.0,0.011448338354852476
1348.0,0.013075748033817561
1347.0,0.01497153048496128
1346.0,0.017157176590358463
1345.0,0.019638836750245952
1344.0,0.022334102799235228
1343.0,0.02508031719878555
1342.0,0.02773219162698192
1341.0,0.03016406254730397
1340.0,0.032102049361194936
1339.0,0.033066843135455326
1338.0,0.0327070359826845
1337.0,0.031070776731501493
1336.0,0.028445744290523454
1335.0,0.025178138965147062
1334.0,0.021646234041806833
1333.0,0.018217760991855635
1332.0,0.015182845421085972
1331.0,0.012721898652891764
1330.0,0.010891779518736825
1329.0,0.009635330713338951
1328.0,0.008842681871210616
1327.0,0.008414156912132768
1326.0,0.008270059093040242
1325.0,0.008336760476559436
1324.0,0.00855166731574521
1323.0,0.008866361143931595
1322.0,0.00924603931959667
1321.0,0.009670773926198074
1320.0,0.010134288889252
1319.0,0.010631441507077038
1318.0,0.011151312926088359
1317.0,0.011686861906287649
1316.0,0.012244106681011259
1315.0,0.012839440720248403
1314.0,0.013492664641006406
1313.0,0.01421648415391474
1312.0,0.015002359926496508
1311.0,0.015826652100350867
1310.0,0.016676523337759264
1309.0,0.017557709552609223
1308.0,0.018466440388652985
1307.0,0.019374169619523426
1306.0,0.020257881199543873
1305.0,0.021133608798215752
1304.0,0.02204818783661521
1303.0,0.023053371102453875
1302.0,0.02420527748210151
1301.0,0.02555507030999281
1300.0,0.027112241854452712
1299.0,0.02883163106750177
1298.0,0.030659484122703973
1297.0,0.03256742820042641
1296.0,0.03452149963266295
1295.0,0.036462220083109016
1294.0,0.038353676225345655
1293.0,0.040209831071894526
1292.0,0.042033370521246005
1291.0,0.04378033172351568
1290.0,0.04542581488091566
1289.0,0.047003896536770035
1288.0,0.04853253622598126
1287.0,0.04996403222333234
1286.0,0.051264083322226046
1285.0,0.05246952659909162
1284.0,0.05361436150157632
1283.0,0.054674767914639
1282.0,0.0556400286090339
1281.0,0.056561836463534285
1280.0,0.05748189645904972
1279.0,0.05838884196402762
1278.0,0.05930312695909046
1277.0,0.06032653030648856
1276.0,0.06154992889824357
1275.0,0.06298845318775534
1274.0,0.06465727452815605
1273.0,0.06662740437093742
1272.0,0.06893769262519511
1271.0,0.07152681453698445
1270.0,0.07432752534629329
1269.0,0.07734518320662451
1268.0,0.0805584848336077
1267.0,0.08384074898934563
1266.0,0.08707767087365706
1265.0,0.09026142364231483
1264.0,0.09336676952061375
1263.0,0.09625661149271467
1262.0,0.09882115551722082
1261.0,0.10107649570663739
1260.0,0.10302121038789769
1259.0,0.10456503564169745
1258.0,0.10572452070200404
1257.0,0.10670781066564225
1256.0,0.10768876690046061
1255.0,0.1086779515206973
1254.0,0.10970261320955826
1253.0,0.11091500345138441
1252.0,0.11240336635055798
1251.0,0.11407427039543781
1250.0,0.11583899356427982
1249.0,0.11773741500534654
1248.0,0.11976030830284815
1247.0,0.1217417806731515
1246.0,0.1235604462438378
1245.0,0.12524997082784334
1244.0,0.12677644129778676
1243.0,0.12792963728740453
1242.0,0.12857323102164447
1241.0,0.12876322228866327
1240.0,0.1284937238230763
1239.0,0.12759183671382515
1238.0,0.12598883380334924
1237.0,0.12382984304425265
1236.0,0.1212120389498097
1235.0,0.11808846466212905
1234.0,0.11451288254875255
1233.0,0.11071265560782517
1232.0,0.10684660895149974
1231.0,0.10292105395579883
1230.0,0.098982256080572
1229.0,0.09516963886144962
1228.0,0.0915394945076294
1227.0,0.08802261805619001
1226.0,0.08458647903776338
1225.0,0.08128169450420653
1224.0,0.07810742249718651
1223.0,0.07497901319345085
1222.0,0.07185498737488336
1221.0,0.0687712043843779
1220.0,0.0657339385181871
1219.0,0.06269495764639584
1218.0,0.059650592508269706
1217.0,0.05666591516049449
1216.0,0.05378699218486181
1215.0,0.05101379454510576
1214.0,0.04836166808699035
1213.0,0.045871162397164836
1212.0,0.043550374494026156
1211.0,0.041369590583788994
1210.0,0.03931548558255659
1209.0,0.03739680812504893
1208.0,0.03559834657700338
1207.0,0.03387892564217773
1206.0,0.03221781561527558
1205.0,0.030624046253139053
1204.0,0.029101466289162818
1203.0,0.0276404017791569
1202.0,0.026240074685782405
1201.0,0.024907238808718063
1200.0,0.023635307086951933
1199.0,0.02240997958018732
1198.0,0.021231269043689733
1197.0,0.020109851277931336
1196.0,0.019048629492105184
1195.0,0.01804653611543658
1194.0,0.017111626951572177
1193.0,0.016253534585771234
1192.0,0.01547238840440147
1191.0,0.014770431880885237
1190.0,0.014166133946382633
1189.0,0.013682162893190335
1188.0,0.013326258581821456
1187.0,0.013096021276743135
1186.0,0.012996806532948522
1185.0,0.013042790662069651
1184.0,0.013241668596091948
1183.0,0.013586133000487177
1182.0,0.01405810411089143
1181.0,0.014630967818108034
1180.0,0.015264104113126713
1179.0,0.01590608290603456
1178.0,0.01651194303090989
1177.0,0.017048521567022565
1176.0,0.0174741020455129
1175.0,0.017727348778492778
1174.0,0.017751470193432838
1173.0,0.017521443010682425
1172.0,0.017046479842100143
1171.0,0.016369372757126716
1170.0,0.015571661264961092
1169.0,0.014756632048871642
1168.0,0.014014909766153948
1167.0,0.013410229808879022
1166.0,0.01298443481059414
1165.0,0.012753432911713467
1164.0,0.012697353918083142
1163.0,0.012769467846814125
1162.0,0.012924276921233522
1161.0,0.01313585372466063
1160.0,0.013392324213110495
1159.0,0.013687700941286077
1158.0,0.014028216751262226
1157.0,0.014436630664773156
1156.0,0.01493772237007572
1155.0,0.015541603399892547
1154.0,0.01624455783691708
1153.0,0.017038285935479156
1152.0,0.017911364285054934
1151.0,0.018851336076934608
1150.0,0.019856450222423692
1149.0,0.0209360802390215
1148.0,0.02209037809950317
1147.0,0.023303526707756872
1146.0,0.024567722544175268
1145.0,0.02589366151147693
1144.0,0.0272815771447319
1143.0,0.02870460766782431
1142.0,0.030139542989304165
1141.0,0.03158830129742289
1140.0,0.03304870734175019
1139.0,0.034499500548597004
1138.0,0.03594473269105003
1137.0,0.037437270762439065
1136.0,0.039023887559114886
1135.0,0.04070043875000713
1134.0,0.04245210695027302
1133.0,0.04429839250556692
1132.0,0.0462649593295526
1131.0,0.0483549924984345
1130.0,0.050582078032858635
1129.0,0.05297973150702334
1128.0,0.05553940703666245
1127.0,0.058195221971676314
1126.0,0.06091047332790489
1125.0,0.06370753472558022
1124.0,0.0665632485814639
1123.0,0.06936299504182841
1122.0,0.07201730334222378
1121.0,0.07451542236362507
1120.0,0.07679144830920225
1119.0,0.07866710285508094
1118.0,0.0800138242125027
1117.0,0.0808394055441815
1116.0,0.08115255957467482
1115.0,0.08092640869206913
1114.0,0.080288866423633
1113.0,0.07957990965356652
1112.0,0.07914201945269175
1111.0,0.07919262952287191
1110.0,0.07991073652560925
1109.0,0.08145246528573595
1108.0,0.0837992559420816
1107.0,0.08673076918490512
1106.0,0.09003499260498686
1105.0,0.09361689778280721
1104.0,0.09732930339880229
1103.0,0.10089800468110494
1102.0,0.10415876325846243
1101.0,0.10717359310403661
1100.0,0.10996376436381049
1099.0,0.11235189258977844
1098.0,0.11422102181883625
1097.0,0.11566714831169575
1096.0,0.1167276289105329
1095.0,0.11724884587055454
1094.0,0.11719043271474613
1093.0,0.1167542821575176
1092.0,0.11606044784368072
1091.0,0.11500591326717916
1090.0,0.11356354762626857
1089.0,0.1119039040630935
1088.0,0.11011327234386141
1087.0,0.10809460895716613
1086.0,0.10583604696865226
1085.0,0.10348298882766173
1084.0,0.10106152830943296
1083.0,0.09840942428577376
1082.0,0.0954499419088319
1081.0,0.09227349732074366
1080.0,0.08891136268124775
1079.0,0.08529910128736398
1078.0,0.08150011116071569
1077.0,0.07771471829295748
1076.0,0.074038269505899
1075.0,0.07042151278811902
1074.0,0.06687427935004012
1073.0,0.06351314187625243
1072.0,0.06039431730981619
1071.0,0.057464836087656415
1070.0,0.05469694967810951
1069.0,0.05213243445291171
1068.0,0.049777387735891236
1067.0,0.04757259900106542
1066.0,0.04548683707457992
1065.0,0.0435451923295566
1064.0,0.04175677396309887
1063.0,0.040100308752395515
1062.0,0.03858682258611453
1061.0,0.03725997783098074
1060.0,0.03612773172814979
1059.0,0.03515814202398248
1058.0,0.03434605882154098
1057.0,0.033722415225689015
1056.0,0.03329270480446414
1055.0,0.03302445239832341
1054.0,0.032903732311921306
1053.0,0.0329475338543001
1052.0,0.03314300399170497
1051.0,0.03342909228038824
1050.0,0.033760474475672084
1049.0,0.034128753334617144
1048.0,0.03450173823611356
1047.0,0.03481496989667524
1046.0,0.03503802196984207
1045.0,0.03517634919949016
1044.0,0.035201274609185484
1043.0,0.03505193555173691
1042.0,0.034717148093055795
1041.0,0.03424725935584682
1040.0,0.03367543873601225
1039.0,0.032995697654997255
1038.0,0.032224486243750836
1037.0,0.03141123715531887
1036.0,0.030578141325550152
1035.0,0.029714825334509733
1034.0,0.02884026631297057
1033.0,0.028010480820420833
1032.0,0.02725867337149119
1031.0,0.026589962188398104
1030.0,0.026055632367846117
1029.0,0.025792561490888544
1028.0,0.02598308769690893
1027.0,0.026814486038884568
1026.0,0.02847448811756125
1025.0,0.031128646365861573
1024.0,0.034860404866260526
1023.0,0.03963567021448902
1022.0,0.04532090985493881
1021.0,0.051664925515230525
1020.0,0.058166542556167725
1019.0,0.06397370834217446
1018.0,0.06805431088558456
1017.0,0.06956840108763009
1016.0,0.06817128598088518
1015.0,0.06419188714647156
1014.0,0.05859181265248034
1013.0,0.05252752504901534
1012.0,0.046828131573861474
1011.0,0.04184753156927328
1010.0,0.03763572219037654
1009.0,0.034119214756470756
1008.0,0.031183397059553343
1007.0,0.02872563514065138
1006.0,0.0266899610810145
1005.0,0.025038510174676204
1004.0,0.02369859541933711
1003.0,0.022571569900825116
1002.0,0.02158973425989693
1001.0,0.020728503279578543
1000.0,0.019963878935645968
999.0,0.019257792711459946
998.0,0.018592607451843567
997.0,0.017984969391129844
996.0,0.01745347784787572
995.0,0.016997132555903825
994.0,0.01660984683597081
993.0,0.01628791454282834
992.0,0.016013711250562165
991.0,0.015757512712053588
990.0,0.01550959850215004
989.0,0.015292489650173914
988.0,0.015132735859884141
987.0,0.015039204051652093
986.0,0.015014778242924413
985.0,0.015067755141729065
984.0,0.015201919327168703
983.0,0.015412459148432776
982.0,0.01569895635711761
981.0,0.016064287177424526
980.0,0.01649279034270824
979.0,0.016948566614695685
978.0,0.01740527203959951
977.0,0.017857829214749304
976.0,0.018294289297195263
975.0,0.01867940982714421
974.0,0.018979151965467553
973.0,0.019178057959826675
972.0,0.01926106443218398
971.0,0.01920624686871562
970.0,0.019010201380171007
969.0,0.018694282364051552
968.0,0.018273320308289327
967.0,0.017744039306758948
966.0,0.017114289735155063
965.0,0.0164175790844527
964.0,0.01568848690551068
963.0,0.01494581872679606
962.0,0.01420469438023423
961.0,0.013480989789291454
960.0,0.012777925036787059
959.0,0.012089256768575078
958.0,0.011420837743722295
957.0,0.010791684048917071
956.0,0.010211323721844547
955.0,0.009672694025665344
954.0,0.009169572595832818
953.0,0.008705525810534086
952.0,0.008283037379531004
951.0,0.007897576556270165
950.0,0.007545092588647953
949.0,0.0072234874624795935
948.0,0.006925474957012439
947.0,0.006642024627538403
946.0,0.006374147569522322
945.0,0.006129964930173856
944.0,0.005909337047703439
943.0,0.0057024540881024065
942.0,0.005504066194312946
941.0,0.005317668236752601
940.0,0.005143979678073528
939.0,0.004976045806013442
938.0,0.0048088728076734685
937.0,0.004645502751621053
936.0,0.004491059467062651
935.0,0.00434721659225281
934.0,0.0042124955369046355
933.0,0.004081533928204787
932.0,0.003945627723742014
931.0,0.003800911155177394
930.0,0.0036535253596056607
929.0,0.0035099827186680053
928.0,0.003367609562757893
927.0,0.003223437689187267
926.0,0.003086306292768067
925.0,0.002967670264506686
924.0,0.0028643154668601747
923.0,0.0027634902129987145
922.0,0.0026631600971263863
921.0,0.002574035321742397
920.0,0.002502493242233438
919.0,0.002445349428628129
918.0,0.002403275996543318
917.0,0.0023877320666620683
916.0,0.0024116596805417376
915.0,0.002481915552208178
914.0,0.002602230221275665
913.0,0.002774579282696192
912.0,0.0029951175008771404
911.0,0.0032562491350298546
910.0,0.0035555777618834754
909.0,0.0038972010310282523
908.0,0.004283430100570397
907.0,0.0047112193228720095
906.0,0.005173475917257718
905.0,0.005652340865690594
904.0,0.006113176775191929
903.0,0.006522031787081883
902.0,0.006872761978971579
901.0,0.007180773508536402
900.0,0.007447766924453796
899.0,0.007652958893978483
898.0,0.007782561400729027
897.0,0.007845217134379346
896.0,0.007853020554999961
895.0,0.00781247239120654
894.0,0.007743255032008806
893.0,0.007683072061922466
892.0,0.007663414945483147
891.0,0.007696239690100779
890.0,0.0077887845402628796
889.0,0.007954927008859653
888.0,0.008208783725745405
887.0,0.008565660932721503
886.0,0.009055536736361398
885.0,0.009719780772677395
884.0,0.010589412079627259
883.0,0.011681799007122965
882.0,0.013019498539762961
881.0,0.014624137195782063
880.0,0.01647499537126297
879.0,0.01849828650691118
878.0,0.020621642494571213
877.0,0.022809507325807464
876.0,0.024998717102713924
875.0,0.027007095484099963
874.0,0.028530388211142045
873.0,0.02922088694132776
872.0,0.02880777878011328
871.0,0.027267249983391556
870.0,0.024920282393560353
869.0,0.02227537057608387
868.0,0.01975170817209799
867.0,0.017569295421362627
866.0,0.015810296030055456
865.0,0.014477819887951493
864.0,0.013506367131494813
863.0,0.012795097060803371
862.0,0.012266668801850227
861.0,0.0118801507274823
860.0,0.011596218821316645
859.0,0.011372288981186026
858.0,0.01119759882374059
857.0,0.011090687545137517
856.0,0.011049354230606274
855.0,0.011039260288636991
854.0,0.01104396472735894
853.0,0.011088815735119491
852.0,0.011198137238641038
851.0,0.011360927566568965
850.0,0.011552081370226366
849.0,0.011751860353143382
848.0,0.011928149024986293
847.0,0.01203649406858236
846.0,0.01205843349850079
845.0,0.012007254768714653
844.0,0.011883855029299322
843.0,0.011669420580104044
842.0,0.011376555174001102
841.0,0.011060028420632789
840.0,0.010753704226625308
839.0,0.010437566617237694
838.0,0.010087455724348434
837.0,0.009714700349550399
836.0,0.00933109902913255
835.0,0.0089154882978465
834.0,0.008449286357480112
833.0,0.007957506005167144
832.0,0.007483754294375637
831.0,0.007046032351020547
830.0,0.00664295179194848
829.0,0.006283585999898329
828.0,0.005982285064091462
827.0,0.005733744457041352
826.0,0.005517327817390998
825.0,0.0053207909213815255
824.0,0.0051441149584748255
823.0,0.004990907016910986
822.0,0.004868283868804439
821.0,0.004780332430321894
820.0,0.0047146515267552855
819.0,0.0046524337181446974
818.0,0.004593563751052205
817.0,0.004552103798799154
816.0,0.004525969421432546
815.0,0.004493476490625609
814.0,0.004444702645014464
813.0,0.004393050564823652
812.0,0.004347917181417603
811.0,0.004299214107376204
810.0,0.004237458165569634
809.0,0.004165485719609566
808.0,0.004081353853871879
807.0,0.003974601433764002
806.0,0.0038508004837380996
805.0,0.003734821633715562
804.0,0.0036361451853613447
803.0,0.003534010105074814
802.0,0.0034156380615333673
801.0,0.003319464640768533
800.0,0.003335116880889045
799.0,0.003571828698273275
798.0,0.0041122797643070065
797.0,0.004951358370206209
796.0,0.005951594787511727
795.0,0.006875865027378882
794.0,0.007502190322330127
793.0,0.007722208095945052
792.0,0.007542940007147149
791.0,0.007044306769826203
790.0,0.006355566936670245
789.0,0.005617698645430696
788.0,0.004921606770175727
787.0,0.004289291196443144
786.0,0.0037171727019131885
785.0,0.0032121621810649037
784.0,0.002778497326015216
783.0,0.0024010511268903415
782.0,0.0020634159726433347
781.0,0.0017652702407849365
780.0,0.0015063642095623532
779.0,0.0012704193705685395
778.0,0.001042038652925962
777.0,0.0008265855022447088
776.0,0.0006370379569065228
775.0,0.0004695462676673652
774.0,0.0003038868634270397
773.0,0.00012156095811352054
772.0,-8.32620858559445e-05
771.0,-0.0003016448204826872
770.0,-0.0005145243761960402
769.0,-0.0007112895828200426
768.0,-0.0009056426826186612
767.0,-0.0011178626822911063
766.0,-0.0013393155243232018
765.0,-0.0015338669623733703
764.0,-0.0016810779497835708
763.0,-0.0017999081346317964
762.0,-0.0019208416219963012
761.0,-0.002049564913161682
760.0,-0.002167412287855665
759.0,-0.0022548761145756106
758.0,-0.0023067967163643184
757.0,-0.0023356225894679335
756.0,-0.0023655451491325277
755.0,-0.002411948078037929
754.0,-0.002461560458030301
753.0,-0.0024849003278804623
752.0,-0.0024695166562001356
751.0,-0.002424659339915043
750.0,-0.0023524877306119185
749.0,-0.002234471298373281
748.0,-0.002050103532140562
747.0,-0.0017872010872384304
746.0,-0.001422942149150612
745.0,-0.0009090736286283384
744.0,-0.00018085042988223374
743.0,0.0008359771207771712
742.0,0.0022272110894131086
741.0,0.004069905476822417
740.0,0.006392452664796166
739.0,0.009169008377903357
738.0,0.012358676221552522
737.0,0.01591934183420561
736.0,0.01976819679227383
735.0,0.02377965208838574
734.0,0.027873306608470705
733.0,0.03207536777097455
732.0,0.03646025433541422
731.0,0.04108699668045861
730.0,0.04603489502309817
729.0,0.05141362592018954
728.0,0.05723363862809788
727.0,0.06327110995462125
726.0,0.06906151284141838
725.0,0.07393662060783657
724.0,0.07710848492884324
723.0,0.07799364033291448
722.0,0.07659507505866642
721.0,0.07345719073256536
720.0,0.06926972894651379
719.0,0.06460806415531735
718.0,0.05989415758201705
717.0,0.05537803953529023
716.0,0.05114393533522825
715.0,0.04721793656488812
714.0,0.043673498150720885
713.0,0.04059686422583035
712.0,0.03797939969969185
711.0,0.035708904699908756
710.0,0.03366750850416769
709.0,0.031793597058864066
708.0,0.030053998886575534
707.0,0.028415279018912797
706.0,0.026863781859401616
705.0,0.02540954158410133
704.0,0.02403895050173388
703.0,0.022688827778489302
702.0,0.021288088770710235
701.0,0.019804696805013934
700.0,0.01824813130871121
699.0,0.01666229110518492
698.0,0.01513063864380788
697.0,0.013753455877128975
696.0,0.012586981717540874
695.0,0.011611757124485297
694.0,0.010772758151901752
693.0,0.010035845333719724
692.0,0.009393961885047038
691.0,0.008837210716082792
690.0,0.008341938532723667
689.0,0.007888431469807479
688.0,0.007475049831310213
687.0,0.007119591937331492
686.0,0.006855460272092873
685.0,0.0067105491451630896
684.0,0.0066726562999723515
683.0,0.006683479729163853
682.0,0.006677209272197841
681.0,0.0066166857737787535
680.0,0.006488825518008071
679.0,0.006282263517042447
678.0,0.005987354173922953
677.0,0.005613746710544914
676.0,0.005192578943762589
675.0,0.0047566256543497346
674.0,0.004334605731414459
673.0,0.003954858918192361
672.0,0.003638442815886489
671.0,0.003381473226063317
670.0,0.0031633414150630985
669.0,0.002941496420283088
668.0,0.00266593232542953
667.0,0.0024296173471754223
666.0,0.0022813553591002483
665.0,0.0021338029863771715
664.0,0.001986742565659304
663.0,0.0018585312721408481
662.0,0.0017363328350523191
661.0,0.0016157061031411325
660.0,0.0015043077987823734
659.0,0.0014125962507393203
658.0,0.001334127898292032
657.0,0.001254873316812271
656.0,0.0011653270147648429
655.0,0.001065445850033958
654.0,0.0009612035462766254
653.0,0.000853987768172115
652.0,0.0007348432947625605
651.0,0.0006030924389649178
650.0,0.00048670021090150596
649.0,0.00041938092710709987
648.0,0.00039418086747611616
647.0,0.00036335380584626327
646.0,0.00029461322153608027
645.0,0.00020418020001067988
644.0,0.00012337385807177983
643.0,5.959175760303706e-05
642.0,1.1686809885651933e-06
641.0,-6.0962875198607505e-05
640.0,-0.00013259858283403737
639.0,-0.00022040297261784365
638.0,-0.0003122851737732118
637.0,-0.00035530533069757543
636.0,-0.00026627259838584404
635.0,2.0895346936181114e-05
634.0,0.0004852742886796834
633.0,0.0009798301097917392
632.0,0.0012784148919509387
631.0,0.0012103659918508529
630.0,0.0008051725140996065
629.0,0.00027115754735087226
628.0,-0.00019049253682513687
627.0,-0.0005020246450550773
626.0,-0.0006749068852237618
625.0,-0.0007471081211922609
624.0,-0.0007737266911305718
623.0,-0.0008210271558796306
622.0,-0.0009145011391464286
621.0,-0.0010179150493484362
620.0,-0.0010985234610926715
619.0,-0.001177645000354539
618.0,-0.001282361406427483
617.0,-0.00138736361717183
616.0,-0.0014596318179785125
615.0,-0.0015238973518961942
614.0,-0.0016211169011586882
613.0,-0.0017331828992738878
612.0,-0.0018054627778584693
611.0,-0.0018254131562350211
610.0,-0.0018310723871790627
609.0,-0.0018481489876492254
608.0,-0.0018685084465557798
607.0,-0.0018918340639901155
606.0,-0.001934685865764934
605.0,-0.0019947787294912877
604.0,-0.002056909125459786
603.0,-0.002133712972871229
602.0,-0.002251016128280686
601.0,-0.0023892596658125695
600.0,-0.002483078184221976
