cm-1,A
4000.0,-0.003828654430684024
3999.0,-0.0038381963476159736
3998.0,-0.003812515490431328
3997.0,-0.0037697002019919023
3996.0,-0.0037453397664861227
3995.0,-0.0037512124507876827
3994.0,-0.0037782768415898266
3993.0,-0.0038229195594546754
3992.0,-0.0038857237206508894
3991.0,-0.0039401758807845345
3990.0,-0.003936801969360661
3989.0,-0.003858737522099128
3988.0,-0.0037455300581245516
3987.0,-0.003655065493302431
3986.0,-0.003607638601043163
3985.0,-0.003586091861066441
3984.0,-0.0035777775627249897
3983.0,-0.003589350114653749
3982.0,-0.0036239237485790696
3981.0,-0.003654900472105949
3980.0,-0.0036424542164348772
3979.0,-0.00357677319495275
3978.0,-0.003493575546039334
3977.0,-0.003442620390348291
3976.0,-0.003445343059355041
3975.0,-0.0034919961267858624
3974.0,-0.00356312303101493
3973.0,-0.0036436000981225334
3972.0,-0.003718913852090692
3971.0,-0.003769507185415497
3970.0,-0.0037822339216606747
3969.0,-0.0037591502152064526
3968.0,-0.0037225842637553237
3967.0,-0.003693484577400163
3966.0,-0.0036729659854387226
3965.0,-0.003652892621870558
3964.0,-0.0036267103731980905
3963.0,-0.0035903694675983224
3962.0,-0.0035298900695147715
3961.0,-0.0034389947875683026
3960.0,-0.0033540830868714674
3959.0,-0.003324405285440947
3958.0,-0.0033659021749462203
3957.0,-0.003430192569364292
3956.0,-0.0034515722228782124
3955.0,-0.003404697407034692
3954.0,-0.003296431688447481
3953.0,-0.0031497352974198317
3952.0,-0.0030027446791104258
3951.0,-0.0029070850007351574
3950.0,-0.002892978699297527
3949.0,-0.0029375599474067903
3948.0,-0.0029814727962027172
3947.0,-0.0029611121789520157
3946.0,-0.002854820117900453
3945.0,-0.0027595138226511077
3944.0,-0.0027896215796666206
3943.0,-0.0028909369398405996
3942.0,-0.002942097725782423
3941.0,-0.002951164372662473
3940.0,-0.003038013692577295
3939.0,-0.003269482049413152
3938.0,-0.003547402250932822
3937.0,-0.00366079063088735
3936.0,-0.0035008798056276745
3935.0,-0.003196788750540993
3934.0,-0.002965248203180735
3933.0,-0.0028724119862228808
3932.0,-0.002808438561384558
3931.0,-0.0027158699990052155
3930.0,-0.0026483350474322672
3929.0,-0.0026032169027875324
3928.0,-0.0025311857325429157
3927.0,-0.0024847855458040697
3926.0,-0.002593595592147649
3925.0,-0.0027743527118462897
3924.0,-0.002788976291109453
3923.0,-0.002642401600089237
3922.0,-0.0025567778755762475
3921.0,-0.0026795274874153777
3920.0,-0.0029108026190995616
3919.0,-0.003024486911833134
3918.0,-0.0029800460647961104
3917.0,-0.0029115409662553533
3916.0,-0.0028938436577013297
3915.0,-0.002893973997877481
3914.0,-0.0029300623264936036
3913.0,-0.003081924021758991
3912.0,-0.0033406884430451245
3911.0,-0.0035504744821896273
3910.0,-0.0036009206398421047
3909.0,-0.003482038585366179
3908.0,-0.003263740567174137
3907.0,-0.0030768452623450276
3906.0,-0.003086820876274567
3905.0,-0.0032486904860965686
3904.0,-0.0031814665372460623
3903.0,-0.00267888418277268
3902.0,-0.0020241474923878545
3901.0,-0.001659718753830852
3900.0,-0.0017515116446018982
3899.0,-0.002070109235795501
3898.0,-0.0023146937296879056
3897.0,-0.0024060934928065124
3896.0,-0.002431420124728589
3895.0,-0.0024364010807848423
3894.0,-0.0024372960980140242
3893.0,-0.002519201848984118
3892.0,-0.002762072825438313
3891.0,-0.0031026698126836276
3890.0,-0.003310703084975293
3889.0,-0.00306661562100818
3888.0,-0.0025985977841207477
3887.0,-0.0026384433118596578
3886.0,-0.003209150124585458
3885.0,-0.0034043089497064914
3884.0,-0.0027988942145802395
3883.0,-0.001859034362166476
3882.0,-0.0013650564990682836
3881.0,-0.0016298166961648264
3880.0,-0.0022003742139638438
3879.0,-0.002543039025392042
3878.0,-0.0024438768766294823
3877.0,-0.002101123923410908
3876.0,-0.0020919252652476
3875.0,-0.002619572757429453
3874.0,-0.002986526787461504
3873.0,-0.002517342006954129
3872.0,-0.0016457038360085494
3871.0,-0.0014455785188907974
3870.0,-0.002093568440156994
3869.0,-0.002664276504788163
3868.0,-0.0025345044954604608
3867.0,-0.002060147334127325
3866.0,-0.0020495482809483176
3865.0,-0.00248270379331063
3864.0,-0.002485714150112346
3863.0,-0.001965026864200362
3862.0,-0.0016753538174293422
3861.0,-0.0018955465594411754
3860.0,-0.0024121257568298603
3859.0,-0.0029460541560510692
3858.0,-0.0032582528194511637
3857.0,-0.0031236539527684046
3856.0,-0.0026548184786853533
3855.0,-0.0027148903300903814
3854.0,-0.0033576194807636937
3853.0,-0.0032713201702007327
3852.0,-0.002695450095428251
3851.0,-0.002275975691282174
3850.0,-0.002125927916232935
3849.0,-0.0022679077473398493
3848.0,-0.0024856648863147432
3847.0,-0.0025742221725618634
3846.0,-0.002563943500761367
3845.0,-0.0025632558259927585
3844.0,-0.002581169576481129
3843.0,-0.0024861837853494546
3842.0,-0.00216756815578826
3841.0,-0.0017326519048407063
3840.0,-0.0014522130265131406
3839.0,-0.0014040905046532205
3838.0,-0.0015340721363486889
3837.0,-0.0017813984581156335
3836.0,-0.0019685232390745013
3835.0,-0.0019410488423174319
3834.0,-0.0018138666956002917
3833.0,-0.001855969821470879
3832.0,-0.0021190409825610967
3831.0,-0.0023387744656332616
3830.0,-0.0022624919600778112
3829.0,-0.0019535800093082468
3828.0,-0.0018043534611066644
3827.0,-0.002075651381240378
3826.0,-0.0024543197808655336
3825.0,-0.0023600751966879495
3824.0,-0.0017042464463851077
3823.0,-0.001292539385453807
3822.0,-0.001854682914781898
3821.0,-0.0025148324151251806
3820.0,-0.002367111530423737
3819.0,-0.0016616145960815622
3818.0,-0.0010797063120257825
3817.0,-0.0013896309709664862
3816.0,-0.0023345439457798933
3815.0,-0.002888044797880279
3814.0,-0.0027631878517963087
3813.0,-0.00249945849839663
3812.0,-0.00256948238791386
3811.0,-0.002820943802182869
3810.0,-0.0027851542309362274
3809.0,-0.00252596066947887
3808.0,-0.0026235465027501246
3807.0,-0.0030912177867204386
3806.0,-0.0032425326916542306
3805.0,-0.0026352648527658683
3804.0,-0.0016746119031164595
3803.0,-0.0014387250260569301
3802.0,-0.0020808995008103283
3801.0,-0.002413574087050921
3800.0,-0.002051833868704886
3799.0,-0.0015050492685355016
3798.0,-0.0013153765352830076
3797.0,-0.0016501024373677064
3796.0,-0.002080624135583196
3795.0,-0.0022171093382144496
3794.0,-0.0021323128748466083
3793.0,-0.002110203183402028
3792.0,-0.0022491217703917072
3791.0,-0.002405605559962217
3790.0,-0.0024400297036266186
3789.0,-0.002364353375315491
3788.0,-0.0022570882454369667
3787.0,-0.002190344298831611
3786.0,-0.002218816374795978
3785.0,-0.002310544059303619
3784.0,-0.002313620984739163
3783.0,-0.002094457219909354
3782.0,-0.001742254824746053
3781.0,-0.001572879310292452
3780.0,-0.001725171552278912
3779.0,-0.0019368655796222164
3778.0,-0.002009535659146642
3777.0,-0.0020229905096952544
3776.0,-0.0021611086474921533
3775.0,-0.002454813624926472
3774.0,-0.0026340593199501326
3773.0,-0.002466578176165263
3772.0,-0.002180668638370797
3771.0,-0.002149306105908297
3770.0,-0.0022362391663569878
3769.0,-0.002044521973382191
3768.0,-0.0015942745703672666
3767.0,-0.001299132319430908
3766.0,-0.001448241734074511
3765.0,-0.0017929712161441108
3764.0,-0.001844980774956778
3763.0,-0.0014915945597434462
3762.0,-0.001146610021309976
3761.0,-0.0012038613483806404
3760.0,-0.0014151026150608535
3759.0,-0.0013353203893273127
3758.0,-0.001161572105056265
3757.0,-0.0012517485048895711
3756.0,-0.0014428370904732684
3755.0,-0.0015050671801400389
3754.0,-0.001627090445258781
3753.0,-0.002146960599104589
3752.0,-0.002730955549216713
3751.0,-0.002572622075115777
3750.0,-0.0021267067384269506
3749.0,-0.002185916100123099
3748.0,-0.002151243348042303
3747.0,-0.0014830829939336738
3746.0,-0.0010178564111633782
3745.0,-0.0016298250202194222
3744.0,-0.002494949835833502
3743.0,-0.0025305656587381676
3742.0,-0.0018881225076776724
3741.0,-0.001316043364139732
3740.0,-0.0011386644104851153
3739.0,-0.0010225221527450533
3738.0,-0.0007840917449165093
3737.0,-0.000671511600389846
3736.0,-0.0004977042187470316
3735.0,8.354696874939352e-05
3734.0,0.0004717481103120409
3733.0,2.0894129487863608e-05
3732.0,-0.0009570093250253525
3731.0,-0.0017141724074202346
3730.0,-0.0018200722000337724
3729.0,-0.0014928561583300842
3728.0,-0.001310837656416001
3727.0,-0.001464735137784424
3726.0,-0.0015132897419211462
3725.0,-0.0011941218835170215
3724.0,-0.000836687084439622
3723.0,-0.0007753859843900417
3722.0,-0.0009182353083683308
3721.0,-0.0010090265098552553
3720.0,-0.000997269767157498
3719.0,-0.0010348695475407882
3718.0,-0.0012554806909722727
3717.0,-0.0015146541865877837
3716.0,-0.0015238976951782003
3715.0,-0.0012747338722507023
3714.0,-0.0011272172058063943
3713.0,-0.0013662486006674117
3712.0,-0.0015621448527334634
3711.0,-0.0011908361604783166
3710.0,-0.0007051796463750531
3709.0,-0.000606278050815986
3708.0,-0.0008224392542267056
3707.0,-0.0011245582029612102
3706.0,-0.0013052329203956693
3705.0,-0.001267868916773442
3704.0,-0.0010926337508301112
3703.0,-0.0009403289838086025
3702.0,-0.0008559349086374852
3701.0,-0.0008198286294763654
3700.0,-0.0008183196926772537
3699.0,-0.0008485450865638945
3698.0,-0.0010128789673890383
3697.0,-0.0013130037237075163
3696.0,-0.0014566599005885646
3695.0,-0.0012253030750913525
3694.0,-0.0007998923875153405
3693.0,-0.0004952315825293755
3692.0,-0.0003837804817758946
3691.0,-0.00022505292557437008
3690.0,0.00019663440751541573
3689.0,0.0005231803647439449
3688.0,0.0002865399269586623
3687.0,-0.0001356920057904239
3686.0,-0.0002676194753550732
3685.0,-0.00023859184366935987
3684.0,-0.00030730709069533594
3683.0,-0.0004327593379969178
3682.0,-0.0004997495587337791
3681.0,-0.0006139363534686799
3680.0,-0.0007492930887157264
3679.0,-0.0005011076998649019
3678.0,0.0002928083059166959
3677.0,0.0008709170678040806
3676.0,0.0008102135272976861
3675.0,0.0006825842815134792
3674.0,0.0007943078637047667
3673.0,0.001252892049439327
3672.0,0.00153694895070647
3671.0,0.0009739469925101815
3670.0,0.0003346265999774785
3669.0,0.0004462285294817084
3668.0,0.0007852196899267453
3667.0,0.0008972785162869711
3666.0,0.0007601657379253659
3665.0,0.0005059257873767358
3664.0,0.0003449945423461857
3663.0,0.0003452056245902991
3662.0,0.0004023758711133082
3661.0,0.00045289818721642745
3660.0,0.0006129812504613499
3659.0,0.0009292216288985349
3658.0,0.0011470039771436305
3657.0,0.0009965446042738179
3656.0,0.0007285180455232788
3655.0,0.0007951492797910811
3654.0,0.0013583436923852027
3653.0,0.0020918993273882835
3652.0,0.002309397814909268
3651.0,0.0017136514419503462
3650.0,0.001592182184465973
3649.0,0.0030177483949187
3648.0,0.004265302563246861
3647.0,0.00423821049128055
3646.0,0.003736401014118455
3645.0,0.003349437876362953
3644.0,0.003114006410510857
3643.0,0.002907500616203061
3642.0,0.002758341072803501
3641.0,0.0027535476448012604
3640.0,0.00282072119916607
3639.0,0.0028233793769932777
3638.0,0.002815095590361358
3637.0,0.002947101261708316
3636.0,0.003144672387190771
3635.0,0.0031122896037947658
3634.0,0.002847719447914037
3633.0,0.0027722783099249195
3632.0,0.0031961795428582943
3631.0,0.0037221473635703113
3630.0,0.0037179701933051446
3629.0,0.0037428256033805764
3628.0,0.0042718335581720356
3627.0,0.004712706236649364
3626.0,0.0048784628643929115
3625.0,0.004805251051135634
3624.0,0.004614777568883703
3623.0,0.004624720743282599
3622.0,0.004948807816700179
3621.0,0.005361021755158006
3620.0,0.005663178209620824
3619.0,0.0059052373034237625
3618.0,0.006060730694544669
3617.0,0.006127632777735531
3616.0,0.006168330331671896
3615.0,0.006105297613448579
3614.0,0.005935721472818945
3613.0,0.005839021737125473
3612.0,0.005901578206476167
3611.0,0.006017894738476493
3610.0,0.0060320212349769566
3609.0,0.005954347004009869
3608.0,0.006000844910700673
3607.0,0.006197443912515413
3606.0,0.006345134074309519
3605.0,0.0063743186866605395
3604.0,0.006340926682176675
3603.0,0.0062934070432039135
3602.0,0.006252832061210073
3601.0,0.006261365769234745
3600.0,0.006392053877744263
3599.0,0.0066110715973717125
3598.0,0.006781127235081719
3597.0,0.006801825030295311
3596.0,0.006701252239466993
3595.0,0.006590631369052621
3594.0,0.006554004137715641
3593.0,0.006576861459392189
3592.0,0.006669765140901137
3591.0,0.00688521447214502
3590.0,0.007147769460376456
3589.0,0.0073332639071138385
3588.0,0.00761341536862214
3587.0,0.008028027273225437
3586.0,0.008140320555399563
3585.0,0.007876405014299172
3584.0,0.007552911464327024
3583.0,0.007363081050566054
3582.0,0.007345701443864807
3581.0,0.007443643982077787
3580.0,0.007578753989747488
3579.0,0.007689016772823215
3578.0,0.007748787030944785
3577.0,0.007768514710785549
3576.0,0.007781544140150908
3575.0,0.007814320821816899
3574.0,0.00786645002681381
3573.0,0.007945566320079216
3572.0,0.00812514047086793
3571.0,0.008514564459820177
3570.0,0.009090749452259479
3569.0,0.009622389055174771
3568.0,0.01004394733077181
3567.0,0.010588727406880947
3566.0,0.01108285791156245
3565.0,0.011121616710510221
3564.0,0.010766677067076574
3563.0,0.010279693472485299
3562.0,0.009849247430597306
3561.0,0.009583723240478575
3560.0,0.009475468594928017
3559.0,0.00944760076433365
3558.0,0.00945818912312689
3557.0,0.009538578924959072
3556.0,0.009723766418746579
3555.0,0.00998872066642309
3554.0,0.0102534914369495
3553.0,0.010463679442266812
3552.0,0.010610171881454262
3551.0,0.01070431774257401
3550.0,0.01078065880220953
3549.0,0.010859990780308896
3548.0,0.010945199226275437
3547.0,0.01107746609829924
3546.0,0.011275694096855299
3545.0,0.011435341099773224
3544.0,0.011444909087223459
3543.0,0.011337982058787468
3542.0,0.011215912545277791
3541.0,0.01113799726937831
3540.0,0.011108100422521973
3539.0,0.011104602829071653
3538.0,0.011123902635595036
3537.0,0.01120431210580764
3536.0,0.011373237218708289
3535.0,0.011574597297257886
3534.0,0.011728868995670303
3533.0,0.011827377361109935
3532.0,0.011941908678700696
3531.0,0.012132986693021687
3530.0,0.012360546899692751
3529.0,0.012530165014521588
3528.0,0.012633008230490277
3527.0,0.012757214605257892
3526.0,0.012936766572548417
3525.0,0.013102735369814107
3524.0,0.01321143658906454
3523.0,0.013310886849770224
3522.0,0.013431274539179982
3521.0,0.01352212293203894
3520.0,0.013533817535010418
3519.0,0.013492552306522042
3518.0,0.013469382245171635
3517.0,0.01347713343652861
3516.0,0.013455048189053315
3515.0,0.01337190151214633
3514.0,0.013293797248959575
3513.0,0.013302197061245098
3512.0,0.013396248070813268
3511.0,0.013530813697524596
3510.0,0.013705654944589654
3509.0,0.013928800690496464
3508.0,0.014140620959653849
3507.0,0.014270291442961394
3506.0,0.014320925313045501
3505.0,0.014381508378171919
3504.0,0.01457913551958111
3503.0,0.014910170588713675
3502.0,0.015161947934303449
3501.0,0.015163801691107183
3500.0,0.01497405916342908
3499.0,0.014763453854524565
3498.0,0.01467048621254717
3497.0,0.014750910655765042
3496.0,0.014971413764406357
3495.0,0.015230139237292748
3494.0,0.015423281573657618
3493.0,0.015518724447279041
3492.0,0.015559163199185502
3491.0,0.015609719227810504
3490.0,0.01571022747046938
3489.0,0.0158569117093967
3488.0,0.01601686413684772
3487.0,0.016157827174261848
3486.0,0.016268152486139005
3485.0,0.01635556802850978
3484.0,0.016431723832637884
3483.0,0.016501063900037218
3482.0,0.01655893832890852
3481.0,0.016588625736229816
3480.0,0.016577903265364693
3479.0,0.016542008179704776
3478.0,0.016510528236194956
3477.0,0.016505247243890436
3476.0,0.01654306056749101
3475.0,0.016633415544463407
3474.0,0.016755114430711888
3473.0,0.016864049958918336
3472.0,0.016936805622862226
3471.0,0.016991999525425884
3470.0,0.017059899702872906
3469.0,0.017132819595917524
3468.0,0.017167877640344695
3467.0,0.017157524432568818
3466.0,0.017165772152830754
3465.0,0.017263788793286775
3464.0,0.01745074953649791
3463.0,0.017668414041098722
3462.0,0.01787980886100667
3461.0,0.01808998105607817
3460.0,0.01828522301229692
3459.0,0.018401895184952107
3458.0,0.018391013115291403
3457.0,0.01829254003642156
3456.0,0.01821460069182223
3455.0,0.018233766451224483
3454.0,0.018333393165692862
3453.0,0.018444693639433636
3452.0,0.01853835896805973
3451.0,0.018643313314265785
3450.0,0.01878228378038263
3449.0,0.018936813190233992
3448.0,0.01909573105142181
3447.0,0.019272432295397175
3446.0,0.01943532939428988
3445.0,0.019515258371853278
3444.0,0.019499493559060475
3443.0,0.019463219884984853
3442.0,0.019487959089197298
3441.0,0.01954752551164227
3440.0,0.019538321088790653
3439.0,0.019437023169023265
3438.0,0.019352868055272286
3437.0,0.019403970402215275
3436.0,0.01959169407871958
3435.0,0.01982566075364959
3434.0,0.02003065000022151
3433.0,0.02017446037317028
3432.0,0.020232363066733487
3431.0,0.020188663048069672
3430.0,0.020080944234123602
3429.0,0.02000487451589956
3428.0,0.020042222198223627
3427.0,0.020184456559024164
3426.0,0.02033481844460119
3425.0,0.020397317103185434
3424.0,0.020369195000865155
3423.0,0.020348222989820853
3422.0,0.020440911855422874
3421.0,0.020647808339150732
3420.0,0.020854726441025005
3419.0,0.020957005045349676
3418.0,0.020959809105010344
3417.0,0.020938208537990805
3416.0,0.02093979514060197
3415.0,0.02094751003678924
3414.0,0.020917365913496567
3413.0,0.02083153727590347
3412.0,0.020718050393580406
3411.0,0.020636219258989622
3410.0,0.020645866046275285
3409.0,0.020773354110586326
3408.0,0.020984587962272767
3407.0,0.021187355538826606
3406.0,0.021281238005146235
3405.0,0.02123280475685746
3404.0,0.021109716741780117
3403.0,0.02102956301048613
3402.0,0.021064586605296743
3401.0,0.021190414713184683
3400.0,0.021321625994398158
3399.0,0.0213893343702112
3398.0,0.021397103477803946
3397.0,0.021412750824511155
3396.0,0.02149863958543117
3395.0,0.02164736995355974
3394.0,0.021786830771571664
3393.0,0.021847835250750795
3392.0,0.021826272869290023
3391.0,0.021781816966301385
3390.0,0.021781283381431978
3389.0,0.021848763210386632
3388.0,0.021960465387848564
3387.0,0.02206799941517369
3386.0,0.02212517893549101
3385.0,0.02210875442038599
3384.0,0.022028235090448482
3383.0,0.02191868125880017
3382.0,0.021824693889309344
3381.0,0.021786857645389807
3380.0,0.02183462828043795
3379.0,0.021975702033222206
3378.0,0.022179381755479587
3377.0,0.022374218761793394
3376.0,0.02248201245131974
3375.0,0.022475392348267918
3374.0,0.022401040744278566
3373.0,0.022333047219803656
3372.0,0.022304269691055936
3371.0,0.022300502486659844
3370.0,0.022315173827126212
3369.0,0.022375192215010033
3368.0,0.022495273343775036
3367.0,0.022632340272647072
3366.0,0.022713625038455202
3365.0,0.022702131377771294
3364.0,0.022618988810366756
3363.0,0.022515864032340262
3362.0,0.022446134124043088
3361.0,0.02244608347185646
3360.0,0.022511895587833026
3359.0,0.02259639596863941
3358.0,0.02265241291737156
3357.0,0.02267963457480232
3356.0,0.02270944960889027
3355.0,0.02274508072058707
3354.0,0.022745708111805846
3353.0,0.022679893113757052
3352.0,0.022569255377822586
3351.0,0.022468637773324945
3350.0,0.022419065125862617
3349.0,0.02242818442154448
3348.0,0.02247585025979901
3347.0,0.022520491360797285
3346.0,0.02251839188306804
3345.0,0.022462750015828783
3344.0,0.022398740279072304
3343.0,0.022376825279268667
3342.0,0.0223936056539521
3341.0,0.022396082825630523
3340.0,0.022344281289330477
3339.0,0.022257507196621767
3338.0,0.022199582040599745
3337.0,0.022229226913070037
3336.0,0.022356456698370622
3335.0,0.02252891812906012
3334.0,0.02266090293191416
3333.0,0.022693109614202785
3332.0,0.02263543447014725
3331.0,0.02254658868540738
3330.0,0.022469154405236988
3329.0,0.022397494864973076
3328.0,0.022313845462253408
3327.0,0.022233045448077287
3326.0,0.022190216810870633
3325.0,0.022195642387960287
3324.0,0.022226282602848407
3323.0,0.02225630426318031
3322.0,0.02227258420420765
3321.0,0.022262119262127344
3320.0,0.022212584673234385
3319.0,0.02213666978017657
3318.0,0.02207538486712472
3317.0,0.022059800586287804
3316.0,0.022076973681010605
3315.0,0.022082989286186953
3314.0,0.02204281567993301
3313.0,0.02195474626952494
3312.0,0.021851132983758577
3311.0,0.021784043523646265
3310.0,0.02179215884469732
3309.0,0.021861227439145627
3308.0,0.021927081122192382
3307.0,0.02193859731791074
3306.0,0.02190537093233057
3305.0,0.02186576112244525
3304.0,0.02182904791688324
3303.0,0.021775798924068356
3302.0,0.021701202903998924
3301.0,0.02162479604943425
3300.0,0.021562002657844307
3299.0,0.02151805352180461
3298.0,0.02150567404181548
3297.0,0.021525871656044162
3296.0,0.02152761160132045
3295.0,0.021439874441409875
3294.0,0.021272171593849303
3293.0,0.021142063450646616
3292.0,0.021155339873502158
3291.0,0.021280259238136267
3290.0,0.021388338444377805
3289.0,0.021400265265154626
3288.0,0.021340244286179446
3287.0,0.021262336675455733
3286.0,0.021187713523414895
3285.0,0.02112909179304381
3284.0,0.021121413823499295
3283.0,0.021188599337863483
3282.0,0.021303498835297606
3281.0,0.021409077328596985
3280.0,0.021463725986043833
3279.0,0.02145307250354404
3278.0,0.021384000831515638
3277.0,0.021291265463359434
3276.0,0.02123083756957124
3275.0,0.02123254626992034
3274.0,0.021261341051125454
3273.0,0.021249312711264755
3272.0,0.021165744009166234
3271.0,0.021037070579535484
3270.0,0.020903017305351143
3269.0,0.020777224534337273
3268.0,0.020655688979318246
3267.0,0.020543749339123948
3266.0,0.0204612447703802
3265.0,0.020426143171415834
3264.0,0.02043759304131074
3263.0,0.020474115522331734
3262.0,0.02050629753233649
3261.0,0.02051031657234446
3260.0,0.020475277423837496
3259.0,0.020411333222226487
3258.0,0.020348331377770958
3257.0,0.02031018397003312
3256.0,0.02028713180612858
3255.0,0.020246276921543908
3254.0,0.020178106516744954
3253.0,0.02011596420968347
3252.0,0.0200918355806092
3251.0,0.02008614541815992
3250.0,0.020045815553270563
3249.0,0.019946906803794823
3248.0,0.019818435092561017
3247.0,0.019702907384729663
3246.0,0.01961213116482918
3245.0,0.019529212662714464
3244.0,0.01944095713015289
3243.0,0.01936254737715014
3242.0,0.019332395758820467
3241.0,0.019376290350699186
3240.0,0.019468996297379918
3239.0,0.019541702918344457
3238.0,0.019541159545594163
3237.0,0.019473854712803926
3236.0,0.019381073748838403
3235.0,0.019286757016239473
3234.0,0.01919240352366951
3233.0,0.019107212566755336
3232.0,0.019046869665787745
3231.0,0.019005047052629485
3230.0,0.01896164263946038
3229.0,0.01891826206496178
3228.0,0.018889722368989934
3227.0,0.01885984353394807
3226.0,0.018787900178233955
3225.0,0.018671172096197765
3224.0,0.018557444513548713
3223.0,0.018476291003231966
3222.0,0.018404108253400428
3221.0,0.018327245871831148
3220.0,0.01829283358683186
3219.0,0.018342323199673126
3218.0,0.01842265038368631
3217.0,0.018427150905767218
3216.0,0.018317302321212807
3215.0,0.01815745731201072
3214.0,0.018025571858608733
3213.0,0.017932437918081058
3212.0,0.017851283482378088
3211.0,0.017779417067693988
3210.0,0.017728063688870994
3209.0,0.01768008183998367
3208.0,0.017606085686018777
3207.0,0.01751754075557397
3206.0,0.017460526820598895
3205.0,0.017447331724380188
3204.0,0.017424693847611295
3203.0,0.017330621252432583
3202.0,0.01717053624728665
3201.0,0.017018822541751705
3200.0,0.016949607339285917
3199.0,0.016976137900139927
3198.0,0.017046057065880697
3197.0,0.01708148504994813
3196.0,0.01703104272069369
3195.0,0.01689733083230194
3194.0,0.01671896669007066
3193.0,0.016528604793816192
3192.0,0.016337126792478666
3191.0,0.016160106069774326
3190.0,0.01604015406405989
3189.0,0.016013497014805114
3188.0,0.016052801606812668
3187.0,0.016073893895757578
3186.0,0.01601562199201402
3185.0,0.015895241573596196
3184.0,0.015771699398499133
3183.0,0.015678213185944454
3182.0,0.015611741009626014
3181.0,0.01556641230476477
3180.0,0.015542279166660369
3179.0,0.01552241264330826
3178.0,0.015470640482447756
3177.0,0.01536550333910134
3176.0,0.015225425414325526
3175.0,0.015092244457233672
3174.0,0.014998776742455113
3173.0,0.01495168774647962
3172.0,0.014929860839439223
3171.0,0.014897224832496298
3170.0,0.0148325308428323
3169.0,0.01475093884697563
3168.0,0.01468446638892799
3167.0,0.014638760774015866
3166.0,0.014582252456375195
3165.0,0.014481965944692865
3164.0,0.014338840055645174
3163.0,0.014183954980494712
3162.0,0.014048482585481616
3161.0,0.013944290452990702
3160.0,0.013866626682044924
3159.0,0.013803079924294588
3158.0,0.013739585113056972
3157.0,0.01366594787791518
3156.0,0.013580348014844514
3155.0,0.013487816583870042
3154.0,0.013394939453866682
3153.0,0.013306799213776588
3152.0,0.013225954077534702
3151.0,0.013151401757832366
3150.0,0.013079468559344647
3149.0,0.013007265590725887
3148.0,0.012934145639341947
3147.0,0.012859174433532182
3146.0,0.012780032949076755
3145.0,0.012697091988256706
3144.0,0.01261645136545218
3143.0,0.012544914295929096
3142.0,0.012482250432467378
3141.0,0.012419838970442314
3140.0,0.01234615496820576
3139.0,0.012256678539670277
3138.0,0.012163021621460015
3137.0,0.012087175764980336
3136.0,0.01204036273924415
3135.0,0.012012320079056903
3134.0,0.01198759414915309
3133.0,0.011964251372145188
3132.0,0.011945074889727281
3131.0,0.01191921051602895
3130.0,0.011868283783696509
3129.0,0.011789060541496556
3128.0,0.011700011197358067
3127.0,0.011619965452501555
3126.0,0.011544846332552181
3125.0,0.011454555494529603
3124.0,0.011341380689320016
3123.0,0.011222805181352663
3122.0,0.011124863991058368
3121.0,0.011061526458440794
3120.0,0.01103029216396956
3119.0,0.011017787765155964
3118.0,0.011006484976739546
3117.0,0.010980437345206527
3116.0,0.010931058149821088
3115.0,0.010862403931467928
3114.0,0.010790544366740297
3113.0,0.010733067892874025
3112.0,0.010694753621106797
3111.0,0.010663158866052942
3110.0,0.010622023643055242
3109.0,0.010570464635098423
3108.0,0.010524885172376963
3107.0,0.010495323467727163
3106.0,0.01046261365063695
3105.0,0.010395612679457603
3104.0,0.010300292177714198
3103.0,0.010232316636173069
3102.0,0.01024072043656525
3101.0,0.010306852210049176
3100.0,0.01035561436264528
3099.0,0.010332080646110747
3098.0,0.010250693601271399
3097.0,0.010165598847460587
3096.0,0.01011002369720284
3095.0,0.010068123808013384
3094.0,0.010001763519097527
3093.0,0.009896504310238294
3092.0,0.009773437732690859
3091.0,0.00966155189753633
3090.0,0.009572070450456643
3089.0,0.009502116091735303
3088.0,0.009449417101575526
3087.0,0.009409568252284829
3086.0,0.009364628667062396
3085.0,0.009296448187053883
3084.0,0.009214130171917294
3083.0,0.009148800132273234
3082.0,0.00911512774502955
3081.0,0.009094189468598102
3080.0,0.009064069729707814
3079.0,0.009029662617506424
3078.0,0.009003936165034858
3077.0,0.008976525768523072
3076.0,0.008925950211785457
3075.0,0.008856815494769221
3074.0,0.008798057587960331
3073.0,0.008758611084370475
3072.0,0.008710344193544111
3071.0,0.00862558748428166
3070.0,0.008518544127631318
3069.0,0.008437327987734078
3068.0,0.008415973062352613
3067.0,0.008440895924412129
3066.0,0.008460949239424096
3065.0,0.00842767955389345
3064.0,0.008328946436845357
3063.0,0.00818910673846583
3062.0,0.008045303826194769
3061.0,0.007927667815446864
3060.0,0.00785369578073018
3059.0,0.007826317511363874
3058.0,0.007832340983279916
3057.0,0.007849650579100833
3056.0,0.00786167033192305
3055.0,0.007862896596242331
3054.0,0.007848527987891998
3053.0,0.007804935076712503
3052.0,0.007719343892320558
3051.0,0.007597754622492306
3050.0,0.0074667029113625
3049.0,0.007354355575705842
3048.0,0.007266066665311873
3047.0,0.007181200176484909
3046.0,0.00707899146038431
3045.0,0.006966194446816601
3044.0,0.0068736226563920234
3043.0,0.006817630552836719
3042.0,0.0067731605892858635
3041.0,0.006698495285570594
3040.0,0.006582534990826026
3039.0,0.006455171985958822
3038.0,0.0063503346448853994
3037.0,0.006277811529300055
3036.0,0.006235649400718699
3035.0,0.006228142079909068
3034.0,0.006257776633361745
3033.0,0.006307816995548641
3032.0,0.006346007508238504
3031.0,0.006344084867596019
3030.0,0.00629082858867548
3029.0,0.006198781423214584
3028.0,0.006106355309133778
3027.0,0.0060601923821125
3026.0,0.006076660222063865
3025.0,0.006118080824380322
3024.0,0.006127343411731739
3023.0,0.0060852030081363275
3022.0,0.006016235763001086
3021.0,0.005947095037940582
3020.0,0.005883411209731531
3019.0,0.005831199249312816
3018.0,0.0058127797453368
3017.0,0.005846201304384027
3016.0,0.005918938441177253
3015.0,0.0059954661051874435
3014.0,0.0060482323415683905
3013.0,0.0060780811707078376
3012.0,0.006111514990000851
3011.0,0.006176842769784498
3010.0,0.0062749301854717
3009.0,0.0063686956986236855
3008.0,0.0064121129694827035
3007.0,0.006395878900720518
3006.0,0.006357089025964302
3005.0,0.006341696442863894
3004.0,0.006359185824928001
3003.0,0.006380287018562079
3002.0,0.006373134195929463
3001.0,0.006335270881774284
3000.0,0.006295892134424816
2999.0,0.0062888410444044435
2998.0,0.006322032658442306
2997.0,0.006368972086440954
2996.0,0.006396119738366112
2995.0,0.006402090834558911
2994.0,0.006424344586871102
2993.0,0.006505285778298434
2992.0,0.006654139682449375
2991.0,0.006844326292838035
2990.0,0.00703682984791365
2989.0,0.00720112716940376
2988.0,0.007323052430556188
2987.0,0.007404955864785262
2986.0,0.007462362400162596
2985.0,0.00751441080316927
2984.0,0.007574491640229605
2983.0,0.007648885752534255
2982.0,0.007741242751664802
2981.0,0.007855952365096617
2980.0,0.007998324641339965
2979.0,0.008172089285498728
2978.0,0.008374497832513391
2977.0,0.008593701117187326
2976.0,0.00881298509063337
2975.0,0.009017389332588131
2974.0,0.009196752012088713
2973.0,0.009348172424959741
2972.0,0.009482362884135186
2971.0,0.009623130687697908
2970.0,0.009789531167317355
2969.0,0.00997575535805321
2968.0,0.010152433578754994
2967.0,0.010290759592911343
2966.0,0.010382919262884663
2965.0,0.010441935142695041
2964.0,0.010489333382480422
2963.0,0.0105422811740965
2962.0,0.010603421947534329
2961.0,0.010658607902620442
2960.0,0.010689991544590148
2959.0,0.010692112883094459
2958.0,0.010669760387324844
2957.0,0.010623317775885406
2956.0,0.01054804675129566
2955.0,0.010449354533588043
2954.0,0.010346391615488582
2953.0,0.010254338566652154
2952.0,0.010174434532003862
2951.0,0.01010447480528789
2950.0,0.01004681560824191
2949.0,0.009998310009371824
2948.0,0.009946830198351343
2947.0,0.009890883036944471
2946.0,0.009853442676173198
2945.0,0.009863681454789441
2944.0,0.009927029040999603
2943.0,0.010023638324642115
2942.0,0.010129463783122836
2941.0,0.010230508487976405
2940.0,0.010323538673239582
2939.0,0.010419766704873854
2938.0,0.010546227052275144
2937.0,0.010725705133738312
2936.0,0.01094992377975283
2935.0,0.011180374349676553
2934.0,0.01138230542285853
2933.0,0.011554952573788057
2932.0,0.011727372269232917
2931.0,0.011927916071464565
2930.0,0.012154691061730546
2929.0,0.012370310146557435
2928.0,0.012527253872815615
2927.0,0.012605996421893067
2926.0,0.012631819261067791
2925.0,0.012649813349306472
2924.0,0.012681874880429963
2923.0,0.01270512476950983
2922.0,0.012670961659973176
2921.0,0.012542661817803917
2920.0,0.012319176738546309
2919.0,0.012028929374799976
2918.0,0.011704188358514481
2917.0,0.011361901111215463
2916.0,0.011009168513720862
2915.0,0.01066053759122989
2914.0,0.010338938928159654
2913.0,0.010057333264371499
2912.0,0.009807174493029076
2911.0,0.009570921609318092
2910.0,0.009339818544265764
2909.0,0.009117799317792797
2908.0,0.008911902817651465
2907.0,0.008725103696027709
2906.0,0.00855549599202209
2905.0,0.008397232411627414
2904.0,0.008241144129680782
2903.0,0.008082473563314704
2902.0,0.007920501987174767
2901.0,0.007749966132518318
2900.0,0.007566316570503884
2899.0,0.00737506714777942
2898.0,0.007195463364263572
2897.0,0.007043815632596298
2896.0,0.006919534940715993
2895.0,0.0068106733524767
2894.0,0.006708331497139876
2893.0,0.006611176032333464
2892.0,0.0065212919977809015
2891.0,0.006441398009576117
2890.0,0.006370254646925862
2889.0,0.0062967788943303175
2888.0,0.006206783569860808
2887.0,0.006102831631867768
2886.0,0.0060088027683788525
2885.0,0.005947296120313927
2884.0,0.005918278317736526
2883.0,0.005906452012340002
2882.0,0.0059007403309233215
2881.0,0.005894695495429654
2880.0,0.005877816079290148
2879.0,0.005841127292273257
2878.0,0.0057890488450796935
2877.0,0.005736310828082529
2876.0,0.005695903924048573
2875.0,0.005677797085460949
2874.0,0.005691110925218817
2873.0,0.005733891331341736
2872.0,0.005785145822246584
2871.0,0.005820624048234347
2870.0,0.005833730257553984
2869.0,0.005828497303290904
2868.0,0.005799527435984741
2867.0,0.005740043440651372
2866.0,0.00567148232290928
2865.0,0.005644292724072819
2864.0,0.005693474091453199
2863.0,0.005803263867713862
2862.0,0.005926732437055744
2861.0,0.006031987586473154
2860.0,0.006127167917741209
2859.0,0.006242424550453218
2858.0,0.006395138683981057
2857.0,0.006568970443398185
2856.0,0.0067210779466552115
2855.0,0.006812958018600657
2854.0,0.006830993407580305
2853.0,0.006780205262152596
2852.0,0.006664546100153561
2851.0,0.0064798798090495244
2850.0,0.0062221801371715145
2849.0,0.005891571304680777
2848.0,0.0054937958924592654
2847.0,0.005051502905499642
2846.0,0.004613338483632289
2845.0,0.0042339269699300614
2844.0,0.0039349848789557605
2843.0,0.0036941679706113334
2842.0,0.0034760038440177577
2841.0,0.0032682533892217387
2840.0,0.003080916138646684
2839.0,0.002919203480376777
2838.0,0.0027709451878437418
2837.0,0.0026180465046075248
2836.0,0.002455096208281526
2835.0,0.002295367228045759
2834.0,0.0021593716428178473
2833.0,0.002059079123756553
2832.0,0.001989581397708818
2831.0,0.001934459992818203
2830.0,0.001879514592196077
2829.0,0.0018200990173207173
2828.0,0.0017603300309067794
2827.0,0.0017071741756152915
2826.0,0.0016614205873732063
2825.0,0.0016131667908323905
2824.0,0.001549756769834639
2823.0,0.0014722604108453516
2822.0,0.0014008816759428855
2821.0,0.0013573668480341273
2820.0,0.0013452717182738261
2819.0,0.0013500058543589625
2818.0,0.0013531182734143137
2817.0,0.0013439441721176002
2816.0,0.00132047904159289
2815.0,0.0012861322797122965
2814.0,0.0012437927180943545
2813.0,0.0011896788471486039
2812.0,0.0011204378842605486
2811.0,0.0010502610456486414
2810.0,0.0010089350004788894
2809.0,0.001009378897454808
2808.0,0.0010239837449048592
2807.0,0.0010088053581826652
2806.0,0.0009519261104440342
2805.0,0.000887058621101063
2804.0,0.000857702296546962
2803.0,0.000877288661875648
2802.0,0.0009236147230203243
2801.0,0.0009586426386809523
2800.0,0.0009526333302887907
2799.0,0.0009026149416175031
2798.0,0.000833355095405228
2797.0,0.0007768842259614386
2796.0,0.0007457561580922678
2795.0,0.0007267840876342287
2794.0,0.0007000972412727251
2793.0,0.0006572871409925916
2792.0,0.0006041021748395491
2791.0,0.000554914441892468
2790.0,0.0005249631050079882
2789.0,0.0005202055929208467
2788.0,0.0005321886319884887
2787.0,0.0005458405641458621
2786.0,0.0005508450743438075
2785.0,0.0005421973985338478
2784.0,0.0005146166394677026
2783.0,0.00046660454968956233
2782.0,0.00040784352009440566
2781.0,0.00035291230471544096
2780.0,0.00030926534682599476
2779.0,0.0002790221503229989
2778.0,0.0002682866181646683
2777.0,0.00028046658211591173
2776.0,0.00030127565748324834
2775.0,0.0003070389131819354
2774.0,0.00029233812737761134
2773.0,0.000277214553378109
2772.0,0.00028011726077015946
2771.0,0.0002940284630482011
2770.0,0.00029869309419657594
2769.0,0.00028832327515453007
2768.0,0.00027572607658876876
2767.0,0.0002721088223107933
2766.0,0.00027264335892396253
2765.0,0.0002637050156517123
2764.0,0.00024078755757478702
2763.0,0.00021601484209767636
2762.0,0.00020625259404535227
2761.0,0.00021439190201527278
2760.0,0.0002252307801234605
2759.0,0.00022282547650817456
2758.0,0.0002081458975388105
2757.0,0.00019400698213679988
2756.0,0.00018649440424425606
2755.0,0.000179525161691494
2754.0,0.0001656756027191516
2753.0,0.00014418189486555943
2752.0,0.00011818577452421628
2751.0,9.126270133285848e-05
2750.0,6.750990902562592e-05
2749.0,4.901284536240266e-05
2748.0,3.408895468340746e-05
2747.0,2.3362265983683074e-05
2746.0,2.419607239799947e-05
2745.0,4.083758407610579e-05
2744.0,6.247880498389089e-05
2743.0,7.15187578487226e-05
2742.0,6.424362826761227e-05
2741.0,5.3965369927479493e-05
2740.0,5.312156981745141e-05
2739.0,6.194809990958325e-05
2738.0,7.467813546357819e-05
2737.0,8.6036990606947e-05
2736.0,8.909709675735756e-05
2735.0,7.739201686320519e-05
2734.0,5.315062423719304e-05
2733.0,2.5277591630115106e-05
2732.0,-2.8972097859266636e-06
2731.0,-3.44104168024514e-05
2730.0,-6.483611602543229e-05
2729.0,-7.971792141304762e-05
2728.0,-7.250643602742723e-05
2727.0,-5.5956601241629635e-05
2726.0,-4.783742601755436e-05
2725.0,-5.204284586387826e-05
2724.0,-6.122029563346157e-05
2723.0,-7.060801219556877e-05
2722.0,-7.943015634479466e-05
2721.0,-8.46840820307984e-05
2720.0,-8.534448990953894e-05
2719.0,-9.205502596507792e-05
2718.0,-0.00012201682945945313
2717.0,-0.00017890298834440685
2716.0,-0.0002420185358247408
2715.0,-0.00028030884553646935
2714.0,-0.00027880688972260195
2713.0,-0.0002515340801710381
2712.0,-0.00022803424167497496
2711.0,-0.00022705451546613416
2710.0,-0.0002450568587197765
2709.0,-0.00027021136031009124
2708.0,-0.0003001082410804875
2707.0,-0.0003376210361685579
2706.0,-0.00037418190714630676
2705.0,-0.0003902393862834986
2704.0,-0.000376981565086681
2703.0,-0.00034949786941734654
2702.0,-0.0003323550175929667
2701.0,-0.0003362507737509515
2700.0,-0.0003531397447133933
2699.0,-0.0003699712829410566
2698.0,-0.00038114286142204557
2697.0,-0.00038791724318396753
2696.0,-0.0003909872505346169
2695.0,-0.00038689387485368876
2694.0,-0.00037254828830278106
2693.0,-0.00035169521506877655
2692.0,-0.00033422989395874244
2691.0,-0.0003279214881525842
2690.0,-0.00033363695180486865
2689.0,-0.0003493389624364331
2688.0,-0.00037247207555676895
2687.0,-0.00039448259718918074
2686.0,-0.00039982956767903777
2685.0,-0.0003806928838426388
2684.0,-0.00035073289270754317
2683.0,-0.00033461825675727935
2682.0,-0.00034323216683774735
2681.0,-0.000365865713238427
2680.0,-0.00038615290614689825
2679.0,-0.00039636887962576515
2678.0,-0.00039574093433391276
2677.0,-0.0003859550377610892
2676.0,-0.0003735917088582639
2675.0,-0.0003688288787513053
2674.0,-0.00037434833170310925
2673.0,-0.00037959370018538266
2672.0,-0.0003710841986870291
2671.0,-0.000345341820359113
2670.0,-0.0003075976818890092
2669.0,-0.00026160955175363724
2668.0,-0.00020608919711373312
2667.0,-0.0001394243598780466
2666.0,-6.327233430265702e-05
2665.0,1.8975142161431566e-05
2664.0,0.00010426479790926792
2663.0,0.00018919422304924352
2662.0,0.00026839582211779446
2661.0,0.0003357040215995067
2660.0,0.00038927096100853484
2659.0,0.00043545582037079946
2658.0,0.00048374925744203677
2657.0,0.0005353747696393023
2656.0,0.0005801289400563067
2655.0,0.0006084115178753089
2654.0,0.000623418260092063
2653.0,0.0006369826487792349
2652.0,0.0006552583727090866
2651.0,0.0006739262491417838
2650.0,0.0006863255108404576
2649.0,0.0006908387562297659
2648.0,0.000690729964818181
2647.0,0.0006905299166816558
2646.0,0.0006917665165613314
2645.0,0.0006885690671776937
2644.0,0.0006707739789169815
2643.0,0.0006371495313705344
2642.0,0.0006021957732189065
2641.0,0.000582557300503753
2640.0,0.0005783868401573865
2639.0,0.00057568346548471
2638.0,0.0005650041600833891
2637.0,0.0005492340278266397
2636.0,0.0005350863523868577
2635.0,0.0005281583997158432
2634.0,0.0005365106392837883
2633.0,0.0005664831790442165
2632.0,0.0006090261518591016
2631.0,0.0006389497621184658
2630.0,0.0006337231792452886
2629.0,0.0005904960520325519
2628.0,0.0005249871323267737
2627.0,0.00046123179930286206
2626.0,0.000422659222339636
2625.0,0.00041955177642480357
2624.0,0.0004366796147526027
2623.0,0.00044092529307802387
2622.0,0.00040993734516049413
2621.0,0.0003528347302250289
2620.0,0.0002984477532821839
2619.0,0.00026535789314021383
2618.0,0.00024797110411173685
2617.0,0.00022961085429627228
2616.0,0.00020449791971819406
2615.0,0.00018404774717448646
2614.0,0.0001817350231008545
2613.0,0.0001946319872292324
2612.0,0.00020526276263462765
2611.0,0.00020145052960722758
2610.0,0.00018709782011478316
2609.0,0.00017105003994788643
2608.0,0.00015388480770951772
2607.0,0.00013204694771724998
2606.0,0.00010667055583792225
2605.0,8.033985964709853e-05
2604.0,5.256265582087539e-05
2603.0,2.646835398794939e-05
2602.0,1.0952845395536832e-05
2601.0,5.208612746634934e-06
2600.0,-9.11281024384156e-06
2599.0,-4.7599443073432926e-05
2598.0,-0.00010413358125730202
2597.0,-0.00016555696836942574
2596.0,-0.00023264761928486774
2595.0,-0.0003063862262213526
2594.0,-0.00036478910167821264
2593.0,-0.0003826794895389503
2592.0,-0.0003718563611603996
2591.0,-0.0003720977907422302
2590.0,-0.0003986708634060754
2589.0,-0.0004259926873283604
2588.0,-0.00042899683932424255
2587.0,-0.00041228139876815914
2586.0,-0.0003870512825683004
2585.0,-0.0003481204498467311
2584.0,-0.0002944213584278097
2583.0,-0.00025124024623821223
2582.0,-0.0002464498531284928
2581.0,-0.0002730894038290518
2580.0,-0.00029635281108448934
2579.0,-0.0002943467311496957
2578.0,-0.00027817028970565834
2577.0,-0.00027413036424466745
2576.0,-0.00029656116186269174
2575.0,-0.00033805280385559714
2574.0,-0.0003802900999164753
2573.0,-0.0004149621573159443
2572.0,-0.0004526585632783985
2571.0,-0.0005036184504143321
2570.0,-0.0005521810601931009
2569.0,-0.0005650339606757575
2568.0,-0.0005300105401238137
2567.0,-0.00047498803204103885
2566.0,-0.0004416014441007215
2565.0,-0.00044915380061986813
2564.0,-0.000486448381635161
2563.0,-0.0005248080573916473
2562.0,-0.0005346931201211741
2561.0,-0.0005063984195300829
2560.0,-0.0004649611979130791
2559.0,-0.0004532009061125503
2558.0,-0.0004909843288916019
2557.0,-0.0005583399539136253
2556.0,-0.0006217286502379791
2555.0,-0.0006635798137565674
2554.0,-0.0006806973015367869
2553.0,-0.0006728191902738024
2552.0,-0.0006465418610334527
2551.0,-0.0006163175292338946
2550.0,-0.0005883194367201667
2549.0,-0.0005564218028013645
2548.0,-0.0005271432338169889
2547.0,-0.0005312498935728007
2546.0,-0.0005887841457027675
2545.0,-0.0006731380494242109
2544.0,-0.0007352142178401295
2543.0,-0.0007610719827770091
2542.0,-0.0007804790389064876
2541.0,-0.0008133516873702412
2540.0,-0.0008324482851301674
2539.0,-0.0007959811664318482
2538.0,-0.0007058272205307165
2537.0,-0.0006161808418584246
2536.0,-0.0005819486045658997
2535.0,-0.0006057467047114425
2534.0,-0.000639977040510521
2533.0,-0.0006371511270891943
2532.0,-0.0005926092464041564
2531.0,-0.0005384550478090603
2530.0,-0.000505429756787979
2529.0,-0.000500472636399168
2528.0,-0.0005171796903779035
2527.0,-0.0005517567650823594
2526.0,-0.0005990880933321538
2525.0,-0.0006428837181645261
2524.0,-0.0006647006385238886
2523.0,-0.0006633670893321343
2522.0,-0.0006554445097916842
2521.0,-0.0006523619726762238
2520.0,-0.0006430780334223263
2519.0,-0.0006068467914559328
2518.0,-0.0005436623258085275
2517.0,-0.0004854310221787385
2516.0,-0.0004694029271036465
2515.0,-0.0005008839108586339
2514.0,-0.0005503580879142699
2513.0,-0.000591450800709918
2512.0,-0.000632927250017596
2511.0,-0.0007015535083931993
2510.0,-0.0007958619104487407
2509.0,-0.0008713707841808768
2508.0,-0.0008796200940724123
2507.0,-0.0008165319428975292
2506.0,-0.0007271668401853896
2505.0,-0.0006669163192934624
2504.0,-0.0006619471162146932
2503.0,-0.0007026660436558721
2502.0,-0.0007652013346706986
2501.0,-0.0008305710808717791
2500.0,-0.0008829512381620247
2499.0,-0.0009013144758869484
2498.0,-0.0008705751953769614
2497.0,-0.0008076925779947727
2496.0,-0.0007632551965872352
2495.0,-0.0007823285772565719
2494.0,-0.0008656700491168683
2493.0,-0.0009765000327526819
2492.0,-0.0010780625892247565
2491.0,-0.0011528461316117219
2490.0,-0.0011930074359287218
2489.0,-0.0011938649786134305
2488.0,-0.0011621539002571052
2487.0,-0.0011163047052865135
2486.0,-0.0010725746006446284
2485.0,-0.001040321674623677
2484.0,-0.0010314771609201262
2483.0,-0.001058730543653156
2482.0,-0.0011165317204683825
2481.0,-0.0011764868549774482
2480.0,-0.0012124469164492835
2479.0,-0.001222106911988245
2478.0,-0.0012158134215321018
2477.0,-0.001196351754028269
2476.0,-0.0011650001935280324
2475.0,-0.0011393551954117537
2474.0,-0.001143801589200587
2473.0,-0.0011780051068537038
2472.0,-0.001209870818111732
2471.0,-0.0012081284800853442
2470.0,-0.0011725435768982677
2469.0,-0.0011250788066383497
2468.0,-0.0010823385064794501
2467.0,-0.0010502490245731433
2466.0,-0.0010389077516937976
2465.0,-0.0010612589918130165
2464.0,-0.001109937252476689
2463.0,-0.0011504802529752481
2462.0,-0.0011500970761655007
2461.0,-0.0011068960405069275
2460.0,-0.0010422269874381229
2459.0,-0.0009730966388325937
2458.0,-0.0009057922193602176
2457.0,-0.0008499728760224929
2456.0,-0.000820058432261945
2455.0,-0.0008203879182533419
2454.0,-0.000842363110892382
2453.0,-0.0008778460295722375
2452.0,-0.0009229494185294069
2451.0,-0.0009686142623622356
2450.0,-0.001003564523921563
2449.0,-0.0010300147181632293
2448.0,-0.0010599198872909554
2447.0,-0.0010902246036432342
2446.0,-0.0010997132106728997
2445.0,-0.0010793743832351265
2444.0,-0.0010483734193153904
2443.0,-0.0010275112300587317
2442.0,-0.0010132069641034774
2441.0,-0.000993365808920644
2440.0,-0.000974176173876835
2439.0,-0.0009715965631792616
2438.0,-0.000986936652005219
2437.0,-0.0010118866604343977
2436.0,-0.0010502728455103806
2435.0,-0.001111228880319125
2434.0,-0.0011822257927032672
2433.0,-0.0012330657300976848
2432.0,-0.0012546389856279484
2431.0,-0.0012761180205364624
2430.0,-0.0013308551795720917
2429.0,-0.0014126312539184931
2428.0,-0.0014763041618581297
2427.0,-0.0014827557315946326
2426.0,-0.001440168576259135
2425.0,-0.0013991278885708614
2424.0,-0.0014037206260051845
2423.0,-0.0014468677312586917
2422.0,-0.0014795826513707767
2421.0,-0.001465382846437301
2420.0,-0.0014172220746261404
2419.0,-0.001376787178092425
2418.0,-0.0013676102456020157
2417.0,-0.0013765035764138787
2416.0,-0.0013727402967813932
2415.0,-0.0013365675785525638
2414.0,-0.0012747343186937658
2413.0,-0.0012173939270277555
2412.0,-0.0011968956067210947
2411.0,-0.0012239973298579366
2410.0,-0.0012876189551830268
2409.0,-0.0013752567526509128
2408.0,-0.001478154348447138
2407.0,-0.0015721877878427223
2406.0,-0.001617159841745631
2405.0,-0.0015971590101765986
2404.0,-0.001550742477497739
2403.0,-0.001537535545449165
2402.0,-0.0015753298588524214
2401.0,-0.0016270978292173023
2400.0,-0.001650673832755889
2399.0,-0.0016427535974048084
2398.0,-0.0016270634404585605
2397.0,-0.0016162133888178371
2396.0,-0.0016018039432181635
2395.0,-0.001578773680763622
2394.0,-0.0015641576498702115
2393.0,-0.0015815272417277252
2392.0,-0.0016289944946432282
2391.0,-0.0016738978302224474
2390.0,-0.001688069572130953
2389.0,-0.0016835326113295713
2388.0,-0.0017004833985326917
2387.0,-0.0017601928683788472
2386.0,-0.0018432667038873372
2385.0,-0.0019150297000654099
2384.0,-0.0019557785170320023
2383.0,-0.001959130631157719
2382.0,-0.0019171455867075216
2381.0,-0.0018263161930001978
2380.0,-0.001705754024033877
2379.0,-0.0015918262300131927
2378.0,-0.0015115324089525954
2377.0,-0.0014753107073495794
2376.0,-0.0014925603948774283
2375.0,-0.0015705807755867773
2374.0,-0.0016884200426441937
2373.0,-0.0017965742851654683
2372.0,-0.001854871633570785
2371.0,-0.00184917965311011
2370.0,-0.0017711486116456976
2369.0,-0.0016289782397357227
2368.0,-0.0014840680043565458
2367.0,-0.0014041381978508413
2366.0,-0.00135400014638509
2365.0,-0.0012232487625236411
2364.0,-0.0009964993805733047
2363.0,-0.0008041851103582835
2362.0,-0.0007630535899511692
2361.0,-0.0008525165199490121
2360.0,-0.0010004466740172158
2359.0,-0.0011423455560393273
2358.0,-0.001169829385670819
2357.0,-0.0010039211042401778
2356.0,-0.000750359807074734
2355.0,-0.0006271488382250468
2354.0,-0.0007122643746951713
2353.0,-0.0008787764172880322
2352.0,-0.0009750876263306768
2351.0,-0.0009512500483159292
2350.0,-0.0007936807527605949
2349.0,-0.0004726955310104774
2348.0,-3.581971849188993e-05
2347.0,0.0002950166880378763
2346.0,0.00028805648578728537
2345.0,3.8361497289579735e-06
2344.0,-0.0003121924787847565
2343.0,-0.0005529380325327533
2342.0,-0.0006617952504039798
2341.0,-0.0005652963948048467
2340.0,-0.00035252555080437896
2339.0,-0.0002135503178193623
2338.0,-0.00020227205563715653
2337.0,-0.00021812469562252702
2336.0,-0.00020203204002690865
2335.0,-0.00019004803119533007
2334.0,-0.00021118957939862316
2333.0,-0.00025920694191756575
2332.0,-0.00035208374700122314
2331.0,-0.0004987425961559411
2330.0,-0.0006147068330400618
2329.0,-0.0005310835967671777
2328.0,-0.0001364561909636278
2327.0,0.000503440750445887
2326.0,0.0011690260614803216
2325.0,0.0015864224812226864
2324.0,0.0016001685190680341
2323.0,0.0012793695527264554
2322.0,0.0008382359732079668
2321.0,0.0004451241298303858
2320.0,0.00014812134809717606
2319.0,-5.0722675400201756e-05
2318.0,-0.00015906411780357266
2317.0,-0.00021404796688186616
2316.0,-0.0002738234158726989
2315.0,-0.00034780730328893726
2314.0,-0.0003975441152892363
2313.0,-0.0004040870154837568
2312.0,-0.00039734018340909595
2311.0,-0.00039343689179637453
2310.0,-0.00036931809809418516
2309.0,-0.0003183942120749793
2308.0,-0.0002777066968315274
2307.0,-0.00026983657394109834
2306.0,-0.00027168930850603813
2305.0,-0.00027004232476525306
2304.0,-0.00029543309310541997
2303.0,-0.0003630571119220408
2302.0,-0.0004211359915341306
2301.0,-0.00040209269968889515
2300.0,-0.000300617994404595
2299.0,-0.00016212540358022276
2298.0,-1.29603282539916e-05
2297.0,0.00014944299962706869
2296.0,0.0003158097681813911
2295.0,0.0004615745095812588
2294.0,0.0005859631850584333
2293.0,0.0007171862966001586
2292.0,0.0008784517937473076
2291.0,0.001066711645335984
2290.0,0.0012612855463740246
2289.0,0.00142970689247534
2288.0,0.0015360721591751018
2287.0,0.0015673608181094236
2286.0,0.0015462196223720148
2285.0,0.0015025931685465053
2284.0,0.0014412455695732636
2283.0,0.0013538048361497906
2282.0,0.0012471121083638273
2281.0,0.001137538878142297
2280.0,0.0010284953880744863
2279.0,0.0009185778514296454
2278.0,0.0008203463226829578
2277.0,0.0007455183308019825
2276.0,0.0006841412270404256
2275.0,0.0006291412248993836
2274.0,0.0006050804827067793
2273.0,0.0006344200327782723
2272.0,0.0006870100797583061
2271.0,0.0007002145507760099
2270.0,0.0006401364255895298
2269.0,0.0005194974573621549
2268.0,0.0003756762613608179
2267.0,0.0002618730416082093
2266.0,0.0002302423608295574
2265.0,0.0002772946008110158
2264.0,0.00032812581170457245
2263.0,0.0003220472761344776
2262.0,0.00029491822076580486
2261.0,0.000325642673351228
2260.0,0.00041861648981313896
2259.0,0.0004886640296477132
2258.0,0.00044967320948148374
2257.0,0.00027662387923384896
2256.0,1.3421647399293143e-06
2255.0,-0.0002935576398456752
2254.0,-0.0004885971173338788
2253.0,-0.0004985720422929539
2252.0,-0.0003499323478278615
2251.0,-0.00015605944638813607
2250.0,-1.7673722189887053e-05
2249.0,3.170159844146389e-05
2248.0,1.682659627988539e-05
2247.0,-5.614804428907171e-06
2246.0,1.0810322530523949e-05
2245.0,4.332683042930193e-05
2244.0,1.5804864463296885e-05
2243.0,-8.199825146191586e-05
2242.0,-0.00014148699658775266
2241.0,-6.593586651235938e-05
2240.0,8.628469469591673e-05
2239.0,0.00017590623535152964
2238.0,0.00016634799209431703
2237.0,0.00013681464076581505
2236.0,0.0001366837698509539
2235.0,0.0001351372155204761
2234.0,0.00011873060440656294
2233.0,0.00012531570448963213
2232.0,0.00015177853787828844
2231.0,0.0001260577180993642
2230.0,1.500550353327856e-05
2229.0,-0.00011391551736341876
2228.0,-0.0001806369622535916
2227.0,-0.00018686501978994896
2226.0,-0.0001869993826964368
2225.0,-0.00021627601226381908
2224.0,-0.00027583418347277276
2223.0,-0.0003418967248448378
2222.0,-0.000366377638898324
2221.0,-0.0003091836997616533
2220.0,-0.00018725919168086414
2219.0,-5.720929744554798e-05
2218.0,4.896053617900009e-05
2217.0,0.00012817817845878763
2216.0,0.00016456725124303626
2215.0,0.00013819510492074915
2214.0,6.822055451225571e-05
2213.0,-1.2124344016913095e-05
2212.0,-0.00011368364753914783
2211.0,-0.0002578315636146886
2210.0,-0.0003925533129288566
2209.0,-0.0004232466271119989
2208.0,-0.0003351799009954358
2207.0,-0.0002195392262205318
2206.0,-0.00016878976791828216
2205.0,-0.00020866748753053276
2204.0,-0.00031705818574166743
2203.0,-0.0004314578456834248
2202.0,-0.0004493953358351784
2201.0,-0.0003064764313800717
2200.0,-6.280482158223244e-05
2199.0,0.00016495313742934852
2198.0,0.00033587288846213
2197.0,0.0004597666757386998
2196.0,0.0004841591241066381
2195.0,0.00034595079805208235
2194.0,0.00014296647045504361
2193.0,9.549862880858245e-05
2192.0,0.00027372341289903644
2191.0,0.0004953850757716714
2190.0,0.0005608778847462137
2189.0,0.00048167566699531964
2188.0,0.0004037166810302695
2187.0,0.00040022484572037646
2186.0,0.00042917731869402396
2185.0,0.0004044800445025923
2184.0,0.00023006514286221712
2183.0,-0.00014311142847404755
2182.0,-0.0005893096345477064
2181.0,-0.0008301635697771251
2180.0,-0.0007274701508174913
2179.0,-0.0004850154218679622
2178.0,-0.0004500243546866772
2177.0,-0.0007396103950386027
2176.0,-0.0011390139742224732
2175.0,-0.0013502022911430268
2174.0,-0.0012305227718178537
2173.0,-0.0008073097649714112
2172.0,-0.00019984198585003298
2171.0,0.00044647092494295846
2170.0,0.0010098843231670812
2169.0,0.0014267969262435189
2168.0,0.0016782324358231555
2167.0,0.001745052613828273
2166.0,0.0016402897840505954
2165.0,0.0014999557079515475
2164.0,0.0015076211208896453
2163.0,0.0015861947117436388
2162.0,0.0012221515562431998
2161.0,-0.00015634590442674078
2160.0,-0.002421062896456398
2159.0,-0.004572974038633621
2158.0,-0.0056443394419109765
2157.0,-0.005568321960987657
2156.0,-0.0049638996939399575
2155.0,-0.004347349537144007
2154.0,-0.003800231018231173
2153.0,-0.0032686854548352826
2152.0,-0.0028440305017184645
2151.0,-0.0026816928204836583
2150.0,-0.002789509010292221
2149.0,-0.0030292669824279
2148.0,-0.0032596193615735255
2147.0,-0.0034041193459989037
2146.0,-0.003429722661015363
2145.0,-0.0033607417892046925
2144.0,-0.003279768936309414
2143.0,-0.003242942140583694
2142.0,-0.0032146311869831108
2141.0,-0.0031313975224420017
2140.0,-0.002992264430526199
2139.0,-0.002850099355861939
2138.0,-0.0027713874228743477
2137.0,-0.0028441018291939105
2136.0,-0.003143854447117581
2135.0,-0.003616790976348588
2134.0,-0.004052224265598703
2133.0,-0.004242513713223227
2132.0,-0.0041452212313868395
2131.0,-0.003848769013501987
2130.0,-0.003446813736945038
2129.0,-0.003013231789816189
2128.0,-0.00263658348606834
2127.0,-0.0023831300748442105
2126.0,-0.0022384668512496204
2125.0,-0.002131947837883841
2124.0,-0.0020118611814548067
2123.0,-0.0018609715880333092
2122.0,-0.0016733413238560033
2121.0,-0.0014661710501772199
2120.0,-0.0012911452058297407
2119.0,-0.0011725756583073803
2118.0,-0.0010555570156708669
2117.0,-0.0008720911842963406
2116.0,-0.0006534092986996881
2115.0,-0.0005166289700683863
2114.0,-0.0005337157479685666
2113.0,-0.0006576762902412762
2112.0,-0.0007865756632587131
2111.0,-0.0008574965948920364
2110.0,-0.0008673185628366359
2109.0,-0.0008450516863986247
2108.0,-0.0008230473492948582
2107.0,-0.0008094752884302686
2106.0,-0.0007816964294570497
2105.0,-0.0007186913074427925
2104.0,-0.0006338606112046917
2103.0,-0.0005583679716459563
2102.0,-0.0005097734206840211
2101.0,-0.0004987793700293983
2100.0,-0.0005487844298187161
2099.0,-0.0006836811925897073
2098.0,-0.0009045525421603818
2097.0,-0.001190574155195532
2096.0,-0.001494241130579962
2095.0,-0.0017243472813252302
2094.0,-0.0017833919377412922
2093.0,-0.0016649794262041638
2092.0,-0.0014754303767306005
2091.0,-0.0013210717764195806
2090.0,-0.0012117126814660813
2089.0,-0.0011053265792584466
2088.0,-0.001003881747059068
2087.0,-0.0009435090555137007
2086.0,-0.0009279026248573587
2085.0,-0.000924970011388807
2084.0,-0.0009040570373064672
2083.0,-0.0008338218547820947
2082.0,-0.0006858294770732842
2081.0,-0.0004969209381838539
2080.0,-0.0003839787023648705
2079.0,-0.00042314000960027307
2078.0,-0.000542734996817486
2077.0,-0.0006122605063195823
2076.0,-0.0006061080351990122
2075.0,-0.0006057528209939114
2074.0,-0.0006661700190270733
2073.0,-0.0007666170308729069
2072.0,-0.0008806181580535153
2071.0,-0.0010020272741941118
2070.0,-0.0011046540608778128
2069.0,-0.0011568012376850876
2068.0,-0.001176087438234842
2067.0,-0.0011930213183943546
2066.0,-0.0011701518178015022
2065.0,-0.001049449240426864
2064.0,-0.0008822116554580243
2063.0,-0.0008027366392699214
2062.0,-0.0008581028729766404
2061.0,-0.0009530205569874209
2060.0,-0.0009603397016295451
2059.0,-0.0008461661842131983
2058.0,-0.0007021808314632639
2057.0,-0.0006726672161467885
2056.0,-0.0007971672643559915
2055.0,-0.0008760193464025859
2054.0,-0.0005975242988476703
2053.0,8.023627171230806e-05
2052.0,0.0007461590088377456
2051.0,0.0008776311786206381
2050.0,0.0003696306165302311
2049.0,-0.0003572551754598347
2048.0,-0.0008474207527190357
2047.0,-0.0010460321970661027
2046.0,-0.0011402930697424368
2045.0,-0.0012401147470258345
2044.0,-0.0013372413199352173
2043.0,-0.0014025635310183388
2042.0,-0.0013931664994452366
2041.0,-0.001272082085691528
2040.0,-0.0011077667599339132
2039.0,-0.0010402009591376868
2038.0,-0.0011153329868229967
2037.0,-0.0012707367517868625
2036.0,-0.0014963323379200187
2035.0,-0.0018635437963614517
2034.0,-0.002338398621983205
2033.0,-0.002721513962391663
2032.0,-0.0028727620151060636
2031.0,-0.002864496697355543
2030.0,-0.0028409590430381456
2029.0,-0.002872552288772685
2028.0,-0.002984653368344701
2027.0,-0.003167700319459175
2026.0,-0.0033197320086121307
2025.0,-0.0033102222604440732
2024.0,-0.0031745597568089545
2023.0,-0.0031020456347573546
2022.0,-0.003177132063477799
2021.0,-0.0032726013989831508
2020.0,-0.00324615612501391
2019.0,-0.003120285635286965
2018.0,-0.003012346456856514
2017.0,-0.002990807934642446
2016.0,-0.0030417333326630868
2015.0,-0.003094935313601868
2014.0,-0.003052531909252478
2013.0,-0.002866124258263205
2012.0,-0.0026148985014101925
2011.0,-0.0024447472110681098
2010.0,-0.0024366643115966632
2009.0,-0.00259581141301573
2008.0,-0.002915426830367802
2007.0,-0.0033330894667638333
2006.0,-0.0036726379065821295
2005.0,-0.003771037716483452
2004.0,-0.00366767016990842
2003.0,-0.0035428976177532784
2002.0,-0.0034847609653248478
2001.0,-0.00343432731389487
2000.0,-0.003308231938168385
1999.0,-0.003093628912363171
1998.0,-0.0028217934471149167
1997.0,-0.002547031625010888
1996.0,-0.002344816735324859
1995.0,-0.0022447516772735373
1994.0,-0.002179427842018464
1993.0,-0.002072718822744838
1992.0,-0.001987410817230156
1991.0,-0.002052818493956855
1990.0,-0.002220693633127889
1989.0,-0.0022937669594495667
1988.0,-0.002168054996659264
1987.0,-0.00190347335213917
1986.0,-0.0015796800374022531
1985.0,-0.00120327206565314
1984.0,-0.0007744658178421255
1983.0,-0.0003410090573340706
1982.0,2.2534970693397242e-05
1981.0,0.00017170028694861233
1980.0,-0.00012232556307936564
1979.0,-0.0009788291082699107
1978.0,-0.0021327381992584946
1977.0,-0.0030587199436356446
1976.0,-0.0034784869859305176
1975.0,-0.0035416804909424115
1974.0,-0.003495578609171506
1973.0,-0.0034401776215040765
1972.0,-0.003415266999241627
1971.0,-0.0034768372015198984
1970.0,-0.0036052999947462803
1969.0,-0.003695575109759535
1968.0,-0.003710607370759889
1967.0,-0.003724086269125001
1966.0,-0.0037440579327998992
1965.0,-0.0036691837639094204
1964.0,-0.0035036450187261687
1963.0,-0.0034092128730795392
1962.0,-0.003481581725598821
1961.0,-0.003609588213207033
1960.0,-0.003651805636797176
1959.0,-0.003640268400280551
1958.0,-0.003681613831662495
1957.0,-0.0037721131097844373
1956.0,-0.0038300265677680715
1955.0,-0.003836777763289082
1954.0,-0.003847998424956802
1953.0,-0.003885380514976288
1952.0,-0.003915097315624728
1951.0,-0.003894512647187337
1950.0,-0.0038063305907395676
1949.0,-0.0036805926819145846
1948.0,-0.0035868093834225514
1947.0,-0.003578001249282102
1946.0,-0.003635331055009322
1945.0,-0.0036947536614008016
1944.0,-0.0037211801245179733
1943.0,-0.0037059446200663725
1942.0,-0.0036367409496695113
1941.0,-0.003527968646742539
1940.0,-0.0034278331975274357
1939.0,-0.0033840195005754863
1938.0,-0.0034045123883184713
1937.0,-0.003454506007082053
1936.0,-0.0035154081016455316
1935.0,-0.0035999817641720125
1934.0,-0.0036906586058886954
1933.0,-0.0037253101535868636
1932.0,-0.003699423429937816
1931.0,-0.0036808369536524307
1930.0,-0.003715230593245327
1929.0,-0.0037877627481051257
1928.0,-0.0038537178129171576
1927.0,-0.0039054725618446274
1926.0,-0.003938126551862122
1925.0,-0.003941493092803389
1924.0,-0.0038980875925874346
1923.0,-0.0037753664127072673
1922.0,-0.0035908576145220594
1921.0,-0.0034315671512563507
1920.0,-0.0033825734550676093
1919.0,-0.0034743731761236575
1918.0,-0.00359736059526694
1917.0,-0.00361563562073109
1916.0,-0.0035421912713756902
1915.0,-0.003451769938346962
1914.0,-0.003371663020191545
1913.0,-0.0032935644010261495
1912.0,-0.003241961593148837
1911.0,-0.003257189068554896
1910.0,-0.0033187473459102067
1909.0,-0.003367747505817302
1908.0,-0.003400365752943453
1907.0,-0.0034749204216042344
1906.0,-0.003574504576670764
1905.0,-0.0036191483017287873
1904.0,-0.003583943626108736
1903.0,-0.0035230574213502277
1902.0,-0.003497707647759133
1901.0,-0.003520146891514793
1900.0,-0.0035568063644019015
1899.0,-0.0035807034162132515
1898.0,-0.0035721477636945823
1897.0,-0.003532550983369948
1896.0,-0.0034978098486085378
1895.0,-0.0034894964685934283
1894.0,-0.0034742681821287886
1893.0,-0.003411226563443574
1892.0,-0.003322934176667962
1891.0,-0.00327730005403205
1890.0,-0.003282172272013517
1889.0,-0.00328744515124015
1888.0,-0.0032960250171890516
1887.0,-0.003332961597545809
1886.0,-0.003384199598917506
1885.0,-0.0034138606937424948
1884.0,-0.003422994949240867
1883.0,-0.0034513438460655414
1882.0,-0.003512323657008643
1881.0,-0.0035668715192309322
1880.0,-0.0035715050747250105
1879.0,-0.003542254612963532
1878.0,-0.0035237613330387787
1877.0,-0.003524491800988214
1876.0,-0.0035373818733301274
1875.0,-0.0035634197737837645
1874.0,-0.0035814385070727277
1873.0,-0.0035524120853524296
1872.0,-0.003478213667352628
1871.0,-0.0034342374656119623
1870.0,-0.003483405519382042
1869.0,-0.003542501950951716
1868.0,-0.0035177140652303943
1867.0,-0.0034748855065838452
1866.0,-0.0034728446209142615
1865.0,-0.0035061846192079955
1864.0,-0.0035600078442108146
1863.0,-0.0036085699966563875
1862.0,-0.003617034726637847
1861.0,-0.0035775309639396523
1860.0,-0.0035280746376780327
1859.0,-0.0035108500053216895
1858.0,-0.0035226430698892318
1857.0,-0.00353634180048221
1856.0,-0.0035466416743144967
1855.0,-0.0035673520127831103
1854.0,-0.0035878591079634083
1853.0,-0.003597305617326295
1852.0,-0.0035812908724570337
1851.0,-0.0035625952214099737
1850.0,-0.003581180395743727
1849.0,-0.0036318086800134304
1848.0,-0.003666645928736256
1847.0,-0.0036580820814414486
1846.0,-0.003635122827495658
1845.0,-0.003608859305121945
1844.0,-0.0035288596281668606
1843.0,-0.003426033963580005
1842.0,-0.0033433115326057775
1841.0,-0.003266279741544821
1840.0,-0.0032113151535122153
1839.0,-0.003218460154759115
1838.0,-0.0032689229845995153
1837.0,-0.0033187221628949116
1836.0,-0.0033514196921666604
1835.0,-0.0033597875318273442
1834.0,-0.0033215665398463635
1833.0,-0.0032317618475667356
1832.0,-0.0031414790010612717
1831.0,-0.003151910292831836
1830.0,-0.0032228080023298518
1829.0,-0.0032212934103414007
1828.0,-0.003143477924530369
1827.0,-0.003056421820568412
1826.0,-0.003034240519026904
1825.0,-0.003050950433602993
1824.0,-0.0030394927095767593
1823.0,-0.0030186679318345675
1822.0,-0.0030270365925348097
1821.0,-0.0030727603155831893
1820.0,-0.0031458109545981073
1819.0,-0.0032512967486184683
1818.0,-0.003363220869872428
1817.0,-0.003417938543196465
1816.0,-0.003388372040667519
1815.0,-0.0033062149726679146
1814.0,-0.00322090291116077
1813.0,-0.0031357468952095914
1812.0,-0.003046702255184889
1811.0,-0.0029777389407877916
1810.0,-0.002932851906201466
1809.0,-0.002883136501865429
1808.0,-0.0028145206109832224
1807.0,-0.0027471429576559625
1806.0,-0.0026987814684729422
1805.0,-0.0026587722363770987
1804.0,-0.0026148447322729383
1803.0,-0.0025593298274905526
1802.0,-0.0025129975926690942
1801.0,-0.0024746471397103084
1800.0,-0.002461441834204685
1799.0,-0.002495499521353144
1798.0,-0.002543174150475368
1797.0,-0.0025478847593373563
1796.0,-0.0024856255109682044
1795.0,-0.00238695875054149
1794.0,-0.002355758671589759
1793.0,-0.002435826042824133
1792.0,-0.002514597373032328
1791.0,-0.0025280834242865265
1790.0,-0.0025223372491929045
1789.0,-0.0025088483947702587
1788.0,-0.0024997188992067296
1787.0,-0.002525122217912673
1786.0,-0.0025914154163835202
1785.0,-0.002656747618500957
1784.0,-0.0026715665139235736
1783.0,-0.0026101647828280306
1782.0,-0.0025481787737784926
1781.0,-0.0025324921619762288
1780.0,-0.002533172178480644
1779.0,-0.0025287550360188656
1778.0,-0.002532352833418394
1777.0,-0.0025579414867257146
1776.0,-0.002553652085046638
1775.0,-0.002474906797619672
1774.0,-0.0024225410247043716
1773.0,-0.0024779709895599218
1772.0,-0.002462891943079417
1771.0,-0.0023407979867762904
1770.0,-0.002246990454390885
1769.0,-0.002215787924924835
1768.0,-0.002239726786451782
1767.0,-0.0022646403210501865
1766.0,-0.0022441657850155
1765.0,-0.0021573618794704756
1764.0,-0.0020421844806343074
1763.0,-0.00195079807551851
1762.0,-0.0018847724881225817
1761.0,-0.001810575085921791
1760.0,-0.0017180078122520535
1759.0,-0.0015802627567779496
1758.0,-0.0014420832931679988
1757.0,-0.0013437842155468822
1756.0,-0.0012165008452437254
1755.0,-0.0010217450174768213
1754.0,-0.0007837086396256083
1753.0,-0.000562411940228789
1752.0,-0.0003386493868185103
1751.0,1.9566408241460977e-05
1750.0,0.0005536127121913356
1749.0,0.001129691780722075
1748.0,0.0016961619933485769
1747.0,0.0022750188440901825
1746.0,0.00285622072669902
1745.0,0.003499257348136371
1744.0,0.004287251568297503
1743.0,0.005197394348585679
1742.0,0.006117722627436494
1741.0,0.007035634084107199
1740.0,0.0080437404868015
1739.0,0.00914113257247527
1738.0,0.010137028621209538
1737.0,0.01101908578396383
1736.0,0.011874573720828563
1735.0,0.012860725011122974
1734.0,0.01436923822676809
1733.0,0.015987326823310177
1732.0,0.01725623066102341
1731.0,0.01846502622592758
1730.0,0.019714720748708264
1729.0,0.020903922138732163
1728.0,0.02200991298459338
1727.0,0.023090734222462612
1726.0,0.024164653588120477
1725.0,0.02525278572608587
1724.0,0.026377248200865185
1723.0,0.02751720957362582
1722.0,0.028628833858093852
1721.0,0.029697601598256344
1720.0,0.030707697826029133
1719.0,0.03156685374731676
1718.0,0.032359028021281565
1717.0,0.03324215161412079
1716.0,0.03402968747676303
1715.0,0.03464108812113312
1714.0,0.03507701061545374
1713.0,0.03528222822137651
1712.0,0.035256279343620495
1711.0,0.03501589457417046
1710.0,0.03457933391118755
1709.0,0.03401507414230825
1708.0,0.033370160200638994
1707.0,0.03242981882262637
1706.0,0.030929766447287205
1705.0,0.029226223954117406
1704.0,0.028044686920245566
1703.0,0.027518145649701647
1702.0,0.02704832990643667
1701.0,0.025613486024313247
1700.0,0.02333409180523747
1699.0,0.021728276248433858
1698.0,0.02113213025383176
1697.0,0.02065518950021003
1696.0,0.019640982408161242
1695.0,0.018469924145421417
1694.0,0.01779257644687147
1693.0,0.01760278843670599
1692.0,0.017524766589465494
1691.0,0.01726637254572858
1690.0,0.016798009008593445
1689.0,0.01632408061235098
1688.0,0.01606248412946263
1687.0,0.01603650781361904
1686.0,0.016044339121077444
1685.0,0.015808011819808506
1684.0,0.015565444900186586
1683.0,0.015440588096704785
1682.0,0.015351822363194267
1681.0,0.01532728885256784
1680.0,0.015272062296649718
1679.0,0.015168732938635611
1678.0,0.015095772362886572
1677.0,0.015049812819469217
1676.0,0.014912642192157839
1675.0,0.014705419281262011
1674.0,0.014559892297964127
1673.0,0.014578266034369153
1672.0,0.01469252930995009
1671.0,0.014716516778235628
1670.0,0.014633506696109282
1669.0,0.014564794887314419
1668.0,0.014486069186482358
1667.0,0.014385884586275152
1666.0,0.014315316421690871
1665.0,0.014279464817915234
1664.0,0.014198394908002569
1663.0,0.014083596908792986
1662.0,0.014012034010814155
1661.0,0.013966246275729375
1660.0,0.01393567362849062
1659.0,0.013884829331763937
1658.0,0.013811223289924655
1657.0,0.013764186975125825
1656.0,0.013872662907068282
1655.0,0.013959167014754567
1654.0,0.013777667392827958
1653.0,0.013838737784461774
1652.0,0.01386357387016431
1651.0,0.01381989091909477
1650.0,0.013972398400669443
1649.0,0.014123242391242942
1648.0,0.01412443059342711
1647.0,0.014126559374018608
1646.0,0.014138455559790406
1645.0,0.014009681485597867
1644.0,0.013892414704448575
1643.0,0.013842132433928438
1642.0,0.013784187875748137
1641.0,0.013693006957022736
1640.0,0.013600790936205476
1639.0,0.013539522292800744
1638.0,0.0135018959191264
1637.0,0.013446487598053593
1636.0,0.01344130462018557
1635.0,0.01335306206437738
1634.0,0.013106604986475201
1633.0,0.012948220459761389
1632.0,0.012898223363315017
1631.0,0.012853481560408202
1630.0,0.012768119883190088
1629.0,0.012645278347372987
1628.0,0.012517463596131064
1627.0,0.012407198965532554
1626.0,0.012319646651050318
1625.0,0.012245810705519083
1624.0,0.012146620787799885
1623.0,0.012026945457019642
1622.0,0.011887582076133357
1621.0,0.011753095950716747
1620.0,0.011683019252417097
1619.0,0.011635937841083358
1618.0,0.011522209403356541
1617.0,0.011391473436233968
1616.0,0.011337577846932474
1615.0,0.011283962943499155
1614.0,0.011218429323161312
1613.0,0.011146494756530689
1612.0,0.011026871181250824
1611.0,0.010867723770789109
1610.0,0.01069750543484026
1609.0,0.010533541519102532
1608.0,0.01037294756282606
1607.0,0.010214644545059642
1606.0,0.010036548653624706
1605.0,0.009827941571231354
1604.0,0.009613601452034614
1603.0,0.00941526508294694
1602.0,0.009239482459853796
1601.0,0.009075381801416484
1600.0,0.008908160448824087
1599.0,0.008731116360707114
1598.0,0.008550498945016827
1597.0,0.008386857497303501
1596.0,0.008248792264118477
1595.0,0.008128609747949836
1594.0,0.008013043246025392
1593.0,0.007891645582221227
1592.0,0.007758360998161327
1591.0,0.007616085826035403
1590.0,0.007476895269971931
1589.0,0.007349974305329136
1588.0,0.0072348853320207875
1587.0,0.0071329130872024825
1586.0,0.007063022016594459
1585.0,0.007024047530402054
1584.0,0.007023833683941756
1583.0,0.007059513793700251
1582.0,0.007097727612261032
1581.0,0.007113396987673862
1580.0,0.007124232144077307
1579.0,0.007132251073597518
1578.0,0.007042415039907098
1577.0,0.006754988477731868
1576.0,0.006367900191488078
1575.0,0.0060426788973479
1574.0,0.005839194691192899
1573.0,0.005760241933474875
1572.0,0.005709926270044503
1571.0,0.0055327022076063805
1570.0,0.005227043028237198
1569.0,0.004945924657650334
1568.0,0.004758599253116693
1567.0,0.004647055505007601
1566.0,0.004567383868427796
1565.0,0.00443590242374307
1564.0,0.004280421047365703
1563.0,0.004164586354529279
1562.0,0.004192713950329328
1561.0,0.004294290877408067
1560.0,0.004076454813897365
1559.0,0.003922968769800252
1558.0,0.004101501790120079
1557.0,0.004001025151775969
1556.0,0.003972535568606375
1555.0,0.004051319635872696
1554.0,0.004059822016725655
1553.0,0.00405837386490286
1552.0,0.004090041517384629
1551.0,0.0041354507314596365
1550.0,0.00416025902208236
1549.0,0.004178773992266226
1548.0,0.004184840386496674
1547.0,0.004188569596138655
1546.0,0.004157782410447857
1545.0,0.00412994632681133
1544.0,0.004168263282557375
1543.0,0.004213842269826249
1542.0,0.004164735836726342
1541.0,0.004369047412848225
1540.0,0.005005324086994865
1539.0,0.005152347722941177
1538.0,0.004871833922260151
1537.0,0.004774282879808309
1536.0,0.0048614997811766095
1535.0,0.004990548220910969
1534.0,0.005127447691271001
1533.0,0.005359071152559647
1532.0,0.005501306055659155
1531.0,0.005497115784998667
1530.0,0.005500411419668533
1529.0,0.0055740991875562786
1528.0,0.005703417159879423
1527.0,0.005831246205393801
1526.0,0.0059215890184452676
1525.0,0.005994117544069052
1524.0,0.006088301007180984
1523.0,0.0061824536179937405
1522.0,0.0063963893082718635
1521.0,0.006785936901939012
1520.0,0.007010432723014532
1519.0,0.007059176084867301
1518.0,0.007120572548937887
1517.0,0.007284391949617108
1516.0,0.007483416508150542
1515.0,0.007555004988948266
1514.0,0.007599731332438011
1513.0,0.00772529427611696
1512.0,0.007948413246674625
1511.0,0.008184304405257303
1510.0,0.008464850946337464
1509.0,0.008782500225970442
1508.0,0.00949493352064881
1507.0,0.011080855145205841
1506.0,0.012059357697387963
1505.0,0.01190812553215094
1504.0,0.011628533657375508
1503.0,0.011368185548385236
1502.0,0.011059785583029495
1501.0,0.010715844475917159
1500.0,0.010377669228858973
1499.0,0.01005123040325534
1498.0,0.009762348028662271
1497.0,0.00968724380312139
1496.0,0.009795173222936243
1495.0,0.009870681174142092
1494.0,0.009925775634303545
1493.0,0.010070049541909473
1492.0,0.010277145714995509
1491.0,0.010479884354013081
1490.0,0.010777916775707587
1489.0,0.011223485821992653
1488.0,0.01157925425035438
1487.0,0.01176959038585167
1486.0,0.011948757647080976
1485.0,0.01218097776347006
1484.0,0.012464081337953375
1483.0,0.012782313295441574
1482.0,0.013162397147355544
1481.0,0.01361478236159551
1480.0,0.014048002225299675
1479.0,0.014389838121054769
1478.0,0.014671306918794876
1477.0,0.014959227278091184
1476.0,0.015249363723797312
1475.0,0.015498054700425711
1474.0,0.01574245594258191
1473.0,0.016155416911034202
1472.0,0.016586041211709243
1471.0,0.016707700452217977
1470.0,0.0166795925138511
1469.0,0.01670943134415404
1468.0,0.01678973821416945
1467.0,0.016888251946480942
1466.0,0.01702939215756951
1465.0,0.01727817828365766
1464.0,0.017552670745139772
1463.0,0.017690527944711952
1462.0,0.017760154358106805
1461.0,0.017839967780126004
1460.0,0.01794001078749969
1459.0,0.017973036922392237
1458.0,0.01806389951553518
1457.0,0.0185374100915331
1456.0,0.018928925825843195
1455.0,0.018962255949290022
1454.0,0.01896017709360794
1453.0,0.018983852401795634
1452.0,0.01897919980241615
1451.0,0.01894015847108521
1450.0,0.018913068615481723
1449.0,0.01893362362266489
1448.0,0.018941979253233425
1447.0,0.018891068631701972
1446.0,0.0188022483543078
1445.0,0.018742819178985792
1444.0,0.018732350064502128
1443.0,0.01872884081790071
1442.0,0.01871846133210416
1441.0,0.01871537061663467
1440.0,0.018727465763154916
1439.0,0.018729706407206292
1438.0,0.018716566231222427
1437.0,0.01876766143884915
1436.0,0.018891798630629706
1435.0,0.018941419323210477
1434.0,0.01893330711030686
1433.0,0.01894846572834092
1432.0,0.01896985558823759
1431.0,0.018973256506287898
1430.0,0.018975751051579646
1429.0,0.018995561201839373
1428.0,0.018976054307907046
1427.0,0.018910103570328
1426.0,0.018844632849600074
1425.0,0.01883393098716741
1424.0,0.01891831776278458
1423.0,0.019025364422074705
1422.0,0.019100591999415842
1421.0,0.019198807405265306
1420.0,0.019419125458165525
1419.0,0.019883280543753226
1418.0,0.020533865482456618
1417.0,0.02119231969763623
1416.0,0.021845097802431802
1415.0,0.02253777035364411
1414.0,0.02332969614103935
1413.0,0.024295613110831282
1412.0,0.025384876826049015
1411.0,0.026368847854346823
1410.0,0.027031620549884894
1409.0,0.02733200966825563
1408.0,0.027248293815916626
1407.0,0.026713930303174004
1406.0,0.025709204514139987
1405.0,0.024354657451742867
1404.0,0.02291711566526263
1403.0,0.021642501516324752
1402.0,0.02060163956380525
1401.0,0.01967701194780527
1400.0,0.018697513861614737
1399.0,0.017672868570780778
1398.0,0.016793914802804972
1397.0,0.016115520793816528
1396.0,0.015482711425109274
1395.0,0.014792503507226239
1394.0,0.014109000933164882
1393.0,0.01353250838610718
1392.0,0.013080026750136298
1391.0,0.012708301341619394
1390.0,0.01237215068336385
1389.0,0.012038382830664402
1388.0,0.011696281868847892
1387.0,0.01138821106285937
1386.0,0.011149506671744386
1385.0,0.010958737108826392
1384.0,0.010787178841463789
1383.0,0.010620181243327528
1382.0,0.0104722391586509
1381.0,0.01035980829827192
1380.0,0.010273148708416058
1379.0,0.010200627160104732
1378.0,0.010138395480064254
1377.0,0.010074423360740298
1376.0,0.009977648778716427
1375.0,0.009832715187431618
1374.0,0.009650982614094267
1373.0,0.00943717214711745
1372.0,0.009201128776569607
1371.0,0.008977426219408564
1370.0,0.008763599466446371
1369.0,0.008515950789188268
1368.0,0.008205815219901894
1367.0,0.007849245929066512
1366.0,0.00748135943519521
1365.0,0.007093170985650411
1364.0,0.006630145730744585
1363.0,0.006091660279377294
1362.0,0.005577166842925148
1361.0,0.0051570787554922285
1360.0,0.004816925405596391
1359.0,0.004532368810726023
1358.0,0.00429159754543283
1357.0,0.004086847429754277
1356.0,0.00391880632275577
1355.0,0.0038061136822590633
1354.0,0.003769329785939095
1353.0,0.0038061516475783753
1352.0,0.0038897770190047237
1351.0,0.004021859877310388
1350.0,0.004234464124613192
1349.0,0.004552386761712502
1348.0,0.004980948528538871
1347.0,0.005526586884277372
1346.0,0.0062094204448468505
1345.0,0.007025584704441222
1344.0,0.007919739887862855
1343.0,0.008819403740182162
1342.0,0.00968199393706682
1341.0,0.010484514357353782
1340.0,0.011161081337057073
1339.0,0.011551760450817891
1338.0,0.011515768083797413
1337.0,0.011068205710095525
1336.0,0.010303570689178795
1335.0,0.009303180831691495
1334.0,0.0081375472347134
1333.0,0.006881760055451429
1332.0,0.005631931347678755
1331.0,0.004505098871071008
1330.0,0.0035895256015700105
1329.0,0.002897867515855272
1328.0,0.0023924517040936257
1327.0,0.0020414884878823952
1326.0,0.0018177665762958324
1325.0,0.001680105958149757
1324.0,0.0015951767142462579
1323.0,0.001556009237581285
1322.0,0.0015624414779129552
1321.0,0.0015996940474851257
1320.0,0.0016543893162533178
1319.0,0.0017315546900659989
1318.0,0.0018335913568109305
1317.0,0.001941612561212504
1316.0,0.0020410093188150315
1315.0,0.0021404760305025056
1314.0,0.0022527729907277864
1313.0,0.002374777122009177
1312.0,0.002496449058290124
1311.0,0.00262161128255777
1310.0,0.002760972016710342
1309.0,0.0029149236215230984
1308.0,0.003073910684205301
1307.0,0.0032338082739777514
1306.0,0.003395443371180345
1305.0,0.003558107252207253
1304.0,0.0037263427486191603
1303.0,0.003917933888234994
1302.0,0.00415758853439775
1301.0,0.004458425346715939
1300.0,0.004814566132079033
1299.0,0.005210025660727919
1298.0,0.0056337648848248465
1297.0,0.006083139015998981
1296.0,0.00655473690473532
1295.0,0.007036908461165652
1294.0,0.0075147127088632006
1293.0,0.007978881038787654
1292.0,0.008425604314058463
1291.0,0.008854930546007275
1290.0,0.009274998704843492
1289.0,0.009698696535120451
1288.0,0.010126707751036364
1287.0,0.010541562303382296
1286.0,0.010928824316385099
1285.0,0.011294635494803446
1284.0,0.011652657469306514
1283.0,0.012006959526870684
1282.0,0.012360025077483464
1281.0,0.012723693971298546
1280.0,0.013109973071420478
1279.0,0.013518791517344378
1278.0,0.013948423797163302
1277.0,0.014410015624821155
1276.0,0.01491943744280698
1275.0,0.015485045236159796
1274.0,0.01611510825171246
1273.0,0.016825681605084537
1272.0,0.017622306989942882
1271.0,0.018481324017243415
1270.0,0.019369002619487354
1269.0,0.020269521852404222
1268.0,0.021174609296154123
1267.0,0.022063411991638214
1266.0,0.022917890422667717
1265.0,0.023738558169760768
1264.0,0.02451972588714192
1263.0,0.02523138647647856
1262.0,0.025849921584883973
1261.0,0.026380534383994347
1260.0,0.026828376354293894
1259.0,0.0271788273259363
1258.0,0.027435262024634845
1257.0,0.027643942856194967
1256.0,0.027855078501386105
1255.0,0.028088871331839384
1254.0,0.028354478602111724
1253.0,0.028668583169573547
1252.0,0.029034009592023916
1251.0,0.029430925459738175
1250.0,0.029852288382272885
1249.0,0.030316471066989842
1248.0,0.03082279332389993
1247.0,0.03132922656404227
1246.0,0.03180159915423501
1245.0,0.032249944420174065
1244.0,0.032686513620421
1243.0,0.03308758129983305
1242.0,0.03342775492845919
1241.0,0.03370865450164065
1240.0,0.033920501863768306
1239.0,0.03402012010846536
1238.0,0.03398289165631071
1237.0,0.03383653968427014
1236.0,0.033613520693715766
1235.0,0.033313065461356386
1234.0,0.03293588587632466
1233.0,0.032510763492217716
1232.0,0.03205966440427305
1231.0,0.03157612633553414
1230.0,0.031060939987280836
1229.0,0.030540337357361065
1228.0,0.030028163966940934
1227.0,0.029505962582768087
1226.0,0.02895817237359717
1225.0,0.02839507604429744
1224.0,0.027826830019348013
1223.0,0.02724690519290822
1222.0,0.026653441673426016
1221.0,0.026054786336536566
1220.0,0.02544303210614131
1219.0,0.0247918400338085
1218.0,0.024092171996797543
1217.0,0.023364534954705314
1216.0,0.022628742164917462
1215.0,0.02188905583445802
1214.0,0.021153264158370287
1213.0,0.020439072716354697
1212.0,0.019754134470486608
1211.0,0.019091982762686324
1210.0,0.01845375215318728
1209.0,0.01785318572346456
1208.0,0.01729523707948377
1207.0,0.01676694515523384
1206.0,0.016254313233327742
1205.0,0.015753865772060234
1204.0,0.015264336741972154
1203.0,0.014781842967515002
1202.0,0.014307552074800875
1201.0,0.013847524762213535
1200.0,0.013401325683097966
1199.0,0.012960990435884393
1198.0,0.012524916177332392
1197.0,0.012104516177187281
1196.0,0.011713325807034075
1195.0,0.011356787417452021
1194.0,0.011035084910568333
1193.0,0.010749290258437117
1192.0,0.010499691653751128
1191.0,0.010280862388172544
1190.0,0.010085286928671118
1189.0,0.009914216735591376
1188.0,0.009781296564750394
1187.0,0.00970212020423486
1186.0,0.009682068927901823
1185.0,0.009716785326819317
1184.0,0.00979979213004659
1183.0,0.009923578779323414
1182.0,0.010078168601730629
1181.0,0.010257373828535404
1180.0,0.010464259585420195
1179.0,0.010701676850775166
1178.0,0.010955537341462339
1177.0,0.011191906365394275
1176.0,0.01137134395720783
1175.0,0.011468257895901834
1174.0,0.011482386417432378
1173.0,0.011431756367672342
1172.0,0.011333907043582395
1171.0,0.01119900082313037
1170.0,0.01104012698962797
1169.0,0.010879557288891346
1168.0,0.010739416426199144
1167.0,0.010630446211477317
1166.0,0.010551990100459804
1165.0,0.010499609360507783
1164.0,0.010471618406263924
1163.0,0.010472126521134849
1162.0,0.010509384211375289
1161.0,0.010586597172069636
1160.0,0.010692166687531826
1159.0,0.010804164182168969
1158.0,0.010909982690664434
1157.0,0.011018263900389319
1156.0,0.01114626854104421
1155.0,0.011300422153072105
1154.0,0.011475797661687527
1153.0,0.011669714719784657
1152.0,0.011885844999515411
1151.0,0.012126268292267768
1150.0,0.012389247080813227
1149.0,0.012675158851168634
1148.0,0.012986411171389451
1147.0,0.013321696655480855
1146.0,0.013678001908404552
1145.0,0.014057096774660233
1144.0,0.014462881543942943
1143.0,0.01489433061173654
1142.0,0.015347499610991775
1141.0,0.015820775851148074
1140.0,0.016312135608751163
1139.0,0.016819522285435377
1138.0,0.017353196240673437
1137.0,0.017937843838416786
1136.0,0.01859106760870215
1135.0,0.019309604270081767
1134.0,0.02008713762663151
1133.0,0.020931175006828832
1132.0,0.021847790494713935
1131.0,0.02282483384591249
1130.0,0.023845140797353608
1129.0,0.024897001580522576
1128.0,0.02595451578917022
1127.0,0.026975135505498335
1126.0,0.027942092425074304
1125.0,0.02887959452216292
1124.0,0.02980191887644302
1123.0,0.03068722195666721
1122.0,0.03152801223655241
1121.0,0.032353997083410364
1120.0,0.033164483904481505
1119.0,0.03389008150626561
1118.0,0.03446591752123599
1117.0,0.03489345178744945
1116.0,0.035191318347312095
1115.0,0.03534773403561036
1114.0,0.03537273664672574
1113.0,0.03534728962583812
1112.0,0.03537833613204418
1111.0,0.035547613784605366
1110.0,0.03591984963581279
1109.0,0.03653800567710216
1108.0,0.03737484958141397
1107.0,0.03833889278939853
1106.0,0.0393647752843516
1105.0,0.04044916359969696
1104.0,0.041573083844160946
1103.0,0.042666232656624614
1102.0,0.04369106624020057
1101.0,0.04468197412969709
1100.0,0.04564685161992803
1099.0,0.04651502363400661
1098.0,0.04724044411201523
1097.0,0.04786298522976226
1096.0,0.04840910393696669
1095.0,0.048833559550972204
1094.0,0.0491223454692023
1093.0,0.04934458109113382
1092.0,0.04953834456557184
1091.0,0.049652337315025066
1090.0,0.04965744142491387
1089.0,0.04960622517235773
1088.0,0.04953098613334102
1087.0,0.04939833133014715
1086.0,0.04921374667623955
1085.0,0.04904778639257243
1084.0,0.04890220642694895
1083.0,0.048672461069334795
1082.0,0.04830378372127059
1081.0,0.04786605739899637
1080.0,0.047417818935793894
1079.0,0.04691868678757928
1078.0,0.04633069411540588
1077.0,0.0456854887518263
1076.0,0.04500025417695951
1075.0,0.04424621022803136
1074.0,0.04344671562315209
1073.0,0.0426900279775261
1072.0,0.041999372018735937
1071.0,0.04129811723132419
1070.0,0.040545663389108096
1069.0,0.03980114821717549
1068.0,0.03911042186228389
1067.0,0.0384365345954769
1066.0,0.03774855456449705
1065.0,0.037082538076760124
1064.0,0.03646675831809359
1063.0,0.035873204606712686
1062.0,0.03528786647604546
1061.0,0.03475094974477254
1060.0,0.03428529546946839
1059.0,0.03385503742510445
1058.0,0.03343509755308053
1057.0,0.03305518530269986
1056.0,0.032734540610026355
1055.0,0.03243752939827215
1054.0,0.032140209625740095
1053.0,0.03188638080572994
1052.0,0.031725481853371866
1051.0,0.03163832744362179
1050.0,0.03157657598924425
1049.0,0.03153051013999792
1048.0,0.03150563789862689
1047.0,0.031481961306267604
1046.0,0.03144214404625555
1045.0,0.03139335291591205
1044.0,0.03132999131803435
1043.0,0.031218653190500496
1042.0,0.031043624708994404
1041.0,0.03082628866369032
1040.0,0.03058131847107936
1039.0,0.030296809455413416
1038.0,0.029971487032918076
1037.0,0.029625016077690296
1036.0,0.029259818292918044
1035.0,0.028859587856428247
1034.0,0.028434523118603214
1033.0,0.028020062606925272
1032.0,0.027623808885284033
1031.0,0.027228178694603748
1030.0,0.026861434163477846
1029.0,0.026617948615218504
1028.0,0.026593130744937105
1027.0,0.026840036135897284
1026.0,0.027396546484945994
1025.0,0.028300671633208097
1024.0,0.029546844582599936
1023.0,0.031061099748409628
1022.0,0.032753802818589736
1021.0,0.03456689339322651
1020.0,0.036426072110517606
1019.0,0.03817258757232533
1018.0,0.039591168554237666
1017.0,0.040486841948326316
1016.0,0.04071663439413178
1015.0,0.0402288510883027
1014.0,0.03913608528553874
1013.0,0.03768657925826709
1012.0,0.03611947322688353
1011.0,0.03458065616900178
1010.0,0.033149019797781544
1009.0,0.031857708818722
1008.0,0.030682502681256857
1007.0,0.02957630218884917
1006.0,0.02853787454015143
1005.0,0.027611834356257255
1004.0,0.0268190686767346
1003.0,0.026127790335027573
1002.0,0.02549384302827936
1001.0,0.024887388072393032
1000.0,0.024278806416433416
999.0,0.02364673878384725
998.0,0.023012390266421726
997.0,0.022424813604789012
996.0,0.021898941814040097
995.0,0.021400444621973123
994.0,0.02089916284362936
993.0,0.020404676259797527
992.0,0.019938991161028027
991.0,0.019506718442692007
990.0,0.019107902495772808
989.0,0.01875207254560038
988.0,0.01843987738654526
987.0,0.01814884817132336
986.0,0.017854363454770063
985.0,0.01755527933632523
984.0,0.01727142521429529
983.0,0.01702681518208374
982.0,0.016837312648373116
981.0,0.01670037730584112
980.0,0.0165937458407981
979.0,0.016496116688714518
978.0,0.016409726338093837
977.0,0.016348633577961357
976.0,0.016306097189387577
975.0,0.01625227988345776
974.0,0.016165671320820574
973.0,0.016047244597037814
972.0,0.01590049704565939
971.0,0.015717562048587763
970.0,0.01549008201572288
969.0,0.015216699911506044
968.0,0.014896099988881494
967.0,0.01452764190923233
966.0,0.014119576808347776
965.0,0.013681770537914504
964.0,0.013213124978039403
963.0,0.012712805315811603
962.0,0.012199106515897812
961.0,0.0116989696044877
960.0,0.011223152864807715
959.0,0.010767549189120835
958.0,0.010330758831517312
957.0,0.009911813198971855
956.0,0.009498794339482267
955.0,0.009081870548506999
954.0,0.00867474156605623
953.0,0.00830320807348875
952.0,0.007972894081654983
951.0,0.007664653987101876
950.0,0.007360894142031362
949.0,0.0070611119186056726
948.0,0.006772161434935239
947.0,0.006498821741460482
946.0,0.006245214535916827
945.0,0.0060124511073435145
944.0,0.0057932029038965036
943.0,0.005578335127826975
942.0,0.005369017703182582
941.0,0.005173362067821253
940.0,0.004992223200389289
939.0,0.004817828094100824
938.0,0.004645847434804749
937.0,0.004479329425764778
936.0,0.004319434297063534
935.0,0.004159484002780309
934.0,0.003990096649059884
933.0,0.003806501190124354
932.0,0.003611361678649172
931.0,0.003413532423669749
930.0,0.0032220423204269606
929.0,0.0030397004483137986
928.0,0.002866738398173689
927.0,0.002709612246244608
926.0,0.0025760491218167654
925.0,0.002459261856061618
924.0,0.002339234919721163
923.0,0.002206233163256934
922.0,0.0020729018903337323
921.0,0.0019558356621594553
920.0,0.0018557167949317978
919.0,0.001763597869234218
918.0,0.0016753298019814428
917.0,0.0015898589961185518
916.0,0.0015034811592125573
915.0,0.0014169573989271256
914.0,0.001339256679995595
913.0,0.0012730267234678828
912.0,0.0012064751199578842
911.0,0.001133783585742414
910.0,0.0010742314053544672
909.0,0.0010525063944552705
908.0,0.0010652236299509756
907.0,0.0010849715226043943
906.0,0.001094567080973493
905.0,0.001099565351017755
904.0,0.0011074366624965037
903.0,0.0011136911096886071
902.0,0.0011130844311904864
901.0,0.0011084546983306104
900.0,0.0011004993361765306
899.0,0.0010797331993043537
898.0,0.0010351779222942687
897.0,0.0009632724925437743
896.0,0.0008667996851595729
895.0,0.0007554373346228809
894.0,0.0006493945120885861
893.0,0.0005706584963503149
892.0,0.0005251926088930305
891.0,0.000500033038734379
890.0,0.0004823050569324038
889.0,0.0004805141107780027
888.0,0.0005304550351637079
887.0,0.0006854084233046901
886.0,0.0009942907784962693
885.0,0.00147716332922573
884.0,0.002120390940239511
883.0,0.002902748319557568
882.0,0.0038291695928229993
881.0,0.004930260676103873
880.0,0.0062205216175239865
879.0,0.007665581003748666
878.0,0.009203229680862821
877.0,0.010785020443506783
876.0,0.012367865168993124
875.0,0.01385662082249687
874.0,0.015059838701608187
873.0,0.01569763242650199
872.0,0.015493623027164609
871.0,0.014367538592556989
870.0,0.01257428007603983
869.0,0.010577071712015811
868.0,0.008767993447002215
867.0,0.007325831406368274
866.0,0.006260498429494558
865.0,0.0055050026031959465
864.0,0.004967799680303805
863.0,0.004560251736141514
862.0,0.004226435705015748
861.0,0.003956161120578793
860.0,0.0037611316517126674
859.0,0.0036418861610543057
858.0,0.0035797630364940228
857.0,0.003548632438305884
856.0,0.0035257976048112573
855.0,0.003500604297091134
854.0,0.003482334000229983
853.0,0.0034934165125470804
852.0,0.0035485767315764465
851.0,0.0036448947640407084
850.0,0.0037693694714309653
849.0,0.00390090626791156
848.0,0.0040020412868863285
847.0,0.004029206087123975
846.0,0.0039658816470004125
845.0,0.003834831324633671
844.0,0.003669228060096851
843.0,0.003483774283714724
842.0,0.003278270017863058
841.0,0.0030542813979714187
840.0,0.0028214858204863025
839.0,0.002597364531029916
838.0,0.0024012570400877217
837.0,0.0022370809320687024
836.0,0.0020835693710574386
835.0,0.0019159357113265711
834.0,0.001737156077649949
833.0,0.0015714837833543278
832.0,0.0014267713999237715
831.0,0.0012843663219023922
830.0,0.0011317174409048308
829.0,0.0009835081887595368
828.0,0.000859091654808096
827.0,0.0007583933429112302
826.0,0.0006752231123409967
825.0,0.0006168502397689221
824.0,0.000589708244552168
823.0,0.000578742053390785
822.0,0.0005624942172888746
821.0,0.0005384568652552144
820.0,0.0005178175554009165
819.0,0.000505665304465424
818.0,0.0004974862214607405
817.0,0.0004868082992843803
816.0,0.0004683136061883024
815.0,0.0004399189072151824
814.0,0.00040725063360869465
813.0,0.0003805205177443878
812.0,0.00036436612423696585
811.0,0.0003567991455265748
810.0,0.0003578476078972999
809.0,0.000369504193592142
808.0,0.00038670298109185625
807.0,0.0003999293433660511
806.0,0.0004089189096019019
805.0,0.00042197801190694065
804.0,0.00043871282315201265
803.0,0.00044501116967190363
802.0,0.00042942812823099086
801.0,0.00039756152034908787
800.0,0.00037423216647575544
799.0,0.00040393228481248183
798.0,0.0005379252386286948
797.0,0.0007923050017739318
796.0,0.001113922191373181
795.0,0.0014081075866520035
794.0,0.0016088838929605893
793.0,0.001706865806788943
792.0,0.0017091651724874535
791.0,0.0016093395176346621
790.0,0.001414890554617125
789.0,0.0011706944447672021
788.0,0.0009265844258775774
787.0,0.0006972305908983963
786.0,0.00047108167096043124
785.0,0.00024382889971938382
784.0,2.6738560177083648e-05
783.0,-0.00016656385680127207
782.0,-0.00032687847305050595
781.0,-0.0004502339764313086
780.0,-0.0005421912259130721
779.0,-0.0006150618692548297
778.0,-0.0006761568641599266
777.0,-0.0007308285035178431
776.0,-0.0008006633022190381
775.0,-0.0009174745531562705
774.0,-0.0010845510032154292
773.0,-0.0012623614176339934
772.0,-0.001412889371435572
771.0,-0.0015449407453528522
770.0,-0.001695318218989078
769.0,-0.0018735689318097899
768.0,-0.0020479927760053505
767.0,-0.002185887043509931
766.0,-0.0022879316966093674
765.0,-0.002378004583904452
764.0,-0.00247456835122652
763.0,-0.0025801924259281506
762.0,-0.002687476591450721
761.0,-0.0027862110275892697
760.0,-0.002871724427371533
759.0,-0.002954482177655055
758.0,-0.0030561965852481266
757.0,-0.00318735435774529
756.0,-0.0033316267710807312
755.0,-0.003461142713411908
754.0,-0.003566480349108829
753.0,-0.003660769776257223
752.0,-0.0037519702013278887
751.0,-0.003827654415340659
750.0,-0.0038780843175598226
749.0,-0.0039177974208780275
748.0,-0.00396310962087504
747.0,-0.003997554177633715
746.0,-0.003986485160362397
745.0,-0.003925054581203539
744.0,-0.00383723334041379
743.0,-0.003709108052467937
742.0,-0.003450808249884198
741.0,-0.0029528131304947663
740.0,-0.0021678558768941578
739.0,-0.0011173245976455557
738.0,0.0001658578730791803
737.0,0.001663179687300339
736.0,0.00333688620148985
735.0,0.005109869656286389
734.0,0.006908531873058024
733.0,0.008714290765791464
732.0,0.010564036971665733
731.0,0.012524436073233128
730.0,0.014663537771254148
729.0,0.016992073220491524
728.0,0.019407428392866917
727.0,0.02173349391704779
726.0,0.023831887208794617
725.0,0.025622311829460745
724.0,0.026988247860303738
723.0,0.02776317576099053
722.0,0.027857634763640636
721.0,0.027341584061986217
720.0,0.02639245673302111
719.0,0.025221148543288115
718.0,0.024029201562314466
717.0,0.02294411974354211
716.0,0.021966798713023955
715.0,0.02102388975128193
714.0,0.02007918890886464
713.0,0.01915400156476306
712.0,0.01824921110072982
711.0,0.017325403589770937
710.0,0.016375868478695592
709.0,0.015445939023393765
708.0,0.014563590180853937
707.0,0.013713259287496685
706.0,0.012894500068547428
705.0,0.012153108153032943
704.0,0.011520728043494115
703.0,0.010958640153457298
702.0,0.01039422074446935
701.0,0.009783485638324686
700.0,0.009121989391091642
699.0,0.008434483685526687
698.0,0.0077655205749709855
697.0,0.007149609793083784
696.0,0.006578643904731875
695.0,0.0060266833243313445
694.0,0.005513737553856202
693.0,0.005095926653104269
692.0,0.0047822007348063585
691.0,0.004508564465085116
690.0,0.004208286742789655
689.0,0.0038763568687757814
688.0,0.0035427963103681313
687.0,0.0032235927324383226
686.0,0.0029404016424692085
685.0,0.002737729964087894
684.0,0.0026353984685502894
683.0,0.0025969357345777336
682.0,0.0025687624205378533
681.0,0.0025230947406904534
680.0,0.00243745466329838
679.0,0.002278220132407447
678.0,0.0020373808006506934
677.0,0.001768510205861093
676.0,0.0015476833428406528
675.0,0.0013884763640426463
674.0,0.0012406184035058596
673.0,0.001080108128476389
672.0,0.0009464475925139923
671.0,0.0009205470833763413
670.0,0.0010554179224777777
669.0,0.0012767906541655133
668.0,0.0012536313722705597
667.0,0.0008270876485685433
666.0,0.0003618927310497025
665.0,8.143271216795242e-05
664.0,-5.65001509271329e-05
663.0,-0.00014267920345635565
662.0,-0.00020671773620614675
661.0,-0.00023088199904683013
660.0,-0.00019302004572006523
659.0,-0.00013128711243816718
658.0,-0.00011783499629235833
657.0,-0.0001955726725908248
656.0,-0.0003468812777791992
655.0,-0.000533984025908471
654.0,-0.0007197907821250536
653.0,-0.000872390174907374
652.0,-0.0009761977911225475
651.0,-0.0010432205356728438
650.0,-0.001106069051796655
649.0,-0.0011956715350671873
648.0,-0.00131637544580962
647.0,-0.0014396310277599786
646.0,-0.001530841206471116
645.0,-0.0015932085522926756
644.0,-0.0016819261726474383
643.0,-0.0018458081883494133
642.0,-0.0020566326778761503
641.0,-0.002239157918153434
640.0,-0.0023618288733454375
639.0,-0.002455489560234985
638.0,-0.0025451446647844975
637.0,-0.0026024271424546705
636.0,-0.0025814551091862085
635.0,-0.0024719170924603247
634.0,-0.002304847888442693
633.0,-0.002139419677919231
632.0,-0.002060416885155014
631.0,-0.0021404823619843895
630.0,-0.0023569037761282975
629.0,-0.0025925696650070766
628.0,-0.00275614445828664
627.0,-0.0028608418357733215
626.0,-0.002967962940103982
625.0,-0.003086516574107405
624.0,-0.0031724934389480326
623.0,-0.003204348930418738
622.0,-0.003206781894548108
621.0,-0.003211171623353215
620.0,-0.0032281607210930922
619.0,-0.0032528985643089266
618.0,-0.00327926352234522
617.0,-0.0033142652284819975
616.0,-0.0033779731436623522
615.0,-0.003471236896426245
614.0,-0.003560446151404613
613.0,-0.0036315013180904313
612.0,-0.0037273604180321496
611.0,-0.003877674842866014
610.0,-0.004018259261927878
609.0,-0.00405358404200994
608.0,-0.003988222797523255
607.0,-0.003917398357720078
606.0,-0.0038822105034641216
605.0,-0.003824496517727389
604.0,-0.003718891835123299
603.0,-0.003641232040391698
602.0,-0.0036513746488748174
601.0,-0.0037067310086437363
600.0,-0.0037449211509119583
