cm-1,A
4000.0,0.00368674100538513
3999.0,0.003692675676222569
3998.0,0.0036974991375225918
3997.0,0.0037006612309646125
3996.0,0.003703272806499372
3995.0,0.0037067201807303982
3994.0,0.003711591737091423
3993.0,0.003717838594710458
3992.0,0.0037247505663193007
3991.0,0.0037306655117193897
3990.0,0.003733510575427663
3989.0,0.003732237789343376
3988.0,0.003727591086767584
3987.0,0.003721186570151878
3986.0,0.0037144525371858696
3985.0,0.003709022904110327
3984.0,0.0037072707044172423
3983.0,0.0037111461838807754
3982.0,0.0037196842556817115
3981.0,0.0037288630015695776
3980.0,0.003734926957385262
3979.0,0.003737537030234365
3978.0,0.003739217483433618
3977.0,0.0037416474228604956
3976.0,0.0037441677099686044
3975.0,0.0037457620667841417
3974.0,0.0037470424617184173
3973.0,0.003749487664350017
3972.0,0.0037528415376698425
3971.0,0.003754611513431304
3970.0,0.003752724877539982
3969.0,0.003748017548011428
3968.0,0.0037434948781176407
3967.0,0.003741525187090883
3966.0,0.0037418919979081925
3965.0,0.0037425436134024695
3964.0,0.0037420643496669918
3963.0,0.003741206263842545
3962.0,0.0037421932994854373
3961.0,0.0037460047096943144
3960.0,0.003750564320952526
3959.0,0.00375246530700702
3958.0,0.0037499308532366942
3957.0,0.0037446531157944943
3956.0,0.003740609942947262
3955.0,0.003740754446315009
3954.0,0.0037454189175787
3953.0,0.0037521994110021116
3952.0,0.003757321069096367
3951.0,0.003758039589307568
3950.0,0.0037546363234211124
3949.0,0.0037504715850883584
3948.0,0.003748745180907068
3947.0,0.0037500014422957605
3946.0,0.003752638332466293
3945.0,0.003754235346348097
3944.0,0.00375357747276577
3943.0,0.0037523405024482205
3942.0,0.003754102349918619
3941.0,0.0037611316730911124
3940.0,0.003771314085957998
3939.0,0.0037796707037770394
3938.0,0.0037824656916670535
3937.0,0.0037793638148069437
3936.0,0.0037723206978338623
3935.0,0.003762804090345974
3934.0,0.00375206935558
3933.0,0.0037430003763824055
3932.0,0.0037404146621693346
3931.0,0.0037472637778348658
3930.0,0.0037613645652293647
3929.0,0.0037768894332178833
3928.0,0.0037876111645150966
3927.0,0.003790260000195352
3926.0,0.003785566801198884
3925.0,0.003778643581080668
3924.0,0.0037761505976598962
3923.0,0.003780279183844954
3922.0,0.0037871314183298335
3921.0,0.003790957923498939
3920.0,0.003790127159871383
3919.0,0.003788107270021697
3918.0,0.0037883881835659803
3917.0,0.0037913834202830403
3916.0,0.003795673661340511
3915.0,0.0038003026939854574
3914.0,0.0038045235424849196
3913.0,0.0038069827861183752
3912.0,0.0038062872692267583
3911.0,0.0038019970027055963
3910.0,0.0037942736164872284
3909.0,0.003784059161229295
3908.0,0.0037733381740834696
3907.0,0.00376364690172339
3906.0,0.00375475252189905
3905.0,0.0037459356399888477
3904.0,0.0037399763158718676
3903.0,0.003742705750916395
3902.0,0.0037555586991552606
3901.0,0.0037714262843854224
3900.0,0.0037811638744857544
3899.0,0.003782754397839875
3898.0,0.0037811559916834953
3897.0,0.0037803924911086494
3896.0,0.003779558086675297
3895.0,0.003777219020873841
3894.0,0.0037740312843448877
3893.0,0.0037704829706634367
3892.0,0.0037646572628223184
3891.0,0.0037560707597792216
3890.0,0.003749627108556853
3889.0,0.003750147271631566
3888.0,0.0037548054186537084
3887.0,0.0037546113632915628
3886.0,0.0037467583142532243
3885.0,0.003740795300640612
3884.0,0.003745782613150326
3883.0,0.0037587757310361186
3882.0,0.0037682571449242745
3881.0,0.0037671062566185186
3880.0,0.0037608714933472245
3879.0,0.0037594161779661434
3878.0,0.0037646881207085542
3877.0,0.003770215942784203
3876.0,0.003767904067297126
3875.0,0.0037556851928643997
3874.0,0.003741459403026797
3873.0,0.003736399562639897
3872.0,0.003742334676457039
3871.0,0.003749478601542092
3870.0,0.0037499427082474594
3869.0,0.0037494742141289295
3868.0,0.003757439857457272
3867.0,0.0037718598437910347
3866.0,0.0037805655743617674
3865.0,0.003777333550332393
3864.0,0.0037691161608472534
3863.0,0.0037643667445255154
3862.0,0.0037613186305801047
3861.0,0.003754199350057622
3860.0,0.003742386514734011
3859.0,0.0037305976738614397
3858.0,0.0037250052616922295
3857.0,0.003729308432452494
3856.0,0.0037423341243245528
3855.0,0.0037587073490572913
3854.0,0.003772663704525937
3853.0,0.0037849821609914707
3852.0,0.003799744800479852
3851.0,0.0038156410935882568
3850.0,0.0038265149263862737
3849.0,0.003827545846172213
3848.0,0.003819416971113913
3847.0,0.0038066920815343006
3846.0,0.003792386954351165
3845.0,0.003777341141495974
3844.0,0.00376201475783311
3843.0,0.0037490406583521674
3842.0,0.0037437795995568005
3841.0,0.003749721493490737
3840.0,0.003762963340068377
3839.0,0.003775380929923713
3838.0,0.0037840469318044458
3837.0,0.0037924985514191686
3836.0,0.0038032789076626917
3835.0,0.0038136548500685087
3834.0,0.003817934853297025
3833.0,0.003812812798178844
3832.0,0.003801112599038724
3831.0,0.0037903756631009404
3830.0,0.003786623054347196
3829.0,0.0037904059900784963
3828.0,0.0037969533667662238
3827.0,0.0037998741804755516
3826.0,0.0037961911878691672
3825.0,0.003788650106254837
3824.0,0.003781335620831964
3823.0,0.003775779542026617
3822.0,0.003772902500241847
3821.0,0.0037770408460198446
3820.0,0.0037923328393009185
3819.0,0.0038166397843113885
3818.0,0.003840223462976981
3817.0,0.0038504786913089004
3816.0,0.0038456924072533343
3815.0,0.003840136044024668
3814.0,0.003844986780072334
3813.0,0.0038551186374134955
3812.0,0.003857773386201504
3811.0,0.003847628764559276
3810.0,0.003830804727225397
3809.0,0.0038158435739308605
3808.0,0.0038062314257678864
3807.0,0.0038029125363370697
3806.0,0.0038088378803041527
3805.0,0.0038260424091226394
3804.0,0.0038480929994267163
3803.0,0.0038608307833591605
3802.0,0.0038557136153657147
3801.0,0.0038434793486107365
3800.0,0.0038413263531134807
3799.0,0.0038517958148117223
3798.0,0.0038661140585664533
3797.0,0.0038761556627194917
3796.0,0.0038823229135566645
3795.0,0.00389004260495427
3794.0,0.0039006242109204366
3793.0,0.003909626092745548
3792.0,0.0039122978625005175
3791.0,0.003908671916267827
3790.0,0.0039025648373072434
3789.0,0.0038976572172048814
3788.0,0.003896239190732852
3787.0,0.0038999981344603647
3786.0,0.003909277825459125
3785.0,0.003921785404977783
3784.0,0.003933993397020706
3783.0,0.003944130809373423
3782.0,0.0039520308044087744
3781.0,0.003956523693580029
3780.0,0.003956084486296619
3779.0,0.0039532418771945155
3778.0,0.003954777506846505
3777.0,0.003964918105248835
3776.0,0.003980503944912064
3775.0,0.003995175026650502
3774.0,0.004006251299439143
3773.0,0.004014941276130463
3772.0,0.004020141255854238
3771.0,0.004017688249978594
3770.0,0.0040089971243731795
3769.0,0.0040046930664222454
3768.0,0.004013330946287062
3767.0,0.004032461256420816
3766.0,0.004052761799433908
3765.0,0.004067487700894589
3764.0,0.00407663595591766
3763.0,0.004082845791870975
3762.0,0.004085916733883727
3761.0,0.004085618482973306
3760.0,0.004087936030707657
3759.0,0.0041013632401809535
3758.0,0.0041259820670255885
3757.0,0.004152162871858781
3756.0,0.004171701419443622
3755.0,0.004182125909764753
3754.0,0.004184693916321977
3753.0,0.004182935162895676
3752.0,0.0041829506333857045
3751.0,0.0041878592542282725
3750.0,0.004193776162345439
3749.0,0.004198966820134282
3748.0,0.004209946187254077
3747.0,0.004232138668367151
3746.0,0.004258308556122049
3745.0,0.004273853652565053
3744.0,0.004277712426207696
3743.0,0.004284025851066379
3742.0,0.00429828371587402
3741.0,0.004311581599895919
3740.0,0.004314067545169998
3739.0,0.004307046204328602
3738.0,0.004301417496894357
3737.0,0.004306370827220188
3736.0,0.004324538442988656
3735.0,0.004353315756980428
3734.0,0.004387151398236196
3733.0,0.004416838542984659
3732.0,0.00443443601186832
3731.0,0.004441577698942343
3730.0,0.004447641541744103
3729.0,0.004458504297812998
3728.0,0.0044712396747199085
3727.0,0.004480934370558247
3726.0,0.004490641684545568
3725.0,0.0045087250357572824
3724.0,0.004537541292964406
3723.0,0.004572024773010709
3722.0,0.00460700456309225
3721.0,0.004640878506747803
3720.0,0.00467269819862891
3719.0,0.004700032650889822
3718.0,0.004720580645723243
3717.0,0.004735361575008827
3716.0,0.004749868580935626
3715.0,0.004770449884695402
3714.0,0.004800959651227962
3713.0,0.004841173965149571
3712.0,0.004886036342514233
3711.0,0.004928945063393724
3710.0,0.004967735482496188
3709.0,0.005004343595131767
3708.0,0.005038938093535487
3707.0,0.0050708310553619065
3706.0,0.00510253019158988
3705.0,0.005138905420684783
3704.0,0.005183239291148128
3703.0,0.005236189443528739
3702.0,0.005296287033301256
3701.0,0.005359303561824907
3700.0,0.005419160604670056
3699.0,0.005472491311755058
3698.0,0.005520452477327304
3697.0,0.005566100775536164
3696.0,0.00561194300204891
3695.0,0.005658645429934879
3694.0,0.005706421786684663
3693.0,0.005757822698116427
3692.0,0.005817804450144711
3691.0,0.0058898261335228195
3690.0,0.005971035898998503
3689.0,0.006053542125492723
3688.0,0.006132500156747297
3687.0,0.006211953182608898
3686.0,0.006299226431638013
3685.0,0.006394296233809461
3684.0,0.006488275516201728
3683.0,0.006573469724524148
3682.0,0.006651807544046187
3681.0,0.006730378579459361
3680.0,0.006814601421988695
3679.0,0.006908986854537381
3678.0,0.007019299087629047
3677.0,0.007145411761944114
3676.0,0.007274245841218997
3675.0,0.0073933721881150214
3674.0,0.007510217970892066
3673.0,0.00763885257358029
3672.0,0.0077782534280303834
3671.0,0.00791524490725292
3670.0,0.008044220206604825
3669.0,0.00817440627900244
3668.0,0.008315266432262693
3667.0,0.008467185394705798
3666.0,0.008626172301831103
3665.0,0.008788633312716102
3664.0,0.008951473185201592
3663.0,0.009113378490757036
3662.0,0.009277135482252945
3661.0,0.009447644418005557
3660.0,0.009628713789926741
3659.0,0.00982181131856125
3658.0,0.01002603143980166
3657.0,0.010233227011450196
3656.0,0.010429233896850326
3655.0,0.010610022866471272
3654.0,0.010789756613320994
3653.0,0.010986505222041133
3652.0,0.011206390467687045
3651.0,0.011441199715770472
3650.0,0.011679595972905877
3649.0,0.011917740096896508
3648.0,0.012156945386161225
3647.0,0.012397076678091845
3646.0,0.012640227768126585
3645.0,0.012891812851177483
3644.0,0.013153937448904857
3643.0,0.01342278905534372
3642.0,0.013693393257134782
3641.0,0.013964151042334411
3640.0,0.014234503902948366
3639.0,0.014502410523375848
3638.0,0.014768311593734018
3637.0,0.0150374792234376
3636.0,0.015313589600391118
3635.0,0.015591601487343473
3634.0,0.015864951806129193
3633.0,0.016138956754364612
3632.0,0.016430095778637178
3631.0,0.016749796632264592
3630.0,0.017084335342797928
3629.0,0.017395700432143096
3628.0,0.017668110932815295
3627.0,0.01793366292428528
3626.0,0.018225415266728853
3625.0,0.01854508101350545
3624.0,0.01887529785384077
3623.0,0.019203405360392653
3622.0,0.019532313767802824
3621.0,0.01986650630721355
3620.0,0.020194963525222848
3619.0,0.02050038252111633
3618.0,0.020786967213720906
3617.0,0.02107852833143491
3616.0,0.021389367935569715
3615.0,0.0217122279797747
3614.0,0.02202913145647257
3613.0,0.022330135406447585
3612.0,0.02262128382381613
3611.0,0.0229177026317078
3610.0,0.023228582603760515
3609.0,0.023548395103119322
3608.0,0.023863094630047137
3607.0,0.024168985093923435
3606.0,0.024477688739250377
3605.0,0.024798355666798833
3604.0,0.025126040408149808
3603.0,0.02544903873332342
3602.0,0.025761585443590015
3601.0,0.02606528058944738
3600.0,0.02636290647331809
3599.0,0.02665736274401769
3598.0,0.02695404716723057
3597.0,0.027255939492633042
3596.0,0.027556906903592103
3595.0,0.027846747021942706
3594.0,0.028124958786613894
3593.0,0.028404195111663904
3592.0,0.028698807231200933
3591.0,0.029016224829608726
3590.0,0.029352525743506008
3589.0,0.029685854105395086
3588.0,0.02998288584219309
3587.0,0.03023402938708418
3586.0,0.030471442285718787
3585.0,0.030732250974658207
3584.0,0.03102458374133058
3583.0,0.031335030259336524
3582.0,0.031650964486375444
3581.0,0.0319666268743634
3580.0,0.03227875773975858
3579.0,0.032585266438753445
3578.0,0.03288828580868281
3577.0,0.03319084751415219
3576.0,0.03349104471956434
3575.0,0.033785534499679665
3574.0,0.03407744282583918
3573.0,0.034375853052178426
3572.0,0.03468923365175636
3571.0,0.035023177587999006
3570.0,0.035376919009923596
3569.0,0.03573121270489018
3568.0,0.036046356857497755
3567.0,0.036300671335576754
3566.0,0.03652889497030656
3565.0,0.036790049566886314
3564.0,0.0371088870120187
3563.0,0.03746783557615599
3562.0,0.03783485866139889
3561.0,0.038187099946369166
3560.0,0.03851864642971164
3559.0,0.038839004385130056
3558.0,0.03916354346491225
3557.0,0.039500989638058946
3556.0,0.039848819028932204
3555.0,0.04019897276088338
3554.0,0.040543210377245356
3553.0,0.040873372785212844
3552.0,0.04118712506274372
3551.0,0.04149812641053851
3550.0,0.041830004135576304
3549.0,0.04219196826767327
3548.0,0.04256465648816084
3547.0,0.04291741198083468
3546.0,0.04323960379505523
3545.0,0.043546376105628136
3544.0,0.04385707108928641
3543.0,0.04418075226733133
3542.0,0.04452071804104183
3541.0,0.04487773265224494
3540.0,0.045246450102865335
3539.0,0.04561649154860248
3538.0,0.04597787802878387
3537.0,0.046323125238598585
3536.0,0.046649980849779005
3535.0,0.04696725215943805
3534.0,0.047292742397740284
3533.0,0.047638052076668914
3532.0,0.04799765118465512
3531.0,0.04835674653016143
3530.0,0.048705845112324335
3529.0,0.0490431447426058
3528.0,0.049370306198587906
3527.0,0.04969413473966382
3526.0,0.050025719842522506
3525.0,0.05036781808593021
3524.0,0.050708325581117014
3523.0,0.0510366616976959
3522.0,0.05136096942355353
3521.0,0.0516976413282204
3520.0,0.0520491073034239
3519.0,0.05240288010196635
3518.0,0.052749202443590264
3517.0,0.05308958937422894
3516.0,0.05342951538483097
3515.0,0.05377278906613401
3514.0,0.05412234919171695
3513.0,0.05447849202354311
3512.0,0.054835037872479904
3511.0,0.05518397856258019
3510.0,0.055524500859601214
3509.0,0.05586379778803706
3508.0,0.056211298512608025
3507.0,0.056575053191960864
3506.0,0.05695663785793818
3505.0,0.05734292320839349
3504.0,0.05770964835127539
3503.0,0.058045719946538045
3502.0,0.05837023877207308
3501.0,0.05871392549746457
3500.0,0.05908932318710253
3499.0,0.05948720196607375
3498.0,0.05989189224954021
3497.0,0.06029052065912737
3496.0,0.06067466021479523
3495.0,0.06104503287027708
3494.0,0.06141371364242222
3493.0,0.06179329569006268
3492.0,0.06218546014387796
3491.0,0.0625850303999322
3490.0,0.0629894790458745
3489.0,0.06339668448759073
3488.0,0.06380072583320796
3487.0,0.06419989807545996
3486.0,0.06460343250378874
3485.0,0.065019856732876
3484.0,0.06544250021374451
3483.0,0.06585646709431561
3482.0,0.06625717645317038
3481.0,0.06665266005746201
3480.0,0.06705133924376522
3479.0,0.06745825769471554
3478.0,0.06787910815504457
3477.0,0.06831610977597373
3476.0,0.06876063102574409
3475.0,0.0691994346617683
3474.0,0.06962883688825948
3473.0,0.07005581598284574
3472.0,0.07048786602228722
3471.0,0.07092911657343613
3470.0,0.07138242079066112
3469.0,0.07184547813656471
3468.0,0.07230757893499003
3467.0,0.07275926013923574
3466.0,0.07320306582048954
3465.0,0.07364701074495478
3464.0,0.07409138490782066
3463.0,0.07453074124811927
3462.0,0.07496590663177277
3461.0,0.07540519187922141
3460.0,0.07585485382865044
3459.0,0.07631513478607672
3458.0,0.07678263550776926
3457.0,0.07724996638688539
3456.0,0.07770781092392702
3455.0,0.07815488035396302
3454.0,0.07860229524514041
3453.0,0.07906193119212078
3452.0,0.0795352923090718
3451.0,0.08001935229643045
3450.0,0.08051444385098606
3449.0,0.08101618092154474
3448.0,0.08150795773251786
3447.0,0.08197746232258289
3446.0,0.08243686623557563
3445.0,0.08291103188848861
3444.0,0.0834083490508736
3443.0,0.08391614398812139
3442.0,0.08442174321595956
3441.0,0.08492677389116686
3440.0,0.08544059133060895
3439.0,0.08596897210878571
3438.0,0.08651112895089912
3437.0,0.08706048132611825
3436.0,0.0876073705431646
3435.0,0.0881471399956388
3434.0,0.08868523271413403
3433.0,0.08923013996274491
3432.0,0.08978385015955882
3431.0,0.09034334433777244
3430.0,0.090906954423226
3429.0,0.09147364010320644
3428.0,0.09204040617367544
3427.0,0.09260693161475184
3426.0,0.09317901175759497
3425.0,0.09376149320829241
3424.0,0.09435130082593468
3423.0,0.09494208528313165
3422.0,0.09553104692989582
3421.0,0.0961162382596116
3420.0,0.09669326401136091
3419.0,0.0972613737023839
3418.0,0.09782712092147701
3417.0,0.09839515169526582
3416.0,0.09896061371112028
3415.0,0.09951682049947111
3414.0,0.10006479422627312
3413.0,0.10060866441849982
3412.0,0.10114788259867837
3411.0,0.10168087841334383
3410.0,0.10220978312506987
3409.0,0.10273416614645803
3408.0,0.10324694651572701
3407.0,0.10374526697071766
3406.0,0.10423937126508338
3405.0,0.10474131916801656
3404.0,0.10524951873311753
3403.0,0.10575280165134505
3402.0,0.10624540337101039
3401.0,0.10672856397325867
3400.0,0.10720068071499622
3399.0,0.10765624672253211
3398.0,0.10809454810308572
3397.0,0.10852259312275327
3396.0,0.10894960484291975
3395.0,0.10938163360690453
3394.0,0.10981757063985939
3393.0,0.1102461074790297
3392.0,0.11065159765135182
3391.0,0.11102838989351199
3390.0,0.11138535518428874
3389.0,0.11173326999814101
3388.0,0.11207349982514865
3387.0,0.11240179692388913
3386.0,0.11271552114979089
3385.0,0.11301204211210691
3384.0,0.1132875444249698
3383.0,0.1135437522993015
3382.0,0.11378880917061186
3381.0,0.11402553969445484
3380.0,0.11424596563607747
3379.0,0.11444352907995005
3378.0,0.1146230145578914
3377.0,0.11479073745940588
3376.0,0.11494257680833174
3375.0,0.11507139047767305
3374.0,0.11518056279987997
3373.0,0.11528034091579353
3372.0,0.1153741385007825
3371.0,0.11545612063838932
3370.0,0.1155194327431666
3369.0,0.11556045882581344
3368.0,0.11557780108191679
3367.0,0.1155735879246465
3366.0,0.11555439863107075
3365.0,0.11552676958433031
3364.0,0.11549372387922757
3363.0,0.11545697928552859
3362.0,0.11541725655765253
3361.0,0.11537016934762039
3360.0,0.1153083370159506
3359.0,0.1152309246911124
3358.0,0.11514452792955944
3357.0,0.11505168811671998
3356.0,0.11494725177725885
3355.0,0.11483101117370167
3354.0,0.1147143962710768
3353.0,0.11460673438338034
3352.0,0.11450129953274492
3351.0,0.11438239943416739
3350.0,0.11424207653749663
3349.0,0.11408401272678115
3348.0,0.11391616100289427
3347.0,0.11374617114630622
3346.0,0.11357963084303468
3345.0,0.11341546219368594
3344.0,0.11324548827388266
3343.0,0.11306371921570889
3342.0,0.11287331723257742
3341.0,0.1126805259021466
3340.0,0.11248505254287015
3339.0,0.11228026575278438
3338.0,0.1120600106710018
3337.0,0.11182259221278294
3336.0,0.11157224764656397
3335.0,0.11131946078688218
3334.0,0.11107478693231852
3333.0,0.11083829993436053
3332.0,0.11059879405087476
3331.0,0.11034631078181635
3330.0,0.11008182188856382
3329.0,0.10981296180009144
3328.0,0.1095452267319293
3327.0,0.10927953492344684
3326.0,0.10901324702139331
3325.0,0.10874062301324357
3324.0,0.10845703154729973
3323.0,0.10816549378510393
3322.0,0.10787462644325502
3321.0,0.1075880415282791
3320.0,0.10730087009501449
3319.0,0.10700874699485377
3318.0,0.10671409637563738
3317.0,0.1064204433154734
3316.0,0.10612631106945498
3315.0,0.10582852420469696
3314.0,0.10552702543507352
3313.0,0.10522330053544761
3312.0,0.10491787202941683
3311.0,0.10461160226470213
3310.0,0.1043055315350662
3309.0,0.1039978661914623
3308.0,0.10368579099497509
3307.0,0.103371531565655
3306.0,0.10306126365390157
3305.0,0.10275673009646302
3304.0,0.1024540880971869
3303.0,0.10215293727252493
3302.0,0.1018598266754705
3301.0,0.10157960123495184
3300.0,0.10130908222087918
3299.0,0.10104251384323501
3298.0,0.10077780706601723
3297.0,0.100514245508489
3296.0,0.10024944829709857
3295.0,0.09998244663516126
3294.0,0.09971564484898825
3293.0,0.09945062902476874
3292.0,0.09918575308803863
3291.0,0.09892026709640242
3290.0,0.09865699017673406
3289.0,0.09839889197718653
3288.0,0.0981467681658766
3287.0,0.09790140914765233
3286.0,0.09766325251559817
3285.0,0.09742834170114023
3284.0,0.09718984346474074
3283.0,0.09694604404345829
3282.0,0.09670268086343455
3281.0,0.0964656548144275
3280.0,0.09623581450471384
3279.0,0.09601197538115364
3278.0,0.09579352463508395
3277.0,0.09557812499881777
3276.0,0.0953625092821803
3275.0,0.09514840164457357
3274.0,0.09494304040359026
3273.0,0.09475159031733955
3272.0,0.09457346098894982
3271.0,0.09440726660463604
3270.0,0.09425360496157995
3269.0,0.09411107609822084
3268.0,0.09397597848564494
3267.0,0.09384957642445876
3266.0,0.09374072426143136
3265.0,0.09365757877517823
3264.0,0.09360019576584847
3263.0,0.09356348833695452
3262.0,0.09354307987509479
3261.0,0.09353571414758452
3260.0,0.09353872636174043
3259.0,0.09355300814736926
3258.0,0.09358322463285293
3257.0,0.0936315782111026
3256.0,0.09369343919181616
3255.0,0.09376114093356155
3254.0,0.09382979986517798
3253.0,0.09389826887162445
3252.0,0.0939674171637703
3251.0,0.09403863888798515
3250.0,0.09411066528120308
3249.0,0.09417608893388743
3248.0,0.09422339543199137
3247.0,0.09424349872900616
3246.0,0.09423292057944553
3245.0,0.0941921701045878
3244.0,0.09412469584155861
3243.0,0.09403618434778016
3242.0,0.09393006751886675
3241.0,0.09380356456743867
3240.0,0.09365166265704902
3239.0,0.09347392616906214
3238.0,0.09327319533603869
3237.0,0.09304944109510517
3236.0,0.09280099459561922
3235.0,0.09253117993085115
3234.0,0.09224724725894183
3233.0,0.09195223198979002
3232.0,0.09164346314651325
3231.0,0.09131920032850704
3230.0,0.09098089342377763
3229.0,0.09062876559635454
3228.0,0.09026154134026758
3227.0,0.08988147363662333
3226.0,0.0894937292129883
3225.0,0.08909988983663655
3224.0,0.08869779061402708
3223.0,0.08828825964798317
3222.0,0.0878754652323298
3221.0,0.0874594750806125
3220.0,0.08703560833266885
3219.0,0.08660398218684878
3218.0,0.08617344894958327
3217.0,0.08575250909842916
3216.0,0.08534099218475326
3215.0,0.08493326293938469
3214.0,0.08452497838229561
3213.0,0.08411412161285588
3212.0,0.08370042810033977
3211.0,0.08328769781059474
3210.0,0.08288308016030665
3209.0,0.08249043986689784
3208.0,0.08210678897168733
3207.0,0.08172720194201417
3206.0,0.08134965219183583
3205.0,0.08097269208720739
3204.0,0.08059279231697129
3203.0,0.08020823055543116
3202.0,0.07982299659309629
3201.0,0.0794427422318347
3200.0,0.0790679241861804
3199.0,0.07869361233166239
3198.0,0.07831513906812934
3197.0,0.07793212576684382
3196.0,0.07754813130450333
3195.0,0.07716806775934722
3194.0,0.07679497991509514
3193.0,0.07642778440701724
3192.0,0.0760624014516956
3191.0,0.075695408065349
3190.0,0.07532598507932552
3189.0,0.07495498672489553
3188.0,0.07458415174322292
3187.0,0.07421604045585763
3186.0,0.07385205725315717
3185.0,0.0734899796433757
3184.0,0.07312590068831287
3183.0,0.0727592537334372
3182.0,0.07239326542568515
3181.0,0.07202950721116615
3180.0,0.0716648019244563
3179.0,0.07129522885509146
3178.0,0.07092134448861497
3177.0,0.07054768643353111
3176.0,0.07017797827396585
3175.0,0.0698119358145116
3174.0,0.06944625410018825
3173.0,0.06907820750516226
3172.0,0.06870870854282676
3171.0,0.06834150401418052
3170.0,0.0679785112582781
3169.0,0.06761683208554765
3168.0,0.06725205958627464
3167.0,0.06688374813812853
3166.0,0.06651554047823438
3165.0,0.06615061829417998
3164.0,0.06578925711797237
3163.0,0.06543021877028465
3162.0,0.06507197036159156
3161.0,0.06471253656335196
3160.0,0.06435073318127425
3159.0,0.06398817358824029
3158.0,0.06362832282668039
3157.0,0.06327351654599793
3156.0,0.0629241545903666
3155.0,0.06257929664005103
3154.0,0.062235320525960154
3153.0,0.061885579376279
3152.0,0.061525636213818805
3151.0,0.06115915874874007
3150.0,0.06079512705381799
3149.0,0.06043833333057973
3148.0,0.06008582367282069
3147.0,0.059733205203721246
3146.0,0.05938038822064341
3145.0,0.05902977819914594
3144.0,0.05868264617265685
3143.0,0.058339334841990234
3142.0,0.057999841792763684
3141.0,0.05766169767169669
3140.0,0.05731985027720567
3139.0,0.05697191342940977
3138.0,0.05662218236777717
3137.0,0.056277327191023144
3136.0,0.055938826741663485
3135.0,0.05560210389437966
3134.0,0.05526271492283483
3133.0,0.05492145679323602
3132.0,0.05458303622850215
3131.0,0.05425090876845031
3130.0,0.05392403631461054
3129.0,0.05359832946188309
3128.0,0.05327134361395318
3127.0,0.052945294113097834
3126.0,0.05262403565917776
3125.0,0.052306935771011163
3124.0,0.05198781378183309
3123.0,0.05166151332723661
3122.0,0.05133044432109655
3121.0,0.05100271288811304
3120.0,0.05068411693476518
3119.0,0.05037305460006983
3118.0,0.05006256832453503
3117.0,0.049746451037999136
3116.0,0.04942405135175419
3115.0,0.04910050655676361
3114.0,0.048782428232426546
3113.0,0.048472419891129076
3112.0,0.048167533620504785
3111.0,0.04786296755238711
3110.0,0.047556549176168535
3109.0,0.04724950353475853
3108.0,0.046944016231358736
3107.0,0.04664141886523758
3106.0,0.04634247874282607
3105.0,0.046047842856100724
3104.0,0.045757193754926685
3103.0,0.04546818864394335
3102.0,0.04517720859790848
3101.0,0.04488230072460257
3100.0,0.04458562229033049
3099.0,0.04429170170381083
3098.0,0.044002409357607596
3097.0,0.043714901972477335
3096.0,0.04342563706951942
3095.0,0.04313537126692117
3094.0,0.0428482025710753
3093.0,0.04256601086912794
3092.0,0.04228650006411546
3091.0,0.04200701217605447
3090.0,0.041727780730070045
3089.0,0.04145052172799814
3088.0,0.04117573594251553
3087.0,0.04090289532400608
3086.0,0.04063196422760086
3085.0,0.04036315448588864
3084.0,0.040096116357872656
3083.0,0.03983040751785116
3082.0,0.0395658928977921
3081.0,0.0393017871690612
3080.0,0.03903659106331918
3079.0,0.038770478224500964
3078.0,0.03850671673725844
3077.0,0.03824897650364702
3076.0,0.037997295910434395
3075.0,0.03774788404049028
3074.0,0.03749681540915121
3073.0,0.03724280428333648
3072.0,0.03698677455876821
3071.0,0.036730319943866226
3070.0,0.03647544443157255
3069.0,0.03622514709743231
3068.0,0.035982336090956524
3067.0,0.03574643379714874
3066.0,0.035511095602673355
3065.0,0.0352677260383256
3064.0,0.03501388306301108
3063.0,0.034757551337553
3062.0,0.03451054154061792
3061.0,0.0342775825561911
3060.0,0.0340533201885397
3059.0,0.03382956213052611
3058.0,0.0336026676278664
3057.0,0.03337302840517125
3056.0,0.033141561384645024
3055.0,0.032909743182708215
3054.0,0.03268127534831695
3053.0,0.03245987175653471
3052.0,0.03224491626997681
3051.0,0.03203121292807892
3050.0,0.03181330532349975
3049.0,0.031589487115921557
3048.0,0.031362184386844835
3047.0,0.03113575405463394
3046.0,0.030913731424900854
3045.0,0.030697033281821454
3044.0,0.030484394566496938
3043.0,0.030274461842088703
3042.0,0.030066684307366955
3041.0,0.029860420199446153
3040.0,0.029654798170826644
3039.0,0.0294501044717427
3038.0,0.02924759126886457
3037.0,0.02904711735824439
3036.0,0.028846819851542475
3035.0,0.02864611233291145
3034.0,0.028446795096096555
3033.0,0.028249510810806303
3032.0,0.028051710844992778
3031.0,0.0278516436130188
3030.0,0.02765272181344847
3029.0,0.027460525973813297
3028.0,0.02727669977657898
3027.0,0.02709845907049567
3026.0,0.02692293180254806
3025.0,0.026748819638168997
3024.0,0.026574286208165036
3023.0,0.02639702859604345
3022.0,0.026217319068287958
3021.0,0.026038646421740544
3020.0,0.025864267494558377
3019.0,0.025694717501092007
3018.0,0.02552877762479247
3017.0,0.025365294943377945
3016.0,0.02520396191136776
3015.0,0.025045733864510693
3014.0,0.02489239610283251
3013.0,0.024744129073180854
3012.0,0.024598183619777298
3011.0,0.024452078084961474
3010.0,0.024307656281221002
3009.0,0.02416992070891106
3008.0,0.02404161557938936
3007.0,0.023920837661453045
3006.0,0.02380354505640208
3005.0,0.02368645243336205
3004.0,0.023567775083668908
3003.0,0.023447318448091538
3002.0,0.023326398056230255
3001.0,0.023206149703940585
3000.0,0.023085861063598084
2999.0,0.02296415174561669
2998.0,0.022840867040056896
2997.0,0.02271570684548213
2996.0,0.022585489209666406
2995.0,0.022445652669877417
2994.0,0.022294781210640685
2993.0,0.022135452606912537
2992.0,0.021970048138165332
2991.0,0.021798003199480078
2990.0,0.02161771039412334
2989.0,0.02142937795097221
2988.0,0.021235329696297635
2987.0,0.02103937268091213
2986.0,0.02084659104417498
2985.0,0.020661927810355394
2984.0,0.02048757163624634
2983.0,0.02032201117574453
2982.0,0.02016193056253281
2981.0,0.02000471089225274
2980.0,0.019849880760280342
2979.0,0.019699755824185674
2978.0,0.019558067791622474
2977.0,0.019426171138622543
2976.0,0.019300593777482663
2975.0,0.01917563981375073
2974.0,0.019048360856132294
2973.0,0.01891940501506447
2972.0,0.018790022550333674
2971.0,0.018660333783371102
2970.0,0.018530446143723605
2969.0,0.018400862695180834
2968.0,0.018271629860459736
2967.0,0.01814319809547027
2966.0,0.018018301507676124
2965.0,0.017901075590594603
2964.0,0.0177934632304712
2963.0,0.017693730693906187
2962.0,0.017598003426965346
2961.0,0.01750214828812906
2960.0,0.017403228092369646
2959.0,0.017301887642751725
2958.0,0.017203287068194992
2957.0,0.017112930839900915
2956.0,0.017031341356175362
2955.0,0.016954185048839505
2954.0,0.016877412144284187
2953.0,0.01680012415981782
2952.0,0.016723271023553955
2951.0,0.0166481239695278
2950.0,0.01657573066008053
2949.0,0.01650514803521116
2948.0,0.01643192019948818
2947.0,0.01635078176425752
2946.0,0.01625978210227076
2945.0,0.01616011992237282
2944.0,0.016052433114567645
2943.0,0.01593613984072158
2942.0,0.015811855531745373
2941.0,0.015681172695181766
2940.0,0.015543760400934989
2939.0,0.015397715976526791
2938.0,0.015243794932169583
2937.0,0.015086770803265627
2936.0,0.014932104670566876
2935.0,0.014783188989607282
2934.0,0.014641836047443962
2933.0,0.014508428381664355
2932.0,0.014380935509809714
2931.0,0.014256170688054673
2930.0,0.014132471178562804
2929.0,0.014009357297967538
2928.0,0.01388568721950647
2927.0,0.013761070575303878
2926.0,0.013638277515592694
2925.0,0.013520405752955513
2924.0,0.013406061286830938
2923.0,0.013291416590812127
2922.0,0.01317660864270415
2921.0,0.01306629385114229
2920.0,0.012963672606333139
2919.0,0.012868326093222793
2918.0,0.012779891222803872
2917.0,0.012699626828753138
2916.0,0.01262786858667225
2915.0,0.012563217495321145
2914.0,0.012504537426938819
2913.0,0.012450404144459894
2912.0,0.012396764647201023
2911.0,0.012338836913139528
2910.0,0.012275625584830883
2909.0,0.012209924238399714
2908.0,0.012143999597695642
2907.0,0.01207790533566423
2906.0,0.012011900639416673
2905.0,0.011946824773448883
2904.0,0.011881706237519534
2903.0,0.011814208295353807
2902.0,0.011744056040537684
2901.0,0.01167339100510933
2900.0,0.011603750599142818
2899.0,0.011535456733786555
2898.0,0.011469644370638401
2897.0,0.011407243553656162
2896.0,0.011345660936534599
2895.0,0.011280574220815152
2894.0,0.011211864171860009
2893.0,0.011144652163233579
2892.0,0.011083262165012077
2891.0,0.011027049668993505
2890.0,0.010973411363207265
2889.0,0.010921395978033582
2888.0,0.010870874602836382
2887.0,0.010820771143429043
2886.0,0.010770000425870162
2885.0,0.01071861679910311
2884.0,0.0106668306303773
2883.0,0.010614387751268066
2882.0,0.010561293580445549
2881.0,0.010507247069766962
2880.0,0.010450053274846447
2879.0,0.010386873171718554
2878.0,0.010317621721899532
2877.0,0.010245088521784795
2876.0,0.010171791531860095
2875.0,0.010099006417068977
2874.0,0.01002889548820821
2873.0,0.009964280984157456
2872.0,0.009904845840348672
2871.0,0.009846117594939835
2870.0,0.009783777140970949
2869.0,0.009717200033606474
2868.0,0.00964842166007032
2867.0,0.009579795130421235
2866.0,0.009513419112783124
2865.0,0.009450316104349191
2864.0,0.009388840831791397
2863.0,0.009325657562334241
2862.0,0.009259446665621505
2861.0,0.009192424887016099
2860.0,0.009127601007033047
2859.0,0.009066062922111795
2858.0,0.00900679575952537
2857.0,0.008947484628169671
2856.0,0.008885809794763163
2855.0,0.008821937614287388
2854.0,0.008759435423061948
2853.0,0.008701550502568088
2852.0,0.008647588776341239
2851.0,0.008595330751721591
2850.0,0.00854596169386124
2849.0,0.008503411954545749
2848.0,0.008468939511680368
2847.0,0.008439539715286886
2846.0,0.00841139215368997
2845.0,0.008381667131802122
2844.0,0.008347808629755676
2843.0,0.0083086540166188
2842.0,0.008266592423531428
2841.0,0.008225639044439941
2840.0,0.008186865780091073
2839.0,0.008148127746757518
2838.0,0.008108125725518918
2837.0,0.008068044826710767
2836.0,0.00802885500531077
2835.0,0.007989794435051973
2834.0,0.007950343021876796
2833.0,0.007911352388270721
2832.0,0.007873280142594525
2831.0,0.007834943810121906
2830.0,0.007794674612380915
2829.0,0.0077516424921606954
2828.0,0.007706480523405616
2827.0,0.007661887722404053
2826.0,0.007621393146836533
2825.0,0.007585726830661686
2824.0,0.007551353036048906
2823.0,0.007514706982117112
2822.0,0.007476804728734685
2821.0,0.00744099089048238
2820.0,0.00740754837058049
2819.0,0.007373811191379935
2818.0,0.0073386160957138605
2817.0,0.007303171562554811
2816.0,0.0072679810153369615
2815.0,0.007232325232024864
2814.0,0.007196675250192535
2813.0,0.007162354996044936
2812.0,0.0071287643027566
2811.0,0.007093939066205381
2810.0,0.00705783974440639
2809.0,0.007022338246954691
2808.0,0.00698824151991778
2807.0,0.006955079160874186
2806.0,0.006923257134122349
2805.0,0.006893190285424541
2804.0,0.0068627615249247115
2803.0,0.006829290415529242
2802.0,0.006793873526398814
2801.0,0.006760312012222717
2800.0,0.006729815886444926
2799.0,0.006700015309388417
2798.0,0.006669247832853453
2797.0,0.006638365749352979
2796.0,0.00660798948777073
2795.0,0.006577478772814344
2794.0,0.006547022721378002
2793.0,0.00651744190501088
2792.0,0.006487607449339633
2791.0,0.006455496495407107
2790.0,0.006422272627295394
2789.0,0.006391900722707956
2788.0,0.006366074766943197
2787.0,0.006342446907693427
2786.0,0.006318434501979415
2785.0,0.00629381814499908
2784.0,0.006268870751377189
2783.0,0.006243032351979242
2782.0,0.0062163044051557126
2781.0,0.006189367947395112
2780.0,0.006161884103156675
2779.0,0.00613317524371457
2778.0,0.006104647156180664
2777.0,0.006078628580065023
2776.0,0.006054658696551352
2775.0,0.006029820672025755
2774.0,0.0060029702736177455
2773.0,0.0059757830586246495
2772.0,0.005949593529898657
2771.0,0.005924388989289987
2770.0,0.005900983755693017
2769.0,0.005880697834401666
2768.0,0.005862233870933734
2767.0,0.005842097840125658
2766.0,0.005818956540459114
2765.0,0.0057946366099910634
2764.0,0.005770294874510527
2763.0,0.0057449669646130385
2762.0,0.005718805497095761
2761.0,0.0056945515519749345
2760.0,0.005674315333710238
2759.0,0.005656962778416951
2758.0,0.005639635998458386
2757.0,0.005620074596255393
2756.0,0.005597195606665773
2755.0,0.005571793400270166
2754.0,0.00554699906957928
2753.0,0.005525717523706217
2752.0,0.005507331280138154
2751.0,0.005488818016329852
2750.0,0.005468763744421845
2749.0,0.005448090165893948
2748.0,0.005427448035950582
2747.0,0.005406794864462343
2746.0,0.005387177822164322
2745.0,0.005369907749586304
2744.0,0.005354078822835987
2743.0,0.005337717910964445
2742.0,0.005321131802393507
2741.0,0.005306114058986827
2740.0,0.0052921009449670015
2739.0,0.005276327691519033
2738.0,0.005257749484359642
2737.0,0.0052378018374180865
2736.0,0.005217483300957103
2735.0,0.00519690541883737
2734.0,0.005177689156611033
2733.0,0.005162212769046355
2732.0,0.00514986204433097
2731.0,0.005137026170315663
2730.0,0.005121235779143189
2729.0,0.005102901594084712
2728.0,0.0050833122906150776
2727.0,0.0050639979054278635
2726.0,0.005047662233886008
2725.0,0.005035975996611204
2724.0,0.0050260155563272004
2723.0,0.0050121611163406795
2722.0,0.004992304734135212
2721.0,0.004969625267604705
2720.0,0.004948227395410353
2719.0,0.004929958386693424
2718.0,0.004915147913372403
2717.0,0.004903045663980041
2716.0,0.004891212525361286
2715.0,0.00487741637276703
2714.0,0.004862472225613875
2713.0,0.0048487312020974735
2712.0,0.004836201104047458
2711.0,0.004823034433606193
2710.0,0.004809256870204572
2709.0,0.004796570075974145
2708.0,0.004784899620523318
2707.0,0.0047725795016382135
2706.0,0.004759512572563287
2705.0,0.004746610550200695
2704.0,0.00473250861169137
2703.0,0.00471489364987401
2702.0,0.0046951407538148625
2701.0,0.00467764353299387
2700.0,0.004664301183930184
2699.0,0.004653293067592973
2698.0,0.004643379801572252
2697.0,0.004635440561647365
2696.0,0.004629169897407421
2695.0,0.0046222288385188715
2694.0,0.004613593418418376
2693.0,0.004604286526094901
2692.0,0.00459419680252821
2691.0,0.0045816660400945595
2690.0,0.004567048672159581
2689.0,0.004553346405325015
2688.0,0.0045422207559773645
2687.0,0.004532132546691019
2686.0,0.0045211005427554
2685.0,0.004508783528286696
2684.0,0.004495698173913334
2683.0,0.004482986820402938
2682.0,0.00447286576373613
2681.0,0.004466392976827946
2680.0,0.0044609300733658465
2679.0,0.004452819623788969
2678.0,0.004442146422122607
2677.0,0.004431778666507971
2676.0,0.004422383087323675
2675.0,0.004412116093891504
2674.0,0.004400890561743123
2673.0,0.004390939967245954
2672.0,0.004383132216994157
2671.0,0.004376407178801091
2670.0,0.004370905025133414
2669.0,0.004367955694545001
2668.0,0.004367040386009954
2667.0,0.004366756342443042
2666.0,0.004368781183225647
2665.0,0.00437667309941962
2664.0,0.004390247059809005
2663.0,0.004405028153154056
2662.0,0.004417698143121179
2661.0,0.004428512206963816
2660.0,0.004438270408101521
2659.0,0.004447073096831914
2658.0,0.004456494966412923
2657.0,0.004468447909918374
2656.0,0.004480795699571852
2655.0,0.004488203945013602
2654.0,0.004488618563993935
2653.0,0.004485392726648524
2652.0,0.004481994361455248
2651.0,0.004478382913485485
2650.0,0.004473741900231828
2649.0,0.004469070827813594
2648.0,0.004465690973393722
2647.0,0.004464188759639128
2646.0,0.004465506381794493
2645.0,0.004469862927347722
2644.0,0.004474342093074703
2643.0,0.0044751091458594214
2642.0,0.004472257208903881
2641.0,0.0044687846499714716
2640.0,0.0044651424475736145
2639.0,0.004459552620722289
2638.0,0.004453619146040061
2637.0,0.004451987219185026
2636.0,0.004455155817945967
2635.0,0.004457735859929305
2634.0,0.004455743477257373
2633.0,0.0044510038672109535
2632.0,0.0044467522845629505
2631.0,0.004443257467485069
2630.0,0.004439594634007401
2629.0,0.004435796641273465
2628.0,0.00443137516079871
2627.0,0.004425263432627992
2626.0,0.004418405684608225
2625.0,0.004413042571515001
2624.0,0.004408888413215544
2623.0,0.004403824001719891
2622.0,0.004398488408334951
2621.0,0.004395640363586945
2620.0,0.004394631707320281
2619.0,0.004391522700998205
2618.0,0.00438552963910353
2617.0,0.004380499341572666
2616.0,0.004378895680492569
2615.0,0.004378727580911007
2614.0,0.004377199876285301
2613.0,0.004372938873742775
2612.0,0.00436443436433266
2611.0,0.004351424089835521
2610.0,0.004338565743185988
2609.0,0.004332632710119993
2608.0,0.004334669205481283
2607.0,0.004339190891847812
2606.0,0.004341224067919149
2605.0,0.004339540595223439
2604.0,0.004333750262589469
2603.0,0.0043240412170377105
2602.0,0.004314058807139612
2601.0,0.0043082529234657494
2600.0,0.004305774779186988
2599.0,0.004302288126051672
2598.0,0.004297409094782334
2597.0,0.0042943937710937675
2596.0,0.004292907524018401
2595.0,0.004288808886110193
2594.0,0.004281371881643543
2593.0,0.004274178161378392
2592.0,0.004268919865997866
2591.0,0.004264871108762841
2590.0,0.004263979591902553
2589.0,0.004268924272065162
2588.0,0.004275977737119591
2587.0,0.004277769470315283
2586.0,0.004273651709227009
2585.0,0.00426952552574708
2584.0,0.004267190439142853
2583.0,0.004262394171714173
2582.0,0.004254250765249476
2581.0,0.004247556571096433
2580.0,0.004243847960336257
2579.0,0.004238985933864516
2578.0,0.004231924762260982
2577.0,0.004227350902993796
2576.0,0.004226798398040874
2575.0,0.00422514309697637
2574.0,0.004219163992723327
2573.0,0.004212405960252316
2572.0,0.004208721948381502
2571.0,0.0042078764493461195
2570.0,0.004209699195323057
2569.0,0.004215227551643301
2568.0,0.0042213509246537915
2567.0,0.00422175316680016
2566.0,0.004216039039834376
2565.0,0.004211180400352933
2564.0,0.004211659954645185
2563.0,0.004214932484740507
2562.0,0.004217907514005225
2561.0,0.0042200048434033735
2560.0,0.004218271311758729
2559.0,0.004208292700399512
2558.0,0.004192851104259167
2557.0,0.004181456346239408
2556.0,0.0041780761085732695
2555.0,0.004177123908460165
2554.0,0.004174772833067108
2553.0,0.00417572369227746
2552.0,0.004184270363706859
2551.0,0.0041963631457113725
2550.0,0.004205280682208945
2549.0,0.004208992711982149
2548.0,0.004208259135634
2547.0,0.004203648284389128
2546.0,0.004198056945221358
2545.0,0.004196178162587813
2544.0,0.004197916259440068
2543.0,0.004197791123829066
2542.0,0.0041935827391268565
2541.0,0.004189814835251989
2540.0,0.00419024708607613
2539.0,0.004193178525658781
2538.0,0.004196558402036928
2537.0,0.004201097044005407
2536.0,0.00420568512568847
2535.0,0.004206194555267526
2534.0,0.0042018803253941325
2533.0,0.004197490401273045
2532.0,0.00419687492279182
2531.0,0.004200084670133943
2530.0,0.004207805849531058
2529.0,0.004221588910134169
2528.0,0.004237922607006549
2527.0,0.004249247434543412
2526.0,0.00425313965439368
2525.0,0.004253785804769708
2524.0,0.00425286163780844
2523.0,0.004247066138273646
2522.0,0.004237211611276913
2521.0,0.004231296127705563
2520.0,0.004234325035412566
2519.0,0.004241733313198147
2518.0,0.004246704764034596
2517.0,0.004247980950661486
2516.0,0.004247085794180001
2515.0,0.004244157917899511
2514.0,0.004240497602206903
2513.0,0.00423986305104033
2512.0,0.004243635480048822
2511.0,0.004248840855887381
2510.0,0.004252726900000379
2509.0,0.004254581367226401
2508.0,0.004252333447021284
2507.0,0.00424367243449487
2506.0,0.0042320582478037735
2505.0,0.004225161142573746
2504.0,0.004225281629702927
2503.0,0.00422728084393809
2502.0,0.004227486625397334
2501.0,0.00422824291032658
2500.0,0.0042321314740592225
2499.0,0.004238263742452606
2498.0,0.004245936015484852
2497.0,0.004255332709780343
2496.0,0.004262957180241488
2495.0,0.004263246254935208
2494.0,0.0042568660474288965
2493.0,0.004251124822726381
2492.0,0.004250484479720963
2491.0,0.004253045799171734
2490.0,0.004257327753886548
2489.0,0.004264652511461206
2488.0,0.004272895610960099
2487.0,0.004276079545794305
2486.0,0.0042734496522481465
2485.0,0.004271787275575993
2484.0,0.0042752242588376685
2483.0,0.004279143966009395
2482.0,0.004277612521162892
2481.0,0.004271243725768223
2480.0,0.004264651409276617
2479.0,0.0042611033522520474
2478.0,0.00426209865461229
2477.0,0.004267472946857831
2476.0,0.004274111862031828
2475.0,0.004279062731904895
2474.0,0.0042844949062438
2473.0,0.0042943769335144185
2472.0,0.004306538889203551
2471.0,0.004314637785116051
2470.0,0.004317991538846464
2469.0,0.004322091877764189
2468.0,0.004328940597074993
2467.0,0.004334878970157485
2466.0,0.004339134778743379
2465.0,0.004346090994509007
2464.0,0.0043567499575034785
2463.0,0.004365864965438777
2462.0,0.0043705833186067945
2461.0,0.004374989289957398
2460.0,0.0043832029561006155
2459.0,0.004394440386647322
2458.0,0.004407395937949447
2457.0,0.004422940987433644
2456.0,0.004439766947903298
2455.0,0.004453415449964877
2454.0,0.00446215743547454
2453.0,0.004468384028234363
2452.0,0.004472739722908678
2451.0,0.004473260002261168
2450.0,0.004471991494050326
2449.0,0.004475557527329073
2448.0,0.004486510095916549
2447.0,0.004499959536512287
2446.0,0.004510548670823448
2445.0,0.0045167836022555734
2444.0,0.004517558913244191
2443.0,0.004511725026545138
2442.0,0.004503114821291458
2441.0,0.004499026594539255
2440.0,0.0045013394943773455
2439.0,0.004505503708262785
2438.0,0.004509931030065238
2437.0,0.004518872662705392
2436.0,0.004533230695218355
2435.0,0.004545821452108836
2434.0,0.004549848905656814
2433.0,0.004546745218608155
2432.0,0.004542263823716668
2431.0,0.004539350417965389
2430.0,0.0045376378863729635
2429.0,0.004536102271041969
2428.0,0.004534358692145626
2427.0,0.00453444744907878
2426.0,0.004541005217617802
2425.0,0.004555307937087938
2424.0,0.004570337517636774
2423.0,0.004577706820358151
2422.0,0.004578622770460686
2421.0,0.004581421626980358
2420.0,0.004589138707688378
2419.0,0.004597036751997797
2418.0,0.004602098626816059
2417.0,0.004606872294209495
2416.0,0.004613190209188498
2415.0,0.004619633579842296
2414.0,0.004626421854016999
2413.0,0.004635843258841605
2412.0,0.004646587865153257
2411.0,0.004654098756959014
2410.0,0.00465736209115307
2409.0,0.004658986747593102
2408.0,0.004658276340929784
2407.0,0.004651411340342818
2406.0,0.00463919651706281
2405.0,0.004627466324127872
2404.0,0.004619311872919492
2403.0,0.004613918802042203
2402.0,0.004612859670470352
2401.0,0.004619499989494389
2400.0,0.004631423728517034
2399.0,0.004641372790707452
2398.0,0.0046471553130008
2397.0,0.004653347362548417
2396.0,0.004661915448723497
2395.0,0.0046687996052437635
2394.0,0.004671596019258631
2393.0,0.004673201670803424
2392.0,0.004675812728112322
2391.0,0.004677834186823927
2390.0,0.004678391755125101
2389.0,0.004678866279196273
2388.0,0.004678519270406868
2387.0,0.004674411246958947
2386.0,0.004666644267185845
2385.0,0.004657904758421234
2384.0,0.004647687273616575
2383.0,0.004633749976676335
2382.0,0.004619681185498455
2381.0,0.004613337516506069
2380.0,0.004615664575462696
2379.0,0.0046186895445467675
2378.0,0.004618454252059423
2377.0,0.004621131305040178
2376.0,0.004631316226470666
2375.0,0.004643140139330863
2374.0,0.004649231557851454
2373.0,0.00465040067565351
2372.0,0.0046495866953870455
2371.0,0.0046454035843359175
2370.0,0.00463958508189893
2369.0,0.004639868297901052
2368.0,0.004647588589977433
2367.0,0.004655335558319482
2366.0,0.004664825731846356
2365.0,0.004689309048847032
2364.0,0.004726060023423104
2363.0,0.004751572981372242
2362.0,0.00475517870790558
2361.0,0.004753017097493118
2360.0,0.004762454247724489
2359.0,0.0047783507714357415
2358.0,0.004790710465001055
2357.0,0.004802497399347023
2356.0,0.004813671844101076
2355.0,0.004815565715331096
2354.0,0.004807656235259431
2353.0,0.004807975662490439
2352.0,0.004831309820563885
2351.0,0.004871650238426889
2350.0,0.004917434534550244
2349.0,0.004959276064805038
2348.0,0.0049915283679107594
2347.0,0.005010608536121642
2346.0,0.005021768135602277
2345.0,0.005039654368850133
2344.0,0.005065955324871163
2343.0,0.005091498949313952
2342.0,0.005113939880000578
2341.0,0.005143022606662183
2340.0,0.005179148342750006
2339.0,0.005207004705583482
2338.0,0.0052175072547541645
2337.0,0.005220390660259212
2336.0,0.005228091712174681
2335.0,0.005241697472748863
2334.0,0.005256485171303922
2333.0,0.00527201201297984
2332.0,0.00528773319585301
2331.0,0.005298640876225126
2330.0,0.005311534415463979
2329.0,0.005346787762074991
2328.0,0.00542842362250854
2327.0,0.005562453691963577
2326.0,0.0057282923869696025
2325.0,0.005884439427678618
2324.0,0.005983340991722461
2323.0,0.006007527485158905
2322.0,0.005983602317184152
2321.0,0.0059567910390692785
2320.0,0.0059463499038989185
2319.0,0.00594313004247818
2318.0,0.005939463042717552
2317.0,0.005940318364311874
2316.0,0.005948780694825858
2315.0,0.005958033049317314
2314.0,0.005964764730140554
2313.0,0.005974248090370141
2312.0,0.0059903905957808985
2311.0,0.006009188375696559
2310.0,0.006028586226080489
2309.0,0.006052822819115547
2308.0,0.006084184017455296
2307.0,0.006118929450442776
2306.0,0.006153640522435092
2305.0,0.006188275980097604
2304.0,0.0062207783350954025
2303.0,0.006248154908819043
2302.0,0.006273509967526623
2301.0,0.006303486813049074
2300.0,0.006338118111010213
2299.0,0.006371388387129764
2298.0,0.006403211743829884
2297.0,0.006439559460536242
2296.0,0.006480853555926998
2295.0,0.006520347019896913
2294.0,0.006557082392138789
2293.0,0.0065990182553523034
2292.0,0.006650173499321891
2291.0,0.006705065500433043
2290.0,0.006758869632672613
2289.0,0.006813169094412623
2288.0,0.006866850420879153
2287.0,0.006911628952490018
2286.0,0.006941018504337067
2285.0,0.006956046455810486
2284.0,0.006959178896853138
2283.0,0.0069523340557992135
2282.0,0.006943126354913952
2281.0,0.006941712368979277
2280.0,0.006947064310318225
2279.0,0.006948217034042573
2278.0,0.006942725368665554
2277.0,0.006941297455212293
2276.0,0.006949538497178933
2275.0,0.006958961464583732
2274.0,0.006962620753563447
2273.0,0.006965698971540069
2272.0,0.0069731530566738585
2271.0,0.006979185215561477
2270.0,0.006976950926714787
2269.0,0.006967409075660246
2268.0,0.0069523653559612885
2267.0,0.006930485087302569
2266.0,0.006906608594822862
2265.0,0.006892929861230689
2264.0,0.006894734211065145
2263.0,0.0069059017380345995
2262.0,0.006922270537298756
2261.0,0.006946528825319969
2260.0,0.006975305770881286
2259.0,0.006995582343511633
2258.0,0.006998501021697636
2257.0,0.006984631522626301
2256.0,0.006953776897783022
2255.0,0.006906195231344943
2254.0,0.006857452922830626
2253.0,0.006832858868394893
2252.0,0.006839770522648582
2251.0,0.006860659644326263
2250.0,0.006878502347488269
2249.0,0.0068909727727773686
2248.0,0.0068960837672205864
2247.0,0.0068852218186628835
2246.0,0.006860046460268331
2245.0,0.0068385572192040936
2244.0,0.006832732632900117
2243.0,0.006835029052437812
2242.0,0.006835230192826917
2241.0,0.006834630727393156
2240.0,0.00683614063733118
2239.0,0.006836423076806088
2238.0,0.0068357073009760756
2237.0,0.006839655232714749
2236.0,0.006844901161429812
2235.0,0.006839574964068814
2234.0,0.006824000934965022
2233.0,0.006812784019607142
2232.0,0.006809954856987628
2231.0,0.006802369952381626
2230.0,0.006784858550462499
2229.0,0.006770631367096199
2228.0,0.006767702649878169
2227.0,0.0067652676623520015
2226.0,0.006753696477822082
2225.0,0.006738464611008352
2224.0,0.006725368494530787
2223.0,0.006711871962169803
2222.0,0.006701235779106326
2221.0,0.006703991242117909
2220.0,0.006715654344441253
2219.0,0.006714878149914646
2218.0,0.006693917885156764
2217.0,0.006669494068290259
2216.0,0.006654149005540443
2215.0,0.006639367239258952
2214.0,0.006618331164858606
2213.0,0.006602488093467147
2212.0,0.006602412573332592
2211.0,0.006612770579209702
2210.0,0.006626959215900701
2209.0,0.006645749630032161
2208.0,0.006662097576712716
2207.0,0.006659685125085908
2206.0,0.0066376022359512805
2205.0,0.006615132157045674
2204.0,0.006602193037184681
2203.0,0.006588223535526522
2202.0,0.006569277589284361
2201.0,0.006559980708173357
2200.0,0.006566123578727989
2199.0,0.006570370824158329
2198.0,0.006559505006126014
2197.0,0.006543667380851981
2196.0,0.006535734877117785
2195.0,0.006533042247553386
2194.0,0.006531413293655855
2193.0,0.006535571067976693
2192.0,0.006544418926058176
2191.0,0.006547567544644137
2190.0,0.006545771503932616
2189.0,0.006552933196295826
2188.0,0.006570610524602488
2187.0,0.0065835775484942806
2186.0,0.006584473999119848
2185.0,0.006574440581252018
2184.0,0.0065369313405999096
2183.0,0.006449481191377063
2182.0,0.0063335192108929
2181.0,0.006252587509155086
2180.0,0.006240498969302958
2179.0,0.006265061027794008
2178.0,0.006278125504896179
2177.0,0.006266264756032215
2176.0,0.006239393346335332
2175.0,0.006207183195946274
2174.0,0.006187495964629148
2173.0,0.006206601051197755
2172.0,0.00626897888357157
2171.0,0.006351081350636555
2170.0,0.006435712420264806
2169.0,0.006524886855567668
2168.0,0.006610577695798902
2167.0,0.006665807094586383
2166.0,0.006684185012230284
2165.0,0.006700971504120219
2164.0,0.006750812571173148
2163.0,0.006819796029022628
2162.0,0.0068453010280089205
2161.0,0.006743255735516872
2160.0,0.006451319926234883
2159.0,0.00600390980701042
2158.0,0.005563460269579386
2157.0,0.005300934460828511
2156.0,0.0052411855937759665
2155.0,0.005285025614563117
2154.0,0.005350276150285872
2153.0,0.005423251176844166
2152.0,0.005500834370557929
2151.0,0.0055559725699224315
2150.0,0.005572987279785072
2149.0,0.005568333341925467
2148.0,0.0055579272463669605
2147.0,0.005539300737838593
2146.0,0.005516311283334997
2145.0,0.005504880082544455
2144.0,0.005502917709335365
2143.0,0.005489888093586581
2142.0,0.005465527379292707
2141.0,0.005454983317212502
2140.0,0.005466482637451262
2139.0,0.005476047660046813
2138.0,0.00546180803143761
2137.0,0.005423134368252549
2136.0,0.0053617367150494205
2135.0,0.005278015484481933
2134.0,0.005194497136712941
2133.0,0.005149252160993687
2132.0,0.005154477043137504
2131.0,0.005187581362384581
2130.0,0.005226913400429627
2129.0,0.00526886742403026
2128.0,0.005309799712589733
2127.0,0.005341007228859772
2126.0,0.005367279264910806
2125.0,0.005404221627351699
2124.0,0.0054501604440142706
2123.0,0.005484465825990739
2122.0,0.005499064334816944
2121.0,0.00550829782190952
2120.0,0.00552280169115848
2119.0,0.005538563388099338
2118.0,0.0055573311744460995
2117.0,0.005591223948250805
2116.0,0.005638035683391697
2115.0,0.005676734914548241
2114.0,0.005697188978485362
2113.0,0.005711036218352631
2112.0,0.005724527143990634
2111.0,0.005725540957142382
2110.0,0.005709246599057924
2109.0,0.005692079200033412
2108.0,0.0056862460932698075
2107.0,0.005682605652515454
2106.0,0.005671791360141116
2105.0,0.005660743250508607
2104.0,0.005655616085910566
2103.0,0.0056500987425013
2102.0,0.0056429868970209246
2101.0,0.005645571541075901
2100.0,0.005658647358151384
2099.0,0.005662330204277476
2098.0,0.005640311698016012
2097.0,0.005596082811004925
2096.0,0.005538085672020179
2095.0,0.005471743334434206
2094.0,0.0054151279428635655
2093.0,0.005395765773650733
2092.0,0.005419165555112306
2091.0,0.005461482983791357
2090.0,0.005500740341187894
2089.0,0.005534109690891222
2088.0,0.005559807702747449
2087.0,0.005569375679480898
2086.0,0.005567871204663435
2085.0,0.0055761734210886035
2084.0,0.0056004822332513735
2083.0,0.005622146479711759
2082.0,0.00562856840690268
2081.0,0.005629703327842003
2080.0,0.00563261966778745
2079.0,0.005626265919173174
2078.0,0.005606677749471731
2077.0,0.005592127055847958
2076.0,0.005596874834406578
2075.0,0.005611387286364601
2074.0,0.005622412066797419
2073.0,0.005629080264612856
2072.0,0.005627509188233427
2071.0,0.0056062752449768044
2070.0,0.005570604200675464
2069.0,0.005545972258932038
2068.0,0.005543120971562016
2067.0,0.005544463687640066
2066.0,0.005536302881420731
2065.0,0.0055265561403692745
2064.0,0.005519714000490229
2063.0,0.00550494566935745
2062.0,0.005482160101715259
2061.0,0.00546878645756155
2060.0,0.005469105988607288
2059.0,0.005467617294203228
2058.0,0.005461081891539449
2057.0,0.0054623753594936295
2056.0,0.005466557002167552
2055.0,0.0054572304273805316
2054.0,0.005458058023827262
2053.0,0.0055232889626174704
2052.0,0.005651706177278357
2051.0,0.005758979244668202
2050.0,0.005767561699129023
2049.0,0.0056927313079586485
2048.0,0.005606175835814182
2047.0,0.005545377173512767
2046.0,0.005505891038733171
2045.0,0.005487482581333238
2044.0,0.005490684705974555
2043.0,0.00549422877588779
2042.0,0.005482246118857153
2041.0,0.005473381015067601
2040.0,0.00548768868063139
2039.0,0.005509325376467528
2038.0,0.005514059547602807
2037.0,0.005503430927690219
2036.0,0.005483327429636974
2035.0,0.005442529858669926
2034.0,0.005383393475441381
2033.0,0.005339274984334663
2032.0,0.005327196287520264
2031.0,0.0053191404274918015
2030.0,0.005289610952548483
2029.0,0.0052519570463746045
2028.0,0.00522318773115718
2027.0,0.005194209860806051
2026.0,0.005160353942679479
2025.0,0.0051374474813898246
2024.0,0.005122550746825834
2023.0,0.005086055927416505
2022.0,0.0050260351290410095
2021.0,0.004984168092919576
2020.0,0.004983796710084703
2019.0,0.004997771226715797
2018.0,0.004999695073550411
2017.0,0.004998923626159508
2016.0,0.005002426738450737
2015.0,0.0049932235939800645
2014.0,0.004971761909426416
2013.0,0.004968172917160394
2012.0,0.004989035107723241
2011.0,0.004998499558186492
2010.0,0.004973516644258267
2009.0,0.00493091085731984
2008.0,0.004881675023958389
2007.0,0.004811220898145967
2006.0,0.004727941447436676
2005.0,0.0046751955709392785
2004.0,0.004667823712833178
2003.0,0.004671027864077865
2002.0,0.0046607371160811316
2001.0,0.004655837107754331
2000.0,0.004673316914974482
1999.0,0.0046987717773507775
1998.0,0.004722680464103249
1997.0,0.004756929332375314
1996.0,0.004796074586494224
1995.0,0.004809741295457864
1994.0,0.0047929814724968775
1993.0,0.004781841445739061
1992.0,0.004797005337253626
1991.0,0.004815083310173462
1990.0,0.004819755265391568
1989.0,0.004829606759304718
1988.0,0.004851853356211849
1987.0,0.004861129127662259
1986.0,0.004848695535109304
1985.0,0.004846839998584345
1984.0,0.004880060502055143
1983.0,0.0049372033011487295
1982.0,0.005008693980505406
1981.0,0.0050962122527579545
1980.0,0.005160744910685814
1979.0,0.005121867966068846
1978.0,0.004957249584438322
1977.0,0.004754380298829734
1976.0,0.0046095907314305145
1975.0,0.004529671370347557
1974.0,0.004479583933966547
1973.0,0.004452477599735364
1972.0,0.004446335198151949
1971.0,0.004436282337564334
1970.0,0.004411341778541811
1969.0,0.004391969827718118
1968.0,0.004384004492917502
1967.0,0.004363207130192727
1966.0,0.004328023039923442
1965.0,0.0043108617397241145
1964.0,0.00431532172913854
1963.0,0.0043003000333239946
1962.0,0.004244583878026161
1961.0,0.004176543791925062
1960.0,0.004122080859165638
1959.0,0.004074987952600174
1958.0,0.004037334004900417
1957.0,0.004031924072458326
1956.0,0.004056099106683285
1955.0,0.004074855388360569
1954.0,0.004076020494069186
1953.0,0.004082689129045413
1952.0,0.0040982341688007755
1951.0,0.004091624419999146
1950.0,0.004052293250370262
1949.0,0.004011882517481243
1948.0,0.003992003377503498
1947.0,0.003975976756938873
1946.0,0.003952678946385212
1945.0,0.003941505336446498
1944.0,0.003952073293710901
1943.0,0.003960372339075397
1942.0,0.003949346596159638
1941.0,0.00393282005858176
1940.0,0.00391771345019854
1939.0,0.0038904590045434322
1938.0,0.0038555629967284063
1937.0,0.0038418328397826808
1936.0,0.0038552205640418205
1935.0,0.003864261932609917
1934.0,0.003849744370478747
1933.0,0.0038294194190264226
1932.0,0.0038191975797267413
1931.0,0.0038098357832086925
1930.0,0.0037944314087413507
1929.0,0.00378505649120885
1928.0,0.0037829059111390085
1927.0,0.0037698158451076546
1926.0,0.0037448289125301647
1925.0,0.003732602337826946
1924.0,0.0037452342077393184
1923.0,0.0037620930967631897
1922.0,0.0037654443102059752
1921.0,0.0037643955729003433
1920.0,0.003767522574017845
1919.0,0.0037669429797950443
1918.0,0.003760899494240553
1917.0,0.003760641100651523
1916.0,0.0037623174922169285
1915.0,0.003747927603949998
1914.0,0.003723522418872026
1913.0,0.0037172359738105107
1912.0,0.0037339673775815007
1911.0,0.003746299908741309
1910.0,0.0037391272043720714
1909.0,0.003729382552199101
1908.0,0.003725335692315749
1907.0,0.0037106127998677374
1906.0,0.0036839415481384804
1905.0,0.0036704343803865567
1904.0,0.0036809736022724833
1903.0,0.0036935847736730334
1902.0,0.003692177816576208
1901.0,0.0036906255095435236
1900.0,0.003698318599643846
1899.0,0.0037001465628059105
1898.0,0.0036897134391079838
1897.0,0.0036855570724844654
1896.0,0.003697720877917066
1895.0,0.003706809257044483
1894.0,0.0036985674285205505
1893.0,0.003688321107395408
1892.0,0.0036909004731946965
1891.0,0.0036983138197752346
1890.0,0.0037017946228331106
1889.0,0.0037081625604797443
1888.0,0.0037166048700186575
1887.0,0.00371025920849243
1886.0,0.003688527771433435
1885.0,0.003675114036201436
1884.0,0.003681466692763324
1883.0,0.003691465278469468
1882.0,0.003694823190209297
1881.0,0.0037053982082310855
1880.0,0.0037290118427605566
1879.0,0.003747431964452093
1878.0,0.003752056351010349
1877.0,0.003758340670195736
1876.0,0.0037734467976013194
1875.0,0.003782044435514227
1874.0,0.0037770804067486473
1873.0,0.0037743837322914515
1872.0,0.0037837319124395994
1871.0,0.0037945602952778592
1870.0,0.0038032938218414605
1869.0,0.003825727519185764
1868.0,0.003860006539464369
1867.0,0.00387473823797708
1866.0,0.0038585481729756467
1865.0,0.003837401210145426
1864.0,0.003830895403555693
1863.0,0.00382811746414445
1862.0,0.0038169443022122536
1861.0,0.003808130806104407
1860.0,0.003810500539698996
1859.0,0.003810837288517878
1858.0,0.0037998633243086916
1857.0,0.003790749817076648
1856.0,0.0037920624805774707
1855.0,0.0037909477675130768
1854.0,0.0037789296247258365
1853.0,0.003769838963160163
1852.0,0.0037715585487776235
1851.0,0.0037679033470544914
1850.0,0.003752511625832175
1849.0,0.003742523358142899
1848.0,0.0037429446975861987
1847.0,0.003732239325952864
1846.0,0.003703562195805582
1845.0,0.0036899119847656034
1844.0,0.003712949036341296
1843.0,0.003740039450932224
1842.0,0.0037370626115360993
1841.0,0.00371568247901718
1840.0,0.0036995719950911944
1839.0,0.003691668620474621
1838.0,0.003686572043636398
1837.0,0.0036881289528257572
1836.0,0.0036968172046444574
1835.0,0.003697604638007426
1834.0,0.0036832008217678705
1833.0,0.0036698772172333123
1832.0,0.003673885000917577
1831.0,0.0036922533889390723
1830.0,0.0037178518554697713
1829.0,0.0037483986559377785
1828.0,0.0037704570192251116
1827.0,0.0037654381312431616
1826.0,0.0037433276632766787
1825.0,0.003737249245214959
1824.0,0.0037528180409826814
1823.0,0.0037592558917476093
1822.0,0.003742798911108496
1821.0,0.00372454334273748
1820.0,0.0037157719632481107
1819.0,0.0036992883476405377
1818.0,0.0036678623410395764
1817.0,0.003645735072201196
1816.0,0.0036519635589969007
1815.0,0.0036709366862259334
1814.0,0.0036848245952794617
1813.0,0.0037010539598515634
1812.0,0.0037268444037991304
1811.0,0.003749386006183429
1810.0,0.0037588335757919
1809.0,0.0037678265687405557
1808.0,0.0037855456136180266
1807.0,0.003799343480980181
1806.0,0.0038031793001703446
1805.0,0.003813398738253186
1804.0,0.0038413659374972762
1803.0,0.0038729782022860534
1802.0,0.003897439196463479
1801.0,0.003929266256605496
1800.0,0.003974289577070173
1799.0,0.004012262950688613
1798.0,0.0040335768612585615
1797.0,0.004057015504153032
1796.0,0.004093354544973511
1795.0,0.004128456135634691
1794.0,0.004162789114444416
1793.0,0.004232849167777283
1792.0,0.004352489877556316
1791.0,0.004476127368382465
1790.0,0.004569732949464776
1789.0,0.004655571388390878
1788.0,0.004763292037289769
1787.0,0.004896097603411192
1786.0,0.005052787566700112
1785.0,0.0052438970005307855
1784.0,0.005466360774003689
1783.0,0.005692084243853954
1782.0,0.0059130626705120185
1781.0,0.006153681934191704
1780.0,0.006413788416281585
1779.0,0.006659600107578793
1778.0,0.0068797778243412
1777.0,0.007103316849860265
1776.0,0.0073459114716375755
1775.0,0.007587587352230651
1774.0,0.007824505746098368
1773.0,0.008094341797632104
1772.0,0.008405595274860624
1771.0,0.008709310248857348
1770.0,0.008988505772548663
1769.0,0.009286571064915032
1768.0,0.009636454449659378
1767.0,0.010018928753852362
1766.0,0.010408613922620961
1765.0,0.010817406711813473
1764.0,0.011268678757146742
1763.0,0.0117634499112046
1762.0,0.01228372661529731
1761.0,0.012807761003925078
1760.0,0.013310059426209591
1759.0,0.013771472559809551
1758.0,0.014195612856040925
1757.0,0.014597202416000106
1756.0,0.014966089589006182
1755.0,0.015284071282668982
1754.0,0.015563097951120652
1753.0,0.015824459853736053
1752.0,0.01604829152583007
1751.0,0.016188354120497676
1750.0,0.016251104914755052
1749.0,0.016284477543928554
1748.0,0.016297405832042644
1747.0,0.016263941878975417
1746.0,0.016178807625761096
1745.0,0.016043483389161867
1744.0,0.0158346158396837
1743.0,0.015535874253795774
1742.0,0.01515654432717289
1741.0,0.014683462999657641
1740.0,0.014088240040705653
1739.0,0.01344196847235586
1738.0,0.012897692323197672
1737.0,0.012490189116526404
1736.0,0.012094555958536885
1735.0,0.011515843858916514
1734.0,0.01075638008019214
1733.0,0.010122080586741527
1732.0,0.009740117414440778
1731.0,0.009461269930695751
1730.0,0.009185905223988851
1729.0,0.008925277786949739
1728.0,0.008715476350744898
1727.0,0.008551384830525501
1726.0,0.008416301666403966
1725.0,0.008308153920974658
1724.0,0.008222712106753901
1723.0,0.008154563309672257
1722.0,0.008108430152630037
1721.0,0.008094427313549082
1720.0,0.008105408105834244
1719.0,0.008113161422818118
1718.0,0.008099497487077086
1717.0,0.008093107008377223
1716.0,0.008117352417163676
1715.0,0.008143083558074124
1714.0,0.008157368305288067
1713.0,0.008186498519226787
1712.0,0.008243080852786003
1711.0,0.008309585881733573
1710.0,0.00837564421810805
1709.0,0.008459292432681759
1708.0,0.008570990819856251
1707.0,0.008694895759569178
1706.0,0.008824030126630257
1705.0,0.00897228881819022
1704.0,0.009128729214810567
1703.0,0.009258156272975163
1702.0,0.009373691090539482
1701.0,0.009570646667474708
1700.0,0.009875735446533451
1699.0,0.010158176301879866
1698.0,0.010347024728612398
1697.0,0.010525741683791208
1696.0,0.010782312493313894
1695.0,0.011081153157113095
1694.0,0.011340060200702886
1693.0,0.011563662162804682
1692.0,0.011801032004937193
1691.0,0.01207612320692027
1690.0,0.012381192711811035
1689.0,0.012699920716485487
1688.0,0.013007146416437227
1687.0,0.013282846892346076
1686.0,0.013559264199242813
1685.0,0.013927331926854759
1684.0,0.014379369072336636
1683.0,0.014760959529042383
1682.0,0.015026596085822123
1681.0,0.015264441302052498
1680.0,0.015526012744831612
1679.0,0.015789249390624066
1678.0,0.016028240064289927
1677.0,0.016275638327042288
1676.0,0.016577055197220806
1675.0,0.016904348181115452
1674.0,0.017197384319855506
1673.0,0.01745983760199164
1672.0,0.017725912834876567
1671.0,0.018004165402264394
1670.0,0.01828484528161757
1669.0,0.01857380059631877
1668.0,0.018867617138091226
1667.0,0.01913372736931473
1666.0,0.01936937837030298
1665.0,0.01961807476021122
1664.0,0.019918143750705383
1663.0,0.020246201026480445
1662.0,0.020553759785461267
1661.0,0.020853823178888765
1660.0,0.021179816220111138
1659.0,0.021524294225897446
1658.0,0.021871824392937528
1657.0,0.022225042863029332
1656.0,0.02260408296340232
1655.0,0.023047301412652956
1654.0,0.023674734900761284
1653.0,0.024520466995051036
1652.0,0.02534238811112215
1651.0,0.02598113890537309
1650.0,0.026530214822839612
1649.0,0.027145932382268412
1648.0,0.027946672401179096
1647.0,0.028858868135291323
1646.0,0.029662118747464463
1645.0,0.030307816337556144
1644.0,0.03091313183861756
1643.0,0.03154710239890433
1642.0,0.03222308933508787
1641.0,0.03294243887430769
1640.0,0.03366735740255076
1639.0,0.0343291874593114
1638.0,0.0348959976622218
1637.0,0.03540628771435365
1636.0,0.03584553266553523
1635.0,0.03606017877141641
1634.0,0.03597779173397296
1633.0,0.03569027498535436
1632.0,0.035285803165333744
1631.0,0.03478199854638532
1630.0,0.034154389399608055
1629.0,0.03338534947965761
1628.0,0.03251035026080039
1627.0,0.03160344429380954
1626.0,0.030701204567193656
1625.0,0.029763754383628244
1624.0,0.02873059979639476
1623.0,0.027640957707004275
1622.0,0.026645052301099207
1621.0,0.025829497632024166
1620.0,0.02513750660091978
1619.0,0.024457507112124455
1618.0,0.02368066346571592
1617.0,0.022775138126493382
1616.0,0.021880778727795477
1615.0,0.021152954103209796
1614.0,0.020567716283249767
1613.0,0.020019271868797334
1612.0,0.01945251803239999
1611.0,0.01887462905558862
1610.0,0.018312114263771693
1609.0,0.01776901905477997
1608.0,0.017241898017446352
1607.0,0.016744303161579547
1606.0,0.01628708523922686
1605.0,0.01585599667860836
1604.0,0.015431065450062328
1603.0,0.01501738176568921
1602.0,0.014630748948621965
1601.0,0.01426847117074143
1600.0,0.013921565369458062
1599.0,0.013595454491806129
1598.0,0.01329499029583289
1597.0,0.013006786478723501
1596.0,0.012719436205972889
1595.0,0.012444576107404424
1594.0,0.01219513018672606
1593.0,0.011960566730164662
1592.0,0.011726073952872134
1591.0,0.011497831635520204
1590.0,0.011288135410346125
1589.0,0.011093203851498736
1588.0,0.010904860456420938
1587.0,0.010729614288599674
1586.0,0.010573898384186809
1585.0,0.010429110296873417
1584.0,0.010284977663718279
1583.0,0.010145266737621448
1582.0,0.010021666097815862
1581.0,0.009913719706083658
1580.0,0.009812435343739679
1579.0,0.009714917015005325
1578.0,0.009624514490644241
1577.0,0.00953232787728452
1576.0,0.009432596599555067
1575.0,0.00935040721856323
1574.0,0.009296028456833303
1573.0,0.00924431378281329
1572.0,0.009179989247084921
1571.0,0.009116310467839606
1570.0,0.009068630515070812
1569.0,0.009029762978845356
1568.0,0.00898425170111318
1567.0,0.00893340700669847
1566.0,0.008888831742642642
1565.0,0.008854401038624731
1564.0,0.008823513076398205
1563.0,0.008792604756553234
1562.0,0.008761574433588614
1561.0,0.008735482860772114
1560.0,0.008715304587121234
1559.0,0.008681738486927871
1558.0,0.008653698060798812
1557.0,0.008633063746358834
1556.0,0.008583680788468245
1555.0,0.00851714237525277
1554.0,0.008465339783362724
1553.0,0.00843590662744924
1552.0,0.008408908940273203
1551.0,0.008376625719571758
1550.0,0.008347156344701127
1549.0,0.008320353763004645
1548.0,0.008292437715671763
1547.0,0.008268097580803085
1546.0,0.00825941850003896
1545.0,0.008264475358855917
1544.0,0.008264797249424357
1543.0,0.008253451418595426
1542.0,0.008242440926443285
1541.0,0.008230497004805507
1540.0,0.008204408136839614
1539.0,0.008182963589891755
1538.0,0.008182054843177178
1537.0,0.008176457871260878
1536.0,0.008153784881469728
1535.0,0.008131639703452907
1534.0,0.008131725088235744
1533.0,0.008146780470029506
1532.0,0.008151372039409166
1531.0,0.008142712527490882
1530.0,0.008132314900896605
1529.0,0.008123336954446003
1528.0,0.008111797039338812
1527.0,0.00809841905901234
1526.0,0.008088519018434786
1525.0,0.008077543620250878
1524.0,0.00805142888599033
1523.0,0.008008369348464548
1522.0,0.00795954692516674
1521.0,0.0079140646006485
1520.0,0.007872407009919065
1519.0,0.007824959762381812
1518.0,0.007763349432928264
1517.0,0.007683090808824384
1516.0,0.007589219003447244
1515.0,0.007496522447846595
1514.0,0.007412466803388985
1513.0,0.0073379492479024155
1512.0,0.007276430563690829
1511.0,0.007232633968502071
1510.0,0.0072034850747664785
1509.0,0.00717941884295234
1508.0,0.007148701843687983
1507.0,0.0070965451599170025
1506.0,0.007037232899824414
1505.0,0.007000012193221359
1504.0,0.006974025130439175
1503.0,0.00694678488997671
1502.0,0.006924027878860848
1501.0,0.006911463193113835
1500.0,0.006906666730260261
1499.0,0.006904017668972555
1498.0,0.006903900599389038
1497.0,0.006905596830081368
1496.0,0.006908602220907629
1495.0,0.006916360264368152
1494.0,0.006927355416481823
1493.0,0.006937176578687348
1492.0,0.006948460593940772
1491.0,0.0069718966639097536
1490.0,0.007010383872140364
1489.0,0.0070492388613667065
1488.0,0.007075099339179535
1487.0,0.007094474550072184
1486.0,0.007118451817807809
1485.0,0.007150680381402819
1484.0,0.007189280741189574
1483.0,0.007233822817103452
1482.0,0.0072885858690920225
1481.0,0.007348257829536282
1480.0,0.0074003955268473216
1479.0,0.007442327186187826
1478.0,0.007486661178024904
1477.0,0.007542784197993091
1476.0,0.007605630977562493
1475.0,0.007667187831457365
1474.0,0.007732900513269057
1473.0,0.007811525716988158
1472.0,0.007893792939218103
1471.0,0.007971744802945878
1470.0,0.00805296724311192
1469.0,0.008145871216651928
1468.0,0.008253839405231467
1467.0,0.00838333233124234
1466.0,0.008549208502387707
1465.0,0.008759723779280854
1464.0,0.008992414440830253
1463.0,0.00922095596355429
1462.0,0.009445254381235012
1461.0,0.009673325888560291
1460.0,0.009903972345856176
1459.0,0.01013420345252945
1458.0,0.010367130905839598
1457.0,0.010580837408685779
1456.0,0.010741413974937159
1455.0,0.010853964776505387
1454.0,0.010941688261721613
1453.0,0.011011338913710785
1452.0,0.011057415675647903
1451.0,0.01108256992715079
1450.0,0.011093598495560058
1449.0,0.011075906538074389
1448.0,0.011007096681921846
1447.0,0.01089487216996077
1446.0,0.010765406289324975
1445.0,0.010622515826042562
1444.0,0.010448314851620752
1443.0,0.010243335600112716
1442.0,0.010031337702851558
1441.0,0.009831986796056428
1440.0,0.009648340484664338
1439.0,0.009476897286553864
1438.0,0.009308854797677278
1437.0,0.00912746455426105
1436.0,0.008944275959015242
1435.0,0.008798110696650275
1434.0,0.008694615824935163
1433.0,0.008607658245333966
1432.0,0.008519772401386379
1431.0,0.008433061577554666
1430.0,0.008356350316842325
1429.0,0.008288296097050049
1428.0,0.008228243098208418
1427.0,0.008182046349003007
1426.0,0.008150116556988631
1425.0,0.008122799689675244
1424.0,0.008087795309714148
1423.0,0.008048540586351441
1422.0,0.008015859831574974
1421.0,0.007991139261979915
1420.0,0.007967897974136221
1419.0,0.00793976439100497
1418.0,0.007904335174835079
1417.0,0.007855636247043765
1416.0,0.007791082450514698
1415.0,0.007721294408807845
1414.0,0.0076567868830886565
1413.0,0.007593132091282264
1412.0,0.007519227935774616
1411.0,0.007435223388733737
1410.0,0.007348345169940325
1409.0,0.007257225066322846
1408.0,0.007158572006217842
1407.0,0.007056001227875409
1406.0,0.00694979046332431
1405.0,0.0068327594225788945
1404.0,0.006706870905028885
1403.0,0.006591890790264038
1402.0,0.006499518422589024
1401.0,0.006421630607871966
1400.0,0.006350822480183694
1399.0,0.006294185145608769
1398.0,0.006258803151912318
1397.0,0.006238478334607767
1396.0,0.006232048386402039
1395.0,0.00625166664529078
1394.0,0.006301912412761625
1393.0,0.0063703270238103776
1392.0,0.006446139828760241
1391.0,0.006532169510861982
1390.0,0.006633127653055319
1389.0,0.006746626232585939
1388.0,0.006866519545522802
1387.0,0.006984961255571116
1386.0,0.007088835374800796
1385.0,0.0071648554112944095
1384.0,0.007207329293828283
1383.0,0.007217054453939211
1382.0,0.007192807880501169
1381.0,0.007127486648993259
1380.0,0.00701667358435004
1379.0,0.006868661186799801
1378.0,0.006703364608580283
1377.0,0.006539951400638171
1376.0,0.006391768686315982
1375.0,0.00627234872925142
1374.0,0.006195730308556812
1373.0,0.0061655130475062655
1372.0,0.006172572985201302
1371.0,0.006204198872140944
1370.0,0.0062457340579477084
1369.0,0.0062802880526557844
1368.0,0.006298003172441006
1367.0,0.0063046338424629905
1366.0,0.006310235453889068
1365.0,0.006315246057831242
1364.0,0.006312983065091635
1363.0,0.006299437346572331
1362.0,0.006276168118534002
1361.0,0.006245862150034438
1360.0,0.006211373466562899
1359.0,0.006176324637004274
1358.0,0.006140034687854375
1357.0,0.0060948068240558075
1356.0,0.0060333822648414945
1355.0,0.005956599857845234
1354.0,0.005869464604577658
1353.0,0.00577357196437832
1352.0,0.005670091101447571
1351.0,0.005564303017730433
1350.0,0.005460765657156554
1349.0,0.005358983278805811
1348.0,0.005256886022691067
1347.0,0.0051570838275960765
1346.0,0.005063205194495612
1345.0,0.0049752460623517375
1344.0,0.0048937828083416915
1343.0,0.004823658700961249
1342.0,0.004767234751463937
1341.0,0.0047177291184493896
1340.0,0.004665343947395557
1339.0,0.004608350489773278
1338.0,0.004551289167066236
1337.0,0.004495700357005467
1336.0,0.004441438066984309
1335.0,0.0043915612089610034
1334.0,0.004348406151144346
1333.0,0.004309476743229798
1332.0,0.004272407793124829
1331.0,0.004239700141615017
1330.0,0.0042138031223887176
1329.0,0.004192019812368628
1328.0,0.004171341618953879
1327.0,0.0041535598977787665
1326.0,0.004140520598838878
1325.0,0.004129340141779882
1324.0,0.004117092718673557
1323.0,0.0041061960135886375
1322.0,0.004099373437780388
1321.0,0.004093609150620572
1320.0,0.00408448679704621
1319.0,0.00407273236205306
1318.0,0.004061215028003268
1317.0,0.004049527046190158
1316.0,0.004036979001915919
1315.0,0.0040263414120228404
1314.0,0.004019359025678489
1313.0,0.004012758765203206
1312.0,0.0040037868921013785
1311.0,0.003995186045729278
1310.0,0.003989695905777704
1309.0,0.003984422307394816
1308.0,0.003975892131802177
1307.0,0.003966102224894379
1306.0,0.003958190397387325
1305.0,0.003950444413145985
1304.0,0.003939791943364194
1303.0,0.003927504790980712
1302.0,0.003915607208964697
1301.0,0.0039015979101340754
1300.0,0.003882317224716691
1299.0,0.003859606306592955
1298.0,0.003836406822172786
1297.0,0.003810522308058526
1296.0,0.0037781195239614323
1295.0,0.003740838065468514
1294.0,0.003704382341833068
1293.0,0.0036728253392761118
1292.0,0.003649254184425117
1291.0,0.0036386866882212165
1290.0,0.0036448416236910643
1289.0,0.0036663255745719332
1288.0,0.003700501947590547
1287.0,0.0037485095992013896
1286.0,0.0038124727795609548
1285.0,0.003890878853210545
1284.0,0.003980780102686956
1283.0,0.004081629495508759
1282.0,0.004192910222094037
1281.0,0.004310440786781259
1280.0,0.004428718299829951
1279.0,0.004545140541102279
1278.0,0.00465917342516114
1277.0,0.004769336864785164
1276.0,0.0048740544393322295
1275.0,0.004973488637528544
1274.0,0.005067462098923746
1273.0,0.005153160593855479
1272.0,0.0052279560960515805
1271.0,0.00529293530671303
1270.0,0.005350314379246783
1269.0,0.005399073226373756
1268.0,0.005437158459905517
1267.0,0.005466679585938659
1266.0,0.005492640281946362
1265.0,0.0055171888361785215
1264.0,0.005539373973062726
1263.0,0.005559933941071899
1262.0,0.005581834790545918
1261.0,0.005606277364413768
1260.0,0.005632379427580138
1259.0,0.005660841909724452
1258.0,0.005694013422779842
1257.0,0.005732134711016738
1256.0,0.005773318448573648
1255.0,0.005817406142088897
1254.0,0.005866511555866974
1253.0,0.0059214615230819
1252.0,0.005980765697538734
1251.0,0.006043404904032171
1250.0,0.00610975833071592
1249.0,0.006179485256355949
1248.0,0.006251407022810311
1247.0,0.006326050911457411
1246.0,0.006405696738091347
1245.0,0.0064911730374459745
1244.0,0.00658093179477005
1243.0,0.006673709142402541
1242.0,0.0067697707593202955
1241.0,0.006869131069129689
1240.0,0.006971054203990176
1239.0,0.007076047358576386
1238.0,0.007186020877483868
1237.0,0.0073016224126051
1236.0,0.007421666038765637
1235.0,0.007546077523154431
1234.0,0.007676994824910058
1233.0,0.007815850802225388
1232.0,0.007961923571742748
1231.0,0.008115267809778474
1230.0,0.008278376070927945
1229.0,0.008452749979042917
1228.0,0.008636234128021184
1227.0,0.008826316351144456
1226.0,0.009023936048404149
1225.0,0.009230967333995383
1224.0,0.009445784189773015
1223.0,0.009665062743858841
1222.0,0.009888684024770484
1221.0,0.010118714141977207
1220.0,0.010354278850873914
1219.0,0.010591711587636658
1218.0,0.010829243058300821
1217.0,0.0110669778840857
1216.0,0.011302602315335517
1215.0,0.01153195937217696
1214.0,0.011753570555937332
1213.0,0.011967627486631955
1212.0,0.012171337264405783
1211.0,0.012361188745943628
1210.0,0.012539138104640649
1209.0,0.01271022786302544
1208.0,0.01287500544154404
1207.0,0.013031014459831347
1206.0,0.013180529673944084
1205.0,0.013329450087848776
1204.0,0.01347980213596477
1203.0,0.013631197244257081
1202.0,0.013788449970069415
1201.0,0.013959397759121497
1200.0,0.014146063650272257
1199.0,0.01434612498450551
1198.0,0.014562111027641295
1197.0,0.014800540471885563
1196.0,0.015062789555525587
1195.0,0.015346045921497308
1194.0,0.015652954943237277
1193.0,0.01599072149785218
1192.0,0.016360435454036853
1191.0,0.0167571598554583
1190.0,0.017180862057902476
1189.0,0.01763624770709853
1188.0,0.018120425832528868
1187.0,0.01862177875939593
1186.0,0.019132098664748735
1185.0,0.019647306235626386
1184.0,0.020154123460440748
1183.0,0.020629034499610368
1182.0,0.02105219671171296
1181.0,0.02140809902479773
1180.0,0.021672284108810013
1179.0,0.021817518843512716
1178.0,0.021837738245908248
1177.0,0.021749405159180113
1176.0,0.021570377880186654
1175.0,0.021317136106208584
1174.0,0.021019699458193476
1173.0,0.02071554569878063
1172.0,0.02042611784741096
1171.0,0.020155758557713538
1170.0,0.019910916849865717
1169.0,0.01970264429360466
1168.0,0.019531896384243835
1167.0,0.019389898059502936
1166.0,0.01927369236371961
1165.0,0.019186857165229092
1164.0,0.01912631348201813
1163.0,0.019083785796116217
1162.0,0.019059288072592256
1161.0,0.01905844071440213
1160.0,0.01907803999969781
1159.0,0.019109181148038216
1158.0,0.01915260310077403
1157.0,0.019215147975296623
1156.0,0.01929297505780891
1155.0,0.01937516746236247
1154.0,0.019462915861827548
1153.0,0.019567919968909435
1152.0,0.01969248986139058
1151.0,0.019829212067160512
1150.0,0.01998037653732892
1149.0,0.02015945168778411
1148.0,0.020372124840476152
1147.0,0.020613330300960315
1146.0,0.020883992257845697
1145.0,0.021192717801282738
1144.0,0.02153879668785346
1143.0,0.021910966194602335
1142.0,0.02230509805497243
1141.0,0.022724899320267968
1140.0,0.023162592763667663
1139.0,0.0235984722385852
1138.0,0.024022968720570942
1137.0,0.024439069060979483
1136.0,0.024840594515849204
1135.0,0.025210921379415916
1134.0,0.02554698368542794
1133.0,0.0258611783781957
1132.0,0.026155865200385438
1131.0,0.026419279626524607
1130.0,0.026648496159971544
1129.0,0.026850426133559153
1128.0,0.027017328351785067
1127.0,0.02712901686610482
1126.0,0.027183845501307473
1125.0,0.027200744455001667
1124.0,0.027188335883727613
1123.0,0.027140948198851503
1122.0,0.02706740671428135
1121.0,0.026993422696996464
1120.0,0.026931013611309028
1119.0,0.02687252191286814
1118.0,0.02681704566951945
1117.0,0.026775979898142704
1116.0,0.026750654868457846
1115.0,0.026731925195843317
1114.0,0.026724969763376204
1113.0,0.026748169868977524
1112.0,0.026804929896613157
1111.0,0.026882648966810453
1110.0,0.026980771467058837
1109.0,0.027112261320558252
1108.0,0.02727555784365162
1107.0,0.027453188455834186
1106.0,0.02764021171205698
1105.0,0.027846154181849457
1104.0,0.0280673053166949
1103.0,0.02828641442239408
1102.0,0.02850174113389501
1101.0,0.02872670855981025
1100.0,0.028958553990626044
1099.0,0.02917811371925256
1098.0,0.02938364379241945
1097.0,0.02959229696576346
1096.0,0.029805950936828314
1095.0,0.030008852381000962
1094.0,0.0302013106416244
1093.0,0.030400806625703103
1092.0,0.030606919036966038
1091.0,0.030800259265378695
1090.0,0.030978911972453775
1089.0,0.031160276174746426
1088.0,0.03134366668492757
1087.0,0.03150750173070073
1086.0,0.03164665130212626
1085.0,0.03177381471652352
1084.0,0.03187961829707807
1083.0,0.03193142087386709
1082.0,0.031917680094804876
1081.0,0.0318552900999672
1080.0,0.03174928411036851
1079.0,0.03158448798759352
1078.0,0.031359818985547204
1077.0,0.031091382728421976
1076.0,0.030778564282233967
1075.0,0.03040449970635007
1074.0,0.029971349866444404
1073.0,0.029498459581314217
1072.0,0.028986899746847795
1071.0,0.028423004757461602
1070.0,0.027815086801588833
1069.0,0.027190713062887353
1068.0,0.02656088085507087
1067.0,0.02592164195412052
1066.0,0.02528711460086689
1065.0,0.024687634053221334
1064.0,0.024138220330957253
1063.0,0.023638394312607523
1062.0,0.023199141166063506
1061.0,0.022840649612282608
1060.0,0.022563541326763175
1059.0,0.02234759149322824
1058.0,0.02217845535360634
1057.0,0.022052426953606305
1056.0,0.02195662116765228
1055.0,0.021870352331755057
1054.0,0.02178928537495243
1053.0,0.02172630894889947
1052.0,0.021685482915597503
1051.0,0.02165748616370338
1050.0,0.021642831065301286
1049.0,0.021651587107863444
1048.0,0.021676311862609456
1047.0,0.021693162230616833
1046.0,0.021690016469603047
1045.0,0.021667671113979544
1044.0,0.02161665530380043
1043.0,0.021518742941916198
1042.0,0.021370603796515564
1041.0,0.021183513890620998
1040.0,0.02096008326755947
1039.0,0.0206926491115267
1038.0,0.02038398023203938
1037.0,0.02004888572231495
1036.0,0.01969602671256311
1035.0,0.019327191046664933
1034.0,0.018952848889510807
1033.0,0.01858957029461377
1032.0,0.018242621671020306
1031.0,0.017907604282125022
1030.0,0.017586899395985643
1029.0,0.01728833622672807
1028.0,0.01701000839038246
1027.0,0.01674195438554997
1026.0,0.016480746492731957
1025.0,0.01622785308634458
1024.0,0.01597620141641845
1023.0,0.01571323961940992
1022.0,0.015436370512493861
1021.0,0.015152614722361082
1020.0,0.014864997670641034
1019.0,0.014572241561302202
1018.0,0.01427963840260028
1017.0,0.013996968295734918
1016.0,0.013726665947102163
1015.0,0.01346491618762358
1014.0,0.013212289672316056
1013.0,0.01297321727454349
1012.0,0.012747918270662326
1011.0,0.012534935161636347
1010.0,0.01233872562923197
1009.0,0.012164875155371187
1008.0,0.012010102931212272
1007.0,0.011865739561164712
1006.0,0.011728001509128071
1005.0,0.01159585647160119
1004.0,0.01146266895408491
1003.0,0.01132089961098666
1002.0,0.011172684977708593
1001.0,0.011025231981173386
1000.0,0.01087784169593907
999.0,0.010723869669190995
998.0,0.010563726517135011
997.0,0.01040530819048336
996.0,0.010251957246314485
995.0,0.010099465367135824
994.0,0.009945048192609815
993.0,0.009790782132574838
992.0,0.009637989449784487
991.0,0.009486114767796582
990.0,0.009337364978267457
989.0,0.009195356975782321
988.0,0.009059389110554244
987.0,0.008926468323533939
986.0,0.008798100975101242
985.0,0.00867850885882201
984.0,0.008566905682540867
983.0,0.008457906026165307
982.0,0.0083489796860015
981.0,0.008241511875964213
980.0,0.008135276893788655
979.0,0.008028273183421733
978.0,0.007921923760721466
977.0,0.00782048117083011
976.0,0.0077250370050662865
975.0,0.007633022155703323
974.0,0.007543348744098715
973.0,0.007457594974216542
972.0,0.007376789030465902
971.0,0.007301366280717439
970.0,0.007233402093023467
969.0,0.007174626208699034
968.0,0.007123244935354239
967.0,0.007076948628003394
966.0,0.007038023961280573
965.0,0.00701124856728238
964.0,0.006997779954824765
963.0,0.006995330711668482
962.0,0.007003036088233007
961.0,0.007021282761422337
960.0,0.007047055480630572
959.0,0.00707355538164736
958.0,0.007094172582745709
957.0,0.007103684090235259
956.0,0.007097356359304882
955.0,0.007073713909492702
954.0,0.0070372908835136215
953.0,0.006994092419946082
952.0,0.006945329028939856
951.0,0.006889771254309236
950.0,0.006830120869574496
949.0,0.00677171320259101
948.0,0.006716341298305633
947.0,0.006662467808602041
946.0,0.006610237104365049
945.0,0.006561391360798153
944.0,0.006515461595702066
943.0,0.006470726747118915
942.0,0.006427776780240169
941.0,0.00638779952961163
940.0,0.006348978272834479
939.0,0.00630934223138232
938.0,0.0062716123988072175
937.0,0.006240025828800136
936.0,0.006213406997231502
935.0,0.006186361997444762
934.0,0.006156458527113145
933.0,0.006125525272905656
932.0,0.006094899818624842
931.0,0.006064382311421012
930.0,0.006035203131625774
929.0,0.0060092056220833415
928.0,0.005985427165869427
927.0,0.005961701056430216
926.0,0.005938968649258922
925.0,0.005919780711117057
924.0,0.005903370460673803
923.0,0.005886606162488586
922.0,0.005868993942142161
921.0,0.0058522629407698566
920.0,0.005835726503117509
919.0,0.005816680435402387
918.0,0.0057951231385273486
917.0,0.005773861058579365
916.0,0.0057540974278439475
915.0,0.005734605773248585
914.0,0.005714790747021409
913.0,0.0056950677424645515
912.0,0.005674978009303279
911.0,0.005654298252332917
910.0,0.005634728183227383
909.0,0.005616896491862075
908.0,0.005597496805196157
907.0,0.00557360075695097
906.0,0.0055481571430005105
905.0,0.0055268759117331045
904.0,0.005511213554641261
903.0,0.00549841680380888
902.0,0.0054863570973210755
901.0,0.005473927492656211
900.0,0.005458965444651177
899.0,0.005440967063559184
898.0,0.005424127196019757
897.0,0.005412502621819068
896.0,0.005403649863086722
895.0,0.005391706864666952
894.0,0.0053747095798810235
893.0,0.005353821110180443
892.0,0.0053278024787792155
891.0,0.005294489381229638
890.0,0.005256555982881089
889.0,0.00522041680859925
888.0,0.005190879610515942
887.0,0.00517204517096183
886.0,0.0051712655099047655
885.0,0.005196000223366049
884.0,0.005248061027970733
883.0,0.005326596961079625
882.0,0.005434951153384443
881.0,0.005577449044702622
880.0,0.005749349372730951
879.0,0.005936301216592929
878.0,0.006124093888747814
877.0,0.006303227067994518
876.0,0.006465202118515898
875.0,0.006602875731174136
874.0,0.006714396028199766
873.0,0.006798068096880343
872.0,0.00684452794335008
871.0,0.006844920327432072
870.0,0.006807026412287968
869.0,0.006752885420743222
868.0,0.006699803406840081
867.0,0.006652173846615235
866.0,0.006609771435976587
865.0,0.006573039763991628
864.0,0.006539218621496796
863.0,0.0065024962881972525
862.0,0.006460346946814783
861.0,0.0064134782502821945
860.0,0.006359734446954625
859.0,0.006295542876780476
858.0,0.006223359116723625
857.0,0.006150059477178203
856.0,0.006077639906503139
855.0,0.006002505055749686
854.0,0.0059239373961699465
853.0,0.005846809014637579
852.0,0.0057768177853707615
851.0,0.005719463143231433
850.0,0.00568121710550366
849.0,0.005662881167357348
848.0,0.005652142871071613
847.0,0.005630828959010925
846.0,0.005590155236777172
845.0,0.0055327199287322475
844.0,0.005462143750126077
843.0,0.005380402704652525
842.0,0.0052943402216200485
841.0,0.005214206568216289
840.0,0.00514402921284937
839.0,0.005081009129757815
838.0,0.005024510824411393
837.0,0.004977685240763361
836.0,0.004939970928735158
835.0,0.004906308781083063
834.0,0.0048750586780068415
833.0,0.004849224011777172
832.0,0.004828787728368844
831.0,0.0048094325611668445
830.0,0.004790199026336907
829.0,0.00477477683597571
828.0,0.004763561150992258
827.0,0.004752654849517474
826.0,0.004742690115598769
825.0,0.004739334764103237
824.0,0.004742942526785204
823.0,0.0047479317139898555
822.0,0.004753509528351248
821.0,0.004763747160184899
820.0,0.004777259634242085
819.0,0.004788031256857877
818.0,0.004795883050897263
817.0,0.004806473884139238
816.0,0.0048214169583053
815.0,0.004837006800690947
814.0,0.004852349036224328
813.0,0.004869912672563873
812.0,0.004887997496357429
811.0,0.004901897743071112
810.0,0.004913219353374599
809.0,0.004929007733355799
808.0,0.004950953391202051
807.0,0.004974437975203687
806.0,0.00499849184274327
805.0,0.005026710218445049
804.0,0.005057578519250946
803.0,0.005084329459147618
802.0,0.005106044785593891
801.0,0.005128911717093702
800.0,0.005154815958092876
799.0,0.0051789703675228435
798.0,0.0052007787313265285
797.0,0.00522655699183232
796.0,0.0052588226642732525
795.0,0.0052929181072768495
794.0,0.00532687047136971
793.0,0.005364632937087726
792.0,0.005407064145093718
791.0,0.005449983106972282
790.0,0.005493761159024044
789.0,0.005544476620592341
788.0,0.005602615407897013
787.0,0.005660794929641335
786.0,0.005715794273068751
785.0,0.0057726255206604436
784.0,0.005833393548125145
783.0,0.005892603385523923
782.0,0.00594740442563468
781.0,0.006002498584713972
780.0,0.006060912110620912
779.0,0.006119411108770503
778.0,0.006176474915822119
777.0,0.006235460566915724
776.0,0.006297220752863932
775.0,0.006359328377161428
774.0,0.006424718278603766
773.0,0.006500289814718977
772.0,0.006584361930925648
771.0,0.006666685966765111
770.0,0.00674382927733721
769.0,0.006823350124295968
768.0,0.006910173156652648
767.0,0.007001308763722751
766.0,0.007097181865302442
765.0,0.007204687429809918
764.0,0.007324287728372817
763.0,0.007446521341604612
762.0,0.00756593984834834
761.0,0.0076865577747504445
760.0,0.007809289625138945
759.0,0.007926782488535462
758.0,0.008035252528445797
757.0,0.00813834651200717
756.0,0.008234651815862502
755.0,0.008315028631298717
754.0,0.008377294018078758
753.0,0.00842962448034558
752.0,0.008474787701779833
751.0,0.00850618405906214
750.0,0.008524777536381672
749.0,0.008544239314778573
748.0,0.00857235264625886
747.0,0.008601314159957497
746.0,0.008623134056415856
745.0,0.00864085715715851
744.0,0.008657824189222792
743.0,0.008669763381260184
742.0,0.008674829973056662
741.0,0.008678240272483116
740.0,0.008679942011044047
739.0,0.008670841958274857
738.0,0.008647515744988087
737.0,0.008617353950850875
736.0,0.008583778880261326
735.0,0.008540515189631472
734.0,0.00848632326112227
733.0,0.008431193263443926
732.0,0.008381679820119118
731.0,0.008334354374683495
730.0,0.008289988359273408
729.0,0.008259205683972703
728.0,0.008246624107864343
727.0,0.008244037611713852
726.0,0.00824683845958838
725.0,0.008262333285683633
724.0,0.008294502156094487
723.0,0.008335903864029503
722.0,0.008382323651175347
721.0,0.008440348326010465
720.0,0.008511554142789732
719.0,0.00858431847714005
718.0,0.008652028820907078
717.0,0.008723845370524074
716.0,0.008807875436409107
715.0,0.00889775204752747
714.0,0.008982762756458144
713.0,0.009057338251343684
712.0,0.009114329759371233
711.0,0.009145508583857178
710.0,0.00915692576214798
709.0,0.009168135220721806
708.0,0.009188897260371361
707.0,0.00921158929881773
706.0,0.009231625477224115
705.0,0.009257208654539745
704.0,0.009291728430253571
703.0,0.009325562989549365
702.0,0.009354147012776166
701.0,0.0093854421645536
700.0,0.009420749466199842
699.0,0.009447776769966776
698.0,0.009462146727113898
697.0,0.009476050459856923
696.0,0.009496173791650669
695.0,0.009513627599609921
694.0,0.009525654626053606
693.0,0.009545651443640786
692.0,0.00957987528053817
691.0,0.009615406272597403
690.0,0.009644111954319124
689.0,0.009677374498303793
688.0,0.009722545795503544
687.0,0.009768000708002232
686.0,0.009808197901833068
685.0,0.009856614701789577
684.0,0.009919088148579586
683.0,0.009983589661507843
682.0,0.010047936325328678
681.0,0.010128688210197342
680.0,0.01023090842252964
679.0,0.010338166940680127
678.0,0.010445323901835293
677.0,0.010569541920837488
676.0,0.010715755838062595
675.0,0.010864944647076602
674.0,0.011008755592186305
673.0,0.011160578088036568
672.0,0.011320597549601092
671.0,0.011470091311624957
670.0,0.011608688849423756
669.0,0.011777096355105477
668.0,0.011990426067918464
667.0,0.012157323775712065
666.0,0.012241392320244255
665.0,0.012310725335545586
664.0,0.012402245436625572
663.0,0.012497464513195177
662.0,0.012573722496271787
661.0,0.012640029327871703
660.0,0.012705978531597568
659.0,0.012755658006247849
658.0,0.01278563777243356
657.0,0.012823576904831487
656.0,0.012879621028191592
655.0,0.012924940889678545
654.0,0.012945241603926814
653.0,0.012968476819397032
652.0,0.01301122999721755
651.0,0.013048135440362946
650.0,0.013062530194832188
649.0,0.013075252132061475
648.0,0.01309147881248494
647.0,0.013076410488496611
646.0,0.013017258215878964
645.0,0.0129510429304974
644.0,0.01290112891813594
643.0,0.012844665881681108
642.0,0.01276891644876008
641.0,0.012701299471278998
640.0,0.012653334348081056
639.0,0.012595865446268173
638.0,0.012521880998291136
637.0,0.01246939103461461
636.0,0.012447025995060989
635.0,0.012407461247100928
634.0,0.012331174097689513
633.0,0.012261942891031292
632.0,0.01222057960106842
631.0,0.01216345324825107
630.0,0.012061974338839827
629.0,0.011946850251695073
628.0,0.011833884889720352
627.0,0.011683830212623335
626.0,0.011481033178289437
625.0,0.011277573705469952
624.0,0.011108226852371596
623.0,0.010942044688574893
622.0,0.010765522624447615
621.0,0.01062584460840861
620.0,0.010540067014385583
619.0,0.010451760181718055
618.0,0.01033019735640145
617.0,0.010223709830861672
616.0,0.010160537460820622
615.0,0.010104236849860813
614.0,0.010053533587013955
613.0,0.010069795260814307
612.0,0.010160403261401798
611.0,0.010241434625751562
610.0,0.010267426331994685
609.0,0.010298456839526203
608.0,0.010379787584497643
607.0,0.010465007189143855
606.0,0.010513951205477164
605.0,0.010562783723969061
604.0,0.010633495769047735
603.0,0.01068197372711643
602.0,0.01069039445201794
601.0,0.010707253066399948
600.0,0.010747620551621585
599.0,0.010753244136344531
598.0,0.010695464991238357
597.0,0.010619875857269489
596.0,0.010543846398959156
595.0,0.010418297856580438
594.0,0.010235069658128468
593.0,0.01005977265929595
592.0,0.009907807147030438
591.0,0.009703919023497931
590.0,0.009419791640658103
589.0,0.00912864309099633
588.0,0.008871617779622636
587.0,0.008599801595128142
586.0,0.008286853125821482
585.0,0.007984801811566127
584.0,0.007720307743852559
583.0,0.0074475479001687404
582.0,0.007148605593761494
581.0,0.00687077093205524
580.0,0.006618584986045815
579.0,0.006329562311086608
578.0,0.006001553965833975
577.0,0.005723257550040672
576.0,0.0055424818462453136
575.0,0.005415395566801168
574.0,0.005307702549145529
573.0,0.00524170193303879
572.0,0.005207185819085356
571.0,0.005139236290281304
570.0,0.005029318992631537
569.0,0.004951383390070223
568.0,0.004930888784731698
567.0,0.004898052096347189
566.0,0.004809962991262783
565.0,0.004715572579896146
564.0,0.004651066453647868
563.0,0.0045875396666114395
562.0,0.004516736561855042
561.0,0.004483933649111826
560.0,0.0044944208000423525
559.0,0.0044848537662894004
558.0,0.004427503358431633
557.0,0.004369223856524164
556.0,0.004325550752472608
555.0,0.004241942130369278
554.0,0.004101916910900153
553.0,0.003965098773584029
552.0,0.0038534478928411633
551.0,0.0037159001341177268
550.0,0.003536554733778386
