cm-1,A
4000.0,-0.0004275106242504767
3999.0,-0.00041345842399065076
3998.0,-0.0004093149519223652
3997.0,-0.0004098352417572508
3996.0,-0.00041390258372234895
3995.0,-0.00042505532206298037
3994.0,-0.00044365419971212783
3993.0,-0.00046160573562622326
3992.0,-0.00047006371075821525
3991.0,-0.0004680517227033563
3990.0,-0.00046019757905438883
3989.0,-0.0004468386883202185
3988.0,-0.0004203971422738447
3987.0,-0.0003779202502971516
3986.0,-0.0003345544702276892
3985.0,-0.0003178736699835116
3984.0,-0.0003403077474569999
3983.0,-0.0003807014066330224
3982.0,-0.00040030919652874614
3981.0,-0.00038201552189943196
3980.0,-0.000346277256838397
3979.0,-0.0003214881583240483
3978.0,-0.00031488229833503295
3977.0,-0.0003113909482462874
3976.0,-0.000293662600866316
3975.0,-0.0002609775744908283
3974.0,-0.00022699058586031083
3973.0,-0.00020792711841922614
3972.0,-0.0002144114370515671
3971.0,-0.0002468443607974472
3970.0,-0.00029310391007521925
3969.0,-0.0003325735041513785
3968.0,-0.00035360432950155103
3967.0,-0.0003592000658415638
3966.0,-0.00035482109120213196
3965.0,-0.00033912359153265574
3964.0,-0.0003101018200388963
3963.0,-0.000280012961401833
3962.0,-0.00027335190460564974
3961.0,-0.00030188602221807386
3960.0,-0.00034943501118598784
3959.0,-0.00037985544234733185
3958.0,-0.00036232269018524076
3957.0,-0.0002914443086876662
3956.0,-0.000190625979957086
3955.0,-9.971506367480697e-05
3954.0,-4.3418481403163355e-05
3953.0,-2.0337612224665107e-05
3952.0,-2.109963989814327e-05
3951.0,-4.309873037039685e-05
3950.0,-8.770479478569784e-05
3949.0,-0.0001461584206801734
3948.0,-0.00020171669866835733
3947.0,-0.00023034538153898646
3946.0,-0.00020536925993077802
3945.0,-0.00013640580075248367
3944.0,-7.446519222033677e-05
3943.0,-5.4961456664464345e-05
3942.0,-6.383810649042941e-05
3941.0,-6.54467928120064e-05
3940.0,-5.391988019924957e-05
3939.0,-5.8106069003599535e-05
3938.0,-9.588869726060269e-05
3937.0,-0.0001331324163079072
3936.0,-0.00011433993181693696
3935.0,-3.9813761272664786e-05
3934.0,3.3718531574215274e-05
3933.0,6.075898348158475e-05
3932.0,4.6972216668827354e-05
3931.0,9.64824961293331e-06
3930.0,-4.339386611238111e-05
3929.0,-7.34542859661901e-05
3928.0,-2.5681350602128547e-05
3927.0,0.00010105958010363041
3926.0,0.0002189096569411126
3925.0,0.00024032281615757605
3924.0,0.00018962482539784686
3923.0,0.00015484645536544494
3922.0,0.00016081464610423176
3921.0,0.00014666794442609534
3920.0,6.327968965250119e-05
3919.0,-5.5142040619723725e-05
3918.0,-0.0001463413688644504
3917.0,-0.00018296564053140092
3916.0,-0.0001744977269746619
3915.0,-0.00012874129922605358
3914.0,-6.835666272671714e-05
3913.0,-4.013049762265856e-05
3912.0,-7.314738182718356e-05
3911.0,-0.00013876715734863535
3910.0,-0.0001949134776177764
3909.0,-0.00022470839579068658
3908.0,-0.00022451781965891456
3907.0,-0.00018682345535976728
3906.0,-0.00010667425036755911
3905.0,-2.6512687092755324e-07
3904.0,9.871561792346205e-05
3903.0,0.00015753880203728883
3902.0,0.00019624003519557636
3901.0,0.00024047728610895403
3900.0,0.00024926656126036386
3899.0,0.00018489728796847356
3898.0,8.384109014326836e-05
3897.0,1.5025257307788682e-05
3896.0,-5.423071692662934e-06
3895.0,1.3783743263316196e-05
3894.0,6.79521329474918e-05
3893.0,0.00012942017664458448
3892.0,0.00010426207861900598
3891.0,-8.616222139092239e-05
3890.0,-0.00033861906530212316
3889.0,-0.000417526024618368
3888.0,-0.0002678381792466662
3887.0,-0.00011456726393702056
3886.0,-0.00013809267649798787
3885.0,-0.00019485415767828856
3884.0,-6.547938373690273e-05
3883.0,0.00025240954209149657
3882.0,0.0005236791971631287
3881.0,0.0005125844712872754
3880.0,0.000250331559575665
3879.0,-3.548255335572093e-05
3878.0,-0.00014959109970671654
3877.0,-7.94976624160248e-05
3876.0,-5.4175672207527545e-06
3875.0,-8.494810506502054e-05
3874.0,-0.00020544758635794645
3873.0,-0.00011133666161552134
3872.0,0.00022173735979169476
3871.0,0.0004871054499412733
3870.0,0.000408286723611484
3869.0,0.0001341507028405854
3868.0,1.9245856209535546e-05
3867.0,0.00014922273936872625
3866.0,0.00025596557908873956
3865.0,0.00015077676702742577
3864.0,2.5485275767238476e-06
3863.0,-6.75767215718541e-06
3862.0,3.7311153895018415e-05
3861.0,2.3936929429215674e-05
3860.0,-6.013553870934819e-05
3859.0,-0.00018666001696413382
3858.0,-0.0003188461441096579
3857.0,-0.0003960845593789426
3856.0,-0.0003783642758241781
3855.0,-0.0003916924767257793
3854.0,-0.0005478270099770953
3853.0,-0.0006506200096232151
3852.0,-0.0006271682143696659
3851.0,-0.0004628161335347876
3850.0,-0.00022899689100948362
3849.0,-7.822195226682102e-05
3848.0,-5.1705184584402e-05
3847.0,-8.856336362739778e-05
3846.0,-0.000150196769587893
3845.0,-0.00021643379427734467
3844.0,-0.0002631179965264858
3843.0,-0.0002730886138267066
3842.0,-0.00025455193488657646
3841.0,-0.00023821347784260178
3840.0,-0.0002485500208397823
3839.0,-0.00024849222825767915
3838.0,-0.00021932977427366698
3837.0,-0.00023109130615827115
3836.0,-0.00028741066337831364
3835.0,-0.00029361475542525575
3834.0,-0.00020531534998007223
3833.0,-8.985632433636303e-05
3832.0,-4.586373004626296e-05
3831.0,-7.855575134243435e-05
3830.0,-9.94648851078161e-05
3829.0,-3.2637402184188804e-05
3828.0,8.64758506314491e-05
3827.0,0.00015227687756323434
3826.0,0.00012816925971099037
3825.0,9.726206174072308e-05
3824.0,0.00012113049498309715
3823.0,7.753376457103156e-05
3822.0,-0.00017543270280201916
3821.0,-0.00037939937761017543
3820.0,-0.00028710180696114754
3819.0,-1.7637444944157074e-05
3818.0,0.00024318324469510175
3817.0,0.00024379433266412875
3816.0,-5.583928436677255e-05
3815.0,-0.0003343237187343873
3814.0,-0.000353855076999922
3813.0,-0.00020454496590318802
3812.0,-0.00011006839773186031
3811.0,-0.00013872039852797793
3810.0,-0.00016632845880048706
3809.0,-0.00012571500144935212
3808.0,-0.00015868455162147644
3807.0,-0.00036424412021470126
3806.0,-0.0005677548736990489
3805.0,-0.0005205406541138901
3804.0,-0.0002211465932499513
3803.0,3.251533829945973e-05
3802.0,5.207215631084514e-06
3801.0,-0.00012729522236774827
3800.0,-0.00012481962164044287
3799.0,3.709281108039324e-05
3798.0,0.00021300094096558136
3797.0,0.0002437270916083624
3796.0,0.00015521812612883734
3795.0,7.97006050458546e-05
3794.0,7.288569677926706e-05
3793.0,8.687013991640286e-05
3792.0,6.790434703264712e-05
3791.0,3.150088787742941e-05
3790.0,1.7671177990208863e-05
3789.0,3.071578153816942e-05
3788.0,5.247658595271829e-05
3787.0,6.968235134354839e-05
3786.0,6.389196878020856e-05
3785.0,2.3473347422626675e-05
3784.0,-2.4494423747763996e-05
3783.0,-2.0778183070704155e-05
3782.0,5.016214028576377e-05
3781.0,0.00012146625937987281
3780.0,0.0001341985547689739
3779.0,0.00013179510706080454
3778.0,0.0001689237085654425
3777.0,0.00023630819411705898
3776.0,0.0002743185158983717
3775.0,0.000232598119806092
3774.0,0.0001627264806641235
3773.0,0.00017209136781068564
3772.0,0.00025837297303656797
3771.0,0.00028788478209829126
3770.0,0.0002061391108961546
3769.0,0.00013718278079985144
3768.0,0.0001990534502367648
3767.0,0.0003453262553018675
3766.0,0.0004289823276450854
3765.0,0.00040484590340950414
3764.0,0.00039088995017917206
3763.0,0.000500546718013205
3762.0,0.0006616313985026074
3761.0,0.0007035083532137794
3760.0,0.0006221594039622952
3759.0,0.0005934762987498735
3758.0,0.0006540716319381149
3757.0,0.0006630645176249445
3756.0,0.000577223197584864
3755.0,0.00045014277586012197
3754.0,0.00028957109288407063
3753.0,7.881924559673863e-05
3752.0,-1.1635351489038687e-05
3751.0,0.00025094528280691724
3750.0,0.0005704847069997326
3749.0,0.0005719287554273741
3748.0,0.0004728355026824441
3747.0,0.0005907899769822013
3746.0,0.000835204000971387
3745.0,0.0008294943586909503
3744.0,0.0005130435805792675
3743.0,0.00024277962660536464
3742.0,0.00024063026069224983
3741.0,0.00035572827135967023
3740.0,0.0003916509495030184
3739.0,0.0003729064058471507
3738.0,0.00038823602685775856
3737.0,0.00037162866121432324
3736.0,0.0003263779068439787
3735.0,0.0004691077582630156
3734.0,0.0008238120205130545
3733.0,0.0011349095412794747
3732.0,0.001227685754726726
3731.0,0.0011755062501034108
3730.0,0.0011655679440602407
3729.0,0.001263278819411432
3728.0,0.0013547499072744645
3727.0,0.0013369307279517424
3726.0,0.0012941831162876223
3725.0,0.0013350536800422223
3724.0,0.0013901473556338327
3723.0,0.0013487248110529157
3722.0,0.0012523859157553357
3721.0,0.0012279002155121295
3720.0,0.001298599223414534
3719.0,0.0013600055820500363
3718.0,0.0013002851826796153
3717.0,0.0011382010816804017
3716.0,0.001013983267508622
3715.0,0.0010308976651609587
3714.0,0.0011662944650005888
3713.0,0.0013562582066866283
3712.0,0.0016025725751406864
3711.0,0.001855473231033898
3710.0,0.0019737385272845863
3709.0,0.001978043873279817
3708.0,0.00197114934109978
3707.0,0.0019908169495212835
3706.0,0.00204754799137263
3705.0,0.0021533970727061584
3704.0,0.0023029732470537996
3703.0,0.0024750294395755866
3702.0,0.002652127664119155
3701.0,0.002795370723086322
3700.0,0.002871534303520223
3699.0,0.0029017239355203775
3698.0,0.0028956683385019093
3697.0,0.0028463899143289515
3696.0,0.002808420473232997
3695.0,0.0028487736230415825
3694.0,0.0029294420654287718
3693.0,0.0029491804029671822
3692.0,0.0028812446621387143
3691.0,0.002861612299317362
3690.0,0.0030754673030070354
3689.0,0.0034408725252657764
3688.0,0.003655110993121739
3687.0,0.0037013725764608258
3686.0,0.003766286016846106
3685.0,0.00389145759598315
3684.0,0.004011743667310854
3683.0,0.004115919256742817
3682.0,0.004245915433535892
3681.0,0.004374103366060019
3680.0,0.004438687643432753
3679.0,0.004494240034701144
3678.0,0.004674547902838233
3677.0,0.004982112262305396
3676.0,0.00534001688786663
3675.0,0.005654164091096228
3674.0,0.0058239942627554145
3673.0,0.006028502746734836
3672.0,0.006316928798907067
3671.0,0.006525521607744865
3670.0,0.00670858598240635
3669.0,0.00699419449041851
3668.0,0.007296158461789987
3667.0,0.007568956822384195
3666.0,0.007799459168741385
3665.0,0.007983090664588487
3664.0,0.00816384296573035
3663.0,0.008388563812486429
3662.0,0.008644607873679554
3661.0,0.00888250853470181
3660.0,0.009105489558698518
3659.0,0.009361764915515722
3658.0,0.009666101766012349
3657.0,0.009962685729668384
3656.0,0.010215127156235312
3655.0,0.010466853371208942
3654.0,0.010807008184334794
3653.0,0.011241133212304431
3652.0,0.011625357559929283
3651.0,0.011896778266731882
3650.0,0.01238233594114054
3649.0,0.013247780915183093
3648.0,0.013880994479660375
3647.0,0.014055245491879004
3646.0,0.0141090451318059
3645.0,0.014280171429205525
3644.0,0.014590378461352766
3643.0,0.014964630574864201
3642.0,0.015351213693702171
3641.0,0.01575167631982308
3640.0,0.016173662726226987
3639.0,0.01659699205863554
3638.0,0.01701647563925395
3637.0,0.017452435403431502
3636.0,0.01788795656352169
3635.0,0.018246898382083553
3634.0,0.018518095263067767
3633.0,0.018842672736930462
3632.0,0.019367194762110778
3631.0,0.020034712719740597
3630.0,0.020597964990970146
3629.0,0.020987494541444888
3628.0,0.021311511219454016
3627.0,0.021623471347507917
3626.0,0.02198429315555622
3625.0,0.02234852624518059
3624.0,0.022652868439989232
3623.0,0.022932547569258287
3622.0,0.023257043981829765
3621.0,0.023647922367364297
3620.0,0.024130983853215167
3619.0,0.024723388531984043
3618.0,0.025323702476851544
3617.0,0.025871446439790596
3616.0,0.02643071607450883
3615.0,0.02702232797390363
3614.0,0.02757417984286673
3613.0,0.028001682741372602
3612.0,0.02829761957556385
3611.0,0.028547262217706208
3610.0,0.028835507455192155
3609.0,0.02920093058080509
3608.0,0.029653366420467463
3607.0,0.030139789959717576
3606.0,0.030585142333445163
3605.0,0.030967734583508835
3604.0,0.03130499988737776
3603.0,0.03163657605447297
3602.0,0.03202993404851596
3601.0,0.03253990995488335
3600.0,0.033160174450272396
3599.0,0.03380952111404868
3598.0,0.034390941127769095
3597.0,0.034840640364575015
3596.0,0.0351506895214214
3595.0,0.03537465500433277
3594.0,0.03561037359831963
3593.0,0.035929216494422114
3592.0,0.036332575985683506
3591.0,0.036777861857360435
3590.0,0.037190675315046835
3589.0,0.037523368650530096
3588.0,0.03789474943324238
3587.0,0.03845456131864006
3586.0,0.039079615042210594
3585.0,0.039604043113656125
3584.0,0.04001828607037578
3583.0,0.04037769249215044
3582.0,0.040759255002588354
3581.0,0.04122020035694496
3580.0,0.04174628837051156
3579.0,0.04225856166952644
3578.0,0.04269149108679555
3577.0,0.04305771133840593
3576.0,0.04342650183314435
3575.0,0.043860804049520044
3574.0,0.04436844582635438
3573.0,0.044907586570154034
3572.0,0.045428337612780416
3571.0,0.04591160024372134
3570.0,0.04635399303347497
3569.0,0.04673834610368839
3568.0,0.04710229982986964
3567.0,0.0475773940194365
3566.0,0.04817717094503219
3565.0,0.048777496189032134
3564.0,0.04931746540528798
3563.0,0.049776968811660806
3562.0,0.05014547859573794
3561.0,0.050468324998907056
3560.0,0.05082683207945313
3559.0,0.05126163220300227
3558.0,0.05173674112217482
3557.0,0.052190728563933454
3556.0,0.05260527461183712
3555.0,0.053020623877701435
3554.0,0.05349576587668449
3553.0,0.0540551402368538
3552.0,0.05465315784543161
3551.0,0.05521031881325943
3550.0,0.05568287141458528
3549.0,0.05606212226747217
3548.0,0.05636306011162267
3547.0,0.056664715936082535
3546.0,0.05708420617014154
3545.0,0.05763394574256852
3544.0,0.05819153283557805
3543.0,0.058660272826824594
3542.0,0.059054047494371334
3541.0,0.059435911437137987
3540.0,0.0598452139430338
3539.0,0.06028170443849041
3538.0,0.06073567368161795
3537.0,0.06121092112595644
3536.0,0.061714605465866657
3535.0,0.062232045023368696
3534.0,0.06273760635116057
3533.0,0.06321679388806999
3532.0,0.06367751119272941
3531.0,0.06415235298248748
3530.0,0.06467933645169559
3529.0,0.06525850120124972
3528.0,0.06583876935717578
3527.0,0.06637293528310258
3526.0,0.06686709523503491
3525.0,0.06735294502471319
3524.0,0.06783515355214527
3523.0,0.06829589812317371
3522.0,0.06874000383760463
3521.0,0.06919922889581952
3520.0,0.06968822987817108
3519.0,0.070184436294657
3518.0,0.07065988270196684
3517.0,0.07110587140294318
3516.0,0.07152328033631287
3515.0,0.07191918710771308
3514.0,0.07232803872250282
3513.0,0.07279944354221526
3512.0,0.07333614594395081
3511.0,0.07387380648221438
3510.0,0.07435822448955338
3509.0,0.07481480484741024
3508.0,0.07529805661576854
3507.0,0.07580509692419435
3506.0,0.0762895695119127
3505.0,0.07674544125967558
3504.0,0.07724332432577784
3503.0,0.07783532624054855
3502.0,0.07844853908158278
3501.0,0.07896861342599751
3500.0,0.07937871999513586
3499.0,0.07974734570071948
3498.0,0.0801472430045495
3497.0,0.08061844687944847
3496.0,0.08117123979684678
3495.0,0.08178482077163646
3494.0,0.08240588535178797
3493.0,0.08297745488994454
3492.0,0.08347952995619569
3491.0,0.08394087466505891
3490.0,0.08440935782492891
3489.0,0.08490412902918407
3488.0,0.08539794379527728
3487.0,0.08585114634697001
3486.0,0.08625788084793885
3485.0,0.08664957673194015
3484.0,0.08706050118842447
3483.0,0.08750134792037476
3482.0,0.08796450671358591
3481.0,0.08844075911842571
3480.0,0.08892312541070317
3479.0,0.08940056716711811
3478.0,0.08985946776505127
3477.0,0.09030080774280834
3476.0,0.09075278166596132
3475.0,0.09124815204056055
3474.0,0.09177771406343338
3473.0,0.09228517925562102
3472.0,0.09272281628242074
3471.0,0.09310567473848926
3470.0,0.0935080205047559
3469.0,0.09400335072591186
3468.0,0.09460002479422085
3467.0,0.09523376584478305
3466.0,0.09582076282651318
3465.0,0.0963178246078675
3464.0,0.096743605802796
3463.0,0.09715597644735867
3462.0,0.09760584207456736
3461.0,0.09809671703163306
3460.0,0.09858637179857035
3459.0,0.09903651071951577
3458.0,0.09946016958832847
3457.0,0.09990470372902313
3456.0,0.10038717518222405
3455.0,0.10086523190609681
3454.0,0.10128914871556055
3453.0,0.10167361176897706
3452.0,0.10209506937556269
3451.0,0.1026048069782487
3450.0,0.1031573449335189
3449.0,0.1036384160451996
3448.0,0.10397193157940192
3447.0,0.10420068002405117
3446.0,0.10443434226549764
3445.0,0.10473424237791504
3444.0,0.10509663646659209
3443.0,0.10551654061453757
3442.0,0.10601161215092844
3441.0,0.1065763169098829
3440.0,0.107152294798491
3439.0,0.10767347617712661
3438.0,0.10812518951495234
3437.0,0.1085411492652828
3436.0,0.10895432932597905
3435.0,0.10936885292405188
3434.0,0.10977954134554699
3433.0,0.11019397084828925
3432.0,0.11062050246428969
3431.0,0.11104087093994988
3430.0,0.11140792543246314
3429.0,0.1116821992690735
3428.0,0.11187349800159097
3427.0,0.11204521682191566
3426.0,0.11227586025867355
3425.0,0.11261264861227656
3424.0,0.11305114331647972
3423.0,0.11354260554442323
3422.0,0.1140152937585887
3421.0,0.11440474052098032
3420.0,0.11468991670705746
3419.0,0.1149066821205607
3418.0,0.11511806826997807
3417.0,0.11537206938386095
3416.0,0.11568606057142228
3415.0,0.11605459497749326
3414.0,0.1164552160516822
3413.0,0.116852352666013
3412.0,0.11721505060896997
3411.0,0.11753870897885123
3410.0,0.11784139365784574
3409.0,0.11813455305139088
3408.0,0.11840630951006936
3407.0,0.11864081672761795
3406.0,0.11884774545616729
3405.0,0.11906323893910144
3404.0,0.1193208975857626
3403.0,0.11962412793516308
3402.0,0.1199469820241085
3401.0,0.12025606637732746
3400.0,0.12052760415342682
3399.0,0.12075029784802102
3398.0,0.12092563137512828
3397.0,0.12106865466326325
3396.0,0.12120049601438491
3395.0,0.12133870151099585
3394.0,0.12149946743528439
3393.0,0.12170282645491523
3392.0,0.12195654528880027
3391.0,0.12222809923792953
3390.0,0.1224478401834476
3389.0,0.1225537816086745
3388.0,0.12254096583565466
3387.0,0.1224736727394512
3386.0,0.12244976904485663
3385.0,0.12254203819907541
3384.0,0.12275733272545086
3383.0,0.12303861841479828
3382.0,0.12330558736593454
3381.0,0.12350155565318613
3380.0,0.1236140050335937
3379.0,0.12366129210162449
3378.0,0.12366843430591085
3377.0,0.12366262018875403
3376.0,0.12368261299573227
3375.0,0.12376673157731635
3374.0,0.1239131837195481
3373.0,0.12406238222879434
3372.0,0.12414322911398183
3371.0,0.12414477159021965
3370.0,0.12412708932806374
3369.0,0.1241493004107946
3368.0,0.12419991185753529
3367.0,0.12421779366100195
3366.0,0.12417182014087388
3365.0,0.12409253428292318
3364.0,0.1240285151969204
3363.0,0.12400493525363601
3362.0,0.12403001766403231
3361.0,0.12410415112942513
3360.0,0.124196774480475
3359.0,0.12424259894854855
3358.0,0.12420052572369825
3357.0,0.12410854183317324
3356.0,0.12404584733915369
3355.0,0.12403601479948165
3354.0,0.12401909436580807
3353.0,0.12393318846955217
3352.0,0.12379534178444343
3351.0,0.12368195859743437
3350.0,0.12363949192790241
3349.0,0.12363141815316858
3348.0,0.12357558896305368
3347.0,0.12342714813789074
3346.0,0.123224053119428
3345.0,0.12305121912187104
3344.0,0.12295819141135933
3343.0,0.12291725668740973
3342.0,0.12286889658789797
3341.0,0.12279113784182084
3340.0,0.1226989422763613
3339.0,0.12258768246595994
3338.0,0.12242330763522487
3337.0,0.12220525796124389
3336.0,0.12199538106978634
3335.0,0.12184300979213492
3334.0,0.12170839189070243
3333.0,0.1215071480102293
3332.0,0.12122040939640741
3331.0,0.12092240237482627
3330.0,0.12069680426881164
3329.0,0.12055539751104838
3328.0,0.1204492877497563
3327.0,0.12033182310845261
3326.0,0.12018459846677065
3325.0,0.1199948734751073
3324.0,0.11974461861979038
3323.0,0.11943856053246055
3322.0,0.11912852748817157
3321.0,0.11888673211061676
3320.0,0.11874376500439558
3319.0,0.11865633108767865
3318.0,0.11854294241677
3317.0,0.11835215325084698
3316.0,0.11809339460039406
3315.0,0.11780785037044039
3314.0,0.11752533468950276
3313.0,0.11725341032722568
3312.0,0.11699344950129639
3311.0,0.11675391949569461
3310.0,0.11654775844743714
3309.0,0.11637856921677954
3308.0,0.11622611693015093
3307.0,0.116050842170441
3306.0,0.11582842218401722
3305.0,0.11558364421816728
3304.0,0.11537581338143406
3303.0,0.11523799185154861
3302.0,0.11513798815900621
3301.0,0.11501176405406384
3300.0,0.11482733876437674
3299.0,0.11460077927763461
3298.0,0.11435802604405758
3297.0,0.11410339958776593
3296.0,0.11383002677878033
3295.0,0.11354368235256657
3294.0,0.11326467578301895
3293.0,0.1130127734965704
3292.0,0.11279648941465895
3291.0,0.11261189221464846
3290.0,0.1124437294853166
3289.0,0.11226835461678741
3288.0,0.11206551486711609
3287.0,0.11183452029508192
3286.0,0.11159480803926831
3285.0,0.11136309587796735
3284.0,0.1111317031379353
3283.0,0.11088101014167957
3282.0,0.11061698673553137
3281.0,0.11037940577475096
3280.0,0.11019700944381822
3279.0,0.11004598953924179
3278.0,0.10987222682028173
3277.0,0.10964952284667438
3276.0,0.10939735809773689
3275.0,0.1091457098967659
3274.0,0.10890880287108184
3273.0,0.108694348919792
3272.0,0.10850332336062082
3271.0,0.10830437713569101
3270.0,0.10803893047898987
3269.0,0.10768201471304557
3268.0,0.10728947139023491
3267.0,0.10696068883671768
3266.0,0.10674946025294549
3265.0,0.10661828801298981
3264.0,0.10647601435720265
3263.0,0.10625495703465909
3262.0,0.10596212119815507
3261.0,0.10566785940435353
3260.0,0.10543902963262024
3259.0,0.10527526405142432
3258.0,0.10511392811242672
3257.0,0.1048934172581539
3256.0,0.10459589960341131
3255.0,0.1042314954076476
3254.0,0.10381530092698486
3253.0,0.10338060164171471
3252.0,0.10298735773040592
3251.0,0.1026823716531682
3250.0,0.1024545601664974
3249.0,0.10224699419026782
3248.0,0.10200917727209015
3247.0,0.10172706579828845
3246.0,0.10141444869313276
3245.0,0.10109718638590463
3244.0,0.10080022270309114
3243.0,0.10052823932445495
3242.0,0.10025717173631121
3241.0,0.09995560010467541
3240.0,0.09961446953491732
3239.0,0.09925190573724595
3238.0,0.09889529346841233
3237.0,0.09856466753563897
3236.0,0.09826287961307639
3235.0,0.097969751250194
3234.0,0.09765468510865391
3233.0,0.09730861982867804
3232.0,0.09695728584871674
3231.0,0.09663224870751055
3230.0,0.0963388582431462
3229.0,0.09606232838727802
3228.0,0.09578897100268731
3227.0,0.09550580430043536
3226.0,0.09519570582485899
3225.0,0.09485580228126035
3224.0,0.09450910334499196
3223.0,0.09417477332581599
3222.0,0.09383815977931234
3221.0,0.0934764629392022
3220.0,0.09310295716062505
3219.0,0.09274966157096719
3218.0,0.09240819587427816
3217.0,0.09202975428361818
3216.0,0.09159396614110529
3215.0,0.09114372120692862
3214.0,0.0907296824606204
3213.0,0.09034230743036874
3212.0,0.08993156025870103
3211.0,0.08948360311268656
3210.0,0.0890452314215462
3209.0,0.08866775458746795
3208.0,0.08834654671052528
3207.0,0.08802951707980078
3206.0,0.08767376938473573
3205.0,0.08727711326295624
3204.0,0.08685712326981325
3203.0,0.08641900084085198
3202.0,0.08595918090593596
3201.0,0.08549182422152936
3200.0,0.08504590971994122
3199.0,0.08462719387042326
3198.0,0.08420358464897502
3197.0,0.08374954248300807
3196.0,0.08329146296542332
3195.0,0.0828782992852802
3194.0,0.08251002993831176
3193.0,0.08212554801384304
3192.0,0.08167242983936186
3191.0,0.08117015772829772
3190.0,0.08068625205286194
3189.0,0.08025745459590407
3188.0,0.07985393808578374
3187.0,0.07942208554163324
3186.0,0.07894625209626151
3185.0,0.07845936329831865
3184.0,0.07799974540165036
3183.0,0.07757126315113665
3182.0,0.07714790723562297
3181.0,0.07670441554428586
3180.0,0.07623318785710835
3179.0,0.07573932318925329
3178.0,0.0752346804656974
3177.0,0.07474152814789015
3176.0,0.07429103057730786
3175.0,0.07390374995441187
3174.0,0.0735663608847619
3173.0,0.07323085770723657
3172.0,0.0728446586295926
3171.0,0.07238963522833446
3170.0,0.07189462295165618
3169.0,0.07140739558275466
3168.0,0.07095102771118494
3167.0,0.07050904266123997
3166.0,0.07005384394259742
3165.0,0.0695811128322828
3164.0,0.06910874802723785
3163.0,0.0686503629619534
3162.0,0.06820398541281292
3161.0,0.06776619926870894
3160.0,0.06734147910157884
3159.0,0.06692918056723847
3158.0,0.0665116763141749
3157.0,0.06606737933877632
3156.0,0.065594314280585
3155.0,0.06511478382568432
3154.0,0.06465912685745101
3153.0,0.06424888292480725
3152.0,0.0638890013720119
3151.0,0.06356492025783339
3150.0,0.06324444428760757
3149.0,0.06288899126122072
3148.0,0.06247187612302635
3147.0,0.06199361912281337
3146.0,0.06148499149122575
3145.0,0.06099311456134691
3144.0,0.06055420573053363
3143.0,0.060170698052309984
3142.0,0.05981258789833743
3141.0,0.059440671150892535
3140.0,0.059029422323393144
3139.0,0.05857722066774868
3138.0,0.058109215459198935
3137.0,0.05766986607682403
3136.0,0.0572925784710421
3135.0,0.056962138158863786
3134.0,0.05661710813211236
3133.0,0.05620968786780077
3132.0,0.055764039700576584
3131.0,0.05535593396353715
3130.0,0.05503018812981975
3129.0,0.05475205114948977
3128.0,0.054444026473271116
3127.0,0.05406316442637842
3126.0,0.05363294237912948
3125.0,0.05320447963615849
3124.0,0.05280749964001047
3123.0,0.05244469748478922
3122.0,0.05211266931033807
3121.0,0.05180648981518245
3120.0,0.05150735474359463
3119.0,0.05118754196914472
3118.0,0.05083944409923529
3117.0,0.05048863844428866
3116.0,0.050164763020422304
3115.0,0.049864032524997076
3114.0,0.049551835240719586
3113.0,0.049201607938068936
3112.0,0.04882202570854148
3111.0,0.04844611224930057
3110.0,0.048102557935786584
3109.0,0.04779842522817833
3108.0,0.04752241942824306
3107.0,0.04725902111435447
3106.0,0.046997272785344185
3105.0,0.04672869243278739
3104.0,0.04644427184357771
3103.0,0.04613991215428324
3102.0,0.045824394913117905
3101.0,0.04551733849863535
3100.0,0.045233412246179674
3099.0,0.04496700715651279
3098.0,0.044695503255463585
3097.0,0.044398476342800856
3096.0,0.04407463930772357
3095.0,0.043741466105502946
3094.0,0.04341739681043438
3093.0,0.043106036418390274
3092.0,0.042800498597793536
3091.0,0.042501297640296275
3090.0,0.042222480005044735
3089.0,0.041974720200090965
3088.0,0.04174784852593123
3087.0,0.04151924001984954
3086.0,0.04127915354907501
3085.0,0.041035548417340174
3084.0,0.0407913209816757
3083.0,0.040532775376858475
3082.0,0.04025047972372621
3081.0,0.03996128440561359
3080.0,0.03969267157619283
3079.0,0.03944785652291016
3078.0,0.03920463732713005
3077.0,0.03894778961320939
3076.0,0.0386846173475686
3075.0,0.038426563165602785
3074.0,0.03817190581471214
3073.0,0.03791512221295149
3072.0,0.03765892308900125
3071.0,0.0374049867111074
3070.0,0.03714350166470501
3069.0,0.03686813892818661
3068.0,0.036597238163489816
3067.0,0.036360446339575414
3066.0,0.03616045430751776
3065.0,0.03596369320732409
3064.0,0.03573702853559984
3063.0,0.035481170805726936
3062.0,0.03521712475808357
3061.0,0.03495317709301602
3060.0,0.03468063101169802
3059.0,0.03439615923732014
3058.0,0.034113972365172794
3057.0,0.03384934293690131
3056.0,0.03359786738845112
3055.0,0.033339203970878854
3054.0,0.033060534045337125
3053.0,0.03277151185999059
3052.0,0.032495184458562816
3051.0,0.032246155167259954
3050.0,0.032017951449179294
3049.0,0.03179061203435466
3048.0,0.03154902870283375
3047.0,0.03129116201282415
3046.0,0.031022297645142513
3045.0,0.030752874398023544
3044.0,0.030504731225722052
3043.0,0.030305127562162464
3042.0,0.03015788056471305
3041.0,0.03002393505280156
3040.0,0.02984668302872904
3039.0,0.02960495745582947
3038.0,0.029335027941779244
3037.0,0.029094106827855952
3036.0,0.028908320444469875
3035.0,0.028757580462785735
3034.0,0.028603005610835733
3033.0,0.02842345698987842
3032.0,0.028226900977970492
3031.0,0.028035904562955315
3030.0,0.027864152270036985
3029.0,0.02770537575439873
3028.0,0.02754491632043937
3027.0,0.027376570409618127
3026.0,0.02720382957338287
3025.0,0.02702573861431311
3024.0,0.026833081000200678
3023.0,0.026624466351551787
3022.0,0.02641467791339486
3021.0,0.02621679377250002
3020.0,0.026021738210461498
3019.0,0.025810568167961952
3018.0,0.025585236783241733
3017.0,0.02537781859433376
3016.0,0.02522510487740319
3015.0,0.025138188310341238
3014.0,0.02509656269991147
3013.0,0.02506407958141351
3012.0,0.0250107707217306
3011.0,0.024925350997147103
3010.0,0.024811229855202736
3009.0,0.024673611329864682
3008.0,0.02451719080992005
3007.0,0.02435850542693022
3006.0,0.02422779128232103
3005.0,0.02414515743329153
3004.0,0.024093749488851974
3003.0,0.024030265691056645
3002.0,0.023925017349334207
3001.0,0.023787697595547545
3000.0,0.023656640402306625
2999.0,0.023568812607234084
2998.0,0.02353798591560808
2997.0,0.02354963102864661
2996.0,0.02357298846765955
2995.0,0.02358326932119274
2994.0,0.02357528097576477
2993.0,0.023558370912193063
2992.0,0.023545613946674253
2991.0,0.023555933002194746
2990.0,0.023619123024346246
2989.0,0.02376098773401706
2988.0,0.023977143100115412
2987.0,0.024232876163765297
2986.0,0.024496616134089055
2985.0,0.024771868914516937
2984.0,0.025091632509978347
2983.0,0.025486694933567786
2982.0,0.025961651962467133
2981.0,0.02649956960146866
2980.0,0.027090609103417228
2979.0,0.02775732953246328
2978.0,0.028551622024405685
2977.0,0.029519711220380003
2976.0,0.030670839708592877
2975.0,0.03198245382885864
2974.0,0.03343791170892193
2973.0,0.035054767436677486
2972.0,0.03687696072690136
2971.0,0.038943489796567886
2970.0,0.04126377007385648
2969.0,0.04381834721737076
2968.0,0.04657454409614552
2967.0,0.04949427315497644
2966.0,0.05252058960493562
2965.0,0.05555693028525762
2964.0,0.05846367455070466
2963.0,0.061081189036129455
2962.0,0.06327105852198742
2961.0,0.06497014524154701
2960.0,0.06623598863209103
2959.0,0.06724870220428379
2958.0,0.06826334922335647
2957.0,0.06953504600398254
2956.0,0.07124814302558304
2955.0,0.07347055174469755
2954.0,0.07612299071356286
2953.0,0.07896898178800815
2952.0,0.08163329243880826
2951.0,0.08365946541626192
2950.0,0.08460729039086387
2949.0,0.08415718139986425
2948.0,0.08220795870108982
2947.0,0.07892472921410207
2946.0,0.07471720842834598
2945.0,0.07014668313450444
2944.0,0.06577140618540084
2943.0,0.06200933086534159
2942.0,0.05908717443374525
2941.0,0.057072350362871796
2940.0,0.05593316878968807
2939.0,0.0555949787407703
2938.0,0.05598203264148205
2937.0,0.05702869105925036
2936.0,0.058666866428741804
2935.0,0.06082295294293729
2934.0,0.06343830132405091
2933.0,0.06648942752421969
2932.0,0.06997314335397194
2931.0,0.07386618425917549
2930.0,0.07809837363551154
2929.0,0.0825576111853611
2928.0,0.08711978153460012
2927.0,0.09167410954774254
2926.0,0.09614296308696053
2925.0,0.10051082961655897
2924.0,0.10483476763878805
2923.0,0.10919229036331822
2922.0,0.11359755252090879
2921.0,0.11792945176152099
2920.0,0.12190107258606958
2919.0,0.12507296361760067
2918.0,0.12693133719454391
2917.0,0.12706407845024809
2916.0,0.12534038755181304
2915.0,0.12196687968815179
2914.0,0.11739064545508941
2913.0,0.1121724018644958
2912.0,0.10685989390966583
2911.0,0.10186198545853774
2910.0,0.09738439833697597
2909.0,0.09343408869262065
2908.0,0.08989375419539794
2907.0,0.08661039476665686
2906.0,0.08347565237496447
2905.0,0.0804519392627443
2904.0,0.07753331949597021
2903.0,0.07469795780499662
2902.0,0.07191293392471323
2901.0,0.0691797792929695
2900.0,0.06654931710437295
2899.0,0.06407956553964829
2898.0,0.06179144006237669
2897.0,0.05968050535585563
2896.0,0.05775351327935538
2895.0,0.05603922779320993
2894.0,0.054565213825897366
2893.0,0.0533337049670195
2892.0,0.05232097135242085
2891.0,0.05149406944168599
2890.0,0.050831804852561197
2889.0,0.05033171901682951
2888.0,0.04999906510549178
2887.0,0.04982943296039277
2886.0,0.0498055479291371
2885.0,0.04991091000476752
2884.0,0.05014248106100117
2883.0,0.050506025299047984
2882.0,0.05099546412401894
2881.0,0.051570925810686875
2880.0,0.052151818141909945
2879.0,0.05262943692058019
2878.0,0.052900121930288424
2877.0,0.05290784693591252
2876.0,0.05268100316354624
2875.0,0.05233916534024124
2874.0,0.052050969080436195
2873.0,0.05196563104111202
2872.0,0.05214768756184531
2871.0,0.05256547799972639
2870.0,0.05312496700427307
2869.0,0.0536944553085435
2868.0,0.05409136312411442
2867.0,0.05407442505299953
2866.0,0.05340347381955868
2865.0,0.05195324396828247
2864.0,0.04979950859954284
2863.0,0.04721938395611249
2862.0,0.044601546427501845
2861.0,0.042333163639054115
2860.0,0.04068329589082142
2859.0,0.03974421917530518
2858.0,0.0394681182335811
2857.0,0.03976421950368115
2856.0,0.040561891864959065
2855.0,0.04180712224506416
2854.0,0.043418039376998674
2853.0,0.04523421625998176
2852.0,0.04699065637143347
2851.0,0.04833575366618507
2850.0,0.04894683839463403
2849.0,0.0487129845977434
2848.0,0.04784433586618262
2847.0,0.04678880412445374
2846.0,0.045991447386071124
2845.0,0.0457097874852092
2844.0,0.04598357212070314
2843.0,0.046710824933868654
2842.0,0.04771309434297817
2841.0,0.048761299053114056
2840.0,0.04958739825361523
2839.0,0.049912981474531694
2838.0,0.049497094054962304
2837.0,0.04818383114489257
2836.0,0.04595277910320982
2835.0,0.042948730893728145
2834.0,0.039457880634199784
2833.0,0.03583832266451193
2832.0,0.032408249206570434
2831.0,0.029371200315995456
2830.0,0.0268003422731864
2829.0,0.024672322540984407
2828.0,0.022923365600271126
2827.0,0.02148838243726193
2826.0,0.02031379817166406
2825.0,0.019347048286521368
2824.0,0.01852962863904903
2823.0,0.017814883543224136
2822.0,0.01718662929110898
2821.0,0.0166436420602906
2820.0,0.01617249924025486
2819.0,0.015746622782924633
2818.0,0.015350507167960745
2817.0,0.014987265006798915
2816.0,0.014658535521341762
2815.0,0.014353836821953013
2814.0,0.014065841374751285
2813.0,0.01380088815225241
2812.0,0.013565160959874197
2811.0,0.013349953128793666
2810.0,0.013137155851463335
2809.0,0.012910527470447757
2808.0,0.012657786826073191
2807.0,0.01237492442873486
2806.0,0.012075608488661769
2805.0,0.011786616320566013
2804.0,0.011525442517660875
2803.0,0.011288463344300887
2802.0,0.011065404462439032
2801.0,0.010854242749355212
2800.0,0.01065708694663518
2799.0,0.010474986327927014
2798.0,0.010314425180381481
2797.0,0.010184902155868213
2796.0,0.010078634247188831
2795.0,0.009965132606322655
2794.0,0.009822244092627979
2793.0,0.009663892284564532
2792.0,0.00951938224113592
2791.0,0.009391626528372752
2790.0,0.009254384309122062
2789.0,0.009091523979529986
2788.0,0.008921185265116292
2787.0,0.00877400227148621
2786.0,0.008659336251687778
2785.0,0.00855981853323858
2784.0,0.008451925746178405
2783.0,0.008324141189823851
2782.0,0.008179700876308132
2781.0,0.008032043636285839
2780.0,0.007898712026458733
2779.0,0.007791984799277065
2778.0,0.00771034993733462
2777.0,0.007638395713627238
2776.0,0.00755872943018427
2775.0,0.0074688990966675015
2774.0,0.007384366580037216
2773.0,0.007321731334229644
2772.0,0.007280290692626415
2771.0,0.0072417670952567015
2770.0,0.0071868266324693585
2769.0,0.0071100310608798855
2768.0,0.007021258495480731
2767.0,0.0069375948670615676
2766.0,0.006873659195815631
2765.0,0.006833788207618756
2764.0,0.006811131976075453
2763.0,0.006795904219029056
2762.0,0.0067819581145667
2761.0,0.006761847062811404
2760.0,0.0067234085704889505
2759.0,0.006662552964428939
2758.0,0.006596201831341744
2757.0,0.00654929010661185
2756.0,0.006524988295313157
2755.0,0.006499115328391184
2754.0,0.0064500888302981355
2753.0,0.006384844902948905
2752.0,0.006327748189800384
2751.0,0.006291026707005317
2750.0,0.006267314696329004
2749.0,0.006246137913929643
2748.0,0.006225378900381327
2747.0,0.006205929158970928
2746.0,0.006184582470120836
2745.0,0.0061593438379662635
2744.0,0.006137823388556083
2743.0,0.006132318698179572
2742.0,0.006144166402128157
2741.0,0.006158269683119052
2740.0,0.006158842530527408
2739.0,0.006148150556498536
2738.0,0.006143444739853408
2737.0,0.006155778766789569
2736.0,0.006180839679905603
2735.0,0.006212168600991459
2734.0,0.0062522217512097755
2733.0,0.006303053317487119
2732.0,0.006354051079331603
2731.0,0.006390419730060783
2730.0,0.006411440183098711
2729.0,0.006431498825199859
2728.0,0.006465142073860947
2727.0,0.0065184968588670004
2726.0,0.006590570843622566
2725.0,0.006670794330242792
2724.0,0.006735033938905449
2723.0,0.00675596941945537
2722.0,0.0067225723402405775
2721.0,0.006645361002591407
2720.0,0.006542718922734017
2719.0,0.006427515097068207
2718.0,0.006305050915805909
2717.0,0.006177210614419532
2716.0,0.006048031474358551
2715.0,0.00592792269012672
2714.0,0.0058292320208684755
2713.0,0.005751185202111171
2712.0,0.005673753655955958
2711.0,0.005576523371010878
2710.0,0.005462636719523894
2709.0,0.005354976153713355
2708.0,0.0052714185127611685
2707.0,0.005214192230547652
2706.0,0.005179735115094697
2705.0,0.005163650260140593
2704.0,0.0051538516703332525
2703.0,0.005132885839724139
2702.0,0.005092804753874483
2701.0,0.005039004799401813
2700.0,0.004977334176369969
2699.0,0.004908594282663143
2698.0,0.004838633552037312
2697.0,0.004781887217734288
2696.0,0.0047476047296195045
2695.0,0.004729763163407664
2694.0,0.004715250075608699
2693.0,0.004694579676390724
2692.0,0.004662438553828234
2691.0,0.0046184614559482305
2690.0,0.004574428833731401
2689.0,0.004552299364488441
2688.0,0.0045647804440812
2687.0,0.004599619760518378
2686.0,0.004628441922011701
2685.0,0.004630206148453328
2684.0,0.004605705800985244
2683.0,0.004574185382272869
2682.0,0.0045573465499371855
2681.0,0.0045610078396440875
2680.0,0.004569076611828228
2679.0,0.004559859743546826
2678.0,0.004529469948397706
2677.0,0.00449386127709399
2676.0,0.0044677528600513515
2675.0,0.004450019015438048
2674.0,0.004433389783481139
2673.0,0.004419366068637955
2672.0,0.004414535215344525
2671.0,0.004415516565015371
2670.0,0.0044069943396347734
2669.0,0.004379229206274255
2668.0,0.004345886176475572
2667.0,0.004339636885785345
2666.0,0.004383814345267543
2665.0,0.004464661922855084
2664.0,0.004536894700815406
2663.0,0.004562913273448576
2662.0,0.004545261893766596
2661.0,0.004516184884815427
2660.0,0.004499325681708796
2659.0,0.0044914127115103595
2658.0,0.004478248820278042
2657.0,0.004455226352739558
2656.0,0.004426375444299619
2655.0,0.004392418455073955
2654.0,0.004348236710913087
2653.0,0.004290263923203151
2652.0,0.004222906603861728
2651.0,0.004158650350292654
2650.0,0.004111398771404773
2649.0,0.004084865938561452
2648.0,0.004067155500851241
2647.0,0.0040410423327880834
2646.0,0.003999695385369179
2645.0,0.003948927624440215
2644.0,0.003896246332816487
2643.0,0.003844413806930882
2642.0,0.0037944460402655486
2641.0,0.0037467897614550444
2640.0,0.0036982710654449927
2639.0,0.0036444524896120144
2638.0,0.003586634960753234
2637.0,0.0035320705595245647
2636.0,0.003487803375929975
2635.0,0.0034585850193601785
2634.0,0.003447692675231795
2633.0,0.0034515371394591376
2632.0,0.0034549523095009364
2631.0,0.003441122758548973
2630.0,0.0034075306358088923
2629.0,0.003367133987644563
2628.0,0.003334960916140482
2627.0,0.003319124005456833
2626.0,0.003320677960777712
2625.0,0.0033318756691131726
2624.0,0.0033359794559582366
2623.0,0.003318489191744785
2622.0,0.0032803198459051253
2621.0,0.0032350047198547957
2620.0,0.0031940255809695638
2619.0,0.0031599150557080576
2618.0,0.0031294077695332395
2617.0,0.003096543513017707
2616.0,0.0030573312197537355
2615.0,0.003017066626782981
2614.0,0.00298487588709552
2613.0,0.0029535711923220588
2612.0,0.002898962643923931
2611.0,0.00281412301408886
2610.0,0.0027336212965929202
2609.0,0.002702229555411116
2608.0,0.002722483617911477
2607.0,0.0027530442554222316
2606.0,0.002756138621065627
2605.0,0.0027285057201449263
2604.0,0.002687449542978616
2603.0,0.002646923431431156
2602.0,0.0026124974543336897
2601.0,0.0025835850815707677
2600.0,0.002554418254383872
2599.0,0.002521742397267317
2598.0,0.002492114909446569
2597.0,0.0024732919961754024
2596.0,0.002461731143267222
2595.0,0.0024489797442081127
2594.0,0.002434825396184086
2593.0,0.0024214816289305804
2592.0,0.002401363128791585
2591.0,0.002365574258829188
2590.0,0.0023207714852536087
2589.0,0.0022861419897274586
2588.0,0.0022801696659977932
2587.0,0.0023180671231088947
2586.0,0.0024044031219068334
2585.0,0.002510931243254205
2584.0,0.002580999464532272
2583.0,0.002583546837808316
2582.0,0.0025490461704340893
2581.0,0.00252316398318862
2580.0,0.0025010215169763306
2579.0,0.0024437286499578107
2578.0,0.0023483144033980344
2577.0,0.0022576175331301255
2576.0,0.002199678985444563
2575.0,0.002159366000863501
2574.0,0.002117674627901609
2573.0,0.002080202611658718
2572.0,0.002053680440019114
2571.0,0.002028496389748678
2570.0,0.0020004211058358523
2569.0,0.001981022167646122
2568.0,0.001971864419007732
2567.0,0.001954469526747269
2566.0,0.0019199858729995445
2565.0,0.0018832823543587871
2564.0,0.0018530329990955044
2563.0,0.0018139655094469515
2562.0,0.0017575615878874474
2561.0,0.001707856130797603
2560.0,0.0016941698325913823
2559.0,0.0017124575256189174
2558.0,0.0017323218420958373
2557.0,0.001732218912354927
2556.0,0.0017136947427089121
2555.0,0.0016886166430240212
2554.0,0.0016641465248354503
2553.0,0.0016381478019760654
2552.0,0.0016060963520213374
2551.0,0.0015754338375973272
2550.0,0.0015661762897300007
2549.0,0.0015843332260109312
2548.0,0.0016032979014121728
2547.0,0.0015921296402270353
2546.0,0.0015568061576166305
2545.0,0.0015307045444284643
2544.0,0.0015289424923850548
2543.0,0.0015401175862666458
2542.0,0.0015614974553316097
2541.0,0.0016069906527495475
2540.0,0.0016701976678312582
2539.0,0.0017108567105044007
2538.0,0.001694551038806097
2537.0,0.0016263780391635053
2536.0,0.00153608548007594
2535.0,0.001451501041069685
2534.0,0.0013968109177605994
2533.0,0.001391314981018599
2532.0,0.0014291340970120328
2531.0,0.0014733718285438197
2530.0,0.0014864921211962855
2529.0,0.0014623569433680247
2528.0,0.0014258637174290336
2527.0,0.0014110249701089282
2526.0,0.0014381644629482483
2525.0,0.0014953337373616287
2524.0,0.0015404751833001783
2523.0,0.0015389498086282173
2522.0,0.0014992961606741086
2521.0,0.0014556148072891058
2520.0,0.0014207390622130423
2519.0,0.0013840976111244988
2518.0,0.0013529070350058443
2517.0,0.001356180543235991
2516.0,0.0013939759570446811
2515.0,0.0014174496595125272
2514.0,0.001384791684104626
2513.0,0.001317350251254385
2512.0,0.0012766363007207019
2511.0,0.0012952087746201802
2510.0,0.0013475996986475898
2509.0,0.0013833891197269938
2508.0,0.0013772746044030267
2507.0,0.0013496054942519508
2506.0,0.0013414830088553766
2505.0,0.0013659598787819423
2504.0,0.001388553311846377
2503.0,0.0013683056989923052
2502.0,0.0013128530283903375
2501.0,0.0012738988015656095
2500.0,0.0012896204482557572
2499.0,0.001352484409713163
2498.0,0.001433278812366336
2497.0,0.001508825149765919
2496.0,0.0015574490845012587
2495.0,0.0015548147592277478
2494.0,0.0014964486489350175
2493.0,0.001415183076063663
2492.0,0.001360348561444485
2491.0,0.0013585595303825027
2490.0,0.0013951101577582092
2489.0,0.0014275284414271235
2488.0,0.0014208086883604463
2487.0,0.001379674770259624
2486.0,0.0013421509515269064
2485.0,0.0013318888571439275
2484.0,0.0013280460829066807
2483.0,0.001299306157149401
2482.0,0.0012544682811155745
2481.0,0.001231856963276685
2480.0,0.001243641743024313
2479.0,0.0012597664065523372
2478.0,0.0012483401287440258
2477.0,0.0012068385919412432
2476.0,0.0011536763427466654
2475.0,0.001115019166163897
2474.0,0.0011191409321879993
2473.0,0.0011735761214807532
2472.0,0.0012436723868067307
2471.0,0.0012817899250676672
2470.0,0.001281854084195032
2469.0,0.001278261869379235
2468.0,0.0012902012915682508
2467.0,0.001301117597729098
2466.0,0.00129940768709759
2465.0,0.0013008643815448087
2464.0,0.0013137915416548776
2463.0,0.0013158296477764509
2462.0,0.0012894288592374228
2461.0,0.0012556254446824567
2460.0,0.0012486431856193858
2459.0,0.0012747355666392788
2458.0,0.0013159722643694086
2457.0,0.0013583865886344884
2456.0,0.0013982246835438463
2455.0,0.0014348159894678383
2454.0,0.0014733916857563403
2453.0,0.0015213111220327073
2452.0,0.0015677541137638516
2451.0,0.0015834375724226373
2450.0,0.0015562872926671606
2449.0,0.001511526231154294
2448.0,0.0014787008940235094
2447.0,0.0014545547291853682
2446.0,0.0014207505411056398
2445.0,0.0013861880347821813
2444.0,0.001383885020837106
2443.0,0.001424505087686862
2442.0,0.0014733354240249424
2441.0,0.001482407300330618
2440.0,0.0014383862276910585
2439.0,0.0013730799031697286
2438.0,0.0013287461787390203
2437.0,0.001317736071281796
2436.0,0.0013205497932425403
2435.0,0.0013210322768346964
2434.0,0.0013281816792083347
2433.0,0.0013524011201504031
2432.0,0.0013756832755993694
2431.0,0.0013703843565359237
2430.0,0.0013444947643624955
2429.0,0.001341854360785886
2428.0,0.0013900475467543232
2427.0,0.0014680927224695445
2426.0,0.001534309440993247
2425.0,0.0015672828875503044
2424.0,0.001567045179646117
2423.0,0.0015319226153233064
2422.0,0.0014555555631192323
2421.0,0.0013482747230694917
2420.0,0.0012494027540513918
2419.0,0.0012077843776026678
2418.0,0.001242868078664123
2417.0,0.0013223984207469655
2416.0,0.001385617276773838
2415.0,0.0013960512636469803
2414.0,0.0013668839179326077
2413.0,0.0013320389985658748
2412.0,0.0013073246358951281
2411.0,0.0012913177648782616
2410.0,0.001287474668453487
2409.0,0.001301841769006616
2408.0,0.0013256422976600426
2407.0,0.0013419876126221928
2406.0,0.001346684332202216
2405.0,0.00134511280526865
2404.0,0.0013358219891167014
2403.0,0.0013171656769039098
2402.0,0.0013031670844281733
2401.0,0.0013091487995348836
2400.0,0.0013244119432266831
2399.0,0.0013240425696414608
2398.0,0.0013090151584227926
2397.0,0.0013104943589349754
2396.0,0.0013491427934595283
2395.0,0.0014092403287518603
2394.0,0.0014567951662247016
2393.0,0.0014670322435806802
2392.0,0.0014351899037749279
2391.0,0.0013808095877118867
2390.0,0.0013437345203112716
2389.0,0.0013550359089340258
2388.0,0.0014051393526602484
2387.0,0.001456314835882076
2386.0,0.0014882360547609531
2385.0,0.0015126398395196336
2384.0,0.0015405293507856777
2383.0,0.0015567188206437742
2382.0,0.0015401492563628264
2381.0,0.0014978008354972249
2380.0,0.0014642217393394386
2379.0,0.0014689188794187724
2378.0,0.0015083069785654382
2377.0,0.001544526949912175
2376.0,0.0015345311393376124
2375.0,0.0014759138244510514
2374.0,0.0014234769957747813
2373.0,0.00143346078038276
2372.0,0.0014868245543945358
2371.0,0.00150344706594257
2370.0,0.0014445410800164842
2369.0,0.0013622036976946817
2368.0,0.0013343451918434522
2367.0,0.0013935965435088872
2366.0,0.0015326471776232204
2365.0,0.0017154053828869489
2364.0,0.0018580567874001966
2363.0,0.0018738892654143464
2362.0,0.0017763732789854193
2361.0,0.0016810231294360186
2360.0,0.0016667136414376105
2359.0,0.0017007097175124456
2358.0,0.00172772197487873
2357.0,0.0017493093963195229
2356.0,0.0017888396333893492
2355.0,0.0018322797513984235
2354.0,0.0018454960583185855
2353.0,0.0018240177494472593
2352.0,0.0018040611685210708
2351.0,0.0018269737571927655
2350.0,0.0018832744524564572
2349.0,0.0019185460470829687
2348.0,0.0018872409629894574
2347.0,0.0017956626454235622
2346.0,0.0017145859068492296
2345.0,0.0017108030236859784
2344.0,0.001781611065743266
2343.0,0.0018876034081918465
2342.0,0.0020229023882156545
2341.0,0.0021807329744881272
2340.0,0.0022900862526730823
2339.0,0.0022904517348800372
2338.0,0.0022256954757314835
2337.0,0.002202032662697206
2336.0,0.0022461964746689758
2335.0,0.0022827816349647156
2334.0,0.002244319830676457
2333.0,0.0021541291722534505
2332.0,0.0020846031542595352
2331.0,0.002088121786023639
2330.0,0.0021786956150160524
2329.0,0.0023641979303749092
2328.0,0.002653330754020621
2327.0,0.003026441923826676
2326.0,0.00341255986770261
2325.0,0.0036790076906205327
2324.0,0.0037033587609250143
2323.0,0.0034855519430313496
2322.0,0.0031803549778759176
2321.0,0.002961705481943837
2320.0,0.002875406745255568
2319.0,0.0028667141354842126
2318.0,0.002886373797573386
2317.0,0.0029199046534592924
2316.0,0.0029375923182342486
2315.0,0.002905028253422687
2314.0,0.002828640989443159
2313.0,0.002749916851936018
2312.0,0.0026870734528875793
2311.0,0.0026289617974770366
2310.0,0.0025836983506428535
2309.0,0.0025820003377634705
2308.0,0.0026269842856960664
2307.0,0.0026789261350144877
2306.0,0.0027028943893288764
2305.0,0.0026959811303020284
2304.0,0.0026677789216163713
2303.0,0.0026272152056285056
2302.0,0.0025946980683016594
2301.0,0.0025943440489041296
2300.0,0.0026230489654609445
2299.0,0.0026522184134921373
2298.0,0.002665915809194238
2297.0,0.002670946786186506
2296.0,0.002671927039820968
2295.0,0.0026662837109372732
2294.0,0.0026686512383425976
2293.0,0.002704527979023488
2292.0,0.002773700902218219
2291.0,0.002844546299686504
2290.0,0.002891824447022139
2289.0,0.0029079014070159666
2288.0,0.0028799292610638613
2287.0,0.0027944571303664947
2286.0,0.0026794385333062808
2285.0,0.002601428533468594
2284.0,0.002596183109688765
2283.0,0.0026289928720940802
2282.0,0.002639697364373538
2281.0,0.002606022803571525
2280.0,0.002550166245649386
2279.0,0.002509512640134015
2278.0,0.002511143060063302
2277.0,0.0025473760225653915
2276.0,0.0025635024900635696
2275.0,0.002501275410639517
2274.0,0.0023694827929661207
2273.0,0.0022461287125579957
2272.0,0.0021982174870916527
2271.0,0.0022221961354220773
2270.0,0.002269383173370054
2269.0,0.0022958209305650756
2268.0,0.002281759854204813
2267.0,0.002237866565190859
2266.0,0.0022061378352103804
2265.0,0.0022246566421726373
2264.0,0.002278317075656447
2263.0,0.0023100415925525835
2262.0,0.002287199044092431
2261.0,0.0022325133361444883
2260.0,0.0021892022934407117
2259.0,0.002178895524459819
2258.0,0.002187429457679494
2257.0,0.0021641604471175388
2256.0,0.002051121531967273
2255.0,0.0018554563588766295
2254.0,0.0016814715355159312
2253.0,0.0016419198676841471
2252.0,0.0017385926703615542
2251.0,0.0018711001984629862
2250.0,0.0019520690250533351
2249.0,0.0019687112218292444
2248.0,0.0019511608394441153
2247.0,0.0019393441919196971
2246.0,0.0019725769271184213
2245.0,0.002047125167979833
2244.0,0.0020858698539128087
2243.0,0.002013753907464239
2242.0,0.0018661321159063834
2241.0,0.0017630164689128294
2240.0,0.0017645584300825645
2239.0,0.0018121463101989834
2238.0,0.0018206420741229616
2237.0,0.0017741583137906975
2236.0,0.0017219459388901166
2235.0,0.0017233969280916763
2234.0,0.0017981136476975623
2233.0,0.0018864529726168632
2232.0,0.0018829058489249202
2231.0,0.0017635422597637876
2230.0,0.001651545495103382
2229.0,0.001680964320685043
2228.0,0.0018203866368213125
2227.0,0.0019247246982989886
2226.0,0.0019352499738484537
2225.0,0.0019189188486792852
2224.0,0.0019199672756351543
2223.0,0.0018992470997738044
2222.0,0.0018431005024741073
2221.0,0.0018122827474522942
2220.0,0.0018376493035061423
2219.0,0.0018667799922740171
2218.0,0.0018588969743777327
2217.0,0.0018457075618867266
2216.0,0.001857814200157183
2215.0,0.0018701748397717132
2214.0,0.0018580074785930199
2213.0,0.0018306671695774769
2212.0,0.0017809862806707588
2211.0,0.0016864193840919074
2210.0,0.001591784117566397
2209.0,0.0015986641216357983
2208.0,0.0017246566668397691
2207.0,0.0018552972585606825
2206.0,0.001890924775024911
2205.0,0.0018663297783915894
2204.0,0.0018706101695044968
2203.0,0.0019124073413087166
2202.0,0.0019195674590566886
2201.0,0.001835548964596942
2200.0,0.001682719419582701
2199.0,0.0015563194072305787
2198.0,0.0015591703915401676
2197.0,0.001694740648898713
2196.0,0.001830566599208926
2195.0,0.0018405263204205407
2194.0,0.0017717474695191518
2193.0,0.0017778321184247303
2192.0,0.0018937876532147714
2191.0,0.0019891314605449423
2190.0,0.0019612864600714926
2189.0,0.0018595442186099343
2188.0,0.0017750351296242444
2187.0,0.0017151688247086655
2186.0,0.0016510735699343958
2185.0,0.0015964660439904829
2184.0,0.0015666879491904315
2183.0,0.0015314465116648523
2182.0,0.0014677976594157651
2181.0,0.0013964366515689032
2180.0,0.0013202499533237577
2179.0,0.001196248121725744
2178.0,0.001017882179724305
2177.0,0.0008691826802887323
2176.0,0.0008496257552712157
2175.0,0.0009822570269614832
2174.0,0.001218179783641871
2173.0,0.001486883240671461
2172.0,0.0017344538855443544
2171.0,0.0019546518270530623
2170.0,0.0021705517983718102
2169.0,0.0023492022531838084
2168.0,0.002388873328404108
2167.0,0.002265255952223331
2166.0,0.0021472058743527045
2165.0,0.00225222937046999
2164.0,0.0025784984498309414
2163.0,0.002869853267645515
2162.0,0.0028186044112000035
2161.0,0.0022286040401519845
2160.0,0.0011078603903525363
2159.0,-0.00022388332626780127
2158.0,-0.001217077034636677
2157.0,-0.0014930319829072837
2156.0,-0.0011597353754157454
2155.0,-0.0006237288788760393
2154.0,-0.00019288977621194215
2153.0,5.2558312949466004e-05
2152.0,0.00015680349281439732
2151.0,0.00019591711124799404
2150.0,0.000259241317309436
2149.0,0.00038567401078494696
2148.0,0.0005101521636732064
2147.0,0.000565072920141911
2146.0,0.0005968689287011035
2145.0,0.0006872798203915923
2144.0,0.0007940124969638136
2143.0,0.0007819470324095947
2142.0,0.0005962113399549572
2141.0,0.00031558510045720105
2140.0,5.499260497830673e-05
2139.0,-0.00011243574398150397
2138.0,-0.0001665211151085384
2137.0,-0.00015900634140930691
2136.0,-0.0001892908837277778
2135.0,-0.00027340887683124145
2134.0,-0.00028942283690289487
2133.0,-0.0001387742686136948
2132.0,0.00010195274048194002
2131.0,0.0002878342867752912
2130.0,0.0004017720010228359
2129.0,0.0005332994482294679
2128.0,0.0007070201589233691
2127.0,0.0008485262151933255
2126.0,0.0009130085233024342
2125.0,0.000940340266370715
2124.0,0.000970775327842714
2123.0,0.0009941332583105792
2122.0,0.0010000108077630535
2121.0,0.0010097309908288425
2120.0,0.0010440496723137605
2119.0,0.0011178850532930396
2118.0,0.0012632027598614066
2117.0,0.0014896994798519192
2116.0,0.0017249505886728351
2115.0,0.001863179698007375
2114.0,0.0018789220848282728
2113.0,0.0018299230353613096
2112.0,0.0017584365325108832
2111.0,0.0016690694468826444
2110.0,0.0016027210017228184
2109.0,0.001633746477006604
2108.0,0.0017656466279850397
2107.0,0.0019065310394055703
2106.0,0.001971779922714813
2105.0,0.0019525801423822334
2104.0,0.0018733355830484054
2103.0,0.001757413952551395
2102.0,0.0016536972724870225
2101.0,0.0016237990293782954
2100.0,0.0016670886973840005
2099.0,0.0017068599185392065
2098.0,0.0016718832882562356
2097.0,0.0015505519277616592
2096.0,0.001376234702389715
2095.0,0.001216229430515209
2094.0,0.0011670978368613348
2093.0,0.0012822597464447777
2092.0,0.0014965035987577412
2091.0,0.0016825204954141221
2090.0,0.0017816841571114495
2089.0,0.0018321205273604635
2088.0,0.0018755843018694756
2087.0,0.0019098811410542963
2086.0,0.0019309104759932401
2085.0,0.0019429043704015333
2084.0,0.0019173588538233901
2083.0,0.0018101098020452484
2082.0,0.0016367928607948926
2081.0,0.001476808197614867
2080.0,0.0013927624235387582
2079.0,0.0013889651638814872
2078.0,0.0014391937930090882
2077.0,0.0014960723797620367
2076.0,0.001494892424943153
2075.0,0.0014244129027501163
2074.0,0.0013688422176033827
2073.0,0.0014054061322789709
2072.0,0.001491518038257133
2071.0,0.0015368646898059068
2070.0,0.0015433519086789304
2069.0,0.0015626792682983436
2068.0,0.0015620283680417082
2067.0,0.0014625317797504602
2066.0,0.001293312917438309
2065.0,0.0011785396600180497
2064.0,0.0011674104903475575
2063.0,0.0012130010504286827
2062.0,0.001309908583653189
2061.0,0.0014889927138204227
2060.0,0.0016899012053625184
2059.0,0.0017993146845459195
2058.0,0.0018098583784548817
2057.0,0.0017925931414191675
2056.0,0.0017372526397542137
2055.0,0.001598868265554084
2054.0,0.0014896531229271802
2053.0,0.001604171645634969
2052.0,0.001909240393983368
2051.0,0.00211116987978529
2050.0,0.0020033106402626787
2049.0,0.0017051486964352026
2048.0,0.0014476079141163708
2047.0,0.0012861665254757708
2046.0,0.0011870891182810637
2045.0,0.0011762645788433313
2044.0,0.0012353374136856593
2043.0,0.001236427539333089
2042.0,0.001132583928777267
2041.0,0.0010739284509587153
2040.0,0.0011899987210516694
2039.0,0.0013984969113485595
2038.0,0.001545526411031719
2037.0,0.0015710851722058779
2036.0,0.0014577273464387382
2035.0,0.0011956341451719165
2034.0,0.0008919264844866109
2033.0,0.0007358042550221698
2032.0,0.0007397288874334195
2031.0,0.000711318267034594
2030.0,0.00057354285636939
2029.0,0.0004930349740612016
2028.0,0.0006003047621606246
2027.0,0.0007943607958631848
2026.0,0.0009281838382996113
2025.0,0.0009855726345517333
2024.0,0.0009693478677355975
2023.0,0.0008183078047528786
2022.0,0.0005624167841721299
2021.0,0.0003825780239563312
2020.0,0.00038464198442044297
2019.0,0.00045786533740778596
2018.0,0.00045370060911299694
2017.0,0.0003688724518004476
2016.0,0.00026944419380156304
2015.0,0.0001910396483734153
2014.0,0.00020409144820340296
2013.0,0.0003977533133173771
2012.0,0.0007057501802818165
2011.0,0.0009039134600541919
2010.0,0.0008545416029563951
2009.0,0.0006271716683302992
2008.0,0.00033290322521848314
2007.0,1.70974046483896e-06
2006.0,-0.0003053002071616702
2005.0,-0.0004553267563057911
2004.0,-0.00041643168463120507
2003.0,-0.0003116815985948973
2002.0,-0.000241982402327098
2001.0,-0.00019083466785341552
2000.0,-0.00012851450529793862
1999.0,-7.667086467425243e-05
1998.0,-3.126919890056756e-05
1997.0,4.7419951536104455e-05
1996.0,0.0001305380386632091
1995.0,0.00014546829227422148
1994.0,0.00013101203441720445
1993.0,0.00023887123048368252
1992.0,0.0005011827786928842
1991.0,0.0007515199014362325
1990.0,0.0008868541491339799
1989.0,0.0009788173766910502
1988.0,0.0010618581495858424
1987.0,0.001039624549051326
1986.0,0.0008734223359760804
1985.0,0.0007032289521652291
1984.0,0.0006812310773919923
1983.0,0.0007995368160193477
1982.0,0.0009495651198726001
1981.0,0.0010363384200614654
1980.0,0.0009774215398938835
1979.0,0.0007151833880893177
1978.0,0.0003222448884782053
1977.0,-2.4821678897093526e-05
1976.0,-0.0002533423479808934
1975.0,-0.00042244621395492175
1974.0,-0.0005193391311112674
1973.0,-0.00043275064272600163
1972.0,-0.0001721429434095101
1971.0,8.066047010695493e-05
1970.0,0.00019067134820035525
1969.0,0.00018764025665977746
1968.0,0.00014263241649306057
1967.0,7.530115587108544e-05
1966.0,2.5762603811422037e-05
1965.0,5.22022906735195e-05
1964.0,0.00010443887892073467
1963.0,4.502375617281257e-05
1962.0,-0.00017710056724236378
1961.0,-0.00046109359334259493
1960.0,-0.0006778712961805832
1959.0,-0.0007665770182222219
1958.0,-0.0007011331401499925
1957.0,-0.0005012400452240567
1956.0,-0.000287972709926045
1955.0,-0.00019418986649991532
1954.0,-0.00020255393324365188
1953.0,-0.00018391163954544732
1952.0,-9.386713540456992e-05
1951.0,-6.053752149102256e-06
1950.0,3.2489953797051885e-05
1949.0,4.47976372537584e-05
1948.0,3.1686526539710603e-05
1947.0,-3.530447231548472e-05
1946.0,-0.00011683340207762904
1945.0,-0.00012523603900687353
1944.0,-6.134748367498966e-05
1943.0,-2.483664060325125e-05
1942.0,-5.3514536964612385e-05
1941.0,-7.974765122026362e-05
1940.0,-7.748597890164244e-05
1939.0,-9.384094320814434e-05
1938.0,-0.00014332188369882502
1937.0,-0.00019336360128457947
1936.0,-0.00024094427285946974
1935.0,-0.00030722407897277535
1934.0,-0.00035254432508945285
1933.0,-0.00030847684085222684
1932.0,-0.00020761567513823543
1931.0,-0.00016370472711247763
1930.0,-0.00021717589305077667
1929.0,-0.0003124713472016342
1928.0,-0.0004135361394590096
1927.0,-0.0005295585888804537
1926.0,-0.0006205803839213237
1925.0,-0.0006000326521870436
1924.0,-0.00046140520040546964
1923.0,-0.0003157250713244254
1922.0,-0.00024376749613222714
1921.0,-0.00019824022463994524
1920.0,-0.000125175573173707
1919.0,-5.283170105889744e-05
1918.0,-1.522562397289907e-05
1917.0,7.437400759225722e-07
1916.0,-2.9309916167870017e-06
1915.0,-5.178364449668569e-05
1914.0,-0.00013399611169825432
1913.0,-0.000190153083876648
1912.0,-0.0001882997438661287
1911.0,-0.00015682816077141536
1910.0,-0.00012285411352241427
1909.0,-8.863862205596239e-05
1908.0,-7.57359908708223e-05
1907.0,-0.0001088980165898197
1906.0,-0.00014679546233087857
1905.0,-0.00011699212692416417
1904.0,-2.743974045414535e-05
1903.0,3.98737894291225e-05
1902.0,4.463448850810614e-05
1901.0,2.087795593962898e-05
1900.0,-8.461237540804923e-06
1899.0,-6.380925528780301e-05
1898.0,-0.00014047508981165268
1897.0,-0.00019223449465904073
1896.0,-0.000209853236549583
1895.0,-0.0002373329834145843
1894.0,-0.0002783116345991882
1893.0,-0.0002781828552872935
1892.0,-0.00022272516791089982
1891.0,-0.00016655914908119177
1890.0,-0.0001484991972666627
1889.0,-0.00014564084053960487
1888.0,-0.00014353383492416078
1887.0,-0.00016611474149380947
1886.0,-0.00021364776561414182
1885.0,-0.000249303629925178
1884.0,-0.00025586140662461074
1883.0,-0.0002538106192803689
1882.0,-0.00025149926998261826
1881.0,-0.00023697164056069996
1880.0,-0.00022358341010115027
1879.0,-0.00024111874314305547
1878.0,-0.0002759341561008894
1877.0,-0.0002837513311982556
1876.0,-0.0002720794197101777
1875.0,-0.00029518674939019857
1874.0,-0.0003567439868629802
1873.0,-0.00039981819330584006
1872.0,-0.0004006255689373117
1871.0,-0.00039703387169424357
1870.0,-0.0004046756496690956
1869.0,-0.0003629947032697335
1868.0,-0.00027105241247668956
1867.0,-0.0002279702666297314
1866.0,-0.0002500293018204335
1865.0,-0.00027559319248511983
1864.0,-0.0002919069860454984
1863.0,-0.0003270433304750702
1862.0,-0.00037150628373731377
1861.0,-0.00037261754194913303
1860.0,-0.0003249521753693629
1859.0,-0.0002866489554031312
1858.0,-0.00028435312676954397
1857.0,-0.00028496633151114676
1856.0,-0.0002754960824780147
1855.0,-0.00028850779640755776
1854.0,-0.00032744897170786927
1853.0,-0.0003487864646292689
1852.0,-0.0003353421511627017
1851.0,-0.00032377814935542315
1850.0,-0.000338424231137599
1849.0,-0.00034788444686957944
1848.0,-0.0003306231803146964
1847.0,-0.0003194871651979634
1846.0,-0.00035010309927112706
1845.0,-0.000397719302173287
1844.0,-0.0004196030847382477
1843.0,-0.00043135782855187104
1842.0,-0.0004449158917275172
1841.0,-0.00043827030487512595
1840.0,-0.0004233206109753001
1839.0,-0.00043727741471212046
1838.0,-0.0004711734501178854
1837.0,-0.0004684958266095321
1836.0,-0.00042084312130777205
1835.0,-0.00038385858837920446
1834.0,-0.0003791331254779846
1833.0,-0.00036710435790193534
1832.0,-0.00031864550651780404
1831.0,-0.000258322059063811
1830.0,-0.00021164172067342723
1829.0,-0.00017736533562770582
1828.0,-0.00017111093309263932
1827.0,-0.00021464961138431505
1826.0,-0.00029258286177752694
1825.0,-0.0003364922031990792
1824.0,-0.00031660925503182143
1823.0,-0.000293863661849621
1822.0,-0.00030480931914593783
1821.0,-0.00032475556891996835
1820.0,-0.00034032384548088
1819.0,-0.0003734299836194114
1818.0,-0.00042147853778122285
1817.0,-0.00043472892689403386
1816.0,-0.0003983756484267737
1815.0,-0.0003545444817541817
1814.0,-0.0003240908108687712
1813.0,-0.00027352594600418335
1812.0,-0.00018353713522176163
1811.0,-0.00010399685137801569
1810.0,-7.833903123572123e-05
1809.0,-7.73877594397517e-05
1808.0,-6.747503892973227e-05
1807.0,-5.792182241756358e-05
1806.0,-5.1620164431215006e-05
1805.0,-2.2863754915346734e-05
1804.0,3.460484938299377e-05
1803.0,9.057722142911148e-05
1802.0,0.00012544602770567302
1801.0,0.00015919163064220332
1800.0,0.00019137027964337698
1799.0,0.00018612138719544197
1798.0,0.00015860551260526426
1797.0,0.00017027085486843356
1796.0,0.00023215294801828086
1795.0,0.00028521423798994264
1794.0,0.0002750078549342435
1793.0,0.00023243158983968833
1792.0,0.00023086879621977714
1791.0,0.0002512340871151349
1790.0,0.00024784356957886344
1789.0,0.0002446569548907049
1788.0,0.0002600246160554785
1787.0,0.00027575648389456314
1786.0,0.0002833360326922269
1785.0,0.0003004635568225472
1784.0,0.00032164747997882014
1783.0,0.00031305914354299224
1782.0,0.00026880145677557303
1781.0,0.00023314865003169587
1780.0,0.00023499627069378587
1779.0,0.0002357634442086815
1778.0,0.00021290657892194392
1777.0,0.00020063107944433061
1776.0,0.00022032639744030014
1775.0,0.0002480591671226427
1774.0,0.0002510368424606269
1773.0,0.00028324420229486943
1772.0,0.00041855735890288437
1771.0,0.0005546469440057735
1770.0,0.0005977157127725419
1769.0,0.0006114504358472658
1768.0,0.0006400546730635729
1767.0,0.000657089443460432
1766.0,0.0006495928084930048
1765.0,0.000656725634366613
1764.0,0.0007072883769637579
1763.0,0.0007839004650492935
1762.0,0.0008663645754318008
1761.0,0.00095361715250256
1760.0,0.0010320803559255099
1759.0,0.0010810304605586587
1758.0,0.0011167583160038687
1757.0,0.0011952018879295436
1756.0,0.0013265231341694742
1755.0,0.0014377567887391058
1754.0,0.0015042900747172347
1753.0,0.0015820340065764247
1752.0,0.0017285875973255243
1751.0,0.001922597529581409
1750.0,0.002089555514625363
1749.0,0.0022443296116853705
1748.0,0.0024178473004075503
1747.0,0.0025458016596742825
1746.0,0.0025955545478180226
1745.0,0.0026384290969541082
1744.0,0.0027311999767393362
1743.0,0.00283366193282757
1742.0,0.0028954658348955145
1741.0,0.0029511511775427253
1740.0,0.0030438489741457953
1739.0,0.003131681147271098
1738.0,0.0031684306798977274
1737.0,0.003205805232158256
1736.0,0.0032981893253558343
1735.0,0.003433763433445514
1734.0,0.0035817094795347997
1733.0,0.0037019719893750924
1732.0,0.0037936753308527036
1731.0,0.0038726308386441734
1730.0,0.0039458856422545175
1729.0,0.004043848404318986
1728.0,0.004170085016183074
1727.0,0.004291191954711929
1726.0,0.004401148338167455
1725.0,0.004544285736228037
1724.0,0.004740298814404921
1723.0,0.00492054146377104
1722.0,0.0050366982977753435
1721.0,0.005132698591877773
1720.0,0.005262032126814996
1719.0,0.005404400127773743
1718.0,0.00556643901170872
1717.0,0.005866285923965221
1716.0,0.006272025566233441
1715.0,0.006593129589807218
1714.0,0.006787658404405508
1713.0,0.006948270107173681
1712.0,0.007136890482156311
1711.0,0.0073407670806912625
1710.0,0.007542546380215049
1709.0,0.007772095216719319
1708.0,0.008060800439390349
1707.0,0.008390362749662754
1706.0,0.008744786061076001
1705.0,0.009144755235705234
1704.0,0.009524659841013043
1703.0,0.009833070928326118
1702.0,0.010095463800903664
1701.0,0.010489338808782812
1700.0,0.011140003687414624
1699.0,0.01170632953962185
1698.0,0.012028799746783286
1697.0,0.012489976170895655
1696.0,0.013276205842609846
1695.0,0.01400876511294618
1694.0,0.014446494393679076
1693.0,0.014785837994668417
1692.0,0.015179561095025232
1691.0,0.015655108958489754
1690.0,0.01618860324877177
1689.0,0.016764290955904194
1688.0,0.017305438372864503
1687.0,0.01777363400969674
1686.0,0.01818471756923093
1685.0,0.018866397696569344
1684.0,0.020053851843327093
1683.0,0.02101075568326418
1682.0,0.021446192941674023
1681.0,0.02182759071732646
1680.0,0.022320799842188963
1679.0,0.022842862638565303
1678.0,0.02329710748572498
1677.0,0.02374273281956595
1676.0,0.02431626845650388
1675.0,0.02499780290176468
1674.0,0.025577916492475507
1673.0,0.02601616043788785
1672.0,0.02645488745662358
1671.0,0.02696752286741596
1670.0,0.027566068140296045
1669.0,0.02818911751299829
1668.0,0.02872276709337855
1667.0,0.029123192085847065
1666.0,0.02944133283871768
1665.0,0.029766059281000082
1664.0,0.030173906837686205
1663.0,0.030665860639437097
1662.0,0.031145057034404164
1661.0,0.031556782257584196
1660.0,0.031944978432565496
1659.0,0.032294895806762966
1658.0,0.03256875830410872
1657.0,0.03277536105815514
1656.0,0.032990583481830725
1655.0,0.0332114779004139
1654.0,0.033383151880777354
1653.0,0.03363123157436117
1652.0,0.03392331376746406
1651.0,0.034138633917075174
1650.0,0.03430756204496994
1649.0,0.034431457053066515
1648.0,0.03454183222554841
1647.0,0.03463632228794486
1646.0,0.03462585253198235
1645.0,0.03457294883854623
1644.0,0.034577893238493036
1643.0,0.03459963741561349
1642.0,0.03456868352998812
1641.0,0.034485819353257584
1640.0,0.034408754122503084
1639.0,0.03435288634591954
1638.0,0.03426699187180623
1637.0,0.0340770606530072
1636.0,0.033792589480678224
1635.0,0.03349790910367737
1634.0,0.03323174150554546
1633.0,0.03301694963945672
1632.0,0.032841288367841816
1631.0,0.032647659001438255
1630.0,0.032375431922623495
1629.0,0.03200327232435792
1628.0,0.0315870183831256
1627.0,0.03120269643108134
1626.0,0.030852449261506626
1625.0,0.0304722034178537
1624.0,0.02998207155591162
1623.0,0.029394093244719387
1622.0,0.028853715230754806
1621.0,0.028453758427929417
1620.0,0.028145248523687605
1619.0,0.027817936741347624
1618.0,0.027327638145818196
1617.0,0.026624370403383522
1616.0,0.02594220229842688
1615.0,0.025479874554783944
1614.0,0.025144855043690115
1613.0,0.02481027912887486
1612.0,0.02443190549451567
1611.0,0.02401738878200488
1610.0,0.023590121820516282
1609.0,0.023159822148532773
1608.0,0.02273903243077403
1607.0,0.022351874768309195
1606.0,0.022010372236650377
1605.0,0.021695989953141207
1604.0,0.021387656064021685
1603.0,0.021083816839014616
1602.0,0.020796206460685036
1601.0,0.020524654698999997
1600.0,0.020255266898486377
1599.0,0.019981233928786837
1598.0,0.019706737310481903
1597.0,0.01943552021636653
1596.0,0.019167898418608817
1595.0,0.018914463164902074
1594.0,0.01869463422203588
1593.0,0.018510198600886665
1592.0,0.018341938625105948
1591.0,0.01817628525066482
1590.0,0.018018284238437595
1589.0,0.017876631514520652
1588.0,0.017751196086099544
1587.0,0.01763989444180874
1586.0,0.017544976034847535
1585.0,0.01746165078415018
1584.0,0.017382276957555797
1583.0,0.01730984256494755
1582.0,0.017251211865720532
1581.0,0.01720615083929491
1580.0,0.017166974321162636
1579.0,0.017128149699194704
1578.0,0.017081875320497878
1577.0,0.017020673792486323
1576.0,0.016949721498692772
1575.0,0.016889785138370233
1574.0,0.01686007954501978
1573.0,0.016852564374052567
1572.0,0.016838904167425207
1571.0,0.016788986257817218
1570.0,0.016719134352429253
1569.0,0.01667086929338947
1568.0,0.01663286231237364
1567.0,0.016586032972573352
1566.0,0.0165371422956525
1565.0,0.01649566344363647
1564.0,0.016463906976950788
1563.0,0.016447255124862285
1562.0,0.01643403090238632
1561.0,0.01641549132126414
1560.0,0.016249376489920444
1559.0,0.016073702653904128
1558.0,0.016141851534928763
1557.0,0.01620410887651356
1556.0,0.016199581113285132
1555.0,0.016176893866035547
1554.0,0.016126996072275124
1553.0,0.01609668141773883
1552.0,0.016080387668158894
1551.0,0.016057692115106124
1550.0,0.016005088802648566
1549.0,0.015943333480192095
1548.0,0.015887500032261498
1547.0,0.015831383275879796
1546.0,0.01574652705394499
1545.0,0.015629871274484165
1544.0,0.015514181409943234
1543.0,0.015399405547272229
1542.0,0.015213829211449405
1541.0,0.014938785695524075
1540.0,0.014741045762948254
1539.0,0.014672547562887973
1538.0,0.014632504763024742
1537.0,0.01461513349043634
1536.0,0.014591116060520985
1535.0,0.014484243015594665
1534.0,0.014255689058910875
1533.0,0.014010615439395132
1532.0,0.013854793226771581
1531.0,0.013738817292062108
1530.0,0.013615982797844931
1529.0,0.013484888202370676
1528.0,0.0133550245683575
1527.0,0.013225119518395667
1526.0,0.013092444900357832
1525.0,0.012972628137143585
1524.0,0.012871492161841722
1523.0,0.01274973260592769
1522.0,0.01261811731243754
1521.0,0.012575660121768709
1520.0,0.012591898766805571
1519.0,0.01256253108710936
1518.0,0.012463701677507742
1517.0,0.012338239716538888
1516.0,0.012238040944942796
1515.0,0.012144762881281492
1514.0,0.012037368825538488
1513.0,0.011920431800043194
1512.0,0.011790757068067686
1511.0,0.011638999208431481
1510.0,0.011488754204432516
1509.0,0.011377970988813869
1508.0,0.011354980000397925
1507.0,0.011385416068432543
1506.0,0.011325046891435934
1505.0,0.01122555571709746
1504.0,0.011183897687600489
1503.0,0.011161547453620933
1502.0,0.011139402079829011
1501.0,0.011137749214695226
1500.0,0.011167867224568098
1499.0,0.01119151986350781
1498.0,0.011201986831056228
1497.0,0.01129181914695625
1496.0,0.011461866799032511
1495.0,0.011580119560639212
1494.0,0.011634219500124016
1493.0,0.01169142851196528
1492.0,0.011749370490651449
1491.0,0.0117423913273031
1490.0,0.01170402179644392
1489.0,0.011778080455728566
1488.0,0.011921896879487321
1487.0,0.012003318725652912
1486.0,0.01205253070339831
1485.0,0.012144960327637844
1484.0,0.012286382803342055
1483.0,0.012452841011191932
1482.0,0.012670083654315371
1481.0,0.012979295712093997
1480.0,0.013331215620781035
1479.0,0.013664884472894129
1478.0,0.014056784473227418
1477.0,0.01465879021370613
1476.0,0.01549249810204701
1475.0,0.01644564159825218
1474.0,0.017665360469437976
1473.0,0.019558041961610706
1472.0,0.02169218995538063
1471.0,0.023246107040070504
1470.0,0.024414881277637933
1469.0,0.025632634256157263
1468.0,0.02699291028235669
1467.0,0.028531349910170714
1466.0,0.03044521189337064
1465.0,0.032830065338568644
1464.0,0.035038031720007815
1463.0,0.036416198166435654
1462.0,0.037155238933828
1461.0,0.0376104349968714
1460.0,0.03790600377329507
1459.0,0.03805108223208139
1458.0,0.038306377886084375
1457.0,0.03887897306560251
1456.0,0.03920044030510409
1455.0,0.03909517750164176
1454.0,0.03890518862038792
1453.0,0.038645133387781375
1452.0,0.0381997891225361
1451.0,0.03753593308418598
1450.0,0.03665077796513687
1449.0,0.03537495018888117
1448.0,0.033581737965276935
1447.0,0.03162425072117851
1446.0,0.02996662294506243
1445.0,0.028637768537841585
1444.0,0.027473889402867248
1443.0,0.0264461691264768
1442.0,0.025634601542084485
1441.0,0.02506507468359402
1440.0,0.024696747988225805
1439.0,0.024512245992219416
1438.0,0.024522579270807924
1437.0,0.02462381248174497
1436.0,0.024518866263063724
1435.0,0.024083540347663673
1434.0,0.023457796442092407
1433.0,0.02271579717457367
1432.0,0.021883424778751576
1431.0,0.021070464069062145
1430.0,0.020402836036359864
1429.0,0.01991080520177496
1428.0,0.019564436388899886
1427.0,0.01934649787231589
1426.0,0.019210505829333775
1425.0,0.019074619474676084
1424.0,0.018917007814575608
1423.0,0.01879924674298301
1422.0,0.01873818282991094
1421.0,0.018658215983783935
1420.0,0.018474977300778378
1419.0,0.018230944709319845
1418.0,0.01805017429318308
1417.0,0.017918779061026253
1416.0,0.017773504132262315
1415.0,0.017616544813666802
1414.0,0.017440448174896202
1413.0,0.01720706598523296
1412.0,0.016901684548881177
1411.0,0.016570249509558974
1410.0,0.016253609865846536
1409.0,0.0159375181687119
1408.0,0.01560510012575151
1407.0,0.015266892026838206
1406.0,0.014901974068877631
1405.0,0.014454639046119117
1404.0,0.013974463215927012
1403.0,0.01359748249284324
1402.0,0.013339660804270362
1401.0,0.013085324682478933
1400.0,0.012753330762066386
1399.0,0.012412446599684105
1398.0,0.012152575434847285
1397.0,0.011915902023744422
1396.0,0.011629824277363476
1395.0,0.011347019763139485
1394.0,0.011123573770401803
1393.0,0.010930107930917782
1392.0,0.010770445192740449
1391.0,0.010692490910370871
1390.0,0.010691179928142856
1389.0,0.010720598215060106
1388.0,0.0108293511013959
1387.0,0.011183418611727173
1386.0,0.011835184220167192
1385.0,0.012743502250977999
1384.0,0.014042435200581828
1383.0,0.01597931655914823
1382.0,0.018701713556205857
1381.0,0.022297649640985042
1380.0,0.0269228128249741
1379.0,0.03245545101309473
1378.0,0.03803396955259554
1377.0,0.0423676620105299
1376.0,0.04430474369756728
1375.0,0.04284838926629893
1374.0,0.03810264024905549
1373.0,0.03218558719760377
1372.0,0.027048464055990873
1371.0,0.02294815628711075
1370.0,0.0195440100796745
1369.0,0.016755856265173594
1368.0,0.0147150458706523
1367.0,0.013423142735266826
1366.0,0.012686374920548117
1365.0,0.012310005428411864
1364.0,0.012188493216385935
1363.0,0.012297454268032738
1362.0,0.012597467088546768
1361.0,0.01294728551802635
1360.0,0.01318081253073855
1359.0,0.013192257374047101
1358.0,0.01293145024188428
1357.0,0.012398331202851026
1356.0,0.011646261294278606
1355.0,0.010783395037933952
1354.0,0.00994880024756535
1353.0,0.009238641307058534
1352.0,0.008656622090046116
1351.0,0.008162486460953628
1350.0,0.007736978520266304
1349.0,0.007380039099792809
1348.0,0.0070821050757562225
1347.0,0.006824081041720579
1346.0,0.006595589096460684
1345.0,0.006391217786420354
1344.0,0.006205201160100255
1343.0,0.0060385361764816944
1342.0,0.005896730874201355
1341.0,0.005774407095946654
1340.0,0.005657785940209296
1339.0,0.00555154838410277
1338.0,0.005476744829981272
1337.0,0.005433824335509058
1336.0,0.005404193698572264
1335.0,0.005382087962009112
1334.0,0.005379916216411547
1333.0,0.0054073505135422105
1332.0,0.005457484157771288
1331.0,0.005513291057355606
1330.0,0.005555449883610434
1329.0,0.005564790199803651
1328.0,0.005530947929780518
1327.0,0.005460872052220943
1326.0,0.005368522994372529
1325.0,0.0052574452328397366
1324.0,0.0051271094174682435
1323.0,0.004990713873576216
1322.0,0.0048700677908079665
1321.0,0.004772483276793421
1320.0,0.004687370492003594
1319.0,0.004605613206587615
1318.0,0.004528613315631903
1317.0,0.004456929990076798
1316.0,0.004385895152667
1315.0,0.00431412828828065
1314.0,0.004245109423840862
1313.0,0.004182594841791657
1312.0,0.004132757058498573
1311.0,0.004107841507928383
1310.0,0.004120047080024426
1309.0,0.004175791685253992
1308.0,0.004277670849525378
1307.0,0.004419337933043549
1306.0,0.004569667050662576
1305.0,0.004674632396344601
1304.0,0.004692024546182011
1303.0,0.004625500964230336
1302.0,0.004519334002307114
1301.0,0.0044212412366395806
1300.0,0.0043571898108962035
1299.0,0.004331439326066694
1298.0,0.004331590494628234
1297.0,0.004332975145462038
1296.0,0.00431269651166959
1295.0,0.0042636216152409125
1294.0,0.004190529084487851
1293.0,0.004098770205388708
1292.0,0.003995449288951545
1291.0,0.003894414061953441
1290.0,0.0038071456567795627
1289.0,0.0037315799101949963
1288.0,0.003659281139210253
1287.0,0.00358955152087332
1286.0,0.003528159916244226
1285.0,0.0034786794874034944
1284.0,0.003443787624620701
1283.0,0.00342742102108343
1282.0,0.003426924938297278
1281.0,0.0034302843000389594
1280.0,0.0034297981614248834
1279.0,0.0034319150048608207
1278.0,0.003445463302856144
1277.0,0.0034674380790808857
1276.0,0.003488066106998717
1275.0,0.003503213401895572
1274.0,0.003514733763288076
1273.0,0.003525720414374359
1272.0,0.003542138989158429
1271.0,0.0035718753806811207
1270.0,0.0036145000292673625
1269.0,0.0036598161480199173
1268.0,0.0037034040350794138
1267.0,0.00375498790109032
1266.0,0.003825310697958745
1265.0,0.003912477225066586
1264.0,0.0040072481274342694
1263.0,0.004104778346484577
1262.0,0.004206226167186512
1261.0,0.004316420527495625
1260.0,0.004444287057059451
1259.0,0.004595757235496115
1258.0,0.004758531916235764
1257.0,0.004900286248141971
1256.0,0.0049866906286627575
1255.0,0.0050008296041972895
1254.0,0.004949572529939852
1253.0,0.00485855383680932
1252.0,0.00476263760722156
1251.0,0.004691771078681855
1250.0,0.004654901144201293
1249.0,0.004640003066395235
1248.0,0.004634210816523014
1247.0,0.004636797111486761
1246.0,0.004649405401662018
1245.0,0.00466582427895575
1244.0,0.004679960751483178
1243.0,0.0046951268242222365
1242.0,0.004716436727115678
1241.0,0.004741090252144784
1240.0,0.004763845574304459
1239.0,0.0047850951002220005
1238.0,0.004806162388084203
1237.0,0.004822948975138174
1236.0,0.004831687681049884
1235.0,0.004835882340376751
1234.0,0.004841345083176593
1233.0,0.004849700059426025
1232.0,0.004862429778822076
1231.0,0.004884688745615675
1230.0,0.004918087639519252
1229.0,0.004955501442671421
1228.0,0.004989634751644148
1227.0,0.005021998090860496
1226.0,0.005058680183660678
1225.0,0.005102448585402614
1224.0,0.005153280752498343
1223.0,0.005210415990829468
1222.0,0.005268607142830976
1221.0,0.0053175931958495196
1220.0,0.0053494518661261065
1219.0,0.005361949230620106
1218.0,0.005353306034991765
1217.0,0.0053220306248013775
1216.0,0.0052755895982951415
1215.0,0.005229631898944698
1214.0,0.005191991441523724
1213.0,0.005156290988903826
1212.0,0.005119041966474646
1211.0,0.005093084930498435
1210.0,0.0050927429289426215
1209.0,0.005113404194876513
1208.0,0.005137294812801738
1207.0,0.005153964321519142
1206.0,0.005166194243722756
1205.0,0.005180819793671656
1204.0,0.005203485021369783
1203.0,0.005239433118941678
1202.0,0.005290495482805448
1201.0,0.005352304670265606
1200.0,0.005419067493524037
1199.0,0.0054875780894568585
1198.0,0.005553096820588533
1197.0,0.005607821402721086
1196.0,0.005649979618445223
1195.0,0.00569079941304735
1194.0,0.005746515736745516
1193.0,0.005825302376111282
1192.0,0.005925130716323125
1191.0,0.006039277789817396
1190.0,0.0061597994208415045
1189.0,0.006281181140598115
1188.0,0.006406268320439574
1187.0,0.006545286482442231
1186.0,0.0067046290554847315
1185.0,0.006879272785538912
1184.0,0.0070584114604123425
1183.0,0.007233623675315021
1182.0,0.007400015962602164
1181.0,0.007556953013428673
1180.0,0.007713894695058711
1179.0,0.007891479105214996
1178.0,0.008109594771623863
1177.0,0.00837532899859569
1176.0,0.008687227136171132
1175.0,0.009048756406165516
1174.0,0.009471690580159911
1173.0,0.009965139711756364
1172.0,0.01052170327045393
1171.0,0.011110838861560415
1170.0,0.011681289652365156
1169.0,0.012170792159586732
1168.0,0.012521880343060916
1167.0,0.012704255625151976
1166.0,0.012731939872976127
1165.0,0.012652638462944194
1164.0,0.012517149663269774
1163.0,0.012363845920785623
1162.0,0.012222905211493336
1161.0,0.012114718701895153
1160.0,0.012042494696166209
1159.0,0.011999363859104866
1158.0,0.011984750926733331
1157.0,0.012005414577246784
1156.0,0.01206174816411363
1155.0,0.012143163984066115
1154.0,0.012235707396248678
1153.0,0.012323080735457334
1152.0,0.012381192672497078
1151.0,0.01238718157053283
1150.0,0.012340782213924512
1149.0,0.012266756402853154
1148.0,0.01219270973821554
1147.0,0.012133208197863468
1146.0,0.01209309760233001
1145.0,0.012073159820418514
1144.0,0.012070663936172343
1143.0,0.012083801313153536
1142.0,0.012116315214241224
1141.0,0.012170212428613013
1140.0,0.012237005553316142
1139.0,0.012306608004649198
1138.0,0.012380842370325315
1137.0,0.012463756103998847
1136.0,0.012542096961398998
1135.0,0.01259512962365433
1134.0,0.012625750057339211
1133.0,0.012661076377989647
1132.0,0.01271680833181376
1131.0,0.012779996507019421
1130.0,0.012833714391077396
1129.0,0.012881092136636157
1128.0,0.012935230929954623
1127.0,0.013000433081582774
1126.0,0.013074086327450482
1125.0,0.013155225918369422
1124.0,0.013241274271276485
1123.0,0.013325504957712533
1122.0,0.013404237568327294
1121.0,0.013476303343940874
1120.0,0.013532013254670915
1119.0,0.013558237950161041
1118.0,0.013561022273003882
1117.0,0.013567651789401121
1116.0,0.01359861929886183
1115.0,0.013650373525680472
1114.0,0.013710633778865833
1113.0,0.013776287436572655
1112.0,0.013849130586423543
1111.0,0.013928432963405724
1110.0,0.014016648410093032
1109.0,0.014120959878335605
1108.0,0.014242807262294401
1107.0,0.014376532145921328
1106.0,0.014519927911158817
1105.0,0.014669677283789144
1104.0,0.014804127550270656
1103.0,0.014891055403950328
1102.0,0.014919187687385725
1101.0,0.014903493515943798
1100.0,0.014855958142020446
1099.0,0.014775045597119427
1098.0,0.014669245904029026
1097.0,0.014563390476143072
1096.0,0.014471723061587814
1095.0,0.014388238405435145
1094.0,0.014311584673099238
1093.0,0.014254476585036834
1092.0,0.014217886346724846
1091.0,0.014179596334784737
1090.0,0.01412120318848565
1089.0,0.014046645817973526
1088.0,0.0139639083922532
1087.0,0.013870980202817042
1086.0,0.013772245919910546
1085.0,0.013686273218073888
1084.0,0.013621445338917511
1083.0,0.013561622358077199
1082.0,0.01348985354207527
1081.0,0.013408755121857838
1080.0,0.013323857363779727
1079.0,0.013226439405545076
1078.0,0.013110631836494867
1077.0,0.012991340967281426
1076.0,0.012885791135377044
1075.0,0.012787779789433538
1074.0,0.012676654431546915
1073.0,0.012545154332973603
1072.0,0.01240558427865774
1071.0,0.0122743460383823
1070.0,0.012160885384634883
1069.0,0.012066923596455788
1068.0,0.011987128068939437
1067.0,0.01191229609245087
1066.0,0.011837458656016701
1065.0,0.011765199559464
1064.0,0.011699490326806245
1063.0,0.011640351860025645
1062.0,0.01158410939156362
1061.0,0.011522890162186713
1060.0,0.011445617328595763
1059.0,0.011349656325659627
1058.0,0.011252467096531271
1057.0,0.011180449806566458
1056.0,0.011143090794998724
1055.0,0.01112576582235993
1054.0,0.011108129164428774
1053.0,0.011080343079651694
1052.0,0.011041209894073187
1051.0,0.0109959322778388
1050.0,0.01096318612690424
1049.0,0.010968550215458433
1048.0,0.011017633013004877
1047.0,0.011083064922923387
1046.0,0.011123481235774564
1045.0,0.011108125540205144
1044.0,0.011025016535333387
1043.0,0.010884042463437545
1042.0,0.010719189715524952
1041.0,0.010572136222599008
1040.0,0.010461798409388368
1039.0,0.010374072875654172
1038.0,0.010285044455208035
1037.0,0.01018765434872983
1036.0,0.01009123068831776
1035.0,0.010002438364172087
1034.0,0.009915218849061241
1033.0,0.009818919372933315
1032.0,0.009711804454784322
1031.0,0.00960480235031344
1030.0,0.009511304752654794
1029.0,0.009432686448597585
1028.0,0.009356402180375374
1027.0,0.009269655051172637
1026.0,0.009170750291766377
1025.0,0.009063798073622495
1024.0,0.008948681742917259
1023.0,0.008824797968073145
1022.0,0.008701225847126012
1021.0,0.008592601103632379
1020.0,0.008502917911296298
1019.0,0.00841977712782483
1018.0,0.008326671707661704
1017.0,0.008217112125100134
1016.0,0.008095654015361813
1015.0,0.007969818576064689
1014.0,0.007843583541650968
1013.0,0.0077170225713666
1012.0,0.007591708984351259
1011.0,0.007476090405763601
1010.0,0.00738203406082873
1009.0,0.007314069096512065
1008.0,0.007265710605574741
1007.0,0.00723009428069676
1006.0,0.007212928619147085
1005.0,0.00723354170613939
1004.0,0.007316982062859127
1003.0,0.007488488122071962
1002.0,0.007767875741591847
1001.0,0.008151007732896488
1000.0,0.008580272616476245
999.0,0.008933475733869743
998.0,0.009064193969493178
997.0,0.008880107881542487
996.0,0.008397705609881151
995.0,0.007730138821890092
994.0,0.007019816903299069
993.0,0.00636875398378248
992.0,0.005819758600484816
991.0,0.0053819552893008445
990.0,0.005049323371827839
989.0,0.0047982579697742785
988.0,0.004594738277115519
987.0,0.004418414214599264
986.0,0.004272244586792736
985.0,0.004164734991504868
984.0,0.004094686999042691
983.0,0.004061818543164208
982.0,0.004083904979718781
981.0,0.004191899662750907
980.0,0.0044079060752871616
979.0,0.004732177853978831
978.0,0.005149746295810071
977.0,0.005641120412962147
976.0,0.006174510459705473
975.0,0.006680503678115339
974.0,0.007040719538886412
973.0,0.007120213522744213
972.0,0.006837075840408116
971.0,0.006224991771211066
970.0,0.0054292779515157236
969.0,0.004622019819667868
968.0,0.003912330936128482
967.0,0.0033296228383321216
966.0,0.0028632655354745556
965.0,0.0024961859329911597
964.0,0.002209101417210242
963.0,0.0019769448165329224
962.0,0.0017762972760015008
961.0,0.0015959541704483656
960.0,0.0014357361236017937
959.0,0.0012951062476567465
958.0,0.0011666388646495614
957.0,0.0010423546711740075
956.0,0.0009231251560120075
955.0,0.0008170648056185798
954.0,0.0007287171383240851
953.0,0.0006540173847844125
952.0,0.0005863817281352938
951.0,0.0005227918685758517
950.0,0.0004628683463486667
949.0,0.0004081278512837738
948.0,0.0003651137626426628
947.0,0.000343306278735616
946.0,0.000344749391807184
945.0,0.00035926763834320287
944.0,0.00037372759891292004
943.0,0.0003827866796360553
942.0,0.0003878208867112206
941.0,0.0003883332511036442
940.0,0.00037692674712727116
939.0,0.0003411004774368266
938.0,0.00027139209867762387
937.0,0.0001738907929750809
936.0,7.472616469839967e-05
935.0,2.1013636437323263e-06
934.0,-4.267799917424993e-05
933.0,-8.831893790366835e-05
932.0,-0.00015979634875811118
931.0,-0.0002486364913472528
930.0,-0.0003254681196132054
929.0,-0.0003750602126067603
928.0,-0.0004057668598913076
927.0,-0.00042807687518855476
926.0,-0.00044025336124351756
925.0,-0.00043955221312522164
924.0,-0.0004354504384010624
923.0,-0.0004417982212319097
922.0,-0.00045900292872968
921.0,-0.0004712942069174768
920.0,-0.0004630503211031471
919.0,-0.0004350606934068555
918.0,-0.00040336496509438616
917.0,-0.000383393535630985
916.0,-0.0003786325408795359
915.0,-0.000385811071568036
914.0,-0.00040531681816124467
913.0,-0.0004388766049554949
912.0,-0.00047792711667028753
911.0,-0.0005037089968296816
910.0,-0.0005039828921968928
909.0,-0.00048342572901669684
908.0,-0.0004517391654924284
907.0,-0.00040668175584961455
906.0,-0.0003333365255889266
905.0,-0.00021414658500583036
904.0,-3.519740818474365e-05
903.0,0.0002073855433522582
902.0,0.0004931352431902687
901.0,0.0007686399549350856
900.0,0.0009626337235719064
899.0,0.001019033465813425
898.0,0.0009233393377842507
897.0,0.0007035887989241454
896.0,0.00041405649185725056
895.0,0.00011925453426047707
894.0,-0.00012451888609684228
893.0,-0.00029177855255491623
892.0,-0.0003942422168918113
891.0,-0.0004612612067697742
890.0,-0.0005140841957133654
889.0,-0.0005555740953697222
888.0,-0.0005749310239622548
887.0,-0.0005554195135201723
886.0,-0.0004825887382831854
885.0,-0.00035515332560932117
884.0,-0.00019021923740270529
883.0,-1.121677511282601e-05
882.0,0.0001756410014239259
881.0,0.00038861107962070464
880.0,0.0006446521251651603
879.0,0.0009273905680294205
878.0,0.0011909654394061542
877.0,0.001397849315654738
876.0,0.0015419340324938843
875.0,0.0016306627924816894
874.0,0.0016546931647357186
873.0,0.0015823894031619552
872.0,0.0013841258131524568
871.0,0.001065178687254937
870.0,0.0006790524470414623
869.0,0.0003062724849808955
868.0,1.527284600980061e-05
867.0,-0.00016653003324351712
866.0,-0.00025688363702261463
865.0,-0.00029635364895034925
864.0,-0.0003162349391060016
863.0,-0.00032487408172901175
862.0,-0.0003206396495661727
861.0,-0.0003096038220032609
860.0,-0.0003045006087494997
859.0,-0.0003097918161459809
858.0,-0.0003159386604275963
857.0,-0.0003105042420906579
856.0,-0.00029002356501886713
855.0,-0.0002588993965889283
854.0,-0.0002216450859886046
853.0,-0.00018029079355018525
852.0,-0.0001357520270165724
851.0,-8.592757163787025e-05
850.0,-2.3936960271375013e-05
849.0,5.6042260701908916e-05
848.0,0.00015357687584420174
847.0,0.00027495996214971057
846.0,0.0004579252520927942
845.0,0.0007686173178629106
844.0,0.0012448363514631685
843.0,0.0018212414685029009
842.0,0.002317946758728564
841.0,0.0025357467889379967
840.0,0.002392372980573182
839.0,0.0019815829544538466
838.0,0.001499458938670522
837.0,0.0011027785745514503
836.0,0.0008326826502255066
835.0,0.0006541942778682964
834.0,0.000531791377167315
833.0,0.00045329972225391195
832.0,0.00040677712086677024
831.0,0.0003714361547936598
830.0,0.0003383840159119165
829.0,0.00031936466240572135
828.0,0.00032435590050614027
827.0,0.0003442011553897728
826.0,0.0003648640913915084
825.0,0.0003862994746926061
824.0,0.00041662857773529065
823.0,0.00045996585890067075
822.0,0.0005193965853806173
821.0,0.0005982810411834794
820.0,0.0006897525869407218
819.0,0.0007788301671549543
818.0,0.0008647523369758915
817.0,0.0009709168721714033
816.0,0.0011241339738052095
815.0,0.0013305926032132504
814.0,0.0015775454607391132
813.0,0.001849104112424789
812.0,0.0021283281695390135
811.0,0.002388450330214724
810.0,0.0025952725840275616
809.0,0.0027199845625968076
808.0,0.002747944967968794
807.0,0.0026852340647375676
806.0,0.002562476115061243
805.0,0.0024205730458283538
804.0,0.0022858045085305152
803.0,0.002164733718345156
802.0,0.002060435908348042
801.0,0.0019806705469707156
800.0,0.0019287842804401982
799.0,0.0018986464794236019
798.0,0.0018823508134331902
797.0,0.001874405533453461
796.0,0.0018668851570749732
795.0,0.0018507035863379317
794.0,0.0018246171080844517
793.0,0.0017943853179303929
792.0,0.0017641924676779497
791.0,0.0017399095657393525
790.0,0.001735364055265573
789.0,0.0017572848717704072
788.0,0.001785908180012296
787.0,0.001791346241971116
786.0,0.0017732388199623549
785.0,0.0017642059218977886
784.0,0.001787655678666969
783.0,0.001831204820024846
782.0,0.001868182993366302
781.0,0.0018863436809221368
780.0,0.0018868574217935814
779.0,0.0018750924870714752
778.0,0.0018646795737983848
777.0,0.0018731413893516256
776.0,0.0019012347149323788
775.0,0.001931879023150871
774.0,0.0019594687489946465
773.0,0.002002652393030248
772.0,0.0020738446728424467
771.0,0.002151973097863469
770.0,0.0022044865496740444
769.0,0.002227763689243146
768.0,0.002249114096036505
767.0,0.0022925468126059854
766.0,0.0023534895698463336
765.0,0.002406712697042176
764.0,0.0024363633455524586
763.0,0.00246087838169445
762.0,0.002521838248843618
761.0,0.0026344567452624076
760.0,0.0027554026585055354
759.0,0.002822103213105151
758.0,0.0028248876257673736
757.0,0.0028140354667031894
756.0,0.00283147138899386
755.0,0.002866554836840566
754.0,0.0028893868270465327
753.0,0.0028976865246420833
752.0,0.0029112953606593057
751.0,0.002943367510728989
750.0,0.00299680748039656
749.0,0.003070972277082095
748.0,0.003153696088050481
747.0,0.0032191785911293257
746.0,0.0032458718762423226
745.0,0.003227076543966815
744.0,0.0031631860362264404
743.0,0.003065735099109332
742.0,0.00297293660019678
741.0,0.0029310086347165837
740.0,0.0029476033354189635
739.0,0.0029869741359226827
738.0,0.003021909939528465
737.0,0.00306550188688472
736.0,0.0031411272158137736
735.0,0.0032523971020195705
734.0,0.0033990721978674476
733.0,0.0035891210338730266
732.0,0.003805198136111066
731.0,0.0039827865614492294
730.0,0.00405765427781116
729.0,0.004028570074968079
728.0,0.003950944860747249
727.0,0.003882261761848086
726.0,0.003855024672966712
725.0,0.0038848570656868954
724.0,0.003976988487936997
723.0,0.0041272985416586465
722.0,0.004326554104066578
721.0,0.004551855025868062
720.0,0.0047482291870810725
719.0,0.0048483699647325455
718.0,0.004829778160305782
717.0,0.004727712214891849
716.0,0.004588515059887329
715.0,0.0044369679305177046
714.0,0.004285404976806156
713.0,0.004143927063137064
712.0,0.004013339162096216
711.0,0.0038918596838547273
710.0,0.003797103043914247
709.0,0.0037587703563217237
708.0,0.003782629204688824
707.0,0.003843369231026846
706.0,0.003920416961690518
705.0,0.0040185275746784516
704.0,0.004145342056785038
703.0,0.004294364393297442
702.0,0.0044571441237108225
701.0,0.004621600532946607
700.0,0.004747889693480934
699.0,0.004779312417535025
698.0,0.004697122039494548
697.0,0.004536884080583715
696.0,0.0043361334977554886
695.0,0.004103425480474602
694.0,0.003851462882480016
693.0,0.0036159631384860315
692.0,0.0034198434708610018
691.0,0.0032538688184597826
690.0,0.0031163779027189586
689.0,0.0030377793331289905
688.0,0.003030120343564008
687.0,0.00304269279229882
686.0,0.0030130454683304844
685.0,0.002937248935464872
684.0,0.002859072204735188
683.0,0.0028166936444986197
682.0,0.0028163354926456705
681.0,0.0028309745271154103
680.0,0.0028128149059395285
679.0,0.00273564331496717
678.0,0.0026340063496044647
677.0,0.0025708908887317194
676.0,0.00256253551302435
675.0,0.002568785738097934
674.0,0.0025572138398448248
673.0,0.0025334174812745858
672.0,0.002505603891221647
671.0,0.0024640957105840945
670.0,0.0024036256952436816
669.0,0.0023376761341250413
668.0,0.0022813462801790432
667.0,0.0022425478879510435
666.0,0.002224581912592654
665.0,0.002220809739108199
664.0,0.0022248584508759717
663.0,0.0022051099569353194
662.0,0.0021402663030426414
661.0,0.002056764957226634
660.0,0.0019898923479117724
659.0,0.0019489098175182983
658.0,0.0019383350341787738
657.0,0.0019606725898147596
656.0,0.0019824754721051822
655.0,0.0019522134422892481
654.0,0.0018748488181649786
653.0,0.0018133605628111137
652.0,0.0017931278349216928
651.0,0.001765641780847784
650.0,0.0016874017851414638
649.0,0.0015781741599085741
648.0,0.0014742926693748805
647.0,0.0013864473702792403
646.0,0.0013295330075878999
645.0,0.0013273743611734515
644.0,0.0013615182793361644
643.0,0.0013722174650251696
642.0,0.001334835874407407
641.0,0.0012800336949886706
640.0,0.0012186945647105311
639.0,0.0011180847917280322
638.0,0.0009793434659388506
637.0,0.0008653854800956505
636.0,0.0008141826486657393
635.0,0.000787668010055368
634.0,0.0007429143204876372
633.0,0.0006894779031761944
632.0,0.0006330093854906918
631.0,0.0005371577930821866
630.0,0.00039099956686987347
629.0,0.00025236030329385886
628.0,0.00017761929329035073
627.0,0.00015811591508881062
626.0,0.000157033394862411
625.0,0.00016245084090964895
624.0,0.00016586525838823557
623.0,0.00013870058172531924
622.0,7.915507036647743e-05
621.0,3.479713285790137e-05
620.0,3.721907610104366e-05
619.0,5.661137882247147e-05
618.0,5.4830330504452435e-05
617.0,3.546991421086998e-05
616.0,3.1966181328682564e-06
615.0,-6.312634896192895e-05
614.0,-0.00015577069078013053
613.0,-0.00022558019724280148
612.0,-0.0002548500392572685
611.0,-0.0002822295629344336
610.0,-0.00033278589212354034
609.0,-0.0003815708842003253
608.0,-0.00041110783427281833
607.0,-0.00043756838118936756
606.0,-0.00045840850398189137
605.0,-0.0004519103972644642
604.0,-0.0004427121583130307
603.0,-0.000471851269898408
602.0,-0.0004967986596940699
601.0,-0.000438909018002389
600.0,-0.0003458447888097446
