cm-1,A
4000.0,0.001997681339652911
3999.0,0.0019861351093593315
3998.0,0.001977509622501113
3997.0,0.001978641997062109
3996.0,0.0019896231536109922
3995.0,0.002003412007464684
3994.0,0.002011513902429221
3993.0,0.0020101728149936812
3992.0,0.0020023598192038953
3991.0,0.0019941419647135803
3990.0,0.0019902590944145633
3989.0,0.001991272646695321
3988.0,0.0019942710036201213
3987.0,0.001996336791839081
3986.0,0.0019975745557100164
3985.0,0.0020009616733571243
3984.0,0.0020080465597358647
3983.0,0.0020157987648746108
3982.0,0.002018641737875174
3981.0,0.002014142235471531
3980.0,0.0020066734334546494
3979.0,0.0020036331980901635
3978.0,0.0020087680123894542
3977.0,0.002019241450468845
3976.0,0.0020285947503116556
3975.0,0.0020328402384596255
3974.0,0.0020328510576691702
3973.0,0.0020320719981742055
3972.0,0.0020327916416944163
3971.0,0.0020343631472386258
3970.0,0.002034803711686569
3969.0,0.002032815707503954
3968.0,0.00202821506887824
3967.0,0.0020211593582005576
3966.0,0.0020117947502318236
3965.0,0.00200146673593643
3964.0,0.0019941809338741437
3963.0,0.0019952986506793216
3962.0,0.002007549130707961
3961.0,0.0020272721889429456
3960.0,0.002045433745168089
3959.0,0.002054245226006523
3958.0,0.0020519233818683718
3957.0,0.002042299502307136
3956.0,0.002030821109091312
3955.0,0.0020207912963378814
3954.0,0.002013204693556544
3953.0,0.0020075757826932697
3952.0,0.002001843849105115
3951.0,0.001993005025241434
3950.0,0.0019799863469689843
3949.0,0.001967214091780062
3948.0,0.001963406869905088
3947.0,0.001975052554517149
3946.0,0.0019998996172063905
3945.0,0.002026415145101901
3944.0,0.002041499293057519
3943.0,0.002040341285520556
3942.0,0.0020298087860953556
3941.0,0.0020207272461115547
3940.0,0.002018464809570769
3939.0,0.0020216419115244126
3938.0,0.0020267516268915233
3937.0,0.0020321847894616916
3936.0,0.002037183933625183
3935.0,0.0020396494646198367
3934.0,0.0020373648072758484
3933.0,0.0020311741388018834
3932.0,0.002025837941950058
3931.0,0.0020256631013722253
3930.0,0.0020311545833529296
3929.0,0.002040380817098805
3928.0,0.0020504149160934177
3927.0,0.0020579269175513178
3926.0,0.00206074625028401
3925.0,0.0020605725979463167
3924.0,0.002061965347983419
3923.0,0.0020671466561636284
3922.0,0.002074023012668861
3921.0,0.0020781094812862824
3920.0,0.002075703021772521
3919.0,0.0020662316579245135
3918.0,0.0020527987891019632
3917.0,0.0020405016417794205
3916.0,0.002031895779742909
3915.0,0.002023819245380195
3914.0,0.002010869646269564
3913.0,0.0019910484507265156
3912.0,0.0019692781716881876
3911.0,0.001954964246240535
3910.0,0.00195521829102683
3909.0,0.001971229389825359
3908.0,0.0019990558013152663
3907.0,0.0020321990742955317
3906.0,0.002064027435282007
3905.0,0.0020904705244013232
3904.0,0.002111145054927042
3903.0,0.0021274741368141822
3902.0,0.0021410412312660877
3901.0,0.0021520272931988575
3900.0,0.002157596395438395
3899.0,0.002153160408797407
3898.0,0.0021368920779029615
3897.0,0.0021133300794434
3896.0,0.0020914758415041404
3895.0,0.0020773341617843517
3894.0,0.0020702240271781155
3893.0,0.0020652087315066537
3892.0,0.00206076102265394
3891.0,0.002059401051408293
3890.0,0.0020611557663923856
3889.0,0.0020622138087130915
3888.0,0.0020571943811883847
3887.0,0.002046713289779135
3886.0,0.0020427107755729788
3885.0,0.002052000539740328
3884.0,0.0020623211465446312
3883.0,0.0020567607525438375
3882.0,0.00203072600550349
3881.0,0.001999364489741893
3880.0,0.0019863920494374724
3879.0,0.0019972317197715153
3878.0,0.0020171886306783486
3877.0,0.002029813236879215
3876.0,0.0020292301434577725
3875.0,0.0020260570508113668
3874.0,0.002036775307803886
3873.0,0.0020609218922187592
3872.0,0.002078051235611073
3871.0,0.0020739609119390726
3870.0,0.002061435254945534
3869.0,0.0020589442917671487
3868.0,0.0020637785445887314
3867.0,0.002060403827002121
3866.0,0.0020415625499707714
3865.0,0.002017677502618595
3864.0,0.002003547441222364
3863.0,0.0019993892536564768
3862.0,0.001998175333419727
3861.0,0.001999868175734043
3860.0,0.0020109982139962755
3859.0,0.002037243093857454
3858.0,0.0020781243160765883
3857.0,0.0021247182946131154
3856.0,0.002160904352235588
3855.0,0.0021735120179421303
3854.0,0.002167849820957037
3853.0,0.0021504049806415912
3852.0,0.0021164165017362154
3851.0,0.002073044890110524
3850.0,0.002036519445188889
3849.0,0.0020149952412929295
3848.0,0.002005729668614146
3847.0,0.002000036924472862
3846.0,0.0019921561075285253
3845.0,0.00198643351119
3844.0,0.001995081187816816
3843.0,0.0020248193288702043
3842.0,0.002067385647436213
3841.0,0.0021030883753604818
3840.0,0.002116368455044609
3839.0,0.0021101543939515566
3838.0,0.002100598054299979
3837.0,0.0020975672863206224
3836.0,0.0020986301691633576
3835.0,0.002098475653872306
3834.0,0.0020929390056817314
3833.0,0.0020796097325430796
3832.0,0.0020593600815164495
3831.0,0.002035162454045893
3830.0,0.002010282150657957
3829.0,0.001987652362598149
3828.0,0.0019722651516606605
3827.0,0.001971039052453301
3826.0,0.0019866532985988606
3825.0,0.002011471523697626
3824.0,0.002032106144574719
3823.0,0.002041725655480227
3822.0,0.0020518801708226658
3821.0,0.0020813136008983385
3820.0,0.002124224401172458
3819.0,0.0021589268877071225
3818.0,0.002170590129361349
3817.0,0.0021594753461797967
3816.0,0.00213906136979168
3815.0,0.0021170626286801456
3814.0,0.0020918592418891916
3813.0,0.0020652786792256655
3812.0,0.002045205744976005
3811.0,0.002038000110657647
3810.0,0.0020404907649461314
3809.0,0.0020392764026040556
3808.0,0.0020259187188528816
3807.0,0.002009673495625759
3806.0,0.0020049025270817995
3805.0,0.002012817121539904
3804.0,0.0020206322373359283
3803.0,0.002018305797907775
3802.0,0.0020191998184838616
3801.0,0.0020376150149504293
3800.0,0.0020578679487014556
3799.0,0.002056725945890173
3798.0,0.0020304248488634113
3797.0,0.0019959215781215484
3796.0,0.0019761812771360936
3795.0,0.0019787380665224653
3794.0,0.0019927793795275484
3793.0,0.002004922271012389
3792.0,0.002008358721945008
3791.0,0.0020018549643738923
3790.0,0.001987563435996958
3789.0,0.001971494119256747
3788.0,0.0019632132424878814
3787.0,0.001970049772811985
3786.0,0.0019910585077301873
3785.0,0.0020161746511192574
3784.0,0.002033987340211748
3783.0,0.002039826183572924
3782.0,0.002037668152474052
3781.0,0.0020353527793266464
3780.0,0.0020388090030556893
3779.0,0.0020467298778515186
3778.0,0.0020510062964736314
3777.0,0.0020463002027903575
3776.0,0.002036028053631081
3775.0,0.0020288874226525814
3774.0,0.0020312804207445077
3773.0,0.002040481515992153
3772.0,0.002047430759248804
3771.0,0.00204809808248571
3770.0,0.002047713882949196
3769.0,0.0020500849930954737
3768.0,0.002050748839546962
3767.0,0.0020447140859007904
3766.0,0.0020347813073171564
3765.0,0.0020278859455466957
3764.0,0.0020256754844271193
3763.0,0.0020245536443367837
3762.0,0.002024387535164704
3761.0,0.002031920840821039
3760.0,0.0020529306711196587
3759.0,0.0020802162251112345
3758.0,0.0020999407139627585
3757.0,0.0021089210891951406
3756.0,0.0021151225215899575
3755.0,0.0021235700460943132
3754.0,0.002131691183247802
3753.0,0.0021376307710601478
3752.0,0.00214716596219227
3751.0,0.0021636502451174763
3750.0,0.0021763377104987783
3749.0,0.0021769925018935094
3748.0,0.0021693460475818455
3747.0,0.002151625616125764
3746.0,0.002115987261821688
3745.0,0.002079764202663082
3744.0,0.0020672270552224226
3743.0,0.0020692660115417105
3742.0,0.002070006334618753
3741.0,0.002069070391534311
3740.0,0.0020700929570015743
3739.0,0.002072064874818395
3738.0,0.0020668180511903946
3737.0,0.0020497830732275867
3736.0,0.0020337416702641913
3735.0,0.0020369312621504074
3734.0,0.002057236523665626
3733.0,0.0020741128826702116
3732.0,0.002072640153843358
3731.0,0.0020553140999110143
3730.0,0.002033892724137122
3729.0,0.0020162315097726788
3728.0,0.002003901727080817
3727.0,0.0019995703838378317
3726.0,0.0020065944198877
3725.0,0.002021426900738939
3724.0,0.0020355023067843503
3723.0,0.002043717490358828
3722.0,0.0020480016210326435
3721.0,0.002052302429428696
3720.0,0.002057536911952373
3719.0,0.0020617675288222333
3718.0,0.002063438562437146
3717.0,0.0020634633566170447
3716.0,0.002063467672312261
3715.0,0.002063391997699747
3714.0,0.002063256135851465
3713.0,0.002064742354946961
3712.0,0.0020693420234168514
3711.0,0.0020741883364303005
3710.0,0.002074034718991406
3709.0,0.002066667984051217
3708.0,0.0020524611707843
3707.0,0.0020353156961684577
3706.0,0.0020226667271802373
3705.0,0.002020405391179167
3704.0,0.002027274258818022
3703.0,0.002035467006505257
3702.0,0.0020387777494379864
3701.0,0.002038288833601871
3700.0,0.0020394786390503434
3699.0,0.0020462049843788
3698.0,0.002058743721247357
3697.0,0.0020749003012935445
3696.0,0.0020908893188032966
3695.0,0.0021029002476767
3694.0,0.0021120897976473407
3693.0,0.0021255386130067822
3692.0,0.002147620092095396
3691.0,0.0021717288223198914
3690.0,0.0021865317251423396
3689.0,0.00219034332504168
3688.0,0.0021899452851544543
3687.0,0.002190698772300553
3686.0,0.0021919600475527982
3685.0,0.0021879458283847525
3684.0,0.002174857501129522
3683.0,0.0021583248609488596
3682.0,0.002150855343617585
3681.0,0.0021642234629486914
3680.0,0.0022030878431581764
3679.0,0.0022598015321792734
3678.0,0.0023138359932392723
3677.0,0.0023430339503648116
3676.0,0.0023511085482927846
3675.0,0.002362762950667988
3674.0,0.0023875969726352697
3673.0,0.0024140573764673615
3672.0,0.002423290353737578
3671.0,0.002410955660681382
3670.0,0.0024001201982818575
3669.0,0.002408740243526662
3668.0,0.0024268201746074688
3667.0,0.002439265457219529
3666.0,0.0024427974657896274
3665.0,0.0024437316932517947
3664.0,0.0024499409954947876
3663.0,0.0024655442523383577
3662.0,0.002490693084483418
3661.0,0.002524384006430391
3660.0,0.002564891194875048
3659.0,0.002608254075032351
3658.0,0.002648646884653893
3657.0,0.0026821282861688965
3656.0,0.002709345876953175
3655.0,0.0027353183904256003
3654.0,0.0027676947575851615
3653.0,0.0028081288953337707
3652.0,0.0028454995743695706
3651.0,0.0028636153260347677
3650.0,0.002861456182844729
3649.0,0.0028599568136865013
3648.0,0.0028786722812665522
3647.0,0.002916864729533247
3646.0,0.002961433497513144
3645.0,0.002999782205416997
3644.0,0.003025068196854157
3643.0,0.003038333180442526
3642.0,0.003047470027579288
3641.0,0.003061482648743068
3640.0,0.0030851723946300515
3639.0,0.003120752856463081
3638.0,0.0031702321571809196
3637.0,0.0032319802031700448
3636.0,0.0032984781656039165
3635.0,0.0033628719101517403
3634.0,0.0034281792130144836
3633.0,0.003503710954474322
3632.0,0.003591304679936621
3631.0,0.0036778119924289303
3630.0,0.0037440234270224625
3629.0,0.0037812012174449957
3628.0,0.0037920320953451353
3627.0,0.0037889260912426018
3626.0,0.0037893705660215554
3625.0,0.003804190917308506
3624.0,0.0038344177235573778
3623.0,0.003874278783843099
3622.0,0.0039172349251080565
3621.0,0.00396252870627522
3620.0,0.004016886733447715
3619.0,0.004084393620083545
3618.0,0.004157033634618843
3617.0,0.004222840553551223
3616.0,0.0042742189848542205
3615.0,0.004307984328506862
3614.0,0.004328286102448925
3613.0,0.004347889018678247
3612.0,0.004380107291529064
3611.0,0.004430322250355929
3610.0,0.004496007118718946
3609.0,0.0045698555548862
3608.0,0.0046411587278727936
3607.0,0.004699339117951924
3606.0,0.004740146907731515
3605.0,0.004767584027022049
3604.0,0.004790405681036943
3603.0,0.004819066218454841
3602.0,0.00486206969301359
3601.0,0.004920524342339905
3600.0,0.004986442560027721
3599.0,0.005049226097925246
3598.0,0.005103821855816026
3597.0,0.005151702342663957
3596.0,0.005196649432474554
3595.0,0.0052428802780762375
3594.0,0.005294873332326596
3593.0,0.0053547320665071445
3592.0,0.005420739644061608
3591.0,0.005489221475851389
3590.0,0.005556022554214295
3589.0,0.005617069432343033
3588.0,0.005669287392977641
3587.0,0.005710616572926713
3586.0,0.005741863957155247
3585.0,0.005769681628267105
3584.0,0.005803516572530859
3583.0,0.005849562801997334
3582.0,0.005906112998042654
3581.0,0.005962905050168776
3580.0,0.006008385393180134
3579.0,0.006040978668505712
3578.0,0.006072710786835299
3577.0,0.006118543025386489
3576.0,0.006183539288584207
3575.0,0.006260872390583485
3574.0,0.00634002923560721
3573.0,0.006415016857925631
3572.0,0.006486158973640917
3571.0,0.006557067176596267
3570.0,0.006629163393960857
3569.0,0.006697110833453033
3568.0,0.006752037529256936
3567.0,0.006791559360944924
3566.0,0.006822388055224251
3565.0,0.006852683918453584
3564.0,0.006886498419502358
3563.0,0.00692547729757099
3562.0,0.00697128908720406
3561.0,0.007023501644353811
3560.0,0.007077618669067618
3559.0,0.007129784369310896
3558.0,0.007182978602199262
3557.0,0.007244358596947581
3556.0,0.0073163615021148605
3555.0,0.0073931478951405095
3554.0,0.007465664968176395
3553.0,0.007529046259357942
3552.0,0.007585047684276343
3551.0,0.007638809235177598
3550.0,0.0076938097110953365
3549.0,0.0077486948213573385
3548.0,0.0077990748174582535
3547.0,0.007844023206271747
3546.0,0.007889810643252544
3545.0,0.007943690532161221
3544.0,0.008005595477881006
3543.0,0.00806962674265266
3542.0,0.008131390815990612
3541.0,0.008190286574383684
3540.0,0.008245831748825119
3539.0,0.008295646206411723
3538.0,0.008338217799325998
3537.0,0.008376772974285017
3536.0,0.008418802176752376
3535.0,0.008471355225823545
3534.0,0.008536366781318914
3533.0,0.008608972387303336
3532.0,0.008680533339163066
3531.0,0.008745344575579628
3530.0,0.00880563569718509
3529.0,0.008869011375724033
3528.0,0.008940121758295564
3527.0,0.009015273621374076
3526.0,0.009085527431839626
3525.0,0.009144534108816318
3524.0,0.009193944451091349
3523.0,0.009241407889943314
3522.0,0.009292210551661982
3521.0,0.009344023549118119
3520.0,0.009391680380296051
3519.0,0.00943597606983511
3518.0,0.009484097587896836
3517.0,0.009540596694756954
3516.0,0.00960214004318117
3515.0,0.009663184036436642
3514.0,0.009722299485510073
3513.0,0.009779550521850325
3512.0,0.009831984881906326
3511.0,0.009877433865940798
3510.0,0.009920654819680432
3509.0,0.009970094104030276
3508.0,0.010029116479810272
3507.0,0.010094571055690326
3506.0,0.010161982415688641
3505.0,0.010227639161213
3504.0,0.010287558106805322
3503.0,0.010339795750094158
3502.0,0.01038760257972399
3501.0,0.010436045912734254
3500.0,0.01048588822414842
3499.0,0.010534340139104587
3498.0,0.010581509757662795
3497.0,0.010632413524603786
3496.0,0.010691471166777905
3495.0,0.010757312259329476
3494.0,0.010823821101451237
3493.0,0.01088488558707896
3492.0,0.010938614398237146
3491.0,0.010988655780114539
3490.0,0.011040581789923235
3489.0,0.011095049126993363
3488.0,0.01114650558080936
3487.0,0.011191995920753726
3486.0,0.01123862035961493
3485.0,0.011296891797423955
3484.0,0.011366810133625603
3483.0,0.011435366386795785
3482.0,0.011490422767323528
3481.0,0.011533833212401068
3480.0,0.011577652091355911
3479.0,0.011630006083560764
3478.0,0.011688762695032922
3477.0,0.011748438089378588
3476.0,0.011809220940891782
3475.0,0.01187575516716642
3474.0,0.011947094299315978
3473.0,0.012012780803507733
3472.0,0.012063498949200467
3471.0,0.012103492022134104
3470.0,0.012146710643783946
3469.0,0.012199653040004291
3468.0,0.012253533122224932
3467.0,0.01229725827207159
3466.0,0.012332993618371433
3465.0,0.012372822300032716
3464.0,0.012423020199934107
3463.0,0.012476855985309059
3462.0,0.01252201564675138
3461.0,0.012551855231271567
3460.0,0.012570442235029613
3459.0,0.012590940662613483
3458.0,0.012628545601431793
3457.0,0.012690187064012258
3456.0,0.012769295387039697
3455.0,0.012851718078626659
3454.0,0.012926468425569972
3453.0,0.012990688335408025
3452.0,0.013047031476987596
3451.0,0.013098732012055253
3450.0,0.013146579239703261
3449.0,0.013189013956485859
3448.0,0.01322587191276629
3447.0,0.013262288350781574
3446.0,0.013305608313002629
3445.0,0.01335752737083105
3444.0,0.013412989466971906
3443.0,0.013467828575892722
3442.0,0.013523697079678241
3441.0,0.0135833277867571
3440.0,0.013644304353256658
3439.0,0.013700819201191742
3438.0,0.013748899483331224
3437.0,0.013787205801294515
3436.0,0.01381604026080043
3435.0,0.013839250055655361
3434.0,0.013864679521005783
3433.0,0.013899084407310075
3432.0,0.013943817906985422
3431.0,0.013996847162189687
3430.0,0.014055389480149392
3429.0,0.014113654077140037
3428.0,0.01416265552374292
3427.0,0.014198616152777597
3426.0,0.014230012448564925
3425.0,0.014271102568652976
3424.0,0.014328379313626492
3423.0,0.014395463394264847
3422.0,0.014459316563151917
3421.0,0.014508879086865087
3420.0,0.014540835768109585
3419.0,0.014562633711142511
3418.0,0.01458986772837103
3417.0,0.014635692903730232
3416.0,0.014699853906020313
3415.0,0.014768069176221678
3414.0,0.014822057544916167
3413.0,0.014851365711039066
3412.0,0.014860159543814463
3411.0,0.01486619157555773
3410.0,0.014889391963725733
3409.0,0.01493516343478199
3408.0,0.01498927183546004
3407.0,0.015032807195821868
3406.0,0.015060489723653835
3405.0,0.015081189251834506
3404.0,0.015104440905848057
3403.0,0.015132764453668544
3402.0,0.015165552510997542
3401.0,0.015202634712082951
3400.0,0.015241774648691891
3399.0,0.015278544015537368
3398.0,0.015312212773940286
3397.0,0.015348184952395767
3396.0,0.015391612431068995
3395.0,0.015440670773454901
3394.0,0.015487898627033678
3393.0,0.015526381451456333
3392.0,0.01555377737620255
3391.0,0.015572844229374137
3390.0,0.015589897580886511
3389.0,0.015611315799809497
3388.0,0.01563941001475912
3387.0,0.015671347136091935
3386.0,0.01570231495385424
3385.0,0.01572968588855157
3384.0,0.01575487160835196
3383.0,0.01578254917924761
3382.0,0.0158178078799961
3381.0,0.015861936685242828
3380.0,0.015909851925088193
3379.0,0.01595245596914323
3378.0,0.015982756748927376
3377.0,0.01600043926952176
3376.0,0.01601132061766252
3375.0,0.01602281660690768
3374.0,0.016039413653583648
3373.0,0.016061849831236333
3372.0,0.016089882341838245
3371.0,0.016123780649137165
3370.0,0.016161162673766567
3369.0,0.016194182992973073
3368.0,0.016214574784488643
3367.0,0.0162231259999623
3366.0,0.016231035222923552
3365.0,0.016249973230526796
3364.0,0.01628270371675284
3363.0,0.01632345339459596
3362.0,0.01636360656207692
3361.0,0.01639582470370863
3360.0,0.016416989497181296
3359.0,0.016430640843422953
3358.0,0.016444607343749567
3357.0,0.016463881026154113
3356.0,0.016487272510867415
3355.0,0.016511752139771026
3354.0,0.016536527944233822
3353.0,0.016560903138056388
3352.0,0.01658175930637956
3351.0,0.016596336464354433
3350.0,0.01660550374220042
3349.0,0.01661227952890241
3348.0,0.01661955747658856
3347.0,0.016630658445241406
3346.0,0.01664787564340173
3345.0,0.016667566910228283
3344.0,0.01668114809251289
3343.0,0.0166854524280675
3342.0,0.016688961295971163
3341.0,0.016703174908335505
3340.0,0.0167297875408844
3339.0,0.016760257363669262
3338.0,0.01678596190044423
3337.0,0.016804571175085943
3336.0,0.01681844313217245
3335.0,0.016831753908292422
3334.0,0.016848573799340124
3333.0,0.01686944237316282
3332.0,0.016889862230664375
3331.0,0.016905198293885718
3330.0,0.016916178314896373
3329.0,0.016926890259842897
3328.0,0.01693914994105119
3327.0,0.016952414215194965
3326.0,0.016967707083638782
3325.0,0.01698716374983978
3324.0,0.017009988916307197
3323.0,0.017032777075768557
3322.0,0.017053793261100222
3321.0,0.017073527634377268
3320.0,0.01709148849482744
3319.0,0.017106529191431446
3318.0,0.017120697086681055
3317.0,0.01713874649363141
3316.0,0.01716221885806516
3315.0,0.017186370320331476
3314.0,0.017204291709091497
3313.0,0.017213021642393758
3312.0,0.017215550862754628
3311.0,0.017218125059625392
3310.0,0.017225497804986094
3309.0,0.017237528399656244
3308.0,0.017250520539433586
3307.0,0.017262494593712336
3306.0,0.017275759666631117
3305.0,0.01729301813635885
3304.0,0.017312717900500065
3303.0,0.01733055717092102
3302.0,0.01734462972805811
3301.0,0.01735699900418627
3300.0,0.017370910201140642
3299.0,0.017388152300737033
3298.0,0.01740811616754995
3297.0,0.017427483604672143
3296.0,0.01744153913840566
3295.0,0.017447410468593147
3294.0,0.01744572970267245
3293.0,0.01743895528456461
3292.0,0.017430113157530024
3291.0,0.01742391628657851
3290.0,0.01742566572018354
3289.0,0.01743593478807929
3288.0,0.017448159366363583
3287.0,0.017454604171280478
3286.0,0.017453897809421984
3285.0,0.017450270347345122
3284.0,0.017446522426228035
3283.0,0.017440687490653625
3282.0,0.017429232565319783
3281.0,0.017410932537902497
3280.0,0.01738757676990481
3279.0,0.0173632204120634
3278.0,0.01734321617688669
3277.0,0.017332129034302247
3276.0,0.017331133981357567
3275.0,0.017336810462962433
3274.0,0.017342060031731537
3273.0,0.017339316092091488
3272.0,0.01732549595201057
3271.0,0.01730471605257905
3270.0,0.01728439559352541
3269.0,0.01726785969735841
3268.0,0.01725203477723245
3267.0,0.01723202990358687
3266.0,0.017205422756100843
3265.0,0.01717224670693253
3264.0,0.017134684399784342
3263.0,0.017097789708506065
3262.0,0.017066048433002468
3261.0,0.017036707017112317
3260.0,0.01700056588407743
3259.0,0.016953221178899545
3258.0,0.016902692480430432
3257.0,0.016861784087623986
3256.0,0.01683433340381919
3255.0,0.0168124354157108
3254.0,0.016786355090586503
3253.0,0.016754187991503588
3252.0,0.01672205207571586
3251.0,0.01669693281749092
3250.0,0.016679109960105624
3249.0,0.01666040421039755
3248.0,0.016630906404171975
3247.0,0.01658850160426125
3246.0,0.016540617415707067
3245.0,0.01649629436624909
3244.0,0.016458790381320063
3243.0,0.016426306207973865
3242.0,0.01639604360892073
3241.0,0.01636558487017752
3240.0,0.016334061110191807
3239.0,0.01630454347343932
3238.0,0.01628181559867161
3237.0,0.01626499875271273
3236.0,0.016245769137856823
3235.0,0.01621722148370307
3234.0,0.01618156248395205
3233.0,0.016145807164874734
3232.0,0.016113004361793044
3231.0,0.01608127473874863
3230.0,0.016048380510241288
3229.0,0.016013074562036152
3228.0,0.01597482229508797
3227.0,0.015937017371146982
3226.0,0.01590831919301784
3225.0,0.015895412008813288
3224.0,0.015894632177396
3223.0,0.015894297383800618
3222.0,0.015884692237940607
3221.0,0.01586325132000809
3220.0,0.01583239786168556
3219.0,0.015796715233038962
3218.0,0.015760855291362435
3217.0,0.0157257765067277
3216.0,0.015687657242785757
3215.0,0.01564430553551513
3214.0,0.015601512060065138
3213.0,0.01556813438459493
3212.0,0.015544787123408687
3211.0,0.015521923946025577
3210.0,0.015490065625387683
3209.0,0.015448791456295644
3208.0,0.015405242820896777
3207.0,0.01536699157274483
3206.0,0.015337004906555742
3205.0,0.015311971768949311
3204.0,0.01528362648328526
3203.0,0.015244375259620125
3202.0,0.015194546125025406
3201.0,0.015144101790796533
3200.0,0.015105959356926182
3199.0,0.015086081520063445
3198.0,0.015077900584950663
3197.0,0.015065910393164454
3196.0,0.01503720502679181
3195.0,0.014991749434689127
3194.0,0.014940911612533043
3193.0,0.014895503617022188
3192.0,0.01485686401899855
3191.0,0.014819982410327046
3190.0,0.014781874768627766
3189.0,0.014743454897203745
3188.0,0.014705026978958747
3187.0,0.014664518188003708
3186.0,0.014620809314771718
3185.0,0.014575711439826111
3184.0,0.014531278691409126
3183.0,0.014486770834944887
3182.0,0.014439534166360141
3181.0,0.014388754977795688
3180.0,0.014338145224783033
3179.0,0.014294186829470586
3178.0,0.01426008682614543
3177.0,0.014231205266170471
3176.0,0.014198269253416782
3175.0,0.014156055669044858
3174.0,0.014107883425636389
3173.0,0.014061393046761716
3172.0,0.014021118201986933
3171.0,0.01398474046646298
3170.0,0.013944573544885614
3169.0,0.013893322342397419
3168.0,0.01383169516190728
3167.0,0.013770336276412352
3166.0,0.013720476896800567
3165.0,0.013682337683309337
3164.0,0.013646367117547692
3163.0,0.013605773304307326
3162.0,0.013562890258314603
3161.0,0.013522210245071544
3160.0,0.013483477980310405
3159.0,0.013444945769760778
3158.0,0.013407332608270848
3157.0,0.013369544328126965
3156.0,0.013325492917683755
3155.0,0.013271303482944852
3154.0,0.013212484913957899
3153.0,0.01315859311502135
3152.0,0.013113264245200014
3151.0,0.013074091575290528
3150.0,0.013039555306294815
3149.0,0.013009819347417557
3148.0,0.012981553509476348
3147.0,0.012948079261102176
3146.0,0.012905096068752214
3145.0,0.012852538958363727
3144.0,0.012792322748887352
3143.0,0.0127291228010169
3142.0,0.012672229900986
3141.0,0.012630601044768737
3140.0,0.012604212718259155
3139.0,0.012583668364626474
3138.0,0.012559568865440723
3137.0,0.012529230363015922
3136.0,0.012494148881312245
3135.0,0.012455194848757482
3134.0,0.01241197978020158
3133.0,0.012364840163323681
3132.0,0.01231631911544199
3131.0,0.012271315352495213
3130.0,0.01223468808558643
3129.0,0.012206249338509067
3128.0,0.012178795019081616
3127.0,0.01214427001599557
3126.0,0.012101843049479939
3125.0,0.012057628634392852
3124.0,0.012017163377360389
3123.0,0.011980739415874322
3122.0,0.011945977114226751
3121.0,0.011911816609767518
3120.0,0.011878896631619961
3119.0,0.011848196557630251
3118.0,0.011820236203819138
3117.0,0.011794762714303823
3116.0,0.011771198868560637
3115.0,0.01174967895282525
3114.0,0.01173044641734037
3113.0,0.011711427866874164
3112.0,0.011688734351846254
3111.0,0.011661321886257646
3110.0,0.011633051118015261
3109.0,0.011608314645390388
3108.0,0.011587566904932546
3107.0,0.011569440617955543
3106.0,0.011554535357424865
3105.0,0.011542985439812652
3104.0,0.011530199834350394
3103.0,0.011509582540218067
3102.0,0.011479458401300352
3101.0,0.011444373309779519
3100.0,0.011409585008376244
3099.0,0.011377589493959813
3098.0,0.011349916304645945
3097.0,0.011327786138749444
3096.0,0.011309462745289033
3095.0,0.011289810940745102
3094.0,0.011265078577427205
3093.0,0.011237437367371863
3092.0,0.011213250127003454
3091.0,0.011196783493383048
3090.0,0.011185567331600184
3089.0,0.01117203819441779
3088.0,0.01115050428759842
3087.0,0.011122828315831034
3086.0,0.01109613223503962
3085.0,0.011075063918147946
3084.0,0.011058496955707023
3083.0,0.011043503695544566
3082.0,0.011029339972379926
3081.0,0.011015801514688946
3080.0,0.011000936431347398
3079.0,0.010983626099269426
3078.0,0.010966016646158157
3077.0,0.010950722604004674
3076.0,0.010937432557955852
3075.0,0.010924916827536199
3074.0,0.01091384237234615
3073.0,0.010903594795533609
3072.0,0.010888541088699551
3071.0,0.010862181724928246
3070.0,0.010825900575621158
3069.0,0.010790120587890245
3068.0,0.010765261952979808
3067.0,0.01075334377893833
3066.0,0.010747784742945167
3065.0,0.01073929531755703
3064.0,0.010721690507486906
3063.0,0.01069430525707982
3062.0,0.010661061754436806
3061.0,0.010627443013149409
3060.0,0.0105978495245363
3059.0,0.010574335327417512
3058.0,0.010555384117750357
3057.0,0.010535542908363685
3056.0,0.010508588111759103
3055.0,0.010472502148708469
3054.0,0.010430205323729283
3053.0,0.010385333927977162
3052.0,0.010340405828024223
3051.0,0.010299156872215083
3050.0,0.010266260689400307
3049.0,0.010241806518943318
3048.0,0.010219071701943095
3047.0,0.010191273151838627
3046.0,0.01015808884315515
3045.0,0.01012321041714931
3044.0,0.010088423186274996
3043.0,0.010054131031164102
3042.0,0.01002327750772823
3041.0,0.00999956174091653
3040.0,0.009981799493060405
3039.0,0.00996365292272519
3038.0,0.009939981578232822
3037.0,0.009911456999126994
3036.0,0.009882877678787072
3035.0,0.009857990211066207
3034.0,0.009835171746804669
3033.0,0.009807938855889133
3032.0,0.00977115074294003
3031.0,0.009727575783229366
3030.0,0.009685683182803643
3029.0,0.009650065010228338
3028.0,0.009618578788026575
3027.0,0.00958999586340133
3026.0,0.009569021496336101
3025.0,0.00955855827417728
3024.0,0.009551250139067491
3023.0,0.009535197185235147
3022.0,0.009506598104837902
3021.0,0.0094717994665162
3020.0,0.009437767305268518
3019.0,0.009406310296255254
3018.0,0.009376896997218956
3017.0,0.009349329898161231
3016.0,0.009322136938323773
3015.0,0.009292495636270064
3014.0,0.009259889165978011
3013.0,0.009227582923704312
3012.0,0.009199670923865588
3011.0,0.009178595183993337
3010.0,0.009165200999147258
3009.0,0.009158504853129036
3008.0,0.00915477613689718
3007.0,0.009148665776737104
3006.0,0.009136020211301608
3005.0,0.009115909747174944
3004.0,0.009091413677835353
3003.0,0.009068695510873855
3002.0,0.00905247922923048
3001.0,0.009040279673453217
3000.0,0.009024403493533992
2999.0,0.009002014917003698
2998.0,0.008980225770737477
2997.0,0.00896737309323831
2996.0,0.008961917232970436
2995.0,0.008955169764178527
2994.0,0.008943093670198217
2993.0,0.008930492667755132
2992.0,0.008923766680419333
2991.0,0.008924943753379577
2990.0,0.008933199845433787
2989.0,0.008947397150070159
2988.0,0.008965478413721795
2987.0,0.008984426128680134
2986.0,0.009002500423252407
2985.0,0.00901967039513845
2984.0,0.009035911109436183
2983.0,0.009051413672547599
2982.0,0.009067994182067048
2981.0,0.009087495963154061
2980.0,0.009108935723631289
2979.0,0.009130161770478555
2978.0,0.009152325020126124
2977.0,0.009179511875817411
2976.0,0.009213644323639535
2975.0,0.009252357634952059
2974.0,0.009292627257758871
2973.0,0.009333861364457739
2972.0,0.00937683114310538
2971.0,0.009421482969760808
2970.0,0.009466498899099016
2969.0,0.009509616003083884
2968.0,0.009548509599404993
2967.0,0.009583006710038217
2966.0,0.009615823836742646
2965.0,0.009649151402536579
2964.0,0.009680945564002596
2963.0,0.009706893659245038
2962.0,0.009725395439052518
2961.0,0.009738507674188506
2960.0,0.009748297223980532
2959.0,0.009754703888934343
2958.0,0.009756456439952668
2957.0,0.00975154479359458
2956.0,0.00973692844013149
2955.0,0.009710635196912945
2954.0,0.00967517141815572
2953.0,0.009637211650229292
2952.0,0.0096034768744483
2951.0,0.009577276243601711
2950.0,0.009558269102512966
2949.0,0.009543998890310757
2948.0,0.009532569143001433
2947.0,0.009525683574325088
2946.0,0.00952873827465635
2945.0,0.009546367632677256
2944.0,0.0095780170269792
2943.0,0.00961845662044413
2942.0,0.009661928850923316
2941.0,0.009705584929944342
2940.0,0.009751209091552228
2939.0,0.009804697400488019
2938.0,0.009871164859683448
2937.0,0.009948313494310385
2936.0,0.010026399282390897
2935.0,0.010097074917242457
2934.0,0.010159521876946897
2933.0,0.010216489575657406
2932.0,0.010267824881509164
2931.0,0.010312371064952428
2930.0,0.010354037372576447
2929.0,0.010400745864698097
2928.0,0.010456358874554402
2927.0,0.010514975260650417
2926.0,0.0105630171306479
2925.0,0.010586539618299164
2924.0,0.010579749125276216
2923.0,0.010548907028536782
2922.0,0.010505816941461785
2921.0,0.010455940974496966
2920.0,0.010395582069800301
2919.0,0.010320569831579423
2918.0,0.01023268985489444
2917.0,0.010135264171973208
2916.0,0.010028722481439784
2915.0,0.009914547244077948
2914.0,0.009797821620404818
2913.0,0.009681403275532257
2912.0,0.009561880701899159
2911.0,0.009437891801658261
2910.0,0.009318743529396274
2909.0,0.009217554824788005
2908.0,0.009136912975979074
2907.0,0.009066473832675129
2906.0,0.008995226035813755
2905.0,0.008920693331290466
2904.0,0.008846842699376696
2903.0,0.008778773605798979
2902.0,0.00872050650819548
2901.0,0.008673205874938035
2900.0,0.008632969679051318
2899.0,0.008592674443398524
2898.0,0.008547954370969824
2897.0,0.008499605820937515
2896.0,0.008450264125228426
2895.0,0.008401186377976199
2894.0,0.008352510472936931
2893.0,0.008304325571992949
2892.0,0.008257104711476589
2891.0,0.008212871781251423
2890.0,0.008175243902088316
2889.0,0.008145643741191122
2888.0,0.008119648326331096
2887.0,0.008090585953446297
2886.0,0.008057185759595083
2885.0,0.008025204927635678
2884.0,0.008000516636195516
2883.0,0.007982747150598112
2882.0,0.007967228065844972
2881.0,0.00795100327643163
2880.0,0.007935253878504337
2879.0,0.007922263715497844
2878.0,0.007911922500748864
2877.0,0.007902506460995435
2876.0,0.007893962796043447
2875.0,0.007888205567855473
2874.0,0.007884654679226196
2873.0,0.00787756583993101
2872.0,0.007861562780127515
2871.0,0.007838889356237815
2870.0,0.007816886891220813
2869.0,0.007797975234798124
2868.0,0.007776660423795333
2867.0,0.007749114162858938
2866.0,0.007720838925398803
2865.0,0.007700887914132452
2864.0,0.0076922574570933554
2863.0,0.0076918281167148925
2862.0,0.0076977817677283105
2861.0,0.007712286900104351
2860.0,0.007737729671103772
2859.0,0.007773970987156865
2858.0,0.007818328680397474
2857.0,0.007865647861112322
2856.0,0.00790985826750327
2855.0,0.00794743910589977
2854.0,0.007977069648122998
2853.0,0.007993610898576343
2852.0,0.007985932397446447
2851.0,0.007944505896963973
2850.0,0.007868665308075954
2849.0,0.007764139652542331
2848.0,0.0076370109257524535
2847.0,0.007494891611042503
2846.0,0.007350604798972812
2845.0,0.0072183119448296865
2844.0,0.007104703310797315
2843.0,0.007006555381992923
2842.0,0.006916424942799178
2841.0,0.006829239410694324
2840.0,0.00674577689073233
2839.0,0.006672047266111272
2838.0,0.006613839229709517
2837.0,0.006569376515665491
2836.0,0.0065295446551818575
2835.0,0.006487627913003401
2834.0,0.006445348340673662
2833.0,0.00640639917839335
2832.0,0.006367904269176641
2831.0,0.006323667983181058
2830.0,0.006274104556560137
2829.0,0.006227428621057422
2828.0,0.00619077599597882
2827.0,0.00616422514654618
2826.0,0.0061428006637422716
2825.0,0.006120399709233028
2824.0,0.006092660063212881
2823.0,0.006059264953176506
2822.0,0.0060239943899723
2821.0,0.005990710834566887
2820.0,0.0059602593597013025
2819.0,0.005932905412522147
2818.0,0.005910656224284502
2817.0,0.005893674890006717
2816.0,0.0058770963260960755
2815.0,0.005855951143011508
2814.0,0.005831323248581191
2813.0,0.0058073680817112405
2812.0,0.005784347228124685
2811.0,0.0057595282432899575
2810.0,0.005733567820935086
2809.0,0.0057103092644804915
2808.0,0.005690336559871727
2807.0,0.0056699237077029495
2806.0,0.005647035565531557
2805.0,0.005624041929935892
2804.0,0.005603464235601121
2803.0,0.005584536490194301
2802.0,0.00556506474306496
2801.0,0.005544023134193617
2800.0,0.005521757592447714
2799.0,0.00550004775433567
2798.0,0.005481815564775559
2797.0,0.005468165850216378
2796.0,0.005456206081802033
2795.0,0.005442064926162954
2794.0,0.005425009461955297
2793.0,0.005406326358700161
2792.0,0.005386031768278491
2791.0,0.005364165858407376
2790.0,0.005343754701532689
2789.0,0.005328133841341488
2788.0,0.005316192760476947
2787.0,0.005304157787807371
2786.0,0.005291093466114237
2785.0,0.005278626270828665
2784.0,0.0052659577194871
2783.0,0.005249917576918913
2782.0,0.005230195569707418
2781.0,0.005210165731896143
2780.0,0.00519195146173325
2779.0,0.005174502191578083
2778.0,0.00515737456646247
2777.0,0.0051428973537512015
2776.0,0.005133081369410602
2775.0,0.005126582691455576
2774.0,0.005119347422184807
2773.0,0.005106704517597964
2772.0,0.005086066118848541
2771.0,0.005060308201392968
2770.0,0.0050377164722587575
2769.0,0.005025177676160207
2768.0,0.005020979768233464
2767.0,0.005016835175871085
2766.0,0.005006524549851192
2765.0,0.004989881045404062
2764.0,0.00496978404198097
2763.0,0.004949230451872365
2762.0,0.0049306532701742
2761.0,0.0049145061268046335
2760.0,0.004898444155653971
2759.0,0.004880800973170503
2758.0,0.004864168681991669
2757.0,0.004852202756008686
2756.0,0.0048439272344948615
2755.0,0.004834950302515471
2754.0,0.004823620902335816
2753.0,0.004812043970055757
2752.0,0.00480164817713837
2751.0,0.004792055080219056
2750.0,0.004784053116441055
2749.0,0.004778987273355342
2748.0,0.004774683696483029
2747.0,0.004766424837110975
2746.0,0.004753035986597891
2745.0,0.004738012755327836
2744.0,0.004723937347647667
2743.0,0.004709956428831258
2742.0,0.004695825684232191
2741.0,0.00468406807989812
2740.0,0.004675912018124277
2739.0,0.004668280955382379
2738.0,0.004657174782491842
2737.0,0.004642127221979476
2736.0,0.004625565392035892
2735.0,0.004609444532083523
2734.0,0.0045938733894524955
2733.0,0.004578052723698061
2732.0,0.004562174898421548
2731.0,0.004548967856341544
2730.0,0.004542027277362496
2729.0,0.004540447657805876
2728.0,0.004536845431889525
2727.0,0.00452458689543979
2726.0,0.004506384011649509
2725.0,0.004491697888629506
2724.0,0.004485281976385625
2723.0,0.00448190356195964
2722.0,0.004473561835005168
2721.0,0.004458289431808561
2720.0,0.00444049083172007
2719.0,0.0044253271162922455
2718.0,0.004414554746904084
2717.0,0.004406479671921534
2716.0,0.004398749205325966
2715.0,0.004391492117236226
2714.0,0.004386634788574803
2713.0,0.004382857498256727
2712.0,0.004373562908858577
2711.0,0.004353569384019821
2710.0,0.004327155699099218
2709.0,0.004305336049576294
2708.0,0.004294930724758747
2707.0,0.004293335952492936
2706.0,0.004293646630733539
2705.0,0.004290836311863272
2704.0,0.004282505981272209
2703.0,0.00426833354120495
2702.0,0.0042511454252926375
2701.0,0.00423555985968613
2700.0,0.004223703516256605
2699.0,0.004214245304317674
2698.0,0.004206299051377978
2697.0,0.0042012880261140416
2696.0,0.004199533612883757
2695.0,0.004198077621193523
2694.0,0.004193923625065509
2693.0,0.004187301339903952
2692.0,0.004180017250865983
2691.0,0.00417244751141495
2690.0,0.0041639018529438425
2689.0,0.004154360995668493
2688.0,0.004144117418188844
2687.0,0.004132813859439622
2686.0,0.004120311886151177
2685.0,0.004107866590586175
2684.0,0.004097405446751613
2683.0,0.0040899628024013025
2682.0,0.004085167927120135
2681.0,0.0040816612012607376
2680.0,0.004077977592606698
2679.0,0.004073783410448658
2678.0,0.0040701426844945605
2677.0,0.0040678100521589124
2676.0,0.004065632400009597
2675.0,0.004061553820092896
2674.0,0.004054682715988044
2673.0,0.0040454594017047835
2672.0,0.004034719551235344
2671.0,0.004024011340838163
2670.0,0.00401588503768654
2669.0,0.004012126753969351
2668.0,0.004012222868242327
2667.0,0.004015054419325047
2666.0,0.004021177885288502
2665.0,0.004031635140448907
2664.0,0.004045568136109621
2663.0,0.004061050953886301
2662.0,0.004077204859762126
2661.0,0.0040930346465743546
2660.0,0.004105133138490676
2659.0,0.004109793671916951
2658.0,0.004107789417039857
2657.0,0.0041043957561362095
2656.0,0.004103929210204917
2655.0,0.004106212959736302
2654.0,0.004108868188690338
2653.0,0.004111357677177942
2652.0,0.004115815163739553
2651.0,0.004124697751053115
2650.0,0.004137642934567087
2649.0,0.004150143329529037
2648.0,0.004156599896282022
2647.0,0.004155952051987331
2646.0,0.004153222283395063
2645.0,0.004154036792772556
2644.0,0.004158965041460079
2643.0,0.00416481192953898
2642.0,0.004169117374625105
2641.0,0.004170626033518391
2640.0,0.004167638093370974
2639.0,0.004160333383616511
2638.0,0.004153861524103721
2637.0,0.004154658968129883
2636.0,0.004163375685505353
2635.0,0.004174892360687504
2634.0,0.004185663020923756
2633.0,0.004196805040853824
2632.0,0.0042088689800181146
2631.0,0.004217740715001397
2630.0,0.0042186367412759326
2629.0,0.0042123212248746785
2628.0,0.004204703742801894
2627.0,0.004200858264259021
2626.0,0.004201030129242896
2625.0,0.004202498133037073
2624.0,0.00420401645509977
2623.0,0.004207125630420886
2622.0,0.0042125268565035515
2621.0,0.004216728701222245
2620.0,0.004215025047995101
2619.0,0.00420787080714771
2618.0,0.0042010470954315145
2617.0,0.004198335424393287
2616.0,0.004197179141874073
2615.0,0.0041933765484362066
2614.0,0.004186826773882124
2613.0,0.004180152449332334
2612.0,0.004175277028925934
2611.0,0.004174512845241411
2610.0,0.004181322417667661
2609.0,0.004194889247195156
2608.0,0.004206298618352376
2607.0,0.004205922364684477
2606.0,0.004194055708005969
2605.0,0.0041803164313984975
2604.0,0.0041730144020192565
2603.0,0.004172846023326577
2602.0,0.004176201936886059
2601.0,0.004179742492505615
2600.0,0.004181029192547182
2599.0,0.0041785101112757714
2598.0,0.004172414182268073
2597.0,0.00416427057858483
2596.0,0.004155536899316183
2595.0,0.004147758182025677
2594.0,0.0041425796020670026
2593.0,0.004139570803079921
2592.0,0.004135605764391128
2591.0,0.004128825015052566
2590.0,0.0041217252929759115
2589.0,0.004118019990421705
2588.0,0.004118072497543158
2587.0,0.004119566180979142
2586.0,0.00412047486418271
2585.0,0.004119056378240062
2584.0,0.004113490126193565
2583.0,0.004104618231194559
2582.0,0.004096933714710286
2581.0,0.004094060283394463
2580.0,0.004095687055350504
2579.0,0.004101167070392313
2578.0,0.004111951978121459
2577.0,0.004126386705881251
2576.0,0.004136127414587155
2575.0,0.0041337076432706454
2574.0,0.004121868390549036
2573.0,0.004110342357294255
2572.0,0.004104715772578395
2571.0,0.004103032510887634
2570.0,0.004101815902548783
2569.0,0.0040998018980538216
2568.0,0.004095956876752618
2567.0,0.0040890568032739
2566.0,0.004080557857421584
2565.0,0.0040748454239784935
2564.0,0.004075691953971078
2563.0,0.004083882864892569
2562.0,0.004097371435051278
2561.0,0.0041116994760440765
2560.0,0.004121619648408819
2559.0,0.004124825455804211
2558.0,0.0041236559151182715
2557.0,0.0041222646733731945
2556.0,0.004123727885293556
2555.0,0.004130292751115937
2554.0,0.004142948660088967
2553.0,0.004158699893654476
2552.0,0.004171433075669455
2551.0,0.004177876450069812
2550.0,0.004180280884192969
2549.0,0.004182009518045208
2548.0,0.004183937515091698
2547.0,0.004186460917169886
2546.0,0.004190543144206269
2545.0,0.004194655176597635
2544.0,0.004195502120151146
2543.0,0.004194501095628692
2542.0,0.004198616076984798
2541.0,0.004211198972475227
2540.0,0.0042262825326048635
2539.0,0.004235353009845813
2538.0,0.004235629607055532
2537.0,0.004229377487269306
2536.0,0.004220931919335481
2535.0,0.004217847706453125
2534.0,0.004228511702220086
2533.0,0.004252787300338089
2532.0,0.00427917477341627
2531.0,0.004296095647048617
2530.0,0.004302371202409671
2529.0,0.004303520054181339
2528.0,0.00430359692325231
2527.0,0.004305428529537927
2526.0,0.004313077043077168
2525.0,0.004327223228297199
2524.0,0.004341376650804117
2523.0,0.004347998320570229
2522.0,0.004345573697845857
2521.0,0.004336511234129453
2520.0,0.004323028429697235
2519.0,0.004308945998717475
2518.0,0.004299707548758799
2517.0,0.004295518109195521
2516.0,0.0042898190341585565
2515.0,0.004279528507229846
2514.0,0.00427034535263881
2513.0,0.004265697644302433
2512.0,0.004257265643012402
2511.0,0.0042351332892254555
2510.0,0.004203169675016246
2509.0,0.004176157196507981
2508.0,0.004163723010442841
2507.0,0.004163089970387409
2506.0,0.004164698781634296
2505.0,0.004159005832353038
2504.0,0.004141022278087206
2503.0,0.004114632059595589
2502.0,0.004090491326948397
2501.0,0.004075151804871804
2500.0,0.004064994653774662
2499.0,0.004053860798509665
2498.0,0.004041211194610291
2497.0,0.004028645412063766
2496.0,0.004015009855725038
2495.0,0.004000636257965474
2494.0,0.003989609614219223
2493.0,0.003981159291714357
2492.0,0.003965987491726037
2491.0,0.003939389185708243
2490.0,0.003911120763029279
2489.0,0.0038925464906316284
2488.0,0.0038800002930492582
2487.0,0.003861904807587184
2486.0,0.003837803269139038
2485.0,0.003818330887163452
2484.0,0.0038085135563430085
2483.0,0.00380239466690053
2482.0,0.0037935689117917
2481.0,0.0037807754080142362
2480.0,0.0037626037874945095
2479.0,0.0037358542880169847
2478.0,0.003701081091382812
2477.0,0.0036635260701384613
2476.0,0.0036278735418119237
2475.0,0.0035969216448122456
2474.0,0.003573742503475796
2473.0,0.0035588245974080166
2472.0,0.0035466184601790776
2471.0,0.0035316939273977712
2470.0,0.0035173458900151933
2469.0,0.0035117371916864107
2468.0,0.0035161655935819986
2467.0,0.0035226713279864668
2466.0,0.003522382929896749
2465.0,0.0035118149798814002
2464.0,0.0034933590682428546
2463.0,0.003474586982095321
2462.0,0.003464318225893611
2461.0,0.003463979707007267
2460.0,0.0034655461533150975
2459.0,0.003462766503037888
2458.0,0.0034599345898620954
2457.0,0.003463400812240753
2456.0,0.003469428953407427
2455.0,0.0034686381668550476
2454.0,0.0034587656139112403
2453.0,0.003444389204219295
2452.0,0.003427128239014552
2451.0,0.003405792051380259
2450.0,0.0033847283084099218
2449.0,0.0033719828866943646
2448.0,0.0033681998121741427
2447.0,0.0033653784057546474
2446.0,0.0033578640247507643
2445.0,0.0033479586441444113
2444.0,0.00333986830242332
2443.0,0.003334114668301892
2442.0,0.0033289127359468996
2441.0,0.003322167782093789
2440.0,0.0033113613821888544
2439.0,0.003295177386837281
2438.0,0.003275362860503459
2437.0,0.003254759015213512
2436.0,0.0032353636809153404
2435.0,0.003220486178549703
2434.0,0.0032148148552651272
2433.0,0.003218286727102576
2432.0,0.003223318971064054
2431.0,0.003222023934762821
2430.0,0.003212534632970654
2429.0,0.0031956314749489174
2428.0,0.0031719981343688135
2427.0,0.0031478978581353824
2426.0,0.0031357070526116288
2425.0,0.0031400334157644883
2424.0,0.0031484519091646004
2423.0,0.003145276568097535
2422.0,0.003130941565260417
2421.0,0.003118838399183925
2420.0,0.0031160248941710096
2419.0,0.0031163424580819194
2418.0,0.0031111209531436376
2417.0,0.0030983011162872645
2416.0,0.0030815952709969366
2415.0,0.0030675230145754758
2414.0,0.0030626507875556696
2413.0,0.003067609581318167
2412.0,0.0030740292780750554
2411.0,0.003071879508686782
2410.0,0.003058790903300577
2409.0,0.0030392520720248124
2408.0,0.0030184901776771477
2407.0,0.003001559234839649
2406.0,0.002993473228871288
2405.0,0.002993584105173249
2404.0,0.0029934428785850674
2403.0,0.0029864443346871877
2402.0,0.0029763370279767497
2401.0,0.002970691931481087
2400.0,0.0029697171151391475
2399.0,0.002967603044658397
2398.0,0.0029615024191176017
2397.0,0.0029529846427448323
2396.0,0.0029436420153974734
2395.0,0.0029351028876128805
2394.0,0.002930235404919212
2393.0,0.002928802128830235
2392.0,0.0029253208963061677
2391.0,0.002916012711681312
2390.0,0.002903793260168433
2389.0,0.002891913664411954
2388.0,0.0028782421586458595
2387.0,0.002861714089081067
2386.0,0.0028481586808509706
2385.0,0.0028417744010237516
2384.0,0.002835778503718216
2383.0,0.002819975985315784
2382.0,0.0027940703827793096
2381.0,0.0027659967033460235
2380.0,0.002740982672499406
2379.0,0.002721001904318041
2378.0,0.0027115038635177817
2377.0,0.0027163745045301756
2376.0,0.002726670260138862
2375.0,0.0027264757169130627
2374.0,0.002711161217572917
2373.0,0.0026902709185210516
2372.0,0.0026723074630582325
2371.0,0.0026582126921718195
2370.0,0.00264893017318699
2369.0,0.002645743154886344
2368.0,0.0026434216304206293
2367.0,0.0026373511430685522
2366.0,0.0026354176038298972
2365.0,0.002646844485193976
2364.0,0.0026615564995151565
2363.0,0.00266288353467724
2362.0,0.002655089997167551
2361.0,0.0026547205301694914
2360.0,0.002662407721627123
2359.0,0.00266352795566493
2358.0,0.0026558655223750446
2357.0,0.0026523634423650387
2356.0,0.0026550647065516353
2355.0,0.002654728709654597
2354.0,0.0026509051594566626
2353.0,0.0026535735846792393
2352.0,0.002662842538658586
2351.0,0.0026671133743932283
2350.0,0.002661470770959402
2349.0,0.0026481871699763843
2348.0,0.0026318370963071378
2347.0,0.0026219706954092436
2346.0,0.002633494686580831
2345.0,0.002672853633410394
2344.0,0.002719362787832762
2343.0,0.0027465459531461353
2342.0,0.0027503749318452194
2341.0,0.0027492889079420964
2340.0,0.0027559766867767134
2339.0,0.0027641617211507795
2338.0,0.0027664999472284692
2337.0,0.002765309902496695
2336.0,0.00276412888039126
2335.0,0.0027570925024132517
2334.0,0.0027415494339038766
2333.0,0.0027263994011092587
2332.0,0.0027266014480464653
2331.0,0.002742473249869896
2330.0,0.0027651281378627403
2329.0,0.002788585022930972
2328.0,0.0028268728982579106
2327.0,0.0029017028165980166
2326.0,0.0030163564687703277
2325.0,0.003137997152819416
2324.0,0.0032135555488156846
2323.0,0.0032157521095332853
2322.0,0.003167394484460388
2321.0,0.003113643903737554
2320.0,0.0030776293155168367
2319.0,0.003053605860891352
2318.0,0.003033041225495445
2317.0,0.003013974534536698
2316.0,0.002997574335618962
2315.0,0.0029838635290902757
2314.0,0.002978145735520311
2313.0,0.0029808702890882625
2312.0,0.0029841303842360434
2311.0,0.0029794315905473747
2310.0,0.0029737239578730545
2309.0,0.002977211398384138
2308.0,0.0029874945964465075
2307.0,0.0029920375498894798
2306.0,0.002989234393917561
2305.0,0.002988457572967869
2304.0,0.0029946739069862003
2303.0,0.003001894215898704
2302.0,0.0030069672954217324
2301.0,0.0030148533245712215
2300.0,0.0030315020619095328
2299.0,0.0030561021362344163
2298.0,0.003085144687969442
2297.0,0.003113668617623509
2296.0,0.0031358816965343255
2295.0,0.003149752452180096
2294.0,0.003162797889777278
2293.0,0.0031844190844854824
2292.0,0.0032148194003159434
2291.0,0.003246865089975263
2290.0,0.003276104350336686
2289.0,0.0033007623566242744
2288.0,0.0033159898076957762
2287.0,0.0033188975162156756
2286.0,0.003316093082389639
2285.0,0.003316269482819754
2284.0,0.003316870415227
2283.0,0.00330946403738361
2282.0,0.0032944257670930186
2281.0,0.003278983872404733
2280.0,0.003263079961609529
2279.0,0.003241277413308955
2278.0,0.0032166497524308917
2277.0,0.003198856183136989
2276.0,0.003189299896320543
2275.0,0.003181377220982072
2274.0,0.003174460451246922
2273.0,0.0031734714527124753
2272.0,0.003176433897569012
2271.0,0.003176407311019414
2270.0,0.0031744113143903265
2269.0,0.003175898589960878
2268.0,0.0031767293895033077
2267.0,0.0031681198055791234
2266.0,0.003153434842570489
2265.0,0.0031444051507420025
2264.0,0.0031425807221541688
2263.0,0.0031410308385352186
2262.0,0.0031422824416811957
2261.0,0.0031569595325888883
2260.0,0.003184762940705371
2259.0,0.0032126550189577707
2258.0,0.003230746931203145
2257.0,0.00323461478000502
2256.0,0.0032166563535745273
2255.0,0.0031742677313472624
2254.0,0.003125010144856666
2253.0,0.0030928666097057834
2252.0,0.003080367029176831
2251.0,0.0030729468774156323
2250.0,0.003069259700950143
2249.0,0.0030838675910243485
2248.0,0.003119276025833984
2247.0,0.0031574406656711893
2246.0,0.003183452596690586
2245.0,0.003198865897096797
2244.0,0.0032075981448421763
2243.0,0.0032084503486808137
2242.0,0.0032062753014877135
2241.0,0.003212450919625274
2240.0,0.0032277164319913674
2239.0,0.0032395700535403278
2238.0,0.0032406504017547465
2237.0,0.0032363011392190174
2236.0,0.0032317174773540984
2235.0,0.003226088794258032
2234.0,0.0032212027460697575
2233.0,0.0032215088067974284
2232.0,0.0032239975621978366
2231.0,0.0032213720999727025
2230.0,0.0032149568608059683
2229.0,0.0032111610510755545
2228.0,0.003208143694415911
2227.0,0.003200623093719413
2226.0,0.003193778293972939
2225.0,0.00319565537432486
2224.0,0.0032002545493931504
2223.0,0.003196346931881608
2222.0,0.0031885383836429016
2221.0,0.0031905108357858916
2220.0,0.003201549839603128
2219.0,0.00321045247443189
2218.0,0.0032183628070651853
2217.0,0.0032357154947595407
2216.0,0.0032596267455124923
2215.0,0.0032763483805899446
2214.0,0.0032834393189797623
2213.0,0.0032882663991437816
2212.0,0.0032871781986612944
2211.0,0.003269209623352312
2210.0,0.0032393033654334238
2209.0,0.0032165695638424713
2208.0,0.0032095860634372797
2207.0,0.0032116640269849793
2206.0,0.0032172818318876584
2205.0,0.003224357612965631
2204.0,0.003227113904004576
2203.0,0.0032271462712156027
2202.0,0.0032428034153875406
2201.0,0.0032839333104237836
2200.0,0.0033261913344591666
2199.0,0.0033381510333399364
2198.0,0.003325819678943992
2197.0,0.003321697306692256
2196.0,0.0033362576888245773
2195.0,0.003350909035378576
2194.0,0.0033547928535682834
2193.0,0.0033563230861786
2192.0,0.0033584719629314312
2191.0,0.0033526442487577506
2190.0,0.003338942659710277
2189.0,0.0033272437048942178
2188.0,0.0033199957853215474
2187.0,0.00331747663271094
2186.0,0.003330921463428427
2185.0,0.0033589909978132713
2184.0,0.0033620025015052013
2183.0,0.003301299628822255
2182.0,0.003202753260613157
2181.0,0.0031382423168497047
2180.0,0.0031388501733968562
2179.0,0.0031669829539218613
2178.0,0.003178011074972728
2177.0,0.003167896070821988
2176.0,0.003153941478714727
2175.0,0.0031467500481305545
2174.0,0.003155135311382321
2173.0,0.003189173889086039
2172.0,0.0032443379551187284
2171.0,0.0033027423150638136
2170.0,0.0033545845051076743
2169.0,0.003399920277288929
2168.0,0.003432007702219953
2167.0,0.0034417574140514014
2166.0,0.0034402968636619417
2165.0,0.0034571206513786994
2164.0,0.0035119496916166722
2163.0,0.0035988200280389687
2162.0,0.003679784568956533
2161.0,0.0036741783483658025
2160.0,0.003491929872991059
2159.0,0.003138181317694865
2158.0,0.0027626044474806655
2157.0,0.002532202053971642
2156.0,0.0024770153843069955
2155.0,0.002517403732066446
2154.0,0.002588242557420364
2153.0,0.0026712771227359678
2152.0,0.002750620958764846
2151.0,0.0028021566784679507
2150.0,0.002820371302930509
2149.0,0.002814217035968381
2148.0,0.002782148686276437
2147.0,0.0027253127308041417
2146.0,0.00267456172201327
2145.0,0.002665101144909448
2144.0,0.002690011307756408
2143.0,0.002713650733737026
2142.0,0.002722474254333488
2141.0,0.002728282399077323
2140.0,0.0027316050475412273
2139.0,0.0027188208484060583
2138.0,0.0026896890474206376
2137.0,0.0026541130618551725
2136.0,0.0026072461192380163
2135.0,0.0025420500411005515
2134.0,0.0024819574421350507
2133.0,0.002464500924857921
2132.0,0.0024940905386972175
2131.0,0.0025408639562229437
2130.0,0.002582327389272011
2129.0,0.0026156209497216446
2128.0,0.002636236277486458
2127.0,0.0026367557562808363
2126.0,0.0026291691381729212
2125.0,0.0026396344395561294
2124.0,0.002674536850670159
2123.0,0.0027128365125815516
2122.0,0.002736626522067944
2121.0,0.002748936314130673
2120.0,0.0027589584308684908
2119.0,0.0027700729767203788
2118.0,0.0027875132757674242
2117.0,0.0028177476341605043
2116.0,0.0028532517849932273
2115.0,0.002873885754659
2114.0,0.0028705909253830307
2113.0,0.002855808138075039
2112.0,0.0028473495412594217
2111.0,0.002852839979962467
2110.0,0.0028705372031082566
2109.0,0.0028913642461581685
2108.0,0.002900588952528635
2107.0,0.0028913069945251126
2106.0,0.002876172274141827
2105.0,0.002871819367816645
2104.0,0.002875086891787472
2103.0,0.002869802520385246
2102.0,0.0028540497449510305
2101.0,0.0028423054813623964
2100.0,0.002843028628616963
2099.0,0.0028509305938420894
2098.0,0.002858820015769455
2097.0,0.0028592187793774087
2096.0,0.0028393608182226203
2095.0,0.0027962198592391572
2094.0,0.002754593401611305
2093.0,0.0027471787843463963
2092.0,0.0027764227410182487
2091.0,0.002814889456739435
2090.0,0.002840794070052845
2089.0,0.002854527869925667
2088.0,0.0028620693155383117
2087.0,0.002863827919708358
2086.0,0.0028630057130888086
2085.0,0.002867760830272956
2084.0,0.0028804315170644318
2083.0,0.0028961802528511714
2082.0,0.002911798155183175
2081.0,0.0029239968074493638
2080.0,0.0029238885301484303
2079.0,0.002908266470083132
2078.0,0.0028910954470036097
2077.0,0.0028883540315378705
2076.0,0.0028970178246033183
2075.0,0.002905259007722856
2074.0,0.00291294972305103
2073.0,0.0029212520624032124
2072.0,0.002914080237493519
2071.0,0.0028767162121485002
2070.0,0.002825290250238184
2069.0,0.0027912972500902414
2068.0,0.0027817837330825126
2067.0,0.00278168459941296
2066.0,0.002787516738765807
2065.0,0.002806911620629897
2064.0,0.0028313234295961128
2063.0,0.002843639504094756
2062.0,0.0028499662863539213
2061.0,0.0028705970205881496
2060.0,0.002902557539598651
2059.0,0.0029218517969640955
2058.0,0.002920152516867567
2057.0,0.0029074382626291606
2056.0,0.002884848796376611
2055.0,0.0028533995779876182
2054.0,0.00284709278925927
2053.0,0.0029093455892651643
2052.0,0.003026232015864666
2051.0,0.003122655034148747
2050.0,0.0031389384576301234
2049.0,0.0030869043889614474
2048.0,0.0030194797974943616
2047.0,0.0029715795629505644
2046.0,0.002951747100346518
2045.0,0.002960223879848926
2044.0,0.002985663117477479
2043.0,0.0030057086024293357
2042.0,0.00301109605651861
2041.0,0.0030150999224878732
2040.0,0.003031768879001087
2039.0,0.003062013386878986
2038.0,0.003101292892917301
2037.0,0.0031352393503873833
2036.0,0.0031310039175128286
2035.0,0.0030659875538520424
2034.0,0.002967319687317684
2033.0,0.0028910953212110233
2032.0,0.0028582199380360967
2031.0,0.002844039832321608
2030.0,0.0028282136715011836
2029.0,0.0028151306379992744
2028.0,0.0028075803336982262
2027.0,0.0028001236092770783
2026.0,0.002800934638360805
2025.0,0.00282375954265737
2024.0,0.0028569904773064975
2023.0,0.00287189614864393
2022.0,0.002858588295130316
2021.0,0.002826603848498571
2020.0,0.0027807559707632465
2019.0,0.002728179591375188
2018.0,0.0026965507682900785
2017.0,0.002705092585230163
2016.0,0.0027269559451962846
2015.0,0.002724486563992895
2014.0,0.0027084461653574072
2013.0,0.0027193342020490107
2012.0,0.0027622956911816468
2011.0,0.0028023252359956254
2010.0,0.002814623300167729
2009.0,0.0027965392299040544
2008.0,0.0027397595910478804
2007.0,0.002640161858490713
2006.0,0.0025356317398422014
2005.0,0.0024869057881399767
2004.0,0.002513912075853522
2003.0,0.002584373834090834
2002.0,0.0026595833853962155
2001.0,0.002718819522544366
2000.0,0.0027510327732644876
1999.0,0.0027575549603726457
1998.0,0.0027572517341522772
1997.0,0.00276313777728419
1996.0,0.0027623678176122227
1995.0,0.0027435908339772733
1994.0,0.0027282017651447535
1993.0,0.002743718894049224
1992.0,0.002777101808552887
1991.0,0.002793506374778827
1990.0,0.002791027267268874
1989.0,0.0027930905658740293
1988.0,0.0028039640213751225
1987.0,0.0028148344568061858
1986.0,0.002838202418675529
1985.0,0.002891175849294664
1984.0,0.0029558108134806835
1983.0,0.0030007166718732676
1982.0,0.0030309057662790276
1981.0,0.0030675059664595564
1980.0,0.0030851485032327604
1979.0,0.0030254708901366733
1978.0,0.0028812163998881055
1977.0,0.0027184207533377863
1976.0,0.0025990224706861484
1975.0,0.002533491575303798
1974.0,0.002516995753284867
1973.0,0.0025471194665002313
1972.0,0.0025975628759994755
1971.0,0.0026290543594012297
1970.0,0.0026329983846012785
1969.0,0.0026264702581846075
1968.0,0.0026090983459697292
1967.0,0.002565670280615538
1966.0,0.002508373834573757
1965.0,0.002470760212681297
1964.0,0.002461193078679319
1963.0,0.002461090809451189
1962.0,0.00245786373198892
1961.0,0.0024444577430861925
1960.0,0.0024031735364995325
1959.0,0.0023316167802894757
1958.0,0.0022711282871043983
1957.0,0.002266346059294398
1956.0,0.0023059686147262146
1955.0,0.0023420951266055353
1954.0,0.0023549445542633994
1953.0,0.0023603979242311783
1952.0,0.002366667066238808
1951.0,0.0023656529717640245
1950.0,0.0023623369922637057
1949.0,0.0023715581519478126
1948.0,0.0023867893773182806
1947.0,0.0023875135813420144
1946.0,0.002374604651777408
1945.0,0.002365037381746217
1944.0,0.0023561350922804646
1943.0,0.002328918080402283
1942.0,0.0022865709231576683
1941.0,0.0022543476637058263
1940.0,0.0022406460037413976
1939.0,0.002236287703064879
1938.0,0.00224409321075526
1937.0,0.0022727223535088225
1936.0,0.002306160016442226
1935.0,0.002313774474775269
1934.0,0.0022908523685330443
1933.0,0.0022612750939043774
1932.0,0.0022412861097934277
1931.0,0.002226803126671285
1930.0,0.002215616113967192
1929.0,0.002210641895441871
1928.0,0.002203927173459247
1927.0,0.002186608029105718
1926.0,0.0021714802180707563
1925.0,0.0021803959474705507
1924.0,0.002207888747741101
1923.0,0.002223997844507566
1922.0,0.0022192182677965616
1921.0,0.002215390363054773
1920.0,0.002225277297507615
1919.0,0.002235217139882245
1918.0,0.0022298195266293435
1917.0,0.0022122321694446737
1916.0,0.0021918522361010447
1915.0,0.002172303993182284
1914.0,0.0021587540675674136
1913.0,0.0021577833219163815
1912.0,0.0021656698835020856
1911.0,0.0021716734392944795
1910.0,0.002174574441023711
1909.0,0.002179492789114233
1908.0,0.002183337605840894
1907.0,0.002181294701433711
1906.0,0.0021806746477247138
1905.0,0.002190782027785371
1904.0,0.0022018402167881855
1903.0,0.002195801596987753
1902.0,0.0021744093547536947
1901.0,0.0021551607846462184
1900.0,0.0021437614629542774
1899.0,0.0021319461698529685
1898.0,0.0021182114727034958
1897.0,0.002110332803231054
1896.0,0.002107696225115512
1895.0,0.002100997345519104
1894.0,0.0020904756371040497
1893.0,0.002084010618127084
1892.0,0.0020801404699695744
1891.0,0.0020741931007336664
1890.0,0.002072383226812718
1889.0,0.002078987825808066
1888.0,0.002080633396862587
1887.0,0.0020666991616350348
1886.0,0.0020516803158392165
1885.0,0.0020572715248038066
1884.0,0.0020791013615371902
1883.0,0.002092654214293147
1882.0,0.0020888210864416796
1881.0,0.0020792112254045276
1880.0,0.0020702402389464617
1879.0,0.002057606288217113
1878.0,0.002043904260739833
1877.0,0.0020388854459313746
1876.0,0.0020413019893212266
1875.0,0.002040607502845064
1874.0,0.002036263518104424
1873.0,0.0020353359969045065
1872.0,0.0020327300747403363
1871.0,0.0020170542065891255
1870.0,0.001997906065588631
1869.0,0.001998107777159976
1868.0,0.0020135991792426334
1867.0,0.002022087918958426
1866.0,0.0020216714087385604
1865.0,0.002024597620912375
1864.0,0.002031068139038173
1863.0,0.0020330592206822626
1862.0,0.0020338369807377404
1861.0,0.0020423007202156752
1860.0,0.002051017355300114
1859.0,0.0020427506127331583
1858.0,0.0020183519447246915
1857.0,0.001996213169422084
1856.0,0.0019853864156223265
1855.0,0.001978819474223277
1854.0,0.001974184762355945
1853.0,0.0019781461264446474
1852.0,0.0019887146051033844
1851.0,0.00199587484654583
1850.0,0.001997736087643166
1849.0,0.0020004873416795844
1848.0,0.0020028637061539883
1847.0,0.0019990407922616154
1846.0,0.0019964419488673825
1845.0,0.0020101556063507604
1844.0,0.0020316801348752383
1843.0,0.0020357075645982933
1842.0,0.0020232351476903625
1841.0,0.00201255504500711
1840.0,0.002007221299723765
1839.0,0.0019992560574882716
1838.0,0.0019901865619400484
1837.0,0.0019899833158118145
1836.0,0.0019959058296105106
1835.0,0.0019954089530218365
1834.0,0.001987591076207521
1833.0,0.001979303199577302
1832.0,0.001969712354014809
1831.0,0.00196160910895488
1830.0,0.001968729924174838
1829.0,0.001998078623866791
1828.0,0.002036175250462195
1827.0,0.0020622160716223525
1826.0,0.002071323057620794
1825.0,0.002072113284691876
1824.0,0.002066959756379149
1823.0,0.0020554762286808504
1822.0,0.0020494819998536935
1821.0,0.002060824681015881
1820.0,0.0020803859958569123
1819.0,0.002086920250964412
1818.0,0.0020775816480833285
1817.0,0.0020726792753210906
1816.0,0.0020850259996211627
1815.0,0.0021069599065191165
1814.0,0.002130061116667477
1813.0,0.0021567580173654033
1812.0,0.002190999490188246
1811.0,0.002228893670998339
1810.0,0.0022670710608902523
1809.0,0.0023072636514598946
1808.0,0.002346146135934449
1807.0,0.00237875561559876
1806.0,0.0024111001430441275
1805.0,0.002452416805633549
1804.0,0.0024948741571557587
1803.0,0.0025195669633452113
1802.0,0.0025249169500237137
1801.0,0.0025290277588636252
1800.0,0.002543036037015138
1799.0,0.0025608611425189916
1798.0,0.002577558479990561
1797.0,0.0025951949018193227
1796.0,0.0026119904375180554
1795.0,0.002622750948488923
1794.0,0.0026317432479634234
1793.0,0.0026515322135663515
1792.0,0.002677518571280287
1791.0,0.0026881911443054794
1790.0,0.0026837446136921696
1789.0,0.0026833309638437013
1788.0,0.0026921366438964023
1787.0,0.002695970251328456
1786.0,0.002681648180149726
1785.0,0.0026507763546858697
1784.0,0.002609602579702512
1783.0,0.002562090399933623
1782.0,0.002516421726849076
1781.0,0.00247818894483482
1780.0,0.002441212135972036
1779.0,0.0023957040033169706
1778.0,0.0023435211134896234
1777.0,0.002290598274709525
1776.0,0.0022328801629900572
1775.0,0.0021627840936052135
1774.0,0.0020940490505398615
1773.0,0.0020646990578003606
1772.0,0.002085286193262399
1771.0,0.00212197329879937
1770.0,0.0021473170209268663
1769.0,0.00215579125417742
1768.0,0.0021463271103373447
1767.0,0.0021225890890495215
1766.0,0.0021010182762740428
1765.0,0.002096526774801013
1764.0,0.00210401397100874
1763.0,0.0021087778858056563
1762.0,0.0021083541602252075
1761.0,0.0021116400509108833
1760.0,0.0021217072028098046
1759.0,0.0021314968713711255
1758.0,0.002140809266262759
1757.0,0.002155208354875226
1756.0,0.00217143815624372
1755.0,0.0021848145554048152
1754.0,0.0022027579852189564
1753.0,0.002231676712563003
1752.0,0.002261729367489816
1751.0,0.0022772451188979286
1750.0,0.0022825830156324653
1749.0,0.002301726354004501
1748.0,0.0023386508215419576
1747.0,0.0023749596046996383
1746.0,0.0024030054598779436
1745.0,0.0024295532350216784
1744.0,0.0024546989858350364
1743.0,0.0024690970680660116
1742.0,0.002476770375788537
1741.0,0.002498761545041331
1740.0,0.0025405587820608562
1739.0,0.0025785281342166713
1738.0,0.002600843662946528
1737.0,0.0026194812033548116
1736.0,0.0026388418830117616
1735.0,0.0026591584705100667
1734.0,0.002681688008959217
1733.0,0.0027025554473430816
1732.0,0.002719834197564515
1731.0,0.002730897433781235
1730.0,0.0027406376376629075
1729.0,0.0027573671909672127
1728.0,0.0027784383391308517
1727.0,0.0027960308516657433
1726.0,0.002811591995283526
1725.0,0.0028327015355410962
1724.0,0.0028583723824317855
1723.0,0.0028793723163739165
1722.0,0.0028967352754453017
1721.0,0.002916685741716504
1720.0,0.002933126698857521
1719.0,0.002947584300577891
1718.0,0.0029846233544825913
1717.0,0.0030570162672376197
1716.0,0.0031412176141440455
1715.0,0.0032037810685586667
1714.0,0.0032417936109073145
1713.0,0.0032777258499461894
1712.0,0.003321876931928714
1711.0,0.0033651650179376174
1710.0,0.0034031620991162664
1709.0,0.0034430055318483564
1708.0,0.003487900936004885
1707.0,0.0035406558740224046
1706.0,0.0036156144730244625
1705.0,0.003719695686241806
1704.0,0.0038351112118269765
1703.0,0.0039396999933161425
1702.0,0.004025249286099306
1701.0,0.004115327826649984
1700.0,0.004216784523294087
1699.0,0.004291007723729748
1698.0,0.004367030410407818
1697.0,0.00452202046189775
1696.0,0.004749819211807299
1695.0,0.004949984920876315
1694.0,0.005082563546165108
1693.0,0.005192154545789113
1692.0,0.0053151519799293405
1691.0,0.00545325892861174
1690.0,0.005594557344208557
1689.0,0.005727443603511132
1688.0,0.005839823482710244
1687.0,0.0059287905473436545
1686.0,0.006023564263728053
1685.0,0.006211636544700988
1684.0,0.006484579974982865
1683.0,0.0067005989018529815
1682.0,0.00684293442566295
1681.0,0.0069809246790289246
1680.0,0.007135034370743533
1679.0,0.00728519495507515
1678.0,0.007425045393053656
1677.0,0.007576033868577792
1676.0,0.007747365593634514
1675.0,0.00790789210532481
1674.0,0.008032378359157533
1673.0,0.008144387420603352
1672.0,0.008273436851306435
1671.0,0.008432337549195642
1670.0,0.008628687784853045
1669.0,0.008846570354599178
1668.0,0.009045390460091056
1667.0,0.009203579162547946
1666.0,0.009339338674622425
1665.0,0.009487649830719884
1664.0,0.009670764086933775
1663.0,0.009874888197691861
1662.0,0.010065217415184239
1661.0,0.01023338916096702
1660.0,0.010389409263607614
1659.0,0.010536889704955223
1658.0,0.010677808870194073
1657.0,0.010816154237605667
1656.0,0.010938113827388683
1655.0,0.011027097884103379
1654.0,0.011131480580250687
1653.0,0.011242212694528715
1652.0,0.011301572094690585
1651.0,0.011339019588840829
1650.0,0.011373140334616436
1649.0,0.011415040121390363
1648.0,0.011487095064383132
1647.0,0.011571362485369004
1646.0,0.011623554414090685
1645.0,0.011656507365715198
1644.0,0.011692593786944443
1643.0,0.0117210983573504
1642.0,0.011736073633596661
1641.0,0.011744958892715991
1640.0,0.011750583378185414
1639.0,0.011744911753254586
1638.0,0.011726658857104902
1637.0,0.01171915736974246
1636.0,0.011720668702742992
1635.0,0.011692219257012566
1634.0,0.01164819973530485
1633.0,0.011622516032462194
1632.0,0.01160645666057673
1631.0,0.011572957711015151
1630.0,0.01150920203472119
1629.0,0.011425309339096197
1628.0,0.01133106351987657
1627.0,0.01122736622687107
1626.0,0.011120689040218465
1625.0,0.011016764875289742
1624.0,0.010906677624526975
1623.0,0.010774801028456935
1622.0,0.010633885038356616
1621.0,0.010510250581216954
1620.0,0.010397822844109434
1619.0,0.01027233623101608
1618.0,0.01013127230430824
1617.0,0.009993972994826994
1616.0,0.009870551662818436
1615.0,0.009764314452213062
1614.0,0.009676993843465275
1613.0,0.009600459510316855
1612.0,0.009516007606155607
1611.0,0.00941029555085741
1610.0,0.009295530630160012
1609.0,0.009192847643896126
1608.0,0.00910111351327622
1607.0,0.009007323744551488
1606.0,0.008914579864255786
1605.0,0.008831394393644014
1604.0,0.00875226434414535
1603.0,0.00867009983697171
1602.0,0.008593555803341563
1601.0,0.008533364666969287
1600.0,0.008482608419378677
1599.0,0.008429010235823034
1598.0,0.008372953240141975
1597.0,0.008319204503634605
1596.0,0.008264700401239127
1595.0,0.008208543955018457
1594.0,0.008161704968724594
1593.0,0.008130257690338927
1592.0,0.008103176238534765
1591.0,0.008071832201151447
1590.0,0.00804579378138574
1589.0,0.008034221309306784
1588.0,0.008029291092953694
1587.0,0.008023051014331206
1586.0,0.008023926361939594
1585.0,0.008040116793193051
1584.0,0.008063542898256764
1583.0,0.008088689940244026
1582.0,0.008124325740907627
1581.0,0.008169479257310855
1580.0,0.00820147503677976
1579.0,0.008208143094797012
1578.0,0.008219720806732448
1577.0,0.008289479223201135
1576.0,0.008410640119667403
1575.0,0.008525752316292785
1574.0,0.008622452021654153
1573.0,0.008713759146842432
1572.0,0.008800228261895082
1571.0,0.008891586983168024
1570.0,0.009014645897264237
1569.0,0.009160693759264054
1568.0,0.009289635644034816
1567.0,0.009401379997184272
1566.0,0.009534198340137601
1565.0,0.009706809582863914
1564.0,0.009895006644174196
1563.0,0.010066144711519702
1562.0,0.010227544608979525
1561.0,0.010379438839372942
1560.0,0.010617904168793765
1559.0,0.011032172292003444
1558.0,0.011404510040086843
1557.0,0.011655103197510173
1556.0,0.011884640021238714
1555.0,0.012139711267026775
1554.0,0.012430516255628795
1553.0,0.012734278294507271
1552.0,0.013028797962884926
1551.0,0.013315819643321562
1550.0,0.013612486296928088
1549.0,0.013913513981820131
1548.0,0.014193128193936845
1547.0,0.014442918010146957
1546.0,0.014680080175554056
1545.0,0.014921965613298841
1544.0,0.015146184968334257
1543.0,0.015316438864127844
1542.0,0.015464710947209803
1541.0,0.01571726965564945
1540.0,0.016094941271988464
1539.0,0.01643143661225504
1538.0,0.016667587429887405
1537.0,0.01686213971945866
1536.0,0.017042730893419063
1535.0,0.017223003392414893
1534.0,0.017431118786190487
1533.0,0.017660880820777696
1532.0,0.01786051920418753
1531.0,0.018018747170799328
1530.0,0.018172895110363727
1529.0,0.0183516514845572
1528.0,0.01854470531980532
1527.0,0.018719740941082183
1526.0,0.018868164219964265
1525.0,0.019008214369249224
1524.0,0.019151579525386746
1523.0,0.019311004207366603
1522.0,0.01951765225590309
1521.0,0.019759250049010243
1520.0,0.019969359812718142
1519.0,0.020129559890635945
1518.0,0.02029094602315593
1517.0,0.020491692278561666
1516.0,0.020693217068959543
1515.0,0.020847299218952065
1514.0,0.020970256914025806
1513.0,0.02109395928659038
1512.0,0.0212175596016516
1511.0,0.021319077048441135
1510.0,0.02139279030811985
1509.0,0.02145076861810208
1508.0,0.021545656391631637
1507.0,0.021710105554482002
1506.0,0.021871800836830702
1505.0,0.022005034814611624
1504.0,0.02212946035389232
1503.0,0.0222462727670679
1502.0,0.022369267668566374
1501.0,0.022514116900533964
1500.0,0.022674446305155846
1499.0,0.022830027366752322
1498.0,0.022990919355235964
1497.0,0.023185046551248742
1496.0,0.02338864032254792
1495.0,0.02355574794041952
1494.0,0.023702456047243383
1493.0,0.0238690045875035
1492.0,0.024050965667317743
1491.0,0.02422027745288288
1490.0,0.024383005035030686
1489.0,0.024561104268381696
1488.0,0.024741459437246902
1487.0,0.02490198997011634
1486.0,0.025054918627230714
1485.0,0.025222736233969024
1484.0,0.025400836400110188
1483.0,0.025576722306202615
1482.0,0.02576276592574004
1481.0,0.025978338252364768
1480.0,0.026211938569942583
1479.0,0.026439041317009186
1478.0,0.02666138348656567
1477.0,0.026895246308198156
1476.0,0.027131187096377827
1475.0,0.027344621921580957
1474.0,0.027557341413444524
1473.0,0.027818721801101256
1472.0,0.028100069600832753
1471.0,0.028331722925104025
1470.0,0.0285212282252994
1469.0,0.028710745566920243
1468.0,0.028905486813187702
1467.0,0.02908815215758445
1466.0,0.029262837094472034
1465.0,0.029447471613938455
1464.0,0.02962617691616174
1463.0,0.029778216278195675
1462.0,0.029923900949793598
1461.0,0.030091171745727598
1460.0,0.03027848108041686
1459.0,0.03047195598130567
1458.0,0.03069003824430388
1457.0,0.0309335334723828
1456.0,0.031131321393808413
1455.0,0.03126030947769152
1454.0,0.031375808812361634
1453.0,0.03151561522830526
1452.0,0.03166750130827928
1451.0,0.03180398801484732
1450.0,0.03192804180733835
1449.0,0.03205936653025879
1448.0,0.03219085470473802
1447.0,0.03230022386716883
1446.0,0.03239491549525181
1445.0,0.03249475754265486
1444.0,0.032593147147522726
1443.0,0.03267247872510371
1442.0,0.03274074262133517
1441.0,0.032822757834610604
1440.0,0.0329224922660642
1439.0,0.033019080004755126
1438.0,0.033091449214827894
1437.0,0.03313699381853664
1436.0,0.03316072082970958
1435.0,0.033174473728660524
1434.0,0.03320439100491721
1433.0,0.03326412401657261
1432.0,0.033339620028475354
1431.0,0.033414745057694026
1430.0,0.03349678728472789
1429.0,0.033597268989881066
1428.0,0.03370429992847701
1427.0,0.03380309538880639
1426.0,0.033903480751524114
1425.0,0.034024674131411706
1424.0,0.034164140989613685
1423.0,0.03430590614914623
1422.0,0.03445382502772705
1421.0,0.034615587550243854
1420.0,0.03477147525984531
1419.0,0.03489713218651706
1418.0,0.03500230325280415
1417.0,0.03511395730987638
1416.0,0.035232987027386684
1415.0,0.03534907909546002
1414.0,0.03547045934632049
1413.0,0.035607194447684995
1412.0,0.03574411595460418
1411.0,0.03586055219893873
1410.0,0.035966438990768686
1409.0,0.03608121865125148
1408.0,0.03619171572349351
1407.0,0.03626739599998435
1406.0,0.03630558573247074
1405.0,0.03632374476057816
1404.0,0.03632172510457012
1403.0,0.03629777424762912
1402.0,0.036270929431049474
1401.0,0.03624595481683275
1400.0,0.036190234987290175
1399.0,0.03608359608906341
1398.0,0.03595920979867127
1397.0,0.035845297443446306
1396.0,0.03571234075457836
1395.0,0.035529070249113316
1394.0,0.035326763838841445
1393.0,0.03515169038990116
1392.0,0.03499982418537206
1391.0,0.034846652467122534
1390.0,0.03468593797574627
1389.0,0.03451069529096226
1388.0,0.034294977842384534
1387.0,0.034033895953321264
1386.0,0.03377192814048253
1385.0,0.03354196822037728
1384.0,0.03332281700309946
1383.0,0.03308702805888502
1382.0,0.03284405808632271
1381.0,0.03261136784027193
1380.0,0.03237505479200969
1379.0,0.03211632693677444
1378.0,0.031849551235918434
1377.0,0.03159413311061975
1376.0,0.031334560353872734
1375.0,0.03104674761395041
1374.0,0.030745581127068496
1373.0,0.030464552440611192
1372.0,0.0302057658068716
1371.0,0.029948907524607205
1370.0,0.029684660541546195
1369.0,0.02941464802137135
1368.0,0.029140687493035784
1367.0,0.028871198189966384
1366.0,0.028619457024225574
1365.0,0.028379253583237393
1364.0,0.02812114411924536
1363.0,0.027830008207642507
1362.0,0.02753015114637146
1361.0,0.027250087525513892
1360.0,0.026987458742175185
1359.0,0.02673035582419431
1358.0,0.026481262844813728
1357.0,0.026243978052265943
1356.0,0.026009545758685873
1355.0,0.025770565875168
1354.0,0.02553464562467296
1353.0,0.02530864172559131
1352.0,0.02508496732434276
1351.0,0.02485645099296366
1350.0,0.02462978217116141
1349.0,0.024412051659427326
1348.0,0.02419775662443775
1347.0,0.02398066902033929
1346.0,0.02376567456996539
1345.0,0.023559106294265327
1344.0,0.023359289619428878
1343.0,0.0231629923938356
1342.0,0.022968986487971375
1341.0,0.022770750411598706
1340.0,0.022558386866667036
1339.0,0.022333938642800095
1338.0,0.022111349460165377
1337.0,0.021895847573313917
1336.0,0.021680329628982874
1335.0,0.02146394097775839
1334.0,0.021256350206399537
1333.0,0.021061118563190928
1332.0,0.02086966988839112
1331.0,0.020676286196377104
1330.0,0.020485763601085595
1329.0,0.020301906763386775
1328.0,0.020121762207168933
1327.0,0.019945157431157406
1326.0,0.01977690456956421
1325.0,0.01961582905402109
1324.0,0.01945418176770504
1323.0,0.019291078172491306
1322.0,0.019134161847275368
1321.0,0.01898518022868227
1320.0,0.018836166483658306
1319.0,0.018683044120438256
1318.0,0.01853110331679612
1317.0,0.018383338913133034
1316.0,0.018235460384008462
1315.0,0.018085726666769615
1314.0,0.017938196079247806
1313.0,0.01779359805227316
1312.0,0.01764772039346969
1311.0,0.017501238501247636
1310.0,0.017359973963663986
1309.0,0.017223672607565445
1308.0,0.017085740115624005
1307.0,0.016945810081955153
1306.0,0.016811572266688717
1305.0,0.016685291511286143
1304.0,0.016559439293074057
1303.0,0.016429149690392542
1302.0,0.016299130406323834
1301.0,0.016174632833334566
1300.0,0.016054332787075822
1299.0,0.015935625407379358
1298.0,0.015819283790927334
1297.0,0.015705967452325196
1296.0,0.015594825346377315
1295.0,0.015487530770023142
1294.0,0.0153871815518443
1293.0,0.015292015137366034
1292.0,0.015196582042143709
1291.0,0.015099983992617031
1290.0,0.015006824753774496
1289.0,0.014919405500161357
1288.0,0.014834977168545985
1287.0,0.014751138140085624
1286.0,0.014668422512023573
1285.0,0.014587663754962784
1284.0,0.01450989479956951
1283.0,0.014437713402566409
1282.0,0.014371378589262034
1281.0,0.014305294913781675
1280.0,0.014234138116806898
1279.0,0.014160869776389105
1278.0,0.014092741648402669
1277.0,0.014031226259451657
1276.0,0.013972283038233502
1275.0,0.013914394810861604
1274.0,0.0138592237022153
1273.0,0.013805825514860481
1272.0,0.013751303887002768
1271.0,0.013696416025852733
1270.0,0.013643949074412692
1269.0,0.013592436713383706
1268.0,0.013538057463896117
1267.0,0.013481779472148276
1266.0,0.013428233068841531
1265.0,0.0133785704478687
1264.0,0.013330756943731458
1263.0,0.01328562656540123
1262.0,0.013245924689516828
1261.0,0.01321014212848141
1260.0,0.013173513615917827
1259.0,0.013134613873290254
1258.0,0.01309530763692901
1257.0,0.013055348120595221
1256.0,0.013013101091540637
1255.0,0.012970484467333045
1254.0,0.012931115426611111
1253.0,0.012894278189602168
1252.0,0.012856350315454212
1251.0,0.012817259068917564
1250.0,0.012779739289018863
1249.0,0.012743104331168232
1248.0,0.012703675648341562
1247.0,0.012660980105623266
1246.0,0.01261806042026308
1245.0,0.01257615562121117
1244.0,0.012534298757042192
1243.0,0.012493385984015849
1242.0,0.01245514186925655
1241.0,0.012417451926366412
1240.0,0.012375852190366257
1239.0,0.012329476878499675
1238.0,0.012281151999352941
1237.0,0.012232088429701748
1236.0,0.012180791176768643
1235.0,0.01212657391179404
1234.0,0.012069980964698745
1233.0,0.012010583029516032
1232.0,0.0119483531907289
1231.0,0.011886162308387844
1230.0,0.011826981225660943
1229.0,0.01176995423322501
1228.0,0.011712869979997872
1227.0,0.011656378727266388
1226.0,0.011601811131239015
1225.0,0.011547259189317132
1224.0,0.011490252667142386
1223.0,0.011432086325296298
1222.0,0.01137509020167819
1221.0,0.0113179757743107
1220.0,0.011258330646001319
1219.0,0.011197188333325794
1218.0,0.01113651074827702
1217.0,0.011074793063456644
1216.0,0.011010033023898535
1215.0,0.010944459911132657
1214.0,0.010881444988951213
1213.0,0.010820260774587627
1212.0,0.010758640977395446
1211.0,0.010697777988569059
1210.0,0.010639996084439792
1209.0,0.010584510780246673
1208.0,0.010530279485606637
1207.0,0.010479574177919098
1206.0,0.01043364486317399
1205.0,0.01038855135120913
1204.0,0.01034086049082701
1203.0,0.010294062078269816
1202.0,0.010253699765792563
1201.0,0.010219460381465767
1200.0,0.010187761818439636
1199.0,0.010158850466025195
1198.0,0.010135324120474215
1197.0,0.010116211947026449
1196.0,0.010098194548853518
1195.0,0.010080592488046762
1194.0,0.01006441479515125
1193.0,0.010049111967640863
1192.0,0.010034980703025928
1191.0,0.010025682198243306
1190.0,0.010023081428273264
1189.0,0.01002259489730105
1188.0,0.010019325829566333
1187.0,0.010016306276963342
1186.0,0.010020908273178057
1185.0,0.010034999356659483
1184.0,0.010054332325159825
1183.0,0.010076226791632387
1182.0,0.010102169755020499
1181.0,0.010133133514066124
1180.0,0.010166949624991452
1179.0,0.010200664038873025
1178.0,0.010232383246074233
1177.0,0.010261152835767168
1176.0,0.0102877068833587
1175.0,0.010314522234995693
1174.0,0.010342697757255577
1173.0,0.010369900044448292
1172.0,0.01039334146191855
1171.0,0.010412781566215452
1170.0,0.010428431104115479
1169.0,0.010438630081959529
1168.0,0.0104428201446037
1167.0,0.010444577484040977
1166.0,0.010448066587151635
1165.0,0.01045317490713762
1164.0,0.010457471530974082
1163.0,0.010460909810554432
1162.0,0.010465000823489033
1161.0,0.010469276041974257
1160.0,0.010472344658960242
1159.0,0.010474995393045161
1158.0,0.01047882059461922
1157.0,0.010483174783246943
1156.0,0.010486617011115756
1155.0,0.010489819987252033
1154.0,0.010494297035821479
1153.0,0.01050043915289865
1152.0,0.010509782487737507
1151.0,0.010526386548353781
1150.0,0.010551941798681375
1149.0,0.010581750299469056
1148.0,0.010609391233926364
1147.0,0.010633235754887631
1146.0,0.01065481979428969
1145.0,0.010673578024024676
1144.0,0.010688088777963777
1143.0,0.010700826177880783
1142.0,0.010716523439330836
1141.0,0.010736478069779573
1140.0,0.01075880283940922
1139.0,0.010782988687085689
1138.0,0.010809017783146885
1137.0,0.010832693323976874
1136.0,0.01084777780132858
1135.0,0.010853938218082858
1134.0,0.010857945379574907
1133.0,0.010865794494874058
1132.0,0.010877788419347757
1131.0,0.010892214020929401
1130.0,0.01090899500449834
1129.0,0.010927218215421097
1128.0,0.010942546401581685
1127.0,0.010950312697932663
1126.0,0.010950027390424158
1125.0,0.010945453927252151
1124.0,0.010941729615252216
1123.0,0.010942956208986067
1122.0,0.010950028309621837
1121.0,0.010959488272768419
1120.0,0.010966281067598789
1119.0,0.010968521009493425
1118.0,0.010968272785409348
1117.0,0.010967835166647674
1116.0,0.0109677017967019
1115.0,0.01096861354976925
1114.0,0.010972694961431235
1113.0,0.010980861622443328
1112.0,0.010990701829481813
1111.0,0.010998171638780335
1110.0,0.011000610307106662
1109.0,0.010997807548892192
1108.0,0.010991605440954953
1107.0,0.01098494190886384
1106.0,0.010979907924284464
1105.0,0.010976389482178986
1104.0,0.010973415520635015
1103.0,0.010971130001937933
1102.0,0.010969928743851626
1101.0,0.010968842791176887
1100.0,0.010967449788412765
1099.0,0.010969064588964867
1098.0,0.010979181572615102
1097.0,0.011000339118312864
1096.0,0.011030922241494948
1095.0,0.011069300278286062
1094.0,0.011116559880544911
1093.0,0.011174186970647097
1092.0,0.011240863369634941
1091.0,0.011312567205585166
1090.0,0.011384991203107889
1089.0,0.011456470905175183
1088.0,0.011531716916839112
1087.0,0.011623985517702804
1086.0,0.011748318742316702
1085.0,0.01190438140187221
1084.0,0.012062948898595483
1083.0,0.012174551333345456
1082.0,0.012200446156177654
1081.0,0.012139580755014189
1080.0,0.01202579910139354
1079.0,0.011900589869584675
1078.0,0.011787742179104641
1077.0,0.01168904747317365
1076.0,0.011597804836290294
1075.0,0.011511301765056683
1074.0,0.011430753858311684
1073.0,0.011355455537288669
1072.0,0.011281880369897804
1071.0,0.011206839897258968
1070.0,0.011128452886202143
1069.0,0.011045741123601627
1068.0,0.010960386689153931
1067.0,0.010877390407727698
1066.0,0.010800769718938627
1065.0,0.010729851075829008
1064.0,0.010662473786890765
1063.0,0.010599732509453624
1062.0,0.010544052668934599
1061.0,0.01049416820222912
1060.0,0.010445634686816986
1059.0,0.010395383981671372
1058.0,0.010342986364705998
1057.0,0.010288989580140602
1056.0,0.010235049364397836
1055.0,0.010183945970543952
1054.0,0.010135942766637679
1053.0,0.010086740518834151
1052.0,0.01003316535338262
1051.0,0.009979542722996736
1050.0,0.009933259611060776
1049.0,0.009895118521543822
1048.0,0.00985981465995866
1047.0,0.009823831305376942
1046.0,0.009786467285246384
1045.0,0.009745219578540194
1044.0,0.00969666841710779
1043.0,0.009641725838644772
1042.0,0.009584889033603055
1041.0,0.009527271444579754
1040.0,0.009464208510382034
1039.0,0.009391294971905296
1038.0,0.009310403979988599
1037.0,0.009228608315509094
1036.0,0.009152625701628073
1035.0,0.0090844624366009
1034.0,0.0090208408262437
1033.0,0.00895687085084488
1032.0,0.00889094067509547
1031.0,0.008824924256123646
1030.0,0.008759517051923921
1029.0,0.008692290994867869
1028.0,0.008621734695199414
1027.0,0.008549881220163282
1026.0,0.008478701506342657
1025.0,0.008407465657310258
1024.0,0.0083367577021293
1023.0,0.008271544515237325
1022.0,0.008215636106582568
1021.0,0.008165100520796073
1020.0,0.00811153310630828
1019.0,0.008050776553761239
1018.0,0.007985143333337415
1017.0,0.007918633805418723
1016.0,0.007853907305857196
1015.0,0.007792899965879228
1014.0,0.007736442251053046
1013.0,0.007683218289728528
1012.0,0.007631338203427967
1011.0,0.007580163919050278
1010.0,0.0075288443048248666
1009.0,0.007474863222592738
1008.0,0.007416672987647971
1007.0,0.0073566449693460035
1006.0,0.007299051899637378
1005.0,0.007245903677626215
1004.0,0.007196194930692592
1003.0,0.007147448798160842
1002.0,0.007096279251207526
1001.0,0.0070396499061748125
1000.0,0.006977858056626346
999.0,0.006914747317985474
998.0,0.006853345905642334
997.0,0.006793140191755401
996.0,0.006732877607062468
995.0,0.0066731107783275095
994.0,0.006613751265867851
993.0,0.006551744495437075
992.0,0.006483853333407294
991.0,0.0064100959267245315
990.0,0.00633286576275701
989.0,0.0062550004399643516
988.0,0.006179923998550186
987.0,0.006110139369846978
986.0,0.006043497105081973
985.0,0.005974567820012785
984.0,0.0059021269165005705
983.0,0.00583175967559269
982.0,0.005768523806352666
981.0,0.0057106338733958215
980.0,0.005653131271092978
979.0,0.005593880284760918
978.0,0.005532737973123504
977.0,0.005468934516626789
976.0,0.005403435685705355
975.0,0.005340721488674817
974.0,0.005284182943187831
973.0,0.005232240749640028
972.0,0.005182131771843579
971.0,0.005134314098720065
970.0,0.005089621403772162
969.0,0.0050452956386063015
968.0,0.004998023511264399
967.0,0.004948681846672043
966.0,0.00490038215550129
965.0,0.004853785966005326
964.0,0.004807619100157832
963.0,0.004761590645079728
962.0,0.004715365584640416
961.0,0.004666624980929677
960.0,0.004613410791467878
959.0,0.00455698144510576
958.0,0.004500091907165985
957.0,0.0044444005508739405
956.0,0.004391598928320345
955.0,0.004344369919097828
954.0,0.004303396734107752
953.0,0.004265454944923711
952.0,0.004226753701187782
951.0,0.0041862998186007055
950.0,0.004144766149632497
949.0,0.004103083030615217
948.0,0.00406357777357737
947.0,0.0040288038268814505
946.0,0.003997288245034839
945.0,0.003964260873608062
944.0,0.003928789436083101
943.0,0.0038962828932334864
942.0,0.003871412050617371
941.0,0.0038523742503771543
940.0,0.003834855057188174
939.0,0.0038177945759169767
938.0,0.0038021675308658916
937.0,0.0037876215311346863
936.0,0.0037734393143635673
935.0,0.003759502321568955
934.0,0.0037433139631635956
933.0,0.003719527102432555
932.0,0.0036858398583134366
931.0,0.0036465661667881982
930.0,0.003607275708196361
929.0,0.0035686409075095142
928.0,0.003528597609042167
927.0,0.0034876405054729475
926.0,0.003448551736014974
925.0,0.0034132370927371647
924.0,0.0033827816786471425
923.0,0.003358059674019395
922.0,0.0033372132875632
921.0,0.003314942034306487
920.0,0.003287309392313852
919.0,0.003255523226475732
918.0,0.0032231807416703015
917.0,0.0031925029100107853
916.0,0.003165265969258038
915.0,0.0031439020845227183
914.0,0.0031283485777303223
913.0,0.003114346061462438
912.0,0.0030979731884513036
911.0,0.003079767784840909
910.0,0.0030617846628253178
909.0,0.003043021376844519
908.0,0.0030207233002722007
907.0,0.002994262150814448
906.0,0.002965030915738324
905.0,0.002934113927592738
904.0,0.0029021704392007018
903.0,0.002869952710739582
902.0,0.002837446146228568
901.0,0.0028044326156954616
900.0,0.0027728797446696096
899.0,0.0027457099192784015
898.0,0.002722039959709709
897.0,0.0026974499765132793
896.0,0.002670789070097824
895.0,0.0026470970196773294
894.0,0.0026315069560956467
893.0,0.0026245444438912713
892.0,0.0026280164585896727
891.0,0.0026547196380118593
890.0,0.0027302234604305135
889.0,0.0028853762665892882
888.0,0.0031453023540978144
887.0,0.0035197186478901337
886.0,0.0040009371992898385
885.0,0.004573964243044755
884.0,0.005229433052983426
883.0,0.0059656272317446125
882.0,0.006781169943595105
881.0,0.007669485868961896
880.0,0.008617719823693337
879.0,0.009607545154386435
878.0,0.010619913709897443
877.0,0.01164268334160853
876.0,0.012674506636951683
875.0,0.013721879046162636
874.0,0.014783252213422814
873.0,0.01581036821833664
872.0,0.016670802162058906
871.0,0.017175530671524268
870.0,0.017188470497730656
869.0,0.016725914744888187
868.0,0.015947297529800078
867.0,0.015059305803059305
866.0,0.014222362213278984
865.0,0.013513684586659852
864.0,0.012946482303784783
863.0,0.012508321868899134
862.0,0.012183597161865884
861.0,0.011955931270711692
860.0,0.011806804300596163
859.0,0.011718674887194087
858.0,0.01167630442156364
857.0,0.011662074231128233
856.0,0.011651528777443111
855.0,0.011615947838096026
854.0,0.011530706822776288
853.0,0.011383557324033313
852.0,0.011178457339265965
851.0,0.010929773466973916
850.0,0.0106450279070418
849.0,0.010313423176018452
848.0,0.009924349038594234
847.0,0.009503156580624946
846.0,0.00911352188321923
845.0,0.008808123773922158
844.0,0.008580585790858774
843.0,0.00837603415672539
842.0,0.00814693769108817
841.0,0.007890686673552411
840.0,0.007635773489857736
839.0,0.007406773794925665
838.0,0.007209095744407094
837.0,0.007037012744368529
836.0,0.006884109528055547
835.0,0.0067452961651933065
834.0,0.006616600833538459
833.0,0.006497446679349907
832.0,0.006390908199492359
831.0,0.006299365449805866
830.0,0.0062211894587804045
829.0,0.006152654465002657
828.0,0.006090447124504097
827.0,0.006030361308047107
826.0,0.005967221802053536
825.0,0.0059005158673298055
824.0,0.005837418150925934
823.0,0.005784960546668319
822.0,0.005741579410124993
821.0,0.0057015617872124
820.0,0.005664242517296516
819.0,0.005632647758894674
818.0,0.005605649320402137
817.0,0.0055776179920315186
816.0,0.005545651500470531
815.0,0.005512557194557924
814.0,0.005482101375332352
813.0,0.005455163402359197
812.0,0.005431261445255573
811.0,0.00540981930613848
810.0,0.005388532934379546
809.0,0.005364225782094577
808.0,0.005337329866773615
807.0,0.005312660663896808
806.0,0.005293792030792731
805.0,0.005278887672411544
804.0,0.005263509630376997
803.0,0.005245328523454251
802.0,0.005225039667745072
801.0,0.005204987936494984
800.0,0.005188008762378395
799.0,0.0051753936337162985
798.0,0.005164819922081671
797.0,0.005152399128462613
796.0,0.00513754370443943
795.0,0.005123478616888982
794.0,0.0051124228146478545
793.0,0.0051030267370825964
792.0,0.0050933853666756575
791.0,0.005083653266437109
790.0,0.005074594543590249
789.0,0.005066486797296787
788.0,0.005060825221992092
787.0,0.0050602062850605275
786.0,0.005064609537499926
785.0,0.005069995695683709
784.0,0.005072232195209186
783.0,0.005070590378890221
782.0,0.005066266495152662
781.0,0.00505955489064898
780.0,0.00504988675349274
779.0,0.005036892338291406
778.0,0.00502034862791374
777.0,0.0050009799885207
776.0,0.004982159301919279
775.0,0.004968462597899753
774.0,0.0049610193936743974
773.0,0.004956099013232159
772.0,0.00494957934148337
771.0,0.004941132904804043
770.0,0.00493314842208925
769.0,0.00492753664259967
768.0,0.004924746295237386
767.0,0.004924177509116378
766.0,0.004924440859630338
765.0,0.004924431527930452
764.0,0.0049242611846251625
763.0,0.004923518395294831
762.0,0.0049193774803343564
761.0,0.004909533689382739
760.0,0.004896986568661712
759.0,0.004888172834257924
758.0,0.004885484419902535
757.0,0.0048852978620659284
756.0,0.004884428201694829
755.0,0.004884252167642103
754.0,0.004886351660220645
753.0,0.004888428024945178
752.0,0.004887998576783863
751.0,0.004886822424372308
750.0,0.004887953337415783
749.0,0.0048908140449909765
748.0,0.00489291334189584
747.0,0.004894875906232304
746.0,0.0049002158790770476
745.0,0.00491090266216214
744.0,0.0049258561561915555
743.0,0.004942630964452516
742.0,0.004957649322951463
741.0,0.004966025115231156
740.0,0.004965243823968391
739.0,0.00495979352319214
738.0,0.004959395507396124
737.0,0.004971411105291366
736.0,0.004996173067658424
735.0,0.005029950981877934
734.0,0.005071122822188512
733.0,0.005122918919720861
732.0,0.005190845592130054
731.0,0.005278055006071687
730.0,0.005383559854156862
729.0,0.005505065175953405
728.0,0.005642430094088111
727.0,0.005796909234123619
726.0,0.005967481962361637
725.0,0.006149776496110794
724.0,0.006338755207814503
723.0,0.006530319160045929
722.0,0.00671906403501254
721.0,0.006895975503493237
720.0,0.007051318132556479
719.0,0.007182560411102799
718.0,0.007301441985380403
717.0,0.007434196825890173
716.0,0.007609997593532557
715.0,0.007834876231840518
714.0,0.008066406207621429
713.0,0.00822315948142067
712.0,0.008238335474633972
711.0,0.00811250058339559
710.0,0.007909368620080924
709.0,0.0077003047789929845
708.0,0.007520418436010166
707.0,0.00737206791697295
706.0,0.0072504143324546525
705.0,0.007157008758379314
704.0,0.007099948342521032
703.0,0.007089815219421031
702.0,0.007126853423257777
701.0,0.00718303386258967
700.0,0.007204946893838422
699.0,0.0071492575440612015
698.0,0.007017528306577975
697.0,0.00684985748362623
696.0,0.006687798987721885
695.0,0.006550854473881517
694.0,0.006441998574830375
693.0,0.006359835899312268
692.0,0.006299463750847705
691.0,0.006250089543215752
690.0,0.006200694238510437
689.0,0.006148194988065368
688.0,0.006097706401157638
687.0,0.006055041726257574
686.0,0.006020263699368039
685.0,0.005988411859738913
684.0,0.005955516210674354
683.0,0.00592352861556809
682.0,0.005898426651095237
681.0,0.005882807772054766
680.0,0.0058723764156292674
679.0,0.00586145105762453
678.0,0.005849677219526618
677.0,0.0058394563482096744
676.0,0.005829850222686436
675.0,0.005818188316831115
674.0,0.005803715270571405
673.0,0.0057870215088551245
672.0,0.005768246848858818
671.0,0.005749500701653287
670.0,0.005734636860604518
669.0,0.005731898138795315
668.0,0.005748176144299016
667.0,0.00576080062785863
666.0,0.0057489557295083045
665.0,0.005728010010164054
664.0,0.00571087234568861
663.0,0.005694677375374251
662.0,0.005673815327275022
661.0,0.005649478549993417
660.0,0.005625151178588425
659.0,0.005602255201852509
658.0,0.005583828038588366
657.0,0.005573901030835325
656.0,0.0055702027492301655
655.0,0.005563627680432667
654.0,0.005547462645669464
653.0,0.00552415912380598
652.0,0.005500738858581166
651.0,0.005481750945966786
650.0,0.005468225646162051
649.0,0.005458007655181427
648.0,0.005443850177455913
647.0,0.005416120776033033
646.0,0.005373246360851781
645.0,0.0053266980472561724
644.0,0.00529101699174272
643.0,0.005269295562988699
642.0,0.005249604605726637
641.0,0.005217437368773523
640.0,0.005171454465548585
639.0,0.005125841373542387
638.0,0.005097017263586798
637.0,0.005088899241358482
636.0,0.005092804432656852
635.0,0.005097646614407816
634.0,0.005095942587381159
633.0,0.0050831525211922825
632.0,0.005057179464733444
631.0,0.0050206914906276694
630.0,0.004980517349204364
629.0,0.0049410225953030055
628.0,0.004899582953462529
627.0,0.004850293069004699
626.0,0.004789840008203102
625.0,0.004718980186620786
624.0,0.004643149803250431
623.0,0.004574136030540947
622.0,0.00452371958034128
621.0,0.004492405380368249
620.0,0.0044706906259635755
619.0,0.004448837560863077
618.0,0.004419995896184551
617.0,0.004381163343408805
616.0,0.0043384908687879855
615.0,0.004305091422145101
614.0,0.0042856056065882706
613.0,0.004270951455781618
612.0,0.00425731461570969
611.0,0.004257985111232188
610.0,0.004282509116326241
609.0,0.004318197130450396
608.0,0.004349659263781685
607.0,0.004381868382695252
606.0,0.0044230871062270445
605.0,0.004455802467042241
604.0,0.0044510537509762005
603.0,0.004410240553223537
602.0,0.004368648767557478
601.0,0.00435202417508862
600.0,0.004352584700293755
599.0,0.00435358334692467
598.0,0.004352328452860788
597.0,0.004348359703035111
596.0,0.0043296655076856564
595.0,0.00428720205269417
594.0,0.004228332103474256
593.0,0.004159584534794643
592.0,0.004074273860279873
591.0,0.0039776245622388465
590.0,0.0039006532928443074
589.0,0.0038599154424507533
588.0,0.0038254249450340658
587.0,0.0037533338281145476
586.0,0.0036374243801398183
585.0,0.0035056266655370044
584.0,0.0033762791615890722
583.0,0.0032491591631506377
582.0,0.003128884201590557
581.0,0.0030269811538200546
580.0,0.0029415512633335934
579.0,0.0028531184926043705
578.0,0.002743797969754178
577.0,0.00261553334754824
576.0,0.002499025059362962
575.0,0.0024443570168139767
574.0,0.002470076500614195
573.0,0.0025311169742596278
572.0,0.002560648492893459
571.0,0.002529216889690238
570.0,0.0024671242785961403
569.0,0.0024269666458937257
568.0,0.002432682983641101
567.0,0.0024676091628352773
566.0,0.0024905353463611874
565.0,0.0024673453758523485
564.0,0.0023948309140485536
563.0,0.002305463793823225
562.0,0.0022435022872287734
561.0,0.002225201180470553
560.0,0.002234362502048945
559.0,0.0022458301683340566
558.0,0.0022431034362254297
557.0,0.0022246661547502804
556.0,0.002200327659224917
555.0,0.0021784013806225447
554.0,0.002152402758147139
553.0,0.002107543977614844
552.0,0.002043344603590745
551.0,0.001981139810774776
550.0,0.0019350235281177476
