cm-1,A
4000.0,0.003011566571783156
3999.0,0.003019232502711234
3998.0,0.003001197746792991
3997.0,0.0030160825696436046
3996.0,0.0030835707675497034
3995.0,0.003154931132007769
3994.0,0.003164014861517579
3993.0,0.003109273563096704
3992.0,0.0030564222817458762
3991.0,0.003067312997220989
3990.0,0.0031406989779816756
3989.0,0.003218299295588105
3988.0,0.0032477971669307194
3987.0,0.003217486260166408
3986.0,0.0031516692510583522
3985.0,0.0030907654337294817
3984.0,0.0030651771163938274
3983.0,0.0030860036783496823
3982.0,0.0031439225889151583
3981.0,0.0032199741808736568
3980.0,0.0032932308033739362
3979.0,0.0033421016686345315
3978.0,0.003349968280671703
3977.0,0.0033159654427499987
3976.0,0.0032639761474448723
3975.0,0.0032236502553277258
3974.0,0.0032081323558164447
3973.0,0.003213839667996557
3972.0,0.0032409436183934593
3971.0,0.003297190927228532
3970.0,0.0033774255062920828
3969.0,0.0034597106524793583
3968.0,0.0035180772997782453
3967.0,0.0035384849022167767
3966.0,0.003516775926074493
3965.0,0.0034565136381874747
3964.0,0.0033782184935214933
3963.0,0.0033162771608790127
3962.0,0.003300798611833324
3961.0,0.0033335696125431236
3960.0,0.0033973578114772068
3959.0,0.003479677634791147
3958.0,0.003557497727523949
3957.0,0.00360041511779355
3956.0,0.0035933642295938907
3955.0,0.0035529975164415965
3954.0,0.0035093014668757666
3953.0,0.003468592889984603
3952.0,0.0034039162158406647
3951.0,0.0032874720383648873
3950.0,0.0031470495522113277
3949.0,0.0030573394295654623
3948.0,0.0030504386892942804
3947.0,0.0030857351757029514
3946.0,0.0031286724305396012
3945.0,0.003179782475342865
3944.0,0.003247001606058949
3943.0,0.003313270342150369
3942.0,0.0033231826958457326
3941.0,0.0032867579053450155
3940.0,0.0033187567814107876
3939.0,0.0034659657326278678
3938.0,0.003612782120906507
3937.0,0.003625075577547864
3936.0,0.0034982035435431724
3935.0,0.003340115952763163
3934.0,0.0032539233744767262
3933.0,0.0032621667167886427
3932.0,0.003317024799384491
3931.0,0.0033421240252354597
3930.0,0.003312275922906135
3929.0,0.003262830450649309
3928.0,0.0032147403196312284
3927.0,0.003176988979776047
3926.0,0.0031651211223729624
3925.0,0.003187269409940632
3924.0,0.0032073333051092397
3923.0,0.0031995293570485908
3922.0,0.003220717311955396
3921.0,0.0032735107747084635
3920.0,0.0032958018957362292
3919.0,0.0033251735059688006
3918.0,0.003443114342475115
3917.0,0.0036130582349140697
3916.0,0.0037131861439928145
3915.0,0.003731995463107601
3914.0,0.003781388896514073
3913.0,0.003907025575058572
3912.0,0.004041607609790802
3911.0,0.004125518715636876
3910.0,0.004128186485265193
3909.0,0.004030320095756797
3908.0,0.00380390061143579
3907.0,0.0034588976278318705
3906.0,0.003080773394078781
3905.0,0.0028160078080683073
3904.0,0.002740105416484088
3903.0,0.002781330986126992
3902.0,0.002916002199678909
3901.0,0.0031900455772976774
3900.0,0.0034917226229214506
3899.0,0.0036180457378029354
3898.0,0.0035619561616298985
3897.0,0.0035063519704291134
3896.0,0.0035267910498106778
3895.0,0.0035108769279505077
3894.0,0.0034143554981399624
3893.0,0.0034018493873238355
3892.0,0.0035869652104985154
3891.0,0.003733304338740734
3890.0,0.0036211335960510613
3889.0,0.0035534730610465365
3888.0,0.0037935356951655274
3887.0,0.004133320900868995
3886.0,0.004288615303281996
3885.0,0.004122132468888064
3884.0,0.003708004535484713
3883.0,0.0034335540403926373
3882.0,0.003466995065917647
3881.0,0.003595944349505157
3880.0,0.0035996181846275213
3879.0,0.00342874430336316
3878.0,0.0033557843636142807
3877.0,0.00356581873155929
3876.0,0.003791184765189975
3875.0,0.0037727530500700768
3874.0,0.003545546666299927
3873.0,0.003278811122457946
3872.0,0.0031951447938451593
3871.0,0.003368833634073469
3870.0,0.003546030998064731
3869.0,0.0034111576454923173
3868.0,0.0031513132037835475
3867.0,0.0032574112685637424
3866.0,0.0035885849122957152
3865.0,0.0036859045521954997
3864.0,0.0035599416460794404
3863.0,0.0034292180197014873
3862.0,0.0034071247473920806
3861.0,0.0035100421086395406
3860.0,0.0036156365951879885
3859.0,0.003625754557708757
3858.0,0.0035214329973902005
3857.0,0.0033460394090880337
3856.0,0.0032015068978913028
3855.0,0.0032853939548809106
3854.0,0.0038372262906253155
3853.0,0.004282066178906264
3852.0,0.0037235589780118938
3851.0,0.0031513035044628754
3850.0,0.003481308315162382
3849.0,0.004048929736162548
3848.0,0.0042685237576267675
3847.0,0.004211886807606013
3846.0,0.004066304479496467
3845.0,0.003888719322551446
3844.0,0.003666982254487558
3843.0,0.0033709906840644014
3842.0,0.003001393685193512
3841.0,0.0026843962762706326
3840.0,0.0025691777509868176
3839.0,0.002686012657573419
3838.0,0.0028751928920630627
3837.0,0.0029846760206014167
3836.0,0.0030968102504272
3835.0,0.003347883051022774
3834.0,0.003673255673627713
3833.0,0.003939500974239311
3832.0,0.004102354707974008
3831.0,0.0041706962152061496
3830.0,0.004186386217697623
3829.0,0.0041999857440474546
3828.0,0.004180371505768494
3827.0,0.004038143036501645
3826.0,0.003724387900908844
3825.0,0.003339208074762222
3824.0,0.0030985541174241623
3823.0,0.003064114943608481
3822.0,0.0031776235070340893
3821.0,0.0033671535235176835
3820.0,0.003240408649341114
3819.0,0.002985119310954064
3818.0,0.0032416108763210685
3817.0,0.003786796872544085
3816.0,0.004081162160552736
3815.0,0.003970065301524916
3814.0,0.003811473012195571
3813.0,0.004040311838409012
3812.0,0.00440079694295038
3811.0,0.004421014475040442
3810.0,0.004187404856598002
3809.0,0.0040892104793452625
3808.0,0.004279556112551394
3807.0,0.004474647129023908
3806.0,0.004291888848063586
3805.0,0.003921157435999521
3804.0,0.0038207702699692356
3803.0,0.003893265931121443
3802.0,0.0038291424653062412
3801.0,0.0034631030916683642
3800.0,0.0028483463610504776
3799.0,0.0026462177211456677
3798.0,0.0031029756195111273
3797.0,0.003627145111386852
3796.0,0.003821918689006264
3795.0,0.003807530046376205
3794.0,0.003905087512784811
3793.0,0.004201182609801125
3792.0,0.004466935620841835
3791.0,0.0045328245926862295
3790.0,0.004470496929571964
3789.0,0.004403194451360342
3788.0,0.004362474509195774
3787.0,0.004319914560435986
3786.0,0.00424962636138363
3785.0,0.00413004427732926
3784.0,0.003954402180945567
3783.0,0.0037967599789611737
3782.0,0.003773427643742935
3781.0,0.003883952900152258
3780.0,0.0040285134016220196
3779.0,0.004104558468842938
3778.0,0.0040633942109908235
3777.0,0.004046478978578563
3776.0,0.0041719810167933115
3775.0,0.0042985981832625395
3774.0,0.004274465733440605
3773.0,0.004170070548110739
3772.0,0.004146657363300899
3771.0,0.004230082594439958
3770.0,0.00426909562840391
3769.0,0.004122484938623739
3768.0,0.003908940962547591
3767.0,0.003858212606184996
3766.0,0.003940639886079804
3765.0,0.003959243963283803
3764.0,0.003854766760582124
3763.0,0.0037794403089926962
3762.0,0.003826237084428726
3761.0,0.003863926974748564
3760.0,0.003815471922211033
3759.0,0.0037500301720543444
3758.0,0.0036599319716920887
3757.0,0.0035155096198287326
3756.0,0.0033807511458847405
3755.0,0.0032986581219438624
3754.0,0.0031857290061091306
3753.0,0.002923671157885394
3752.0,0.002663667857263431
3751.0,0.0027324380788613604
3750.0,0.002915375625898192
3749.0,0.0028876630770849664
3748.0,0.0029167513094873025
3747.0,0.0032453172783690138
3746.0,0.0037376690089172618
3745.0,0.004231239117409726
3744.0,0.0044433331373078064
3743.0,0.004178116056078022
3742.0,0.004066409840947248
3741.0,0.004362900225706815
3740.0,0.004401128842326486
3739.0,0.003950356919587797
3738.0,0.0033801082303248024
3737.0,0.0030024733940163
3736.0,0.0028371428714982225
3735.0,0.002679877681738993
3734.0,0.0024503587337472215
3733.0,0.002463768337452419
3732.0,0.0028694618804056132
3731.0,0.003391661155329356
3730.0,0.003838396949443267
3729.0,0.004192621420517476
3728.0,0.004379610792982668
3727.0,0.004325987690937031
3726.0,0.004104837620470233
3725.0,0.003873283798402638
3724.0,0.003754890458021541
3723.0,0.0037339858712369892
3722.0,0.003729884801222736
3721.0,0.0037429678857369706
3720.0,0.003834115226211224
3719.0,0.004012030746474101
3718.0,0.004172898016436639
3717.0,0.004204714966989966
3716.0,0.004112672952543889
3715.0,0.003973943680852721
3714.0,0.0038032450653370867
3713.0,0.0036253221860018574
3712.0,0.0036367057362924875
3711.0,0.003866477227468426
3710.0,0.004042508113774796
3709.0,0.0042052557432975795
3708.0,0.004519304929854091
3707.0,0.004861784334913703
3706.0,0.005071384963834342
3705.0,0.005157737807233775
3704.0,0.0052071742630798844
3703.0,0.005261847753926347
3702.0,0.005312965109799913
3701.0,0.005318004357516002
3700.0,0.005307386618627133
3699.0,0.005419621637297622
3698.0,0.00565936492172164
3697.0,0.005832786964692983
3696.0,0.005798532109922551
3695.0,0.005607065080778746
3694.0,0.005375754948516319
3693.0,0.005133661599174664
3692.0,0.004897317380471393
3691.0,0.00484980956480413
3690.0,0.0051657347997782
3689.0,0.005551531591332287
3688.0,0.005584180841958459
3687.0,0.005504233099284146
3686.0,0.005742001734200086
3685.0,0.006210772499652316
3684.0,0.006555428248567129
3683.0,0.006621812961476178
3682.0,0.006509936647492569
3681.0,0.006349693493794523
3680.0,0.006128142322707954
3679.0,0.0058145392016556025
3678.0,0.005605930022910882
3677.0,0.005839114559036719
3676.0,0.006578989956965811
3675.0,0.006973683540283998
3674.0,0.006482442673050608
3673.0,0.006154210624272679
3672.0,0.006526879014450898
3671.0,0.007143025086278825
3670.0,0.007816446797114775
3669.0,0.008210755387383658
3668.0,0.008255793627807812
3667.0,0.008500117916300285
3666.0,0.008953476511719648
3665.0,0.009279830811626349
3664.0,0.009457406715122057
3663.0,0.009621619678737954
3662.0,0.009788959975738082
3661.0,0.009857490347846314
3660.0,0.009796543388712624
3659.0,0.009743525607155497
3658.0,0.00991224471952113
3657.0,0.010372734808666441
3656.0,0.010836524608246915
3655.0,0.01090569349846927
3654.0,0.010663632882008285
3653.0,0.010345702906019603
3652.0,0.009906811037791164
3651.0,0.009480695113919097
3650.0,0.009741073419274729
3649.0,0.01059397511516092
3648.0,0.010954047937932315
3647.0,0.010977927045907348
3646.0,0.011363943853209497
3645.0,0.012064964281056158
3644.0,0.012773390250324418
3643.0,0.013321451153433469
3642.0,0.013724117737044603
3641.0,0.014036351605802896
3640.0,0.014284074647068358
3639.0,0.01446831224455469
3638.0,0.014574433861080802
3637.0,0.014632325982630336
3636.0,0.014744033685779982
3635.0,0.014951399306447514
3634.0,0.015159736691575554
3633.0,0.015237887381771242
3632.0,0.015222142431755643
3631.0,0.015290265881900144
3630.0,0.015781667540666972
3629.0,0.016916545403194636
3628.0,0.01779543419271675
3627.0,0.017869543967528604
3626.0,0.01796549076809794
3625.0,0.01826731602086793
3624.0,0.01836461203152342
3623.0,0.01822478244383686
3622.0,0.018067673867881186
3621.0,0.018108358076610136
3620.0,0.01846584631092884
3619.0,0.018999645892317937
3618.0,0.019311523754967884
3617.0,0.019338798263309694
3616.0,0.01933743045196543
3615.0,0.019420360374661518
3614.0,0.019625329562470425
3613.0,0.019959431928771244
3612.0,0.020324590247087087
3611.0,0.02068603067041218
3610.0,0.021126916143568156
3609.0,0.021719171992461265
3608.0,0.022401664546245443
3607.0,0.02291867986374053
3606.0,0.023147176063959593
3605.0,0.023234867219561875
3604.0,0.023294339925230226
3603.0,0.02336547992469306
3602.0,0.023522748207783488
3601.0,0.02378871183479668
3600.0,0.02405027407854695
3599.0,0.024201068345776733
3598.0,0.024287296193817923
3597.0,0.024428680739263343
3596.0,0.024724644419572082
3595.0,0.02517819154202966
3594.0,0.025641536060722597
3593.0,0.02594028542438393
3592.0,0.0260477167388728
3591.0,0.026021678865359957
3590.0,0.025956283237304197
3589.0,0.026104767601032006
3588.0,0.026800751653977307
3587.0,0.027770476992312693
3586.0,0.028346203367145627
3585.0,0.02857889175027646
3584.0,0.028818482557972057
3583.0,0.029063843228214217
3582.0,0.02924778268736858
3581.0,0.029419021904679696
3580.0,0.02964506905255751
3579.0,0.029925456025744333
3578.0,0.03023526624428846
3577.0,0.030571989620608357
3576.0,0.030948684535606404
3575.0,0.0313527660457773
3574.0,0.03172878374707376
3573.0,0.03199338982409944
3572.0,0.03207050402619218
3571.0,0.03192098472887049
3570.0,0.03160028140381528
3569.0,0.03133739592846426
3568.0,0.031563332111095896
3567.0,0.03240049410884473
3566.0,0.03318783551243858
3565.0,0.033492179613130627
3564.0,0.0336268652668881
3563.0,0.033830907014891144
3562.0,0.03410534157919805
3561.0,0.03447229064015899
3560.0,0.034946224436947795
3559.0,0.03545416276582434
3558.0,0.035887082049614084
3557.0,0.03617697757860316
3556.0,0.03631461932969743
3555.0,0.03637463010600697
3554.0,0.036513259329206654
3553.0,0.03685816706552511
3552.0,0.03732148288391454
3551.0,0.037665171789875884
3550.0,0.03778304511413855
3549.0,0.03776040307282525
3548.0,0.03776216562829129
3547.0,0.03797170030323785
3546.0,0.03845933293646132
3545.0,0.039069140414799496
3544.0,0.039595005593902506
3543.0,0.039991240492455525
3542.0,0.04031636047168405
3541.0,0.0406244070682482
3540.0,0.04094093207005392
3539.0,0.04127472409917763
3538.0,0.041625079618863595
3537.0,0.04197288372686485
3536.0,0.04227282020615718
3535.0,0.04249164811999147
3534.0,0.0426551941047733
3533.0,0.04282004309162384
3532.0,0.04302027455916638
3531.0,0.04326519087507066
3530.0,0.04356580258378524
3529.0,0.043913257432743054
3528.0,0.04424252520943949
3527.0,0.044470139211168734
3526.0,0.044597844254111334
3525.0,0.04474209467827761
3524.0,0.045029400772794805
3523.0,0.04545944274344786
3522.0,0.045909987692283744
3521.0,0.04629533991130769
3520.0,0.046642351800240636
3519.0,0.04700736608509426
3518.0,0.04738850758842985
3517.0,0.04772790334844253
3516.0,0.04797972862354696
3515.0,0.048155505810246815
3514.0,0.04831102214286487
3513.0,0.04851385815309452
3512.0,0.048823060655947506
3511.0,0.049262591271058816
3510.0,0.04978251090725672
3509.0,0.050244982781306034
3508.0,0.050516083395447296
3507.0,0.050588222481519354
3506.0,0.0505753505863699
3505.0,0.0506356265895777
3504.0,0.05089820510321189
3503.0,0.05133549908092276
3502.0,0.05174975911607365
3501.0,0.051993765114203144
3500.0,0.052091257514076436
3499.0,0.052155356795476115
3498.0,0.05232023998754405
3497.0,0.05268041317560198
3496.0,0.053209589378354336
3495.0,0.05376492644670961
3494.0,0.05421721664501189
3493.0,0.05455858710072013
3492.0,0.05485755747160344
3491.0,0.05515619116591221
3490.0,0.05544566529872276
3489.0,0.055710712730276994
3488.0,0.05595798448229761
3487.0,0.05619752559356531
3486.0,0.056423005053989075
3485.0,0.05662541077555836
3484.0,0.056814648963047186
3483.0,0.05702509384623953
3482.0,0.05729800222363395
3481.0,0.057644225359723175
3480.0,0.05802972214992375
3479.0,0.058399391982225275
3478.0,0.05870931498967688
3477.0,0.058951943609102074
3476.0,0.05916674027427861
3475.0,0.05940872917555898
3474.0,0.0596918566128514
3473.0,0.059974564968133706
3472.0,0.060202930833468116
3471.0,0.060364137719326
3470.0,0.06050968484792972
3469.0,0.060721330600873175
3468.0,0.06103146394405748
3467.0,0.06138338774015095
3466.0,0.061690979751554534
3465.0,0.061931276958957684
3464.0,0.06215731752304707
3463.0,0.062428940009299744
3462.0,0.06275443095339041
3461.0,0.06310189732784692
3460.0,0.06344304221432485
3459.0,0.06376767433358307
3458.0,0.06407210833495915
3457.0,0.06435812740614132
3456.0,0.06463875488025997
3455.0,0.06492910194489256
3454.0,0.06522193787882326
3453.0,0.06547147557027852
3452.0,0.06561829972831729
3451.0,0.06564958832584367
3450.0,0.0656419842531233
3449.0,0.06572798356744809
3448.0,0.06599545194322044
3447.0,0.066386995694396
3446.0,0.06674558916493184
3445.0,0.06700104934637477
3444.0,0.06722955014863034
3443.0,0.067534652695406
3442.0,0.06793399916701738
3441.0,0.06834194837604976
3440.0,0.06866138307823508
3439.0,0.06888279613790817
3438.0,0.06907126172644983
3437.0,0.0692819588279764
3436.0,0.06950914722653263
3435.0,0.06972383462637237
3434.0,0.0699371705543376
3433.0,0.07018559294197789
3432.0,0.07046878142902567
3431.0,0.07074635451119282
3430.0,0.07099896898097287
3429.0,0.07124742573242372
3428.0,0.07150019991324907
3427.0,0.07172146348977065
3426.0,0.07187820846041788
3425.0,0.07199434201276252
3424.0,0.07213220296436978
3423.0,0.07233574735670978
3422.0,0.0726071218414347
3421.0,0.07292114102381259
3420.0,0.07323696893329085
3419.0,0.07350877049624185
3418.0,0.07371602376350095
3417.0,0.07388874381656485
3416.0,0.07408865417828447
3415.0,0.07435193606590809
3414.0,0.07465362509719936
3413.0,0.07493814552983523
3412.0,0.07517592837995467
3411.0,0.07537411276023619
3410.0,0.07554494826786445
3409.0,0.07569141169407358
3408.0,0.07582363533245867
3407.0,0.07596335636291615
3406.0,0.07612157278870177
3405.0,0.07629298567383333
3404.0,0.0764792738570646
3403.0,0.07669234567277786
3402.0,0.07691755744153407
3401.0,0.07710249471349083
3400.0,0.07721456697382563
3399.0,0.07729265629491294
3398.0,0.07740925747589592
3397.0,0.07758067797569626
3396.0,0.07774876388681025
3395.0,0.07786518483779302
3394.0,0.07796173789184935
3393.0,0.07810924602823933
3392.0,0.0783187947990805
3391.0,0.07851790273570373
3390.0,0.07863011271723279
3389.0,0.0786484534332487
3388.0,0.0786336213254031
3387.0,0.0786693091786892
3386.0,0.07881468040197989
3385.0,0.0790703600087099
3384.0,0.07936745441918958
3383.0,0.07960011323981261
3382.0,0.07969625023316589
3381.0,0.07966955494149058
3380.0,0.07960702072177044
3379.0,0.07960248926673463
3378.0,0.07969607655068506
3377.0,0.07986391394640109
3376.0,0.08004525876821615
3375.0,0.08017264220495812
3374.0,0.08019973589870051
3373.0,0.08012875055825762
3372.0,0.08001562665025677
3371.0,0.07993686332077514
3370.0,0.07993995068193774
3369.0,0.08001799304683628
3368.0,0.08012479582765518
3367.0,0.08021281811539152
3366.0,0.08026304913397156
3365.0,0.08028729084795141
3364.0,0.08030749712581563
3363.0,0.08033838763771621
3362.0,0.0803881878596749
3361.0,0.08046163358295597
3360.0,0.08054698935357354
3359.0,0.08060635691899863
3358.0,0.08060174146319321
3357.0,0.080538854429261
3356.0,0.08047028619278451
3355.0,0.08043984745278676
3354.0,0.0804343938178019
3353.0,0.08040889728762314
3352.0,0.08034868769236239
3351.0,0.08028356499165624
3350.0,0.0802401216796984
3349.0,0.0802061655132378
3348.0,0.08015566790859185
3347.0,0.08008970770261839
3346.0,0.08003274751807675
3345.0,0.08000014091436308
3344.0,0.0799881277154725
3343.0,0.07998690801628115
3342.0,0.07998234690707245
3341.0,0.07994895549467612
3340.0,0.07986677221979234
3339.0,0.07975049426243602
3338.0,0.07964184657967664
3337.0,0.07956209090028822
3336.0,0.07948927008219156
3335.0,0.07939665843853269
3334.0,0.0792933084912102
3333.0,0.0792043385557551
3332.0,0.07912881802914587
3331.0,0.07904437320428981
3330.0,0.07894620298428032
3329.0,0.07885625427529691
3328.0,0.07879045324790908
3327.0,0.07873592296469906
3326.0,0.07866735596371818
3325.0,0.07857271610621264
3324.0,0.07845482039767525
3323.0,0.07831778179410971
3322.0,0.07816268106873106
3321.0,0.07799438371422757
3320.0,0.07782773751801725
3319.0,0.07768396371391964
3318.0,0.07757379191985538
3317.0,0.07747918008886309
3316.0,0.07736356786643701
3315.0,0.07721423322265947
3314.0,0.07706631006113646
3313.0,0.07696476361206672
3312.0,0.07690492357371081
3311.0,0.07683404937637574
3310.0,0.07671445514212866
3309.0,0.07655970448301447
3308.0,0.07640059215849264
3307.0,0.07624392064649786
3306.0,0.07608481448110761
3305.0,0.07593662091323436
3304.0,0.07582175560396856
3303.0,0.07574141250986426
3302.0,0.07567402424034667
3301.0,0.075600163524678
3300.0,0.07551006996278439
3299.0,0.07538979274180575
3298.0,0.07522366641874006
3297.0,0.07501975161594485
3296.0,0.07481925577635773
3295.0,0.07466685675919107
3294.0,0.07457290432256697
3293.0,0.07450710732800334
3292.0,0.0744263352843686
3291.0,0.07430880171387719
3290.0,0.0741659650806987
3289.0,0.07402571130469386
3288.0,0.07390846841511063
3287.0,0.07381985518207045
3286.0,0.07375805655340331
3285.0,0.07371854627437648
3284.0,0.07369093345024139
3283.0,0.07365516698590208
3282.0,0.07358361210275435
3281.0,0.07345164220544739
3280.0,0.07325595342245328
3279.0,0.07303076318421582
3278.0,0.07283817808754067
3277.0,0.07272349289730531
3276.0,0.07267246852491177
3275.0,0.07262379132273382
3274.0,0.07252985240137633
3273.0,0.07239646521985775
3272.0,0.07226140375189578
3271.0,0.0721498035113395
3270.0,0.07205843893237178
3269.0,0.07196971982591681
3268.0,0.0718707265587212
3267.0,0.0717647668357734
3266.0,0.0716675861674996
3265.0,0.07158413527946562
3264.0,0.0714911655949841
3263.0,0.07135774780001664
3262.0,0.07118772736238999
3261.0,0.07102529550973984
3260.0,0.07090546109886407
3259.0,0.07081392615507727
3258.0,0.07071388384720555
3257.0,0.07059898704099607
3256.0,0.07049381276144288
3255.0,0.07041000357637703
3254.0,0.07033134616208114
3253.0,0.07024803529272403
3252.0,0.0701763543123322
3251.0,0.07012270805436736
3250.0,0.0700471517538534
3249.0,0.06989432062545531
3248.0,0.06966703025545035
3247.0,0.0694462504876296
3246.0,0.06931585705908866
3245.0,0.06927001536508937
3244.0,0.06922084296508367
3243.0,0.06910342839484188
3242.0,0.06893635025875061
3241.0,0.06876588510089478
3240.0,0.06859382985609948
3239.0,0.06839426695978167
3238.0,0.06817775983028203
3237.0,0.06798749576252609
3236.0,0.06782772650621982
3235.0,0.06764798793428069
3234.0,0.06741964328655055
3233.0,0.06718668609938568
3232.0,0.06700969510930746
3231.0,0.06688785399202737
3230.0,0.06676961216448143
3229.0,0.06661978422489398
3228.0,0.06644319244127511
3227.0,0.0662584986599824
3226.0,0.06608232593537218
3225.0,0.06592818711158577
3224.0,0.06579054064482204
3223.0,0.06563561743542115
3222.0,0.0654347775835953
3221.0,0.0652027182894799
3220.0,0.06497627249552161
3219.0,0.06475862984440908
3218.0,0.06451720102505476
3217.0,0.06423806484792917
3216.0,0.06395105284482629
3215.0,0.06369776048430384
3214.0,0.06349510990651515
3213.0,0.06333173999335864
3212.0,0.06318255367155726
3211.0,0.06302116952695816
3210.0,0.06283330504108761
3209.0,0.06262499338505091
3208.0,0.062410110033613256
3207.0,0.062193303428801625
3206.0,0.061974744116151975
3205.0,0.06176039804953623
3204.0,0.061549771446842316
3203.0,0.061322512811159524
3202.0,0.061062859372661954
3201.0,0.060795576037540724
3200.0,0.06057106506357897
3199.0,0.06040783455648908
3198.0,0.06026533481016642
3197.0,0.060080131861443446
3196.0,0.05981775006317879
3195.0,0.059489482191547365
3194.0,0.05913739644716776
3193.0,0.05880792528217465
3192.0,0.05852102171810236
3191.0,0.058257394723391094
3190.0,0.057989195064885535
3189.0,0.05772263993601143
3188.0,0.05749197469938831
3187.0,0.057309129315143884
3186.0,0.057140649038727814
3185.0,0.05694212885164073
3184.0,0.05669898057137094
3183.0,0.0564256369535533
3182.0,0.05614041274738204
3181.0,0.05585262945495193
3180.0,0.055562934176555515
3179.0,0.055265475991773984
3178.0,0.05495493110000456
3177.0,0.05463873224251448
3176.0,0.054337546723327246
3175.0,0.054066823285299256
3174.0,0.0538194384926236
3173.0,0.05356974825046263
3172.0,0.05329592296681008
3171.0,0.05300105620405669
3170.0,0.05271254657641355
3169.0,0.052455442907060064
3168.0,0.05222636779373822
3167.0,0.052001296620669366
3166.0,0.051766865113071665
3165.0,0.05152713582621376
3164.0,0.05127965999264793
3163.0,0.051012509431410405
3162.0,0.05073612466290904
3161.0,0.05048697080716355
3160.0,0.05027229131214271
3159.0,0.05003554544445698
3158.0,0.049714731744263115
3157.0,0.04932821817591583
3156.0,0.04896644645040817
3155.0,0.048693159102517015
3154.0,0.048487019192756144
3153.0,0.048289842744728445
3152.0,0.04808037070903093
3151.0,0.04787898074247802
3150.0,0.04769627585155645
3149.0,0.04750421797063936
3148.0,0.04726427326310385
3147.0,0.046973452838517615
3146.0,0.046673630978325276
3145.0,0.04641093674630654
3144.0,0.04618527159475499
3143.0,0.04594952469406198
3142.0,0.045666632440303966
3141.0,0.0453592621442518
3140.0,0.04508911863644281
3139.0,0.044886872788258356
3138.0,0.04471523648016706
3137.0,0.044506806315314236
3136.0,0.044229188338014806
3135.0,0.04391033375730932
3134.0,0.04361075225506029
3133.0,0.043372328029897884
3132.0,0.04318624612591857
3131.0,0.043009271123899684
3130.0,0.04280754145124834
3129.0,0.042577229024176357
3128.0,0.04232924688459552
3127.0,0.04207189614813885
3126.0,0.04181566927878045
3125.0,0.04157641665626919
3124.0,0.041357352220893664
3123.0,0.04113903495088986
3122.0,0.0409016358671067
3121.0,0.04065024893652668
3120.0,0.040404458203213506
3119.0,0.04017007250320505
3118.0,0.03993883430211489
3117.0,0.039711405134083874
3116.0,0.03949940992101148
3115.0,0.03930335952187263
3114.0,0.039107017772002664
3113.0,0.038900817998048565
3112.0,0.038697349164204614
3111.0,0.038513456036417724
3110.0,0.0383420920980764
3109.0,0.038149861061506106
3108.0,0.03790943219034634
3107.0,0.03763604839755492
3106.0,0.0373833522473254
3105.0,0.03719099549352464
3104.0,0.037040092676375626
3103.0,0.036875323787689755
3102.0,0.036667724630783834
3101.0,0.0364394274292578
3100.0,0.03622588344535207
3099.0,0.036033337291433445
3098.0,0.03584565627686744
3097.0,0.03565365938985849
3096.0,0.03546024146303005
3095.0,0.03526970511432887
3094.0,0.035088106619575614
3093.0,0.03492589914801964
3092.0,0.034781957213078626
3091.0,0.03463155954506398
3090.0,0.03444966284046692
3089.0,0.03424292063288376
3088.0,0.0340439035022704
3087.0,0.033873645028472434
3086.0,0.033720904841277516
3085.0,0.03355794349711159
3084.0,0.033362939142160625
3083.0,0.033128401108046705
3082.0,0.03286544653628043
3081.0,0.032605675396838965
3080.0,0.032386908024969664
3079.0,0.03222642364488258
3078.0,0.03211118651775204
3077.0,0.03201512433511948
3076.0,0.03191662291783408
3075.0,0.03179949173983977
3074.0,0.03165082018950973
3073.0,0.031468324324259375
3072.0,0.03126706803346628
3071.0,0.031071857552742464
3070.0,0.030899737900449545
3069.0,0.03074815465378255
3068.0,0.03059851712523881
3067.0,0.030431913765442124
3066.0,0.030246121077666298
3065.0,0.03005925837898283
3064.0,0.029893825936427566
3063.0,0.029753587638673078
3062.0,0.02961676008974823
3061.0,0.029455066097129893
3060.0,0.029259600200460204
3059.0,0.029047385241379255
3058.0,0.02884197047467118
3057.0,0.028652206838873203
3056.0,0.02847394026062036
3055.0,0.028306040896552316
3054.0,0.028154070908982712
3053.0,0.02801551871791484
3052.0,0.02787327893534141
3051.0,0.027712331009064495
3050.0,0.02753637413857362
3049.0,0.027362056448866537
3048.0,0.027201976120949645
3047.0,0.027059353810608845
3046.0,0.026931531580457323
3045.0,0.02680792046096195
3044.0,0.02667087093412963
3043.0,0.02651203149959702
3042.0,0.026347277546712632
3041.0,0.026202646880651954
3040.0,0.026085014660344078
3039.0,0.025977911767354398
3038.0,0.025866670460514173
3037.0,0.025751353131569895
3036.0,0.02563119987060674
3035.0,0.02549403550051532
3034.0,0.025333862329048457
3033.0,0.025171516194262576
3032.0,0.025041900169294563
3031.0,0.024961485661318464
3030.0,0.02491417284702312
3029.0,0.024865775437803602
3028.0,0.0247854767585248
3027.0,0.02466209925336127
3026.0,0.024515900267728288
3025.0,0.02438862110991713
3024.0,0.02430887259835065
3023.0,0.024268203212434798
3022.0,0.024234343619749014
3021.0,0.024181653571547588
3020.0,0.024105630662323563
3019.0,0.024017524853026873
3018.0,0.023937091789605812
3017.0,0.023886562464298572
3016.0,0.02387701318906544
3015.0,0.023896819645798095
3014.0,0.02392036496797096
3013.0,0.0239334485585825
3012.0,0.02394847646008475
3011.0,0.023992056816412217
3010.0,0.02408111700169698
3009.0,0.024212165071496653
3008.0,0.024367020752715164
3007.0,0.02452156995264578
3006.0,0.024650213574765732
3005.0,0.024733618386926566
3004.0,0.024775356343603082
3003.0,0.0248103057603445
3002.0,0.02488398048387283
3001.0,0.025013374256167502
3000.0,0.025167797179699317
2999.0,0.025292168295644166
2998.0,0.025347477746242773
2997.0,0.025330247993090898
2996.0,0.02526049673928077
2995.0,0.025158114350841605
2994.0,0.025029239676348822
2993.0,0.024862855512096677
2992.0,0.02463743102386353
2991.0,0.02433779318143018
2990.0,0.023973512212393046
2989.0,0.023585047109380298
2988.0,0.02322573404438364
2987.0,0.022930350860523807
2986.0,0.02269373059678681
2985.0,0.02248117983396557
2984.0,0.02226417720348066
2983.0,0.022045850994503784
2982.0,0.021850282094158333
2981.0,0.021686826762977642
2980.0,0.02153527864397371
2979.0,0.021370179825724547
2978.0,0.021192944541818668
2977.0,0.02103342843014706
2976.0,0.020924677146904203
2975.0,0.020878942583198293
2974.0,0.020878304827729424
2973.0,0.02088409248709091
2972.0,0.02086427216488088
2971.0,0.020819234876550515
2970.0,0.02077361042958589
2969.0,0.020740533521588837
2968.0,0.02070674680746468
2967.0,0.020658342776997563
2966.0,0.020605820169044334
2965.0,0.020569665360993538
2964.0,0.020552412583932506
2963.0,0.020540031723847798
2962.0,0.020520904931365592
2961.0,0.020491172277455335
2960.0,0.020452475858403544
2959.0,0.020420865956881497
2958.0,0.02042385215598148
2957.0,0.020468072507691868
2956.0,0.020520617434056324
2955.0,0.020545497817647265
2954.0,0.020551725148946657
2953.0,0.02058059644228376
2952.0,0.020655578304581066
2951.0,0.020768673068258883
2950.0,0.020908274268365383
2949.0,0.021063249124797522
2948.0,0.021200593421848674
2947.0,0.021275062613878074
2946.0,0.021271549494464713
2945.0,0.021211569604073454
2944.0,0.02110845745720501
2943.0,0.02094669535395241
2942.0,0.020717098917227124
2941.0,0.020446573288702745
2940.0,0.02017146770304884
2939.0,0.019904671105966002
2938.0,0.01964508008514879
2937.0,0.01940012824823816
2936.0,0.019178151449179143
2935.0,0.01897283123303122
2934.0,0.01877768244949038
2933.0,0.018602546862746087
2932.0,0.018460604428762174
2931.0,0.018348822597522498
2930.0,0.01825581193735764
2929.0,0.018178271530898314
2928.0,0.01811364007518801
2927.0,0.018049096989842334
2926.0,0.017972817013365183
2925.0,0.017888817052959725
2924.0,0.017806399462890005
2923.0,0.017720926450969187
2922.0,0.01761657337181414
2921.0,0.017480485438887708
2920.0,0.01730913145045164
2919.0,0.017113566945841097
2918.0,0.01692440342600854
2917.0,0.016775294137350027
2916.0,0.016666780263113686
2915.0,0.01656058122023335
2914.0,0.01642650785788654
2913.0,0.016283082885960604
2912.0,0.016177946477861225
2911.0,0.016130499057026234
2910.0,0.016111191765102065
2909.0,0.01607418811551117
2908.0,0.015999006262941616
2907.0,0.01590031690461408
2906.0,0.01580658365628558
2905.0,0.015735834400951013
2904.0,0.015684653474879823
2903.0,0.01563756709296678
2902.0,0.015582516949773941
2901.0,0.015518266109380004
2900.0,0.015443434316174152
2899.0,0.015352871426316046
2898.0,0.015242811220177947
2897.0,0.015117296715106122
2896.0,0.014992052937682025
2895.0,0.014888529189920136
2894.0,0.014822835640272758
2893.0,0.014792707095751825
2892.0,0.014779201776321037
2891.0,0.014766450910443173
2890.0,0.01475717142516329
2889.0,0.014760144356528247
2888.0,0.014768890526683204
2887.0,0.014765037866760557
2886.0,0.014740610744973574
2885.0,0.014705347843638923
2884.0,0.014670004552437402
2883.0,0.014636004518836686
2882.0,0.01460232594792829
2881.0,0.014569679862966999
2880.0,0.014533522669520425
2879.0,0.01448176063088662
2878.0,0.014405624818586298
2877.0,0.014307859973347496
2876.0,0.014198090195952516
2875.0,0.014085998252651513
2874.0,0.013978546446474303
2873.0,0.013877589912690818
2872.0,0.013780658900518702
2871.0,0.01368855783194474
2870.0,0.013607862730591298
2869.0,0.013538234412665452
2868.0,0.013465572566858234
2867.0,0.013381514807680926
2866.0,0.0133012531175275
2865.0,0.013243930514071169
2864.0,0.013199538603692527
2863.0,0.013138102887489185
2862.0,0.013056390489783248
2861.0,0.012988866002408223
2860.0,0.012964322415466608
2859.0,0.01297288728759882
2858.0,0.012984671278205927
2857.0,0.012985807357271804
2856.0,0.012981192143541237
2855.0,0.0129750365962953
2854.0,0.012961969206184943
2853.0,0.012928949911488005
2852.0,0.012862096640463968
2851.0,0.012759246606175473
2850.0,0.012638876722728431
2849.0,0.012528817029626414
2848.0,0.01244063659175482
2847.0,0.012364950546939502
2846.0,0.012291314067887683
2845.0,0.012218679355495964
2844.0,0.01214488149659158
2843.0,0.012060719578882929
2842.0,0.011963199255242281
2841.0,0.011865452550548859
2840.0,0.011786148168729008
2839.0,0.01173375504274612
2838.0,0.011704420592389686
2837.0,0.011686599983761242
2836.0,0.011664881827731975
2835.0,0.011627729474848374
2834.0,0.011575932534038009
2833.0,0.011520129136735233
2832.0,0.011469062898451307
2831.0,0.01142613016043168
2830.0,0.011392485937543861
2829.0,0.011364014628821228
2828.0,0.011328370301730967
2827.0,0.011274664295162254
2826.0,0.011204776032397949
2825.0,0.011125923815263573
2824.0,0.011039839219143043
2823.0,0.01095378276822459
2822.0,0.010894226599447174
2821.0,0.01088449079486126
2820.0,0.010907204141085218
2819.0,0.010912327465705498
2818.0,0.010867175963209779
2817.0,0.010785741595193483
2816.0,0.010703468285930927
2815.0,0.010641564483045053
2814.0,0.010606560363607458
2813.0,0.010599727113883177
2812.0,0.010610539951940279
2811.0,0.010615004580829732
2810.0,0.010594980895253292
2809.0,0.010554725180399672
2808.0,0.010508770437298427
2807.0,0.010461880759577935
2806.0,0.010411695831596535
2805.0,0.010362386512521811
2804.0,0.010322936148013587
2803.0,0.010293974901720931
2802.0,0.010264908863493355
2801.0,0.010224525435159913
2800.0,0.010171890198304648
2799.0,0.010119010741784916
2798.0,0.010081846829295861
2797.0,0.010063067731803599
2796.0,0.010045116841924086
2795.0,0.01000791230811332
2794.0,0.009953279239400727
2793.0,0.009901983755071416
2792.0,0.009866512022670179
2791.0,0.009839977784262844
2790.0,0.009813370819802433
2789.0,0.00978914764906462
2788.0,0.009772287859745704
2787.0,0.009760243472591369
2786.0,0.009749523002114395
2785.0,0.009742607770445106
2784.0,0.00974034355047201
2783.0,0.009734832151022828
2782.0,0.009717800742629982
2781.0,0.009691516130252492
2780.0,0.009664666071657608
2779.0,0.009640262450853363
2778.0,0.009613014780418485
2777.0,0.009578120722218147
2776.0,0.009540607328888034
2775.0,0.009515306759395058
2774.0,0.009513407669155044
2773.0,0.009525065220983857
2772.0,0.009521828116989385
2771.0,0.009485283854068039
2770.0,0.009428940678375092
2769.0,0.009382582720299144
2768.0,0.009359972713501686
2767.0,0.009351716463168113
2766.0,0.009345370345853286
2765.0,0.009338136587959307
2764.0,0.009329235320542294
2763.0,0.009314251772454443
2762.0,0.009292202537953395
2761.0,0.00926932998355145
2760.0,0.009251534333698273
2759.0,0.00923758494900464
2758.0,0.009219330628220482
2757.0,0.009185527597178588
2756.0,0.009132422689206283
2755.0,0.009076529613133428
2754.0,0.009046261156992558
2753.0,0.009048767530337119
2752.0,0.009056389132414145
2751.0,0.009042810171307392
2750.0,0.009019226671357503
2749.0,0.009012916458864253
2748.0,0.009019346652765672
2747.0,0.009005447679505705
2746.0,0.008961920169950276
2745.0,0.008920008416730957
2744.0,0.008906613236438956
2743.0,0.008909810255968646
2742.0,0.008903641406425508
2741.0,0.008885698675824198
2740.0,0.008872526365938013
2739.0,0.008871291021344698
2738.0,0.008873826428888586
2737.0,0.00887128802166849
2736.0,0.00886006694676636
2735.0,0.008839202594644715
2734.0,0.008812654735077868
2733.0,0.008789673447131484
2732.0,0.008774254997811896
2731.0,0.00875828474396818
2730.0,0.008731802779825406
2729.0,0.00869554655979742
2728.0,0.008657870312731788
2727.0,0.008623723669784433
2726.0,0.00859231978228389
2725.0,0.008563692367245048
2724.0,0.008543687900644427
2723.0,0.008542376054448037
2722.0,0.008565246590669465
2721.0,0.008602527584479706
2720.0,0.00863107724197373
2719.0,0.008632145077879749
2718.0,0.008604946202542001
2717.0,0.00855879113672597
2716.0,0.00850038418968506
2715.0,0.008439429346536926
2714.0,0.008396429328784915
2713.0,0.008386949950359655
2712.0,0.00840027934009907
2711.0,0.008409992175721604
2710.0,0.008405229751878279
2709.0,0.00839573137565922
2708.0,0.008388885061534276
2707.0,0.008380716335139997
2706.0,0.008370511897062527
2705.0,0.008365118268141321
2704.0,0.008362333189591087
2703.0,0.008346390063649269
2702.0,0.008308178859464286
2701.0,0.008258236577196437
2700.0,0.008213622833653188
2699.0,0.008182657879654982
2698.0,0.008166659357871437
2697.0,0.008164693309689818
2696.0,0.008170332923452706
2695.0,0.008173073868761888
2694.0,0.008168305285359053
2693.0,0.008158375932415479
2692.0,0.008143180489836092
2691.0,0.008120160643844946
2690.0,0.00809523420292991
2689.0,0.008082314481184448
2688.0,0.008087163493397108
2687.0,0.008099782111266501
2686.0,0.008105761273109626
2685.0,0.008098943826603627
2684.0,0.008083256234636835
2683.0,0.008068718764702837
2682.0,0.008062947451952407
2681.0,0.008059253605442592
2680.0,0.008039713697798156
2679.0,0.008001211306357314
2678.0,0.00797056020375936
2677.0,0.007976155766309004
2676.0,0.008009888213606242
2675.0,0.008036639648518393
2674.0,0.00803896829325655
2673.0,0.008031358342719725
2672.0,0.008028607465223384
2671.0,0.008024028760978451
2670.0,0.008006300774390757
2669.0,0.007979617315917988
2668.0,0.007956264694432497
2667.0,0.007943099263467363
2666.0,0.00794362201410058
2665.0,0.007961721399598458
2664.0,0.007995252561329482
2663.0,0.008033800686765057
2662.0,0.008067653992522567
2661.0,0.008092262891357414
2660.0,0.008103867959871445
2659.0,0.008101236718378226
2658.0,0.008091482883201677
2657.0,0.00808271280949707
2656.0,0.008071567130254326
2655.0,0.008051641678533951
2654.0,0.008032084897618908
2653.0,0.008030500105880595
2652.0,0.00804586115667252
2651.0,0.008056709203704373
2650.0,0.00804948769422445
2649.0,0.008031987234213077
2648.0,0.008015949782570923
2647.0,0.008003755938498808
2646.0,0.007996232690906472
2645.0,0.007994495049462806
2644.0,0.00798882576086489
2643.0,0.00796425877881463
2642.0,0.0079243612726829
2641.0,0.007892370443458146
2640.0,0.007881508001121817
2639.0,0.007878469210965298
2638.0,0.007861923870235531
2637.0,0.007823915374697996
2636.0,0.007771886743112579
2635.0,0.007725426507330425
2634.0,0.00770803001105631
2633.0,0.007721207850118402
2632.0,0.007728738104014943
2631.0,0.007693987615569867
2630.0,0.007632504284506972
2629.0,0.007595947704783255
2628.0,0.007599413344099982
2627.0,0.007602847284326983
2626.0,0.007575516408475296
2625.0,0.00754022164922781
2624.0,0.0075296386358015815
2623.0,0.007532460035554326
2622.0,0.007515230002545229
2621.0,0.007474556463251918
2620.0,0.007436076008414578
2619.0,0.007412841467423523
2618.0,0.007393238919467686
2617.0,0.0073639497785260195
2616.0,0.007324335710831381
2615.0,0.007281405413425869
2614.0,0.007243915250681887
2613.0,0.00721722006853584
2612.0,0.007197428705400119
2611.0,0.0071789627783215085
2610.0,0.00716972732489151
2609.0,0.007183482121875983
2608.0,0.00721471215916253
2607.0,0.007240919351758041
2606.0,0.007253493720017934
2605.0,0.007262971202610361
2604.0,0.007268382929750667
2603.0,0.007249412834761113
2602.0,0.007201009016354501
2601.0,0.0071491312497751845
2600.0,0.007116307966773932
2599.0,0.0070965438566742475
2598.0,0.007079600196367376
2597.0,0.007074116206654532
2596.0,0.007086323140316044
2595.0,0.007098026357192385
2594.0,0.0070877386268138245
2593.0,0.007056297297299575
2592.0,0.007014415576919286
2591.0,0.006963525520708677
2590.0,0.006907226947068873
2589.0,0.00686320451804121
2588.0,0.006843240164149291
2587.0,0.006836473822345676
2586.0,0.006829265658640494
2585.0,0.006825168717544676
2584.0,0.006829336680377392
2583.0,0.006831019908215836
2582.0,0.006819463588800834
2581.0,0.006801454630334919
2580.0,0.006786184678414348
2579.0,0.006769317180245482
2578.0,0.006749148259979241
2577.0,0.006741648422143601
2576.0,0.0067598578146254775
2575.0,0.006791869064736765
2574.0,0.006816857156933262
2573.0,0.0068299960875521015
2572.0,0.006833455628074075
2571.0,0.006815816096013914
2570.0,0.006762674563739053
2569.0,0.006683796899232308
2568.0,0.006613629569201323
2567.0,0.006584366510727348
2566.0,0.006603093972703429
2565.0,0.006649033068802188
2564.0,0.006689668246827327
2563.0,0.0067092328771916785
2562.0,0.006722997201525416
2561.0,0.00675019801945438
2560.0,0.006774864937695824
2559.0,0.00675608028490304
2558.0,0.006682483535443394
2557.0,0.006594464961158847
2556.0,0.0065404657656767335
2555.0,0.006528273868635431
2554.0,0.006531163394938924
2553.0,0.006524815797598256
2552.0,0.006504571434698345
2551.0,0.006480166763299742
2550.0,0.0064667596385559025
2549.0,0.0064734360157842445
2548.0,0.006493426162503136
2547.0,0.006511864676620243
2546.0,0.006523020445006532
2545.0,0.00653012974202922
2544.0,0.006532759044515912
2543.0,0.006529681571633613
2542.0,0.006529061801863311
2541.0,0.006535936137851985
2540.0,0.006534236128895798
2539.0,0.0065051531313358715
2538.0,0.006460717235620364
2537.0,0.006433762101976732
2536.0,0.0064351973190990034
2535.0,0.006447814444161694
2534.0,0.006461773513254929
2533.0,0.006484764647217961
2532.0,0.006513913882101195
2531.0,0.006531471260788073
2530.0,0.006538793904079379
2529.0,0.006565237286757434
2528.0,0.006629656274087466
2527.0,0.00671512327061131
2526.0,0.006790005838754961
2525.0,0.006830795881423308
2524.0,0.0068208398993430406
2523.0,0.006758664134637953
2522.0,0.006679838651240224
2521.0,0.0066413404879630406
2520.0,0.0066648803269023825
2519.0,0.00671500396640161
2518.0,0.00674438798610047
2517.0,0.006738586515831388
2516.0,0.006707952058734791
2515.0,0.006666150217168765
2514.0,0.00663433211343997
2513.0,0.006638732607996727
2512.0,0.006678546293854822
2511.0,0.006713038541087283
2510.0,0.00670367588096742
2509.0,0.006659756854481406
2508.0,0.006624344753452988
2507.0,0.006621485528197559
2506.0,0.006632100272450486
2505.0,0.006618839130992345
2504.0,0.0065653908914367785
2503.0,0.006492978441351255
2502.0,0.0064411183158673245
2501.0,0.006429355362295527
2500.0,0.006440137169107699
2499.0,0.006443902464813055
2498.0,0.006431340101343895
2497.0,0.006409557529139879
2496.0,0.006379410677411118
2495.0,0.006338029880905721
2494.0,0.006297116440870104
2493.0,0.006275657611158001
2492.0,0.00627580171475886
2491.0,0.006284478714894418
2490.0,0.006294164181407217
2489.0,0.006302560710393822
2488.0,0.006299016270453804
2487.0,0.006274719730938526
2486.0,0.006241760108204249
2485.0,0.006219767742432463
2484.0,0.006208948659770805
2483.0,0.0061983313973253676
2482.0,0.006191815555534107
2481.0,0.006198823831701439
2480.0,0.006205895734827804
2479.0,0.006187698751424316
2478.0,0.006144565705450019
2477.0,0.006103474970856537
2476.0,0.00608555489878366
2475.0,0.006096151398349796
2474.0,0.006135656746689651
2473.0,0.006187946147541197
2472.0,0.006208400772186654
2471.0,0.006163577759824443
2470.0,0.006082707627691602
2469.0,0.006034162644692036
2468.0,0.0060472847318831895
2467.0,0.0060879502598773175
2466.0,0.006110850661172356
2465.0,0.006102436285571041
2464.0,0.006072759369927831
2463.0,0.006041610094165367
2462.0,0.006038234676036248
2461.0,0.006081522521878908
2460.0,0.00615211861032891
2459.0,0.006209863517296639
2458.0,0.006240244186592349
2457.0,0.006257965079571303
2456.0,0.0062701736906561065
2455.0,0.006270095134501055
2454.0,0.006264840235160852
2453.0,0.006271525521897705
2452.0,0.006282474789886041
2451.0,0.006271175597842427
2450.0,0.00623864290636589
2449.0,0.006218800057131186
2448.0,0.00623023675399496
2447.0,0.006254391684474473
2446.0,0.006267477912380547
2445.0,0.006263577730707295
2444.0,0.006242595185083113
2443.0,0.006206358542873827
2442.0,0.006170460553918135
2441.0,0.006150737320783118
2440.0,0.006136974562730901
2439.0,0.006109662380030293
2438.0,0.0060797443744550405
2437.0,0.006077807507954633
2436.0,0.006106638778978918
2435.0,0.0061398333011592485
2434.0,0.006162910864110178
2433.0,0.006178303376336695
2432.0,0.0061774712962413564
2431.0,0.006153000670120913
2430.0,0.006133245498364442
2429.0,0.006154277694505367
2428.0,0.00619642230587114
2427.0,0.006200601849918366
2426.0,0.006152367147325031
2425.0,0.006097503322767417
2424.0,0.006067753989848184
2423.0,0.0060467144490854935
2422.0,0.0060222387739654205
2421.0,0.0060143636237778636
2420.0,0.006027911947137279
2419.0,0.006029063879403785
2418.0,0.0059973970441749335
2417.0,0.005959928044131308
2416.0,0.005948734731726441
2415.0,0.005961948666025736
2414.0,0.005988899586147017
2413.0,0.006034392414166682
2412.0,0.0060919351126378736
2411.0,0.006129170198340291
2410.0,0.0061279920996976465
2409.0,0.006109555026316846
2408.0,0.0060967517667893135
2407.0,0.006082860041553857
2406.0,0.00605865604294123
2405.0,0.006036952562063307
2404.0,0.006027149791731733
2403.0,0.006016942626181001
2402.0,0.006001519207956795
2401.0,0.005999833418031981
2400.0,0.0060170880337419045
2399.0,0.006021747209592631
2398.0,0.0059894822195450505
2397.0,0.005944454661894482
2396.0,0.005926852281032806
2395.0,0.005940070511595724
2394.0,0.005958105418014568
2393.0,0.005966646585425912
2392.0,0.005970141602866442
2391.0,0.005973105499856203
2390.0,0.005979409526332556
2389.0,0.005999852418003268
2388.0,0.006038457772915086
2387.0,0.006078375231194173
2386.0,0.006098449259845839
2385.0,0.0060975265155493
2384.0,0.006091113238616177
2383.0,0.006092302651140796
2382.0,0.006105437067582551
2381.0,0.006126249512231403
2380.0,0.006134330571872366
2379.0,0.006097605979223235
2378.0,0.006002981668954706
2377.0,0.005875853438211019
2376.0,0.005756242976927283
2375.0,0.005667288511052526
2374.0,0.005619512439892401
2373.0,0.005619496212861159
2372.0,0.005645027678417059
2371.0,0.005642362025305898
2370.0,0.005596541181415557
2369.0,0.0055862613657165555
2368.0,0.005709441114381598
2367.0,0.005948358075762954
2366.0,0.0061529729668052865
2365.0,0.006176091119946645
2364.0,0.0060209888746122625
2363.0,0.005861275533982136
2362.0,0.005897462015812092
2361.0,0.006155089016751834
2360.0,0.006426962408956981
2359.0,0.00648656824233259
2358.0,0.006339876094029038
2357.0,0.006178741005258416
2356.0,0.006149264207664139
2355.0,0.0062437887380782904
2354.0,0.006364830673854616
2353.0,0.006411387162991049
2352.0,0.006347257872407957
2351.0,0.006249039498000596
2350.0,0.006221969749729039
2349.0,0.006291007826051801
2348.0,0.006398676467771068
2347.0,0.0064781545370590785
2346.0,0.00652347726883864
2345.0,0.0065578341694132215
2344.0,0.006573243489459896
2343.0,0.006556873831801655
2342.0,0.006537864482810787
2341.0,0.006543821716594843
2340.0,0.006544575040543001
2339.0,0.006524326171352646
2338.0,0.006534305579597071
2337.0,0.006620750756611568
2336.0,0.006721851719711724
2335.0,0.006723945806035456
2334.0,0.006597860810981135
2333.0,0.0064173082972044946
2332.0,0.0062676818354545
2331.0,0.0062047146167855316
2330.0,0.006288839787362157
2329.0,0.006561130375153757
2328.0,0.006977335574863649
2327.0,0.007407457105378072
2326.0,0.007730322401326121
2325.0,0.007865172720467807
2324.0,0.007803058342348608
2323.0,0.007631389908906458
2322.0,0.0074984332649200985
2321.0,0.007470745446477009
2320.0,0.007458441948187424
2319.0,0.0073578845034793445
2318.0,0.007198719275862348
2317.0,0.007083968547302952
2316.0,0.007034687643574946
2315.0,0.006985221873988358
2314.0,0.006905421879149104
2313.0,0.006839056077457796
2312.0,0.006829643453600694
2311.0,0.006867880973570021
2310.0,0.006932354058009274
2309.0,0.006998331372962241
2308.0,0.007022649208076986
2307.0,0.006971238045243227
2306.0,0.006882580416520348
2305.0,0.0068289098981789255
2304.0,0.006832105827372031
2303.0,0.006858372780488833
2302.0,0.0068952451026775925
2301.0,0.006956340063218806
2300.0,0.007018000762151755
2299.0,0.007021710276296064
2298.0,0.006964632209519002
2297.0,0.006912594510683653
2296.0,0.006914022700551319
2295.0,0.006949350288335318
2294.0,0.0069933290004891525
2293.0,0.0070525546112640836
2292.0,0.007123783190116168
2291.0,0.0071698646692648265
2290.0,0.007176361226590355
2289.0,0.0071757488889930155
2288.0,0.007185295530519066
2287.0,0.007168555902249713
2286.0,0.0070974169211945794
2285.0,0.007006364114783659
2284.0,0.00694479073998959
2283.0,0.006913059502038972
2282.0,0.006880117835325014
2281.0,0.00683542474141056
2280.0,0.006790825623825875
2279.0,0.006757389093364071
2278.0,0.006740797058211717
2277.0,0.006735182070795803
2276.0,0.006709613922050593
2275.0,0.006636495972301574
2274.0,0.006540165643827903
2273.0,0.0064780326701811206
2272.0,0.006472140686925221
2271.0,0.006502310218490662
2270.0,0.006556840793547251
2269.0,0.0066236946006869085
2268.0,0.006644185260465247
2267.0,0.00655910722994898
2266.0,0.0064155568706069956
2265.0,0.006342243240206408
2264.0,0.006396075653556896
2263.0,0.00649955221081815
2262.0,0.00655305607117585
2261.0,0.006532417519467637
2260.0,0.006464394198887456
2259.0,0.006378114146437828
2258.0,0.006305578361332371
2257.0,0.006261619129743246
2256.0,0.00620465088858881
2255.0,0.0060812722114675435
2254.0,0.005920323161888973
2253.0,0.005814526748441204
2252.0,0.005808487527627447
2251.0,0.005871915177251549
2250.0,0.005970418677512815
2249.0,0.0060694055663716795
2248.0,0.00608823837705593
2247.0,0.005964670059697295
2246.0,0.0057757399708193435
2245.0,0.0056820153385573795
2244.0,0.005739601709586004
2243.0,0.005863044843430288
2242.0,0.005980966634225289
2241.0,0.00609951968457859
2240.0,0.00620356763081416
2239.0,0.00622522078623477
2238.0,0.006152965183803622
2237.0,0.006055236548391314
2236.0,0.005962879414027498
2235.0,0.005839115874042182
2234.0,0.005697201611968269
2233.0,0.005624218511625249
2232.0,0.005645034565125411
2231.0,0.005682432949137261
2230.0,0.005688273061154207
2229.0,0.005693076008644036
2228.0,0.005698112140136232
2227.0,0.005652372428999661
2226.0,0.005580889781661805
2225.0,0.005596131084509584
2224.0,0.005727878297060879
2223.0,0.0058695608558373275
2222.0,0.00594143570070963
2221.0,0.005968562089807664
2220.0,0.005947630092661826
2219.0,0.0057961145694550185
2218.0,0.005517950877450536
2217.0,0.0052809986576792456
2216.0,0.005222721540658513
2215.0,0.0052829905874422125
2214.0,0.005319882861245451
2213.0,0.005300188096401018
2212.0,0.0052965805238321655
2211.0,0.005371123111018016
2210.0,0.005517887974584483
2209.0,0.005655774395153007
2208.0,0.005663370563478585
2207.0,0.0055123732508479805
2206.0,0.005353448340562214
2205.0,0.005358825588235288
2204.0,0.005483437051022887
2203.0,0.00553112176231905
2202.0,0.0054466122395895305
2201.0,0.005359367488569048
2200.0,0.005336974219330018
2199.0,0.005301974794534237
2198.0,0.00523847618264251
2197.0,0.005270657255342323
2196.0,0.005452166512132
2195.0,0.00566857897571684
2194.0,0.005826384336688516
2193.0,0.0059563384173748875
2192.0,0.0060595407408830515
2191.0,0.006034838251741083
2190.0,0.005859611521145268
2189.0,0.00567416491955501
2188.0,0.005589264030109872
2187.0,0.005565954517696863
2186.0,0.005561000884409026
2185.0,0.005603216677902835
2184.0,0.005639879684783666
2183.0,0.005523347535590351
2182.0,0.005268777951237434
2181.0,0.0051078844441137545
2180.0,0.0051568840261713884
2179.0,0.00524052151685996
2178.0,0.005170791328234554
2177.0,0.005008709596946116
2176.0,0.0049209522769373525
2175.0,0.004946364282963497
2174.0,0.005043286383124916
2173.0,0.005194190527379366
2172.0,0.005331417382681162
2171.0,0.005323078685689766
2170.0,0.00515858395361134
2169.0,0.005012685454742878
2168.0,0.005017163103867372
2167.0,0.00510686576344566
2166.0,0.005197196826515739
2165.0,0.005333438273027428
2164.0,0.005519025751542075
2163.0,0.0055577829692983385
2162.0,0.00522242511742018
2161.0,0.004493433526233417
2160.0,0.003554738598145236
2159.0,0.002685529669467564
2158.0,0.002214626571867518
2157.0,0.0023234487190183536
2156.0,0.002798066893222422
2155.0,0.0031926445838307317
2154.0,0.0032828336951005966
2153.0,0.003202917334097809
2152.0,0.003166362716628275
2151.0,0.0032177182669734616
2150.0,0.003320739558687491
2149.0,0.003489136432126913
2148.0,0.003729930668302088
2147.0,0.00398618906922499
2146.0,0.004191446833727011
2145.0,0.004287829323380374
2144.0,0.004192111760374946
2143.0,0.0038829547375426477
2142.0,0.0035201353860061005
2141.0,0.003338058969284815
2140.0,0.0033802647680078383
2139.0,0.0034759679477973336
2138.0,0.0034762164882649288
2137.0,0.0033774256135313987
2136.0,0.0032231443284188193
2135.0,0.0030584011893476505
2134.0,0.0029948552584328006
2133.0,0.0031476107547341366
2132.0,0.0034683028988444667
2131.0,0.0037731699686578846
2130.0,0.0039600495848305835
2129.0,0.004079324389164779
2128.0,0.0041946439597789495
2127.0,0.004291530844950186
2126.0,0.004350913374475966
2125.0,0.0043960149705306525
2124.0,0.004436590593713776
2123.0,0.004460547856612987
2122.0,0.004500076073612568
2121.0,0.004607922147000348
2120.0,0.004754388630228556
2119.0,0.004854755097905236
2118.0,0.004909038099030455
2117.0,0.005001456235384006
2116.0,0.005137982664020053
2115.0,0.005209397474644385
2114.0,0.0051578177002600326
2113.0,0.00506779990362182
2112.0,0.005036595878708258
2111.0,0.005056755734726613
2110.0,0.005077413276866465
2109.0,0.005080105169300633
2108.0,0.0050508137250001505
2107.0,0.004973921037587488
2106.0,0.0048935931341590935
2105.0,0.004878498291617151
2104.0,0.004893666302443858
2103.0,0.004823781880102624
2102.0,0.004666095013874758
2101.0,0.004570659495473196
2100.0,0.004630947342234587
2099.0,0.004747394561443296
2098.0,0.004770273429718083
2097.0,0.004670312449601188
2096.0,0.004510345458967809
2095.0,0.0043535252533823295
2094.0,0.004269273313599083
2093.0,0.004326262429233281
2092.0,0.00450678155061463
2091.0,0.004705633983905092
2090.0,0.004854558872506515
2089.0,0.004980179697525115
2088.0,0.005104914604285572
2087.0,0.005185467418046921
2086.0,0.005186324499784148
2085.0,0.005129055727716094
2084.0,0.005038837407058321
2083.0,0.004931175356875559
2082.0,0.004872542979145107
2081.0,0.004944118476139472
2080.0,0.005107053443480331
2079.0,0.005215499939912617
2078.0,0.0052047397955799135
2077.0,0.00515175464138114
2076.0,0.0051203959026880535
2075.0,0.00507761478062996
2074.0,0.005009626692911775
2073.0,0.004979292216848575
2072.0,0.00500123855247441
2071.0,0.004990148306691464
2070.0,0.004905504989363392
2069.0,0.00482290694349633
2068.0,0.0047988094452829705
2067.0,0.004784517187434196
2066.0,0.004737659768959598
2065.0,0.004700485782690834
2064.0,0.004701365330687881
2063.0,0.004701292114676903
2062.0,0.004696101338052476
2061.0,0.004739816174030543
2060.0,0.004826019797700524
2059.0,0.004872202362295774
2058.0,0.0048518279823300805
2057.0,0.004815033759505428
2056.0,0.004774273549993711
2055.0,0.004731324534592738
2054.0,0.004808889452919318
2053.0,0.005134737451198938
2052.0,0.00555360606770675
2051.0,0.005681826230840631
2050.0,0.0053501260903233705
2049.0,0.004838140864515613
2048.0,0.0045046436933305675
2047.0,0.004373003886437226
2046.0,0.0042923494305862646
2045.0,0.004223867408089253
2044.0,0.0041786572632558595
2043.0,0.004100690413818406
2042.0,0.0039940506786434625
2041.0,0.003977993958162215
2040.0,0.004071189342547306
2039.0,0.0041413850777480355
2038.0,0.00416814791908941
2037.0,0.004279915105427191
2036.0,0.004431502871969992
2035.0,0.004359889155512825
2034.0,0.004013051931479086
2033.0,0.003696783096226745
2032.0,0.0036056750572614404
2031.0,0.0035550551006100907
2030.0,0.0033889069376585386
2029.0,0.0032734966895535647
2028.0,0.0033634990749052684
2027.0,0.0035037219423618244
2026.0,0.0035100195007319824
2025.0,0.003455302057258616
2024.0,0.0034463231195035766
2023.0,0.0033717927324893914
2022.0,0.0031262766842817236
2021.0,0.002847403156231844
2020.0,0.002715079849775719
2019.0,0.0027151167621334367
2018.0,0.0027778009838687464
2017.0,0.0029418182722862666
2016.0,0.0032089500048015835
2015.0,0.003461875647775683
2014.0,0.0036469262496973747
2013.0,0.003801135121114384
2012.0,0.0038588624638552444
2011.0,0.0036775134404338048
2010.0,0.0033357359778903597
2009.0,0.003154868695766608
2008.0,0.0032788901913271004
2007.0,0.003481194100165388
2006.0,0.003536171621263712
2005.0,0.0034837252112319026
2004.0,0.003427457171499593
2003.0,0.0033596729504676653
2002.0,0.0032972329803777085
2001.0,0.0033392045870426473
2000.0,0.003486687211274847
1999.0,0.0036196179429039592
1998.0,0.0037109949973052106
1997.0,0.003857186335733761
1996.0,0.004027808924168531
1995.0,0.004036863711964363
1994.0,0.0038454756117076608
1993.0,0.0036909076315105272
1992.0,0.003763406705734286
1991.0,0.003930350871146055
1990.0,0.00401853343354713
1989.0,0.004067319783146742
1988.0,0.0041336682739060715
1987.0,0.004150966593200746
1986.0,0.004117522009508211
1985.0,0.004193903309959957
1984.0,0.00446676328034495
1983.0,0.004802652313587663
1982.0,0.005041832667197391
1981.0,0.0051398243328759615
1980.0,0.0050230807229970495
1979.0,0.004572459866965407
1978.0,0.003911961022461608
1977.0,0.003440316263258489
1976.0,0.0033405353744242095
1975.0,0.003387670042485269
1974.0,0.003388781464180947
1973.0,0.003442763165729741
1972.0,0.0036261006747923944
1971.0,0.0037663029162618785
1970.0,0.0037093391430084205
1969.0,0.0035431073980467646
1968.0,0.0034066299537043043
1967.0,0.003290200704375964
1966.0,0.0031830020942923173
1965.0,0.003177304337008573
1964.0,0.0032646218639041176
1963.0,0.003289017767153639
1962.0,0.0031859586161267646
1961.0,0.0030631436153320977
1960.0,0.0029795077108199213
1959.0,0.0028648848328840155
1958.0,0.0027396777025834296
1957.0,0.0027626890507702925
1956.0,0.0029728999451804575
1955.0,0.003200988161375066
1954.0,0.0033169419674961725
1953.0,0.0033670421054199425
1952.0,0.0033989723762186015
1951.0,0.0033677209301293783
1950.0,0.0032963924108020183
1949.0,0.003300159237606425
1948.0,0.0033862325464760366
1947.0,0.0034240544520036443
1946.0,0.003375219649283977
1945.0,0.0033606522887574273
1944.0,0.0034231169581118216
1943.0,0.0034217061863686103
1942.0,0.0032845526722652
1941.0,0.003158193666400204
1940.0,0.0031421635815914993
1939.0,0.003160073566120106
1938.0,0.0031651541428976467
1937.0,0.003222328260632326
1936.0,0.003334453876040841
1935.0,0.0033771665423907656
1934.0,0.003297778771093185
1933.0,0.0032200336097937825
1932.0,0.0032491204265544895
1931.0,0.0033188300924654364
1930.0,0.003336183676011562
1929.0,0.0033011042529375676
1928.0,0.003238717131870975
1927.0,0.00315192709472373
1926.0,0.0030873539237729797
1925.0,0.0031323381939014723
1924.0,0.0032526802412471546
1923.0,0.0032907417733504542
1922.0,0.003199545125621888
1921.0,0.0031249155522510056
1920.0,0.003139623495627606
1919.0,0.003154783225263565
1918.0,0.0031251786856447456
1917.0,0.0031339847098242196
1916.0,0.003206621160667652
1915.0,0.0032534571189441253
1914.0,0.0032305050209998696
1913.0,0.00321237924782186
1912.0,0.0032515140227047236
1911.0,0.003286776270695926
1910.0,0.0032709747191935336
1909.0,0.00325752070708122
1908.0,0.003284647122379932
1907.0,0.003299715416613395
1906.0,0.003273700631583047
1905.0,0.0032658359267304427
1904.0,0.003290137218748466
1903.0,0.0032863379966658317
1902.0,0.0032405380736225844
1901.0,0.0032161882931491647
1900.0,0.0032341167754072033
1899.0,0.003237863934818129
1898.0,0.0032077014700432273
1897.0,0.0032017508748293086
1896.0,0.003225819759536587
1895.0,0.0032103695556372747
1894.0,0.0031679616476822615
1893.0,0.003208723821980033
1892.0,0.0033443342775347938
1891.0,0.003443302610135924
1890.0,0.003414028242967851
1889.0,0.0033275887256529776
1888.0,0.003275599517630908
1887.0,0.0032376959363101887
1886.0,0.0031823244877783336
1885.0,0.0031508359509061475
1884.0,0.003167378882663981
1883.0,0.0031811452754243502
1882.0,0.00316718933633133
1881.0,0.003164804173642146
1880.0,0.003183146446882626
1879.0,0.003171269830672966
1878.0,0.0031205441430142682
1877.0,0.0031028117963174755
1876.0,0.0031381154839341886
1875.0,0.0031504339104004367
1874.0,0.003115817247081515
1873.0,0.003113232960968364
1872.0,0.0031761858483796966
1871.0,0.0032238475574491807
1870.0,0.00320339409596996
1869.0,0.0032026803588334667
1868.0,0.003249098078007014
1867.0,0.003226091459282587
1866.0,0.0031320930228781576
1865.0,0.003062549688593732
1864.0,0.003037338034920844
1863.0,0.0029971394065714686
1862.0,0.0029282364045765644
1861.0,0.0029017990848627857
1860.0,0.0029497157638886636
1859.0,0.003007779310310115
1858.0,0.003036904644059283
1857.0,0.0030753421770778576
1856.0,0.0031286429343298306
1855.0,0.0031342751454947965
1854.0,0.0030829659065745208
1853.0,0.003051295650648645
1852.0,0.003075329618516708
1851.0,0.0031025117953626417
1850.0,0.00307845910812371
1849.0,0.0030470660312984176
1848.0,0.0030553220516928493
1847.0,0.003060839244365278
1846.0,0.0030153749866835863
1845.0,0.0029857869795945607
1844.0,0.00303867754805375
1843.0,0.00308455534052566
1842.0,0.0031113092563439986
1841.0,0.003188967700536724
1840.0,0.0032889824755250882
1839.0,0.0033279791129929856
1838.0,0.0032990567147813815
1837.0,0.003294063160752851
1836.0,0.003341262877989866
1835.0,0.003373012640020623
1834.0,0.0033730778125738055
1833.0,0.003403446998300038
1832.0,0.003472166462115775
1831.0,0.003495053975812715
1830.0,0.003441571348071609
1829.0,0.0034319917191954563
1828.0,0.003531029729285119
1827.0,0.003638836512568527
1826.0,0.003668804923097022
1825.0,0.0036863309632398965
1824.0,0.0037474111039929644
1823.0,0.003789369772048262
1822.0,0.0037877119388891765
1821.0,0.0037933822385458754
1820.0,0.00381715849752766
1819.0,0.0037887262132381763
1818.0,0.003702945318068766
1817.0,0.003680464120758501
1816.0,0.00376743233780964
1815.0,0.003869259883792538
1814.0,0.003924044338099036
1813.0,0.003985535558100362
1812.0,0.0041009652481417
1811.0,0.004195276104663171
1810.0,0.0042335930308911324
1809.0,0.00430600990928822
1808.0,0.004431568770728495
1807.0,0.0045168937516527905
1806.0,0.004538504534988566
1805.0,0.004585645324463267
1804.0,0.004696566757695755
1803.0,0.004801081403527985
1802.0,0.004877507452885534
1801.0,0.005029056998212798
1800.0,0.0052782898360847295
1799.0,0.005464453457713117
1798.0,0.005546585187816752
1797.0,0.0056549285805956254
1796.0,0.00585277769828855
1795.0,0.006047528179278552
1794.0,0.006185200735649658
1793.0,0.006430158566739324
1792.0,0.006916179626275854
1791.0,0.007409435957772444
1790.0,0.0077894793052104925
1789.0,0.008208582799630033
1788.0,0.00873919493964443
1787.0,0.009361340756695254
1786.0,0.01012106318219611
1785.0,0.011081720161636787
1784.0,0.012117193272093263
1783.0,0.013054925828781216
1782.0,0.013991526417193844
1781.0,0.015188578402531145
1780.0,0.016620700855344332
1779.0,0.017893602270943724
1778.0,0.018885792781411836
1777.0,0.019811776976680854
1776.0,0.02077937094598514
1775.0,0.0216916996613386
1774.0,0.02262174874993444
1773.0,0.024162208749421224
1772.0,0.026500612967492763
1771.0,0.028545825022405446
1770.0,0.029910607085727625
1769.0,0.031346389458229956
1768.0,0.03326578835364059
1767.0,0.03529824182825992
1766.0,0.03697729005973413
1765.0,0.038414420360185775
1764.0,0.040085958739657764
1763.0,0.042536445204430555
1762.0,0.04592943087790451
1761.0,0.04938057475069569
1760.0,0.05188208785084324
1759.0,0.053566500974363024
1758.0,0.05535641207703692
1757.0,0.05783380602223485
1756.0,0.060249784536727254
1755.0,0.061474746801219546
1754.0,0.061635288948769226
1753.0,0.06162465760492358
1752.0,0.062165020805520166
1751.0,0.06328466896023313
1750.0,0.06443081147451142
1749.0,0.06535081305427247
1748.0,0.06586544724674641
1747.0,0.06556410159683053
1746.0,0.06446770514381012
1745.0,0.06300379107565264
1744.0,0.0613697830477406
1743.0,0.05940139730314549
1742.0,0.056958900528296004
1741.0,0.053991635668203586
1740.0,0.0504279125355967
1739.0,0.04658677320831395
1738.0,0.04316078454334398
1737.0,0.040263974765634425
1736.0,0.037298491872758736
1735.0,0.033494320923231326
1734.0,0.029123505025119227
1733.0,0.025732595517738585
1732.0,0.02356324603916407
1731.0,0.021843723500256772
1730.0,0.020253336690847307
1729.0,0.018816354411784097
1728.0,0.01760205329615932
1727.0,0.016629144841428127
1726.0,0.015850357698300607
1725.0,0.015193650230956965
1724.0,0.01461734143775498
1723.0,0.014124961302832237
1722.0,0.013749524537744803
1721.0,0.01343837793154143
1720.0,0.013062019398644226
1719.0,0.012555034080149248
1718.0,0.012124776174203399
1717.0,0.011967962181866671
1716.0,0.011851791930442866
1715.0,0.011685786456064343
1714.0,0.011542806405534902
1713.0,0.01138546104041565
1712.0,0.011166888267902984
1711.0,0.010918220711669202
1710.0,0.010704477741123852
1709.0,0.010542686354638283
1708.0,0.010411321958435289
1707.0,0.010303832968503688
1706.0,0.01026388990015662
1705.0,0.010304588592207616
1704.0,0.0103653606547374
1703.0,0.010451886380208003
1702.0,0.010535748556102589
1701.0,0.010640795455277028
1700.0,0.010772243582277552
1699.0,0.010818178178147734
1698.0,0.01094000264984548
1697.0,0.011231474702586635
1696.0,0.01153554066519872
1695.0,0.011632695836771569
1694.0,0.011661242105219783
1693.0,0.011788535249158422
1692.0,0.011927935862836327
1691.0,0.012028662827753245
1690.0,0.012172172151810106
1689.0,0.01241041815820978
1688.0,0.01265645743995399
1687.0,0.012807773939829497
1686.0,0.012821515510718548
1685.0,0.01300582465726113
1684.0,0.013651781090464096
1683.0,0.014185314647908051
1682.0,0.014492691721796513
1681.0,0.014760677501156005
1680.0,0.014980434189443222
1679.0,0.015160213503219153
1678.0,0.015328725484011096
1677.0,0.015518823192829427
1676.0,0.015787158186598683
1675.0,0.01612252262831549
1674.0,0.016359856201776296
1673.0,0.016462843680869782
1672.0,0.016523756892247245
1671.0,0.016636859083068674
1670.0,0.01695812661413485
1669.0,0.017397672826881462
1668.0,0.017709591772270824
1667.0,0.01788385480606151
1666.0,0.01798818952549911
1665.0,0.018064167995740312
1664.0,0.018182985239132733
1663.0,0.018433066231815162
1662.0,0.018750106374731363
1661.0,0.01896820613949392
1660.0,0.0190980208702504
1659.0,0.01918098282954137
1658.0,0.019247121182442165
1657.0,0.01931243403158926
1656.0,0.019401940453991833
1655.0,0.019424191985006462
1654.0,0.019592726608422758
1653.0,0.020076715310287586
1652.0,0.02009419589946846
1651.0,0.019980215163336583
1650.0,0.020011476943601315
1649.0,0.01999720949189802
1648.0,0.019980658770013975
1647.0,0.02017450805480578
1646.0,0.02038110207957369
1645.0,0.0203770858710717
1644.0,0.020310337220730598
1643.0,0.02024963805377103
1642.0,0.02018005118499021
1641.0,0.020085239327607318
1640.0,0.019983264083826606
1639.0,0.01989521679535861
1638.0,0.019800151130437423
1637.0,0.01973477707295281
1636.0,0.019791441005037564
1635.0,0.019787601423974715
1634.0,0.019618236708518623
1633.0,0.019462803870263168
1632.0,0.019327158017310882
1631.0,0.0191646874855514
1630.0,0.018967608241862038
1629.0,0.0187539944481379
1628.0,0.018562024981522186
1627.0,0.018410617312030454
1626.0,0.01827144584298815
1625.0,0.018082234138770248
1624.0,0.01782567270706494
1623.0,0.017543654846088105
1622.0,0.017276450606331796
1621.0,0.017049573208190234
1620.0,0.016863275834406735
1619.0,0.01664806222527662
1618.0,0.016335493555878565
1617.0,0.015932246473478715
1616.0,0.015515844003346192
1615.0,0.015210883342636879
1614.0,0.015036440941858464
1613.0,0.014865562035609712
1612.0,0.014611027978430318
1611.0,0.014307911486958497
1610.0,0.014019573515899206
1609.0,0.013748549226596567
1608.0,0.013473911071661817
1607.0,0.013209344000925216
1606.0,0.012968298846556713
1605.0,0.012727194461556932
1604.0,0.012480702930920188
1603.0,0.01224034891518737
1602.0,0.012009504991943271
1601.0,0.011779570659207672
1600.0,0.011552600831841476
1599.0,0.011344974070129002
1598.0,0.01115805079554288
1597.0,0.010973706652522246
1596.0,0.010778870363219636
1595.0,0.01058567247902092
1594.0,0.010412564768797133
1593.0,0.01025353961922185
1592.0,0.010095724915361915
1591.0,0.009944268124047285
1590.0,0.009808936534016053
1589.0,0.009678044979904802
1588.0,0.009536200093727108
1587.0,0.009388436887248643
1586.0,0.009251187450653571
1585.0,0.00912127688249275
1584.0,0.008999212125860507
1583.0,0.008905757784039549
1582.0,0.008830224571332788
1581.0,0.008752893803578441
1580.0,0.008679623308100416
1579.0,0.008617933706599754
1578.0,0.008523846189996296
1577.0,0.008377235183153631
1576.0,0.008189370709838488
1575.0,0.008018402962943528
1574.0,0.007989931830374527
1573.0,0.008071617798488983
1572.0,0.008122205128942349
1571.0,0.008077645719317579
1570.0,0.0079995487303905
1569.0,0.007930264280000893
1568.0,0.007873637341262766
1567.0,0.007852063566969804
1566.0,0.007845287572040924
1565.0,0.007830060472992995
1564.0,0.007835551402161708
1563.0,0.007885720700538465
1562.0,0.007957535245980522
1561.0,0.007912329274340003
1560.0,0.007709609247239315
1559.0,0.007741651715291058
1558.0,0.007890809479131252
1557.0,0.007955623706992935
1556.0,0.008047509599549793
1555.0,0.00810821766303235
1554.0,0.008124012461535993
1553.0,0.00815074851806816
1552.0,0.008203988623072266
1551.0,0.008268734179942287
1550.0,0.008332715352331873
1549.0,0.008407930234330212
1548.0,0.008473054805200284
1547.0,0.008518462468890084
1546.0,0.008537563721351664
1545.0,0.008594096171327349
1544.0,0.00872918339211567
1543.0,0.008868602816525515
1542.0,0.008925327731650686
1541.0,0.009051817692000435
1540.0,0.00925300433011109
1539.0,0.009216350908465582
1538.0,0.009165220466507829
1537.0,0.009283537819832292
1536.0,0.009429424361239492
1535.0,0.009512444773408221
1534.0,0.009606285645202252
1533.0,0.009789390935434246
1532.0,0.009947296278732828
1531.0,0.01002745993429242
1530.0,0.01007606943521603
1529.0,0.010141520133300235
1528.0,0.010250720363915233
1527.0,0.01038807047316612
1526.0,0.010527052712103035
1525.0,0.010654341052379291
1524.0,0.010764311278336065
1523.0,0.010836871901362862
1522.0,0.010952537131675091
1521.0,0.011122860556291796
1520.0,0.011206917613963802
1519.0,0.011244459205177519
1518.0,0.011306026832041335
1517.0,0.011444908292625624
1516.0,0.011627014273796359
1515.0,0.011758738538939124
1514.0,0.011859144463735323
1513.0,0.011939977133628748
1512.0,0.012007972740950498
1511.0,0.01205038880420457
1510.0,0.012087908374271688
1509.0,0.012088762635683925
1508.0,0.012146249087158115
1507.0,0.012416967520122738
1506.0,0.012552089425865338
1505.0,0.012537545191826076
1504.0,0.012593113125538572
1503.0,0.012677966492859294
1502.0,0.01276281229050574
1501.0,0.012859463477896287
1500.0,0.012976557370920141
1499.0,0.013084085594575474
1498.0,0.013171108364694553
1497.0,0.013302521505097052
1496.0,0.01344047856129598
1495.0,0.013513671292538457
1494.0,0.01358959903686292
1493.0,0.013709513810148687
1492.0,0.013825740471113186
1491.0,0.013913136463858129
1490.0,0.014062883717715021
1489.0,0.014315770685200985
1488.0,0.014530014993131495
1487.0,0.014626977678449456
1486.0,0.014683962715038933
1485.0,0.014757118822535338
1484.0,0.014845234435783155
1483.0,0.014938244449415251
1482.0,0.015051911333579172
1481.0,0.01521650270610125
1480.0,0.015398101884063847
1479.0,0.015553072859785865
1478.0,0.01569846389569118
1477.0,0.01589885789451148
1476.0,0.016159048050366803
1475.0,0.016413167733874152
1474.0,0.01670217610963146
1473.0,0.017216201697055494
1472.0,0.017838853150326836
1471.0,0.018275387608044986
1470.0,0.018627253170069892
1469.0,0.01904359538559625
1468.0,0.019540596816135545
1467.0,0.0201534546663009
1466.0,0.021053620649665355
1465.0,0.022388428321938193
1464.0,0.023831195519834807
1463.0,0.024914197914823428
1462.0,0.025691912184787967
1461.0,0.026358065229131946
1460.0,0.02703233159340373
1459.0,0.02778109101722588
1458.0,0.02915249626914273
1457.0,0.03134846481860728
1456.0,0.0328089943759703
1455.0,0.033142954984796025
1454.0,0.033230101411272986
1453.0,0.03333254964880823
1452.0,0.03340346473245252
1451.0,0.03336515034330192
1450.0,0.033243304069346974
1449.0,0.033035225945584855
1448.0,0.03263386814908114
1447.0,0.032002974464248574
1446.0,0.03123120951868292
1445.0,0.030363063633563142
1444.0,0.029387524167339724
1443.0,0.028328229848420455
1442.0,0.02728428950084283
1441.0,0.026357423866747547
1440.0,0.025599288082141635
1439.0,0.024989446548592746
1438.0,0.024448319854764793
1437.0,0.023900573181400916
1436.0,0.023376694568307828
1435.0,0.02300100347911383
1434.0,0.022795647828155814
1433.0,0.022669372203310223
1432.0,0.022552290735559626
1431.0,0.022456622589170663
1430.0,0.02242315224331332
1429.0,0.022445529317448854
1428.0,0.02247394360498495
1427.0,0.022499281109362175
1426.0,0.022532419671889042
1425.0,0.022569193722926466
1424.0,0.022622236316015593
1423.0,0.022693368067668553
1422.0,0.022776767429058112
1421.0,0.022842731243374624
1420.0,0.022873653524860354
1419.0,0.022901562961259524
1418.0,0.022933503184035954
1417.0,0.02295088817993903
1416.0,0.022939290390519448
1415.0,0.02289171993855149
1414.0,0.022819978839827882
1413.0,0.022731676359083467
1412.0,0.02260955876091356
1411.0,0.02243789230979172
1410.0,0.022229034415957985
1409.0,0.022005412661916187
1408.0,0.021756929288246515
1407.0,0.021460373617528457
1406.0,0.021098449781399502
1405.0,0.020672727397319988
1404.0,0.020257353252855825
1403.0,0.019942797329792972
1402.0,0.01973793490974236
1401.0,0.019582232491760124
1400.0,0.019443705403017743
1399.0,0.01935600757895594
1398.0,0.019346804509033453
1397.0,0.019409001192373796
1396.0,0.01956405334934553
1395.0,0.01985663518260824
1394.0,0.020234268424338907
1393.0,0.02061078600697779
1392.0,0.020991354378361634
1391.0,0.0214001079775322
1390.0,0.021845962021300513
1389.0,0.022370756240325085
1388.0,0.02305910276441592
1387.0,0.023864750195311056
1386.0,0.02453813786157584
1385.0,0.02493165690091548
1384.0,0.025096554728593966
1383.0,0.02508853953808721
1382.0,0.02491046939387855
1381.0,0.024539310921834066
1380.0,0.02395178604050388
1379.0,0.023174703712279972
1378.0,0.022306043322505718
1377.0,0.02145412455538141
1376.0,0.020682997379587054
1375.0,0.020085663375660187
1374.0,0.019788948263743285
1373.0,0.01977431349180463
1372.0,0.019891525905686193
1371.0,0.020060571196171918
1370.0,0.02027721330919484
1369.0,0.02050811153968755
1368.0,0.020679873548165573
1367.0,0.020751054756112556
1366.0,0.020746325058486302
1365.0,0.02070090998665185
1364.0,0.02064504266038987
1363.0,0.020615666405906428
1362.0,0.02059836521440962
1361.0,0.02051763594437698
1360.0,0.02034596115506271
1359.0,0.020123309697905475
1358.0,0.019882312481176723
1357.0,0.019610456713289554
1356.0,0.019277047759491607
1355.0,0.01888121458044507
1354.0,0.018444135139815545
1353.0,0.01797063360925708
1352.0,0.017450719159630444
1351.0,0.016900943774335802
1350.0,0.016357738784280644
1349.0,0.015832493451745967
1348.0,0.015319678582093352
1347.0,0.014826963291814349
1346.0,0.01437430147720577
1345.0,0.013961165959214143
1344.0,0.013573967691408197
1343.0,0.013213419061213236
1342.0,0.01288736030177081
1341.0,0.012585340189250737
1340.0,0.012291000420128984
1339.0,0.012015351447636134
1338.0,0.011777303610468328
1337.0,0.01156000920046893
1336.0,0.011335360629398723
1335.0,0.01110657103237329
1334.0,0.010891945359084738
1333.0,0.010691479148461545
1332.0,0.010497431173407078
1331.0,0.010323155578447187
1330.0,0.010186627157500433
1329.0,0.01007737152948952
1328.0,0.009972914926913368
1327.0,0.009876264166790268
1326.0,0.009803687566962791
1325.0,0.009750017990979278
1324.0,0.009699140040848975
1323.0,0.009649237515497712
1322.0,0.009604621268622146
1321.0,0.009554552576963075
1320.0,0.009488320639571654
1319.0,0.00941974991552936
1318.0,0.009366879366535566
1317.0,0.00931967568319606
1316.0,0.009261154376173773
1315.0,0.009200041568543607
1314.0,0.009153371608527004
1313.0,0.009114998854908664
1312.0,0.009069679458344897
1311.0,0.00902500850836154
1310.0,0.008994494327434665
1309.0,0.008967046532590785
1308.0,0.008922424209944596
1307.0,0.00886539864553541
1306.0,0.008814855369325964
1305.0,0.008768727007155511
1304.0,0.00871168746511321
1303.0,0.008643347784046433
1302.0,0.008572946460940959
1301.0,0.008493199750907756
1300.0,0.00838839085435989
1299.0,0.008260623960435434
1298.0,0.008123361156826402
1297.0,0.007974696024406472
1296.0,0.0078029443540061985
1295.0,0.007613730201714106
1294.0,0.007427718479165162
1293.0,0.007260220371147725
1292.0,0.007124413648382268
1291.0,0.007044873885414568
1290.0,0.007045359219771631
1289.0,0.00713039236163187
1288.0,0.007295245963048126
1287.0,0.007541946200162812
1286.0,0.007869207957872191
1285.0,0.008261903495215769
1284.0,0.00870743549168573
1283.0,0.009209403305217414
1282.0,0.009770720035782617
1281.0,0.010371117710057456
1280.0,0.010975366411661965
1279.0,0.011558728196089586
1278.0,0.01211359115877406
1277.0,0.012637204627516382
1276.0,0.013124661660351616
1275.0,0.013574023512697545
1274.0,0.013986877140280629
1273.0,0.01436104069418057
1272.0,0.014688471953998302
1271.0,0.014962610923981313
1270.0,0.015182118569821556
1269.0,0.015346285572573153
1268.0,0.015454810179209164
1267.0,0.015511670722132886
1266.0,0.015519462277168928
1265.0,0.015471638001881952
1264.0,0.015363194601955673
1263.0,0.015208889279835883
1262.0,0.015035577519207376
1261.0,0.014854415818986635
1260.0,0.014656837826135714
1259.0,0.014439584346745093
1258.0,0.014214914638658427
1257.0,0.013994532579884495
1256.0,0.013782549255166653
1255.0,0.013585842113867878
1254.0,0.013412803449880575
1253.0,0.013262511594197213
1252.0,0.013132283761353832
1251.0,0.01303338591701585
1250.0,0.012979649422821066
1249.0,0.012963214686433758
1248.0,0.012961951626819571
1247.0,0.012969631094687416
1246.0,0.01300010290217914
1245.0,0.013062138918926446
1244.0,0.01314825412612216
1243.0,0.013251222643530191
1242.0,0.013374102073695347
1241.0,0.013519359337561588
1240.0,0.01368250722297128
1239.0,0.013861892635833241
1238.0,0.014063985203526332
1237.0,0.014294336257256048
1236.0,0.014551425971394097
1235.0,0.014832144283676105
1234.0,0.015135820108650253
1233.0,0.015461693375731927
1232.0,0.01581100475342993
1231.0,0.016194190982578134
1230.0,0.016627952916890752
1229.0,0.017120615628488812
1228.0,0.017666344795372216
1227.0,0.018257615228436795
1226.0,0.018896296108332104
1225.0,0.019585037331544108
1224.0,0.020312828985274433
1223.0,0.02106114752462643
1222.0,0.021824544968830517
1221.0,0.022612581897046544
1220.0,0.02342902833435211
1219.0,0.024262026391527386
1218.0,0.025097509950185712
1217.0,0.025924929536110752
1216.0,0.026723888519335624
1215.0,0.02746792726600432
1214.0,0.02815181763754878
1213.0,0.028791617271117995
1212.0,0.029386353056172432
1211.0,0.02990758242411059
1210.0,0.03034160080206126
1209.0,0.03071172889297985
1208.0,0.031044433561075988
1207.0,0.03134308240758651
1206.0,0.03160797789439497
1205.0,0.03185299468278032
1204.0,0.03209021097042118
1203.0,0.032327190914759045
1202.0,0.03259031116298863
1201.0,0.03292226050141231
1200.0,0.033346115773763174
1199.0,0.03385597556443029
1198.0,0.03444836122885766
1197.0,0.03513580301928778
1196.0,0.035924121989918956
1195.0,0.03681102592766549
1194.0,0.03781862356018276
1193.0,0.038990755696198726
1192.0,0.04034060226455497
1191.0,0.0418367070793688
1190.0,0.04346244683842102
1189.0,0.04524520213982686
1188.0,0.04719284268552092
1187.0,0.04924451763050192
1186.0,0.05132234180593172
1185.0,0.05337762136477892
1184.0,0.05532849625273478
1183.0,0.05700707975379499
1182.0,0.05823004083877352
1181.0,0.05885952004479536
1180.0,0.05874821380743665
1179.0,0.05773429875345627
1178.0,0.05577597675639406
1177.0,0.053007505508676105
1176.0,0.04963326053852634
1175.0,0.045873055315652195
1174.0,0.04199527267803944
1173.0,0.03826475358582784
1172.0,0.03483998843760563
1171.0,0.03178172192822766
1170.0,0.029124963877101
1169.0,0.026886411637129445
1168.0,0.025037097465790248
1167.0,0.02351890394283572
1166.0,0.022277520096852226
1165.0,0.021262559503709113
1164.0,0.020423105052405528
1163.0,0.01972713190933251
1162.0,0.019167634528983898
1161.0,0.01873482203502221
1160.0,0.018400827929926762
1159.0,0.018141775709177754
1158.0,0.01795405304657019
1157.0,0.017836948224997345
1156.0,0.017778614534330734
1155.0,0.01777170993656705
1154.0,0.017826784662812387
1153.0,0.017958935694224316
1152.0,0.01817492725981487
1151.0,0.018482245007691557
1150.0,0.018897136515462067
1149.0,0.01943632358665827
1148.0,0.020114441622317316
1147.0,0.02095566454956587
1146.0,0.021991621246327746
1145.0,0.0232356221815389
1144.0,0.02466790063563004
1143.0,0.026256870602125393
1142.0,0.027986938671118657
1141.0,0.029848377791392364
1140.0,0.03180119061679428
1139.0,0.0337752147060625
1138.0,0.03571499074845116
1137.0,0.03759230914800493
1136.0,0.03936354637977876
1135.0,0.04096405447200087
1134.0,0.04237060617366122
1133.0,0.04361774885302816
1132.0,0.044727228406495206
1131.0,0.04567777590409602
1130.0,0.046459027572435696
1129.0,0.04707954323396945
1128.0,0.04749693632645211
1127.0,0.047622376374381575
1126.0,0.04743102803246467
1125.0,0.04699557586559
1124.0,0.04639271297373321
1123.0,0.04566279534893105
1122.0,0.0448737111264915
1121.0,0.04412908164637365
1120.0,0.043488409641222435
1119.0,0.04295031694631015
1118.0,0.0425224329189135
1117.0,0.042237843862667636
1116.0,0.042097792956367674
1115.0,0.042071204719713394
1114.0,0.04216702559136445
1113.0,0.04244507694752542
1112.0,0.04294147104360246
1111.0,0.04364352060176545
1110.0,0.04454819711867331
1109.0,0.045676762596546204
1108.0,0.04700853316828779
1107.0,0.0484701923069549
1106.0,0.050024450633259276
1105.0,0.05169689650153524
1104.0,0.053477324247576126
1103.0,0.05527569795892366
1102.0,0.05702577911602835
1101.0,0.058752376840985374
1100.0,0.06048583219713208
1099.0,0.06220184234692884
1098.0,0.06390011447881279
1097.0,0.06563621826228228
1096.0,0.06741133386727526
1095.0,0.06914260079734874
1094.0,0.07080963784479836
1093.0,0.07250520363179226
1092.0,0.07427127884939289
1091.0,0.0760232682576495
1090.0,0.0777071295356645
1089.0,0.07937574573634501
1088.0,0.08102794386941403
1087.0,0.08254257372206604
1086.0,0.08386768706036157
1085.0,0.08509252210121776
1084.0,0.08622731794473035
1083.0,0.08711274976352469
1082.0,0.08766359163646513
1081.0,0.08799098678190917
1080.0,0.08816512754061209
1079.0,0.08807667005222651
1078.0,0.087645988685735
1077.0,0.08694507186180254
1076.0,0.08600405369923284
1075.0,0.08472081680645283
1074.0,0.08305871522235729
1073.0,0.08112158190387482
1072.0,0.07895892928628868
1071.0,0.07650719545381006
1070.0,0.07378382060309696
1069.0,0.0709395206723388
1068.0,0.06807554061539696
1067.0,0.06519307966495085
1066.0,0.06234942154175348
1065.0,0.059699348716558825
1064.0,0.0573615339913158
1063.0,0.05537617153851955
1062.0,0.053793767364260794
1061.0,0.052678747070046376
1060.0,0.05200776297776613
1059.0,0.051663576449032515
1058.0,0.05155651068200249
1057.0,0.05167066749706583
1056.0,0.05196661691274774
1055.0,0.052334398768741325
1054.0,0.05269666598263327
1053.0,0.05308588464553853
1052.0,0.05356374905883758
1051.0,0.054130509816885664
1050.0,0.05476401992727224
1049.0,0.05546054056590796
1048.0,0.05617715728996624
1047.0,0.056825495726529854
1046.0,0.057369592826909885
1045.0,0.05783753527134955
1044.0,0.05820947691583221
1043.0,0.05839364716025976
1042.0,0.05833995661881146
1041.0,0.05807680238518233
1040.0,0.0576058429920457
1039.0,0.05686895919980754
1038.0,0.05585884226928234
1037.0,0.05466265972641629
1036.0,0.053366267165255464
1035.0,0.05200534510987487
1034.0,0.05062414992722579
1033.0,0.04929271171665318
1032.0,0.048045707932192885
1031.0,0.046874102004812575
1030.0,0.04578593388370919
1029.0,0.044810381228639014
1028.0,0.043937346719529584
1027.0,0.04311314582700959
1026.0,0.04229889168818274
1025.0,0.04147896191436512
1024.0,0.04061746661617561
1023.0,0.03966827469637947
1022.0,0.038630379347959494
1021.0,0.037539125733485154
1020.0,0.03640554393349791
1019.0,0.035217476426363144
1018.0,0.03399392974107787
1017.0,0.032782484812791154
1016.0,0.03160502232202239
1015.0,0.03045498820328689
1014.0,0.029343764217847193
1013.0,0.028304062342570983
1012.0,0.027349367381512328
1011.0,0.0264674492633108
1010.0,0.025650574146174568
1009.0,0.02490041005359319
1008.0,0.024208112530285174
1007.0,0.02355906488253521
1006.0,0.022955530858908745
1005.0,0.022410563724200895
1004.0,0.02192151928247736
1003.0,0.02146857930380028
1002.0,0.02103353074693573
1001.0,0.020602475768961116
1000.0,0.02016055094720133
999.0,0.019706254730477744
998.0,0.01926279717430831
997.0,0.018853377855931
996.0,0.018473020854436546
995.0,0.018104243766672343
994.0,0.017749810628882142
993.0,0.017426525859504695
992.0,0.017132708836902554
991.0,0.016845717593035787
990.0,0.01655097861300009
989.0,0.016254038032461053
988.0,0.01596520032485194
987.0,0.01569048074974708
986.0,0.01543581961243395
985.0,0.015201702128660639
984.0,0.014972720534399589
983.0,0.014727131638279115
982.0,0.014458079034648071
981.0,0.01417480583389926
980.0,0.013885592456096718
979.0,0.01359231794773668
978.0,0.013299504830652474
977.0,0.013014878796395055
976.0,0.012740639530605655
975.0,0.012475132689352783
974.0,0.01222313333467731
973.0,0.01199399472707205
972.0,0.01178754815145704
971.0,0.011589164775689942
970.0,0.011382721863354182
969.0,0.011167514137074116
968.0,0.010962271602406686
967.0,0.010792836051856242
966.0,0.010674160053341632
965.0,0.010604850525844658
964.0,0.010580639999582437
963.0,0.010606659376588588
962.0,0.010688117615152079
961.0,0.01081213278889838
960.0,0.01094722481033631
959.0,0.011059013447854465
958.0,0.011120454311065304
957.0,0.011112159592161951
956.0,0.011026078203470194
955.0,0.010871485977696837
954.0,0.010666280548220365
953.0,0.010419582389993572
952.0,0.010134916484812396
951.0,0.009831484388159964
950.0,0.009543498193294721
949.0,0.009292018690048892
948.0,0.009074463885465314
947.0,0.008885945145526517
946.0,0.008728997029829249
945.0,0.008593287399971655
944.0,0.008448020945358275
943.0,0.008272024766294735
942.0,0.00807934048310114
941.0,0.00790081307080482
940.0,0.007751141509172596
939.0,0.007626490717544589
938.0,0.0075224348194444166
937.0,0.007437571473737796
936.0,0.0073644098798668345
935.0,0.007290588950782877
934.0,0.007208643206143596
933.0,0.0071176720942833435
932.0,0.007019900995578372
931.0,0.0069236140632761185
930.0,0.006845033897787373
929.0,0.006797851009336164
928.0,0.006780354352288631
927.0,0.006775454586278724
926.0,0.0067615532961944926
925.0,0.006724204507440663
924.0,0.006664212073889512
923.0,0.006598567312185697
922.0,0.006548407324690163
921.0,0.006521269176134693
920.0,0.006507778815086306
919.0,0.006495365492398816
918.0,0.006478568711768405
917.0,0.006455730083801407
916.0,0.006424857551886369
915.0,0.00638700438842988
914.0,0.006346536487406868
913.0,0.00630304927976915
912.0,0.0062482325419978245
911.0,0.0061746499740619985
910.0,0.006083943190444831
909.0,0.005985613925538105
908.0,0.005893592099178557
907.0,0.0058233223785339495
906.0,0.0057817408070667785
905.0,0.005757171307049072
904.0,0.005727377136321942
903.0,0.005679828466628928
902.0,0.005618237563831743
901.0,0.005551442889869872
900.0,0.0054869300305794184
899.0,0.0054354381214782015
898.0,0.005406658983182801
897.0,0.005393786361806343
896.0,0.005373544382996908
895.0,0.005329139481201383
894.0,0.00526697304121234
893.0,0.00520551746452518
892.0,0.005153660704654539
891.0,0.005105082598020639
890.0,0.005050252124740943
889.0,0.004993086181053838
888.0,0.004961154592179011
887.0,0.004998849033414668
886.0,0.0051431947383908765
885.0,0.005406883087420534
884.0,0.005790521305408847
883.0,0.006304846748572221
882.0,0.006969511462246225
881.0,0.007792009578436211
880.0,0.00875411491311838
879.0,0.009813150184954048
878.0,0.010910177928668694
877.0,0.011985653019860938
876.0,0.01300023240344662
875.0,0.01393903152324949
874.0,0.014772347640227855
873.0,0.015394457950478769
872.0,0.01563336932889345
871.0,0.015384234759159596
870.0,0.014743024795501002
869.0,0.013958119044445522
868.0,0.013243275326313201
867.0,0.01266619727899176
866.0,0.012188152209587116
865.0,0.011752731681127997
864.0,0.011326983084258134
863.0,0.010894777802644435
862.0,0.010442120249252219
861.0,0.009951440114054931
860.0,0.009408268368085611
859.0,0.008817893516283013
858.0,0.008211419180022748
857.0,0.007627833973562065
856.0,0.0070939136567035425
855.0,0.006622711061653436
854.0,0.0062186525017844975
853.0,0.0058796945728633
852.0,0.005607334827651966
851.0,0.005416012819829223
850.0,0.005314203229727876
849.0,0.005269337694187165
848.0,0.005209310676418787
847.0,0.005073777574702454
846.0,0.0048590139428496375
845.0,0.004606563955503438
844.0,0.0043598896352938146
843.0,0.004140714839242495
842.0,0.003951019439005899
841.0,0.0037813378862714842
840.0,0.003623397512347937
839.0,0.003484055125872425
838.0,0.0033798699792512033
837.0,0.003312068772130531
836.0,0.0032576897709973174
835.0,0.003194097226867726
834.0,0.0031238923321450455
833.0,0.0030669101530969474
832.0,0.003035195101242177
831.0,0.003024785966379843
830.0,0.0030238798918457137
829.0,0.003018541004360255
828.0,0.002997226242566167
827.0,0.0029629526404340353
826.0,0.002937771634435744
825.0,0.002941623473165173
824.0,0.0029689683375035657
823.0,0.002998482871872321
822.0,0.003021138645257845
821.0,0.0030457592334844855
820.0,0.0030815706545013824
819.0,0.0031273227111597805
818.0,0.0031744081442132976
817.0,0.0032108256895075123
816.0,0.0032240293508661796
815.0,0.003208969311088373
814.0,0.0031759022566251165
813.0,0.0031472599209184365
812.0,0.0031458184835350747
811.0,0.0031840359603850787
810.0,0.0032576240766568638
809.0,0.0033462807780332525
808.0,0.003425782170837591
807.0,0.0034827659463730863
806.0,0.0035160215131485716
805.0,0.003526800886013058
804.0,0.0035192139344447457
803.0,0.0035112625574092206
802.0,0.003528733400761798
801.0,0.0035775571123697336
800.0,0.0036336164988934223
799.0,0.0036712229876496184
798.0,0.0036931673896107783
797.0,0.003720636125328943
796.0,0.003762242526082574
795.0,0.0038085607268527055
794.0,0.003851587591973028
793.0,0.003894167141360377
792.0,0.003943121323071622
791.0,0.004007453373379901
790.0,0.00409957354359217
789.0,0.00422255844448792
788.0,0.004357815398568922
787.0,0.0044802938868037726
786.0,0.004586977617544289
785.0,0.004696183442035009
784.0,0.004817929011833762
783.0,0.004941468077126504
782.0,0.005055319869553321
781.0,0.005164329848113866
780.0,0.005280461146802903
779.0,0.005409013459588885
778.0,0.005550390099515922
777.0,0.005704544486076917
776.0,0.005868512124217171
775.0,0.006037563100966835
774.0,0.006210127621430545
773.0,0.006383881585062073
772.0,0.006551307394003881
771.0,0.006714580153389011
770.0,0.006901573139920885
769.0,0.007144868284084484
768.0,0.007440780156841003
767.0,0.007748533201311827
766.0,0.008035635235116554
765.0,0.008305699631999647
764.0,0.008578381775652361
763.0,0.008868292299672061
762.0,0.009192186147813197
761.0,0.009566299686177195
760.0,0.00997478857626316
759.0,0.010358802216023429
758.0,0.010657333997563124
757.0,0.010848655045210834
756.0,0.010943081296775337
755.0,0.010959566833498337
754.0,0.01092502409882068
753.0,0.010871885635066258
752.0,0.010814791509235245
751.0,0.010742922055390167
750.0,0.010646084974249667
749.0,0.010529350882586545
748.0,0.010393043399896273
747.0,0.01022297531669401
746.0,0.010016827140486701
745.0,0.00980283120892858
744.0,0.009615299725362705
743.0,0.009462569644513877
742.0,0.009328297858717506
741.0,0.009188149138627234
740.0,0.009015808682172596
739.0,0.008789544997395145
738.0,0.008506766223799589
737.0,0.008184459466936016
736.0,0.007840691016032474
735.0,0.00748593536124274
734.0,0.007133387708102356
733.0,0.006803271804876131
732.0,0.006512759539436867
731.0,0.006273460779410444
730.0,0.006097471504996305
729.0,0.0059898036196192675
728.0,0.005934400110990629
727.0,0.0059047410095199
726.0,0.005892747924681321
725.0,0.005911961210994906
724.0,0.005971428358037444
723.0,0.006067518571704202
722.0,0.006205400153631486
721.0,0.006403912901458673
720.0,0.006663267107702431
719.0,0.006947967749868202
718.0,0.007222722819475877
717.0,0.007486050200418988
716.0,0.007753480625971185
715.0,0.008025953231142934
714.0,0.008280643492928941
713.0,0.008478147362756951
712.0,0.008579563368599108
711.0,0.008580455768349426
710.0,0.00853169897460302
709.0,0.008498367905976068
708.0,0.008493376387362094
707.0,0.008477989273621908
706.0,0.008429484466706244
705.0,0.008374229947059525
704.0,0.008341336858546471
703.0,0.008319204499930954
702.0,0.008279074701002045
701.0,0.008214141309074687
700.0,0.008138189808909978
699.0,0.00806896514837846
698.0,0.008026177906498611
697.0,0.008022067137016673
696.0,0.008039691312431613
695.0,0.008043172864317893
694.0,0.008018862639421184
693.0,0.007981469799163695
692.0,0.007936234834616543
691.0,0.007867623959787719
690.0,0.007775275733824128
689.0,0.007686152273201803
688.0,0.007611354488452456
687.0,0.0075304450788646025
686.0,0.007442449161452015
685.0,0.007383694326426469
684.0,0.007370723920388542
683.0,0.007372124191853714
682.0,0.007359875911151729
681.0,0.007347232332267344
680.0,0.007349992219343602
679.0,0.007346931371437399
678.0,0.007312995604409345
677.0,0.0072626566043228445
676.0,0.007230854025197082
675.0,0.007225431570600259
674.0,0.007226465441441662
673.0,0.007217349628660021
672.0,0.007177978859628051
671.0,0.00707669421601664
670.0,0.006897690380168929
669.0,0.0067083190520572065
668.0,0.006584645736624997
667.0,0.006544053867311005
666.0,0.006612008663968355
665.0,0.006715986835560874
664.0,0.006751295915741421
663.0,0.006706365985648669
662.0,0.006627761587827016
661.0,0.0065686455280033335
660.0,0.006537693781225037
659.0,0.006509404859759621
658.0,0.006475234402153817
657.0,0.006454093714797042
656.0,0.006446749382458376
655.0,0.006414602433056124
654.0,0.006332570001153552
653.0,0.0062327264486714135
652.0,0.006157500762106315
651.0,0.006100064589783929
650.0,0.006026936670028713
649.0,0.005935536161870016
648.0,0.005849671597661511
647.0,0.005772824707302202
646.0,0.005682628789892424
645.0,0.005565828185739037
644.0,0.005436677334592924
643.0,0.005326540073210446
642.0,0.00526125029916066
641.0,0.0052357478607559585
640.0,0.005208815458305233
639.0,0.005140243023101489
638.0,0.0050382702302070245
637.0,0.004944957329887634
636.0,0.004871759399149116
635.0,0.0047859649497372266
634.0,0.0046729104232518665
633.0,0.00457119322873039
632.0,0.0045228490520207824
631.0,0.004523013211397406
630.0,0.004536835645234015
629.0,0.0045401238856142
628.0,0.0045255651125429425
627.0,0.00449263079740057
626.0,0.00445308512164988
625.0,0.004423072623977696
624.0,0.0043884681360771005
623.0,0.004304671002008591
622.0,0.004153851703379743
621.0,0.0039743714259489575
620.0,0.0038179281777082005
619.0,0.003702761182965468
618.0,0.003616684943454289
617.0,0.003546021654552204
616.0,0.003489738701185588
615.0,0.003460890002050205
614.0,0.0034741717460394644
613.0,0.0035111765154591454
612.0,0.003508664161244769
611.0,0.0034164557753061965
610.0,0.003272612156132955
609.0,0.0031722692177040684
608.0,0.003153877461932901
607.0,0.0031671053766172963
606.0,0.003158230664362882
605.0,0.0031315629475603575
604.0,0.00310555188463129
603.0,0.0030732316833322164
602.0,0.0030358526300159235
601.0,0.0030159217661012636
600.0,0.0030068879860331438
