cm-1,A
4000.0,0.0086
3999.0,0.0086
3998.0,0.0086
3997.0,0.0086
3996.0,0.0087
3995.0,0.0087
3994.0,0.0088
3993.0,0.0089
3992.0,0.009
3991.0,0.0089
3990.0,0.0089
3989.0,0.0089
3988.0,0.0088
3987.0,0.0088
3986.0,0.0088
3985.0,0.0088
3984.0,0.0088
3983.0,0.0088
3982.0,0.0088
3981.0,0.0088
3980.0,0.0088
3979.0,0.0087
3978.0,0.0087
3977.0,0.0087
3976.0,0.0087
3975.0,0.0086
3974.0,0.0086
3973.0,0.0085
3972.0,0.0085
3971.0,0.0085
3970.0,0.0086
3969.0,0.0086
3968.0,0.0086
3967.0,0.0086
3966.0,0.0086
3965.0,0.0085
3964.0,0.0085
3963.0,0.0084
3962.0,0.0085
3961.0,0.0086
3960.0,0.0087
3959.0,0.0087
3958.0,0.0088
3957.0,0.0087
3956.0,0.0087
3955.0,0.0086
3954.0,0.0086
3953.0,0.0087
3952.0,0.0087
3951.0,0.0088
3950.0,0.0088
3949.0,0.0087
3948.0,0.0087
3947.0,0.0087
3946.0,0.0088
3945.0,0.0088
3944.0,0.0088
3943.0,0.0088
3942.0,0.0088
3941.0,0.0088
3940.0,0.0089
3939.0,0.0089
3938.0,0.0089
3937.0,0.0089
3936.0,0.0089
3935.0,0.0089
3934.0,0.0089
3933.0,0.0089
3932.0,0.009
3931.0,0.0091
3930.0,0.0091
3929.0,0.0091
3928.0,0.0091
3927.0,0.0091
3926.0,0.0091
3925.0,0.0091
3924.0,0.0091
3923.0,0.0091
3922.0,0.0091
3921.0,0.0091
3920.0,0.009
3919.0,0.009
3918.0,0.009
3917.0,0.0089
3916.0,0.0089
3915.0,0.0089
3914.0,0.009
3913.0,0.009
3912.0,0.0091
3911.0,0.0091
3910.0,0.0092
3909.0,0.0092
3908.0,0.0092
3907.0,0.0092
3906.0,0.0092
3905.0,0.0092
3904.0,0.0092
3903.0,0.0092
3902.0,0.0092
3901.0,0.009
3900.0,0.0089
3899.0,0.0089
3898.0,0.0089
3897.0,0.009
3896.0,0.0091
3895.0,0.0092
3894.0,0.0093
3893.0,0.0093
3892.0,0.0092
3891.0,0.009
3890.0,0.009
3889.0,0.009
3888.0,0.009
3887.0,0.009
3886.0,0.009
3885.0,0.0091
3884.0,0.0092
3883.0,0.0094
3882.0,0.0094
3881.0,0.0092
3880.0,0.0091
3879.0,0.0091
3878.0,0.0092
3877.0,0.0093
3876.0,0.0093
3875.0,0.0093
3874.0,0.0093
3873.0,0.0094
3872.0,0.0094
3871.0,0.0093
3870.0,0.0092
3869.0,0.0091
3868.0,0.0091
3867.0,0.0091
3866.0,0.009
3865.0,0.009
3864.0,0.0092
3863.0,0.0093
3862.0,0.0093
3861.0,0.0092
3860.0,0.0092
3859.0,0.0091
3858.0,0.0091
3857.0,0.009
3856.0,0.009
3855.0,0.009
3854.0,0.009
3853.0,0.009
3852.0,0.0091
3851.0,0.0091
3850.0,0.0091
3849.0,0.0092
3848.0,0.0092
3847.0,0.0093
3846.0,0.0094
3845.0,0.0094
3844.0,0.0094
3843.0,0.0095
3842.0,0.0095
3841.0,0.0096
3840.0,0.0097
3839.0,0.0097
3838.0,0.0097
3837.0,0.0096
3836.0,0.0095
3835.0,0.0095
3834.0,0.0094
3833.0,0.0094
3832.0,0.0093
3831.0,0.0093
3830.0,0.0094
3829.0,0.0095
3828.0,0.0096
3827.0,0.0096
3826.0,0.0096
3825.0,0.0097
3824.0,0.0098
3823.0,0.0097
3822.0,0.0096
3821.0,0.0095
3820.0,0.0095
3819.0,0.0096
3818.0,0.0095
3817.0,0.0093
3816.0,0.0092
3815.0,0.0092
3814.0,0.0093
3813.0,0.0093
3812.0,0.0093
3811.0,0.0093
3810.0,0.0093
3809.0,0.0092
3808.0,0.0092
3807.0,0.0091
3806.0,0.0092
3805.0,0.0094
3804.0,0.0096
3803.0,0.0096
3802.0,0.0096
3801.0,0.0096
3800.0,0.0097
3799.0,0.0098
3798.0,0.0097
3797.0,0.0096
3796.0,0.0095
3795.0,0.0094
3794.0,0.0094
3793.0,0.0094
3792.0,0.0094
3791.0,0.0094
3790.0,0.0095
3789.0,0.0095
3788.0,0.0095
3787.0,0.0096
3786.0,0.0096
3785.0,0.0096
3784.0,0.0095
3783.0,0.0096
3782.0,0.0096
3781.0,0.0096
3780.0,0.0095
3779.0,0.0095
3778.0,0.0095
3777.0,0.0095
3776.0,0.0095
3775.0,0.0095
3774.0,0.0095
3773.0,0.0096
3772.0,0.0096
3771.0,0.0095
3770.0,0.0095
3769.0,0.0096
3768.0,0.0097
3767.0,0.0097
3766.0,0.0097
3765.0,0.0097
3764.0,0.0097
3763.0,0.0099
3762.0,0.0099
3761.0,0.0099
3760.0,0.0099
3759.0,0.0099
3758.0,0.0099
3757.0,0.0098
3756.0,0.0097
3755.0,0.0096
3754.0,0.0095
3753.0,0.0093
3752.0,0.0092
3751.0,0.0093
3750.0,0.0094
3749.0,0.0095
3748.0,0.0097
3747.0,0.0098
3746.0,0.0097
3745.0,0.0095
3744.0,0.0095
3743.0,0.0096
3742.0,0.0098
3741.0,0.0099
3740.0,0.0099
3739.0,0.0099
3738.0,0.0101
3737.0,0.0103
3736.0,0.0104
3735.0,0.0105
3734.0,0.0104
3733.0,0.0102
3732.0,0.01
3731.0,0.01
3730.0,0.0101
3729.0,0.0101
3728.0,0.0101
3727.0,0.01
3726.0,0.0101
3725.0,0.0101
3724.0,0.0102
3723.0,0.0102
3722.0,0.0102
3721.0,0.0101
3720.0,0.0101
3719.0,0.01
3718.0,0.0099
3717.0,0.0098
3716.0,0.0098
3715.0,0.0098
3714.0,0.0098
3713.0,0.0098
3712.0,0.01
3711.0,0.0102
3710.0,0.0102
3709.0,0.0102
3708.0,0.0102
3707.0,0.0102
3706.0,0.0102
3705.0,0.0102
3704.0,0.0102
3703.0,0.0101
3702.0,0.01
3701.0,0.01
3700.0,0.0101
3699.0,0.0101
3698.0,0.0101
3697.0,0.01
3696.0,0.0099
3695.0,0.01
3694.0,0.0101
3693.0,0.0101
3692.0,0.0102
3691.0,0.0102
3690.0,0.0101
3689.0,0.01
3688.0,0.01
3687.0,0.01
3686.0,0.01
3685.0,0.01
3684.0,0.01
3683.0,0.01
3682.0,0.01
3681.0,0.01
3680.0,0.0101
3679.0,0.0102
3678.0,0.0103
3677.0,0.0102
3676.0,0.01
3675.0,0.0098
3674.0,0.0098
3673.0,0.0098
3672.0,0.0099
3671.0,0.0099
3670.0,0.0099
3669.0,0.0098
3668.0,0.0098
3667.0,0.0097
3666.0,0.0096
3665.0,0.0096
3664.0,0.0095
3663.0,0.0095
3662.0,0.0095
3661.0,0.0095
3660.0,0.0095
3659.0,0.0095
3658.0,0.0096
3657.0,0.0096
3656.0,0.0097
3655.0,0.0099
3654.0,0.01
3653.0,0.0101
3652.0,0.0101
3651.0,0.0099
3650.0,0.0099
3649.0,0.01
3648.0,0.0101
3647.0,0.01
3646.0,0.0099
3645.0,0.0098
3644.0,0.0098
3643.0,0.0097
3642.0,0.0097
3641.0,0.0098
3640.0,0.0099
3639.0,0.01
3638.0,0.01
3637.0,0.0101
3636.0,0.0102
3635.0,0.0102
3634.0,0.0102
3633.0,0.0103
3632.0,0.0103
3631.0,0.0103
3630.0,0.0102
3629.0,0.0101
3628.0,0.0101
3627.0,0.0103
3626.0,0.0104
3625.0,0.0105
3624.0,0.0105
3623.0,0.0105
3622.0,0.0104
3621.0,0.0103
3620.0,0.0102
3619.0,0.0101
3618.0,0.0101
3617.0,0.0102
3616.0,0.0102
3615.0,0.0103
3614.0,0.0103
3613.0,0.0102
3612.0,0.0102
3611.0,0.0101
3610.0,0.0102
3609.0,0.0104
3608.0,0.0106
3607.0,0.0107
3606.0,0.0108
3605.0,0.0107
3604.0,0.0106
3603.0,0.0106
3602.0,0.0106
3601.0,0.0106
3600.0,0.0106
3599.0,0.0106
3598.0,0.0106
3597.0,0.0106
3596.0,0.0107
3595.0,0.0108
3594.0,0.0108
3593.0,0.0108
3592.0,0.0107
3591.0,0.0105
3590.0,0.0104
3589.0,0.0103
3588.0,0.0103
3587.0,0.0104
3586.0,0.0106
3585.0,0.0106
3584.0,0.0106
3583.0,0.0106
3582.0,0.0105
3581.0,0.0105
3580.0,0.0106
3579.0,0.0107
3578.0,0.0107
3577.0,0.0107
3576.0,0.0107
3575.0,0.0106
3574.0,0.0106
3573.0,0.0107
3572.0,0.0107
3571.0,0.0108
3570.0,0.0109
3569.0,0.011
3568.0,0.011
3567.0,0.0111
3566.0,0.0111
3565.0,0.0111
3564.0,0.011
3563.0,0.0109
3562.0,0.0109
3561.0,0.0108
3560.0,0.0107
3559.0,0.0107
3558.0,0.0107
3557.0,0.0107
3556.0,0.0108
3555.0,0.0108
3554.0,0.0109
3553.0,0.0109
3552.0,0.0109
3551.0,0.0109
3550.0,0.0108
3549.0,0.0108
3548.0,0.0108
3547.0,0.0108
3546.0,0.0109
3545.0,0.0109
3544.0,0.0109
3543.0,0.011
3542.0,0.011
3541.0,0.011
3540.0,0.011
3539.0,0.0109
3538.0,0.0108
3537.0,0.0108
3536.0,0.0109
3535.0,0.0109
3534.0,0.0109
3533.0,0.0109
3532.0,0.0108
3531.0,0.0107
3530.0,0.0107
3529.0,0.0108
3528.0,0.0109
3527.0,0.011
3526.0,0.0111
3525.0,0.0111
3524.0,0.011
3523.0,0.011
3522.0,0.011
3521.0,0.0111
3520.0,0.0111
3519.0,0.0111
3518.0,0.011
3517.0,0.011
3516.0,0.0111
3515.0,0.0111
3514.0,0.0111
3513.0,0.0111
3512.0,0.0112
3511.0,0.0112
3510.0,0.0113
3509.0,0.0113
3508.0,0.0112
3507.0,0.0112
3506.0,0.0112
3505.0,0.0112
3504.0,0.0113
3503.0,0.0113
3502.0,0.0113
3501.0,0.0113
3500.0,0.0114
3499.0,0.0114
3498.0,0.0114
3497.0,0.0114
3496.0,0.0114
3495.0,0.0114
3494.0,0.0113
3493.0,0.0113
3492.0,0.0112
3491.0,0.0112
3490.0,0.0112
3489.0,0.0112
3488.0,0.0113
3487.0,0.0115
3486.0,0.0117
3485.0,0.0118
3484.0,0.0119
3483.0,0.0118
3482.0,0.0117
3481.0,0.0116
3480.0,0.0116
3479.0,0.0115
3478.0,0.0114
3477.0,0.0114
3476.0,0.0114
3475.0,0.0114
3474.0,0.0115
3473.0,0.0115
3472.0,0.0115
3471.0,0.0114
3470.0,0.0114
3469.0,0.0115
3468.0,0.0115
3467.0,0.0115
3466.0,0.0114
3465.0,0.0114
3464.0,0.0114
3463.0,0.0114
3462.0,0.0114
3461.0,0.0114
3460.0,0.0114
3459.0,0.0114
3458.0,0.0114
3457.0,0.0116
3456.0,0.0117
3455.0,0.0118
3454.0,0.0118
3453.0,0.0118
3452.0,0.0118
3451.0,0.0118
3450.0,0.0118
3449.0,0.0118
3448.0,0.0117
3447.0,0.0116
3446.0,0.0116
3445.0,0.0116
3444.0,0.0116
3443.0,0.0116
3442.0,0.0116
3441.0,0.0117
3440.0,0.0118
3439.0,0.0118
3438.0,0.0118
3437.0,0.0119
3436.0,0.0119
3435.0,0.0119
3434.0,0.0119
3433.0,0.0119
3432.0,0.0118
3431.0,0.0118
3430.0,0.0118
3429.0,0.0117
3428.0,0.0117
3427.0,0.0117
3426.0,0.0116
3425.0,0.0116
3424.0,0.0115
3423.0,0.0115
3422.0,0.0116
3421.0,0.0116
3420.0,0.0117
3419.0,0.0118
3418.0,0.0119
3417.0,0.0119
3416.0,0.0119
3415.0,0.0119
3414.0,0.0119
3413.0,0.0119
3412.0,0.0119
3411.0,0.0119
3410.0,0.0119
3409.0,0.0119
3408.0,0.0119
3407.0,0.0118
3406.0,0.0118
3405.0,0.0118
3404.0,0.0118
3403.0,0.0118
3402.0,0.0119
3401.0,0.012
3400.0,0.0121
3399.0,0.0122
3398.0,0.0121
3397.0,0.0121
3396.0,0.012
3395.0,0.012
3394.0,0.012
3393.0,0.012
3392.0,0.012
3391.0,0.012
3390.0,0.012
3389.0,0.012
3388.0,0.012
3387.0,0.0119
3386.0,0.0119
3385.0,0.0119
3384.0,0.0119
3383.0,0.012
3382.0,0.012
3381.0,0.012
3380.0,0.012
3379.0,0.0119
3378.0,0.0119
3377.0,0.0118
3376.0,0.0118
3375.0,0.0118
3374.0,0.0119
3373.0,0.0119
3372.0,0.012
3371.0,0.0119
3370.0,0.0119
3369.0,0.0118
3368.0,0.0118
3367.0,0.0118
3366.0,0.0117
3365.0,0.0116
3364.0,0.0116
3363.0,0.0117
3362.0,0.0118
3361.0,0.0118
3360.0,0.0119
3359.0,0.0119
3358.0,0.0118
3357.0,0.0117
3356.0,0.0117
3355.0,0.0116
3354.0,0.0117
3353.0,0.0117
3352.0,0.0117
3351.0,0.0116
3350.0,0.0116
3349.0,0.0115
3348.0,0.0115
3347.0,0.0116
3346.0,0.0116
3345.0,0.0116
3344.0,0.0116
3343.0,0.0115
3342.0,0.0115
3341.0,0.0115
3340.0,0.0116
3339.0,0.0116
3338.0,0.0116
3337.0,0.0116
3336.0,0.0116
3335.0,0.0115
3334.0,0.0115
3333.0,0.0114
3332.0,0.0114
3331.0,0.0113
3330.0,0.0113
3329.0,0.0113
3328.0,0.0113
3327.0,0.0114
3326.0,0.0115
3325.0,0.0116
3324.0,0.0116
3323.0,0.0115
3322.0,0.0114
3321.0,0.0114
3320.0,0.0114
3319.0,0.0114
3318.0,0.0113
3317.0,0.0113
3316.0,0.0113
3315.0,0.0113
3314.0,0.0113
3313.0,0.0113
3312.0,0.0112
3311.0,0.0112
3310.0,0.0111
3309.0,0.0112
3308.0,0.0112
3307.0,0.0112
3306.0,0.0112
3305.0,0.0112
3304.0,0.0112
3303.0,0.0112
3302.0,0.0112
3301.0,0.0111
3300.0,0.0111
3299.0,0.0111
3298.0,0.0111
3297.0,0.0111
3296.0,0.0111
3295.0,0.0112
3294.0,0.0112
3293.0,0.0112
3292.0,0.0112
3291.0,0.0111
3290.0,0.0111
3289.0,0.0111
3288.0,0.0111
3287.0,0.0111
3286.0,0.011
3285.0,0.011
3284.0,0.011
3283.0,0.011
3282.0,0.011
3281.0,0.0109
3280.0,0.011
3279.0,0.011
3278.0,0.0111
3277.0,0.0111
3276.0,0.0111
3275.0,0.0109
3274.0,0.0107
3273.0,0.0106
3272.0,0.0106
3271.0,0.0106
3270.0,0.0106
3269.0,0.0105
3268.0,0.0104
3267.0,0.0103
3266.0,0.0103
3265.0,0.0103
3264.0,0.0104
3263.0,0.0104
3262.0,0.0105
3261.0,0.0105
3260.0,0.0105
3259.0,0.0104
3258.0,0.0104
3257.0,0.0104
3256.0,0.0104
3255.0,0.0104
3254.0,0.0104
3253.0,0.0104
3252.0,0.0104
3251.0,0.0103
3250.0,0.0103
3249.0,0.0103
3248.0,0.0102
3247.0,0.0103
3246.0,0.0103
3245.0,0.0103
3244.0,0.0103
3243.0,0.0103
3242.0,0.0103
3241.0,0.0103
3240.0,0.0103
3239.0,0.0103
3238.0,0.0103
3237.0,0.0102
3236.0,0.0101
3235.0,0.01
3234.0,0.0099
3233.0,0.0099
3232.0,0.01
3231.0,0.01
3230.0,0.0101
3229.0,0.0101
3228.0,0.0102
3227.0,0.0102
3226.0,0.0103
3225.0,0.0103
3224.0,0.0103
3223.0,0.0103
3222.0,0.0103
3221.0,0.0103
3220.0,0.0103
3219.0,0.0103
3218.0,0.0103
3217.0,0.0103
3216.0,0.0102
3215.0,0.0102
3214.0,0.0102
3213.0,0.0103
3212.0,0.0104
3211.0,0.0105
3210.0,0.0105
3209.0,0.0103
3208.0,0.0102
3207.0,0.0101
3206.0,0.0101
3205.0,0.0101
3204.0,0.0101
3203.0,0.0101
3202.0,0.0101
3201.0,0.01
3200.0,0.01
3199.0,0.01
3198.0,0.0101
3197.0,0.0101
3196.0,0.0101
3195.0,0.01
3194.0,0.0099
3193.0,0.0099
3192.0,0.0099
3191.0,0.0099
3190.0,0.0099
3189.0,0.0099
3188.0,0.0098
3187.0,0.0098
3186.0,0.0097
3185.0,0.0097
3184.0,0.0097
3183.0,0.0097
3182.0,0.0098
3181.0,0.0097
3180.0,0.0097
3179.0,0.0096
3178.0,0.0095
3177.0,0.0095
3176.0,0.0094
3175.0,0.0094
3174.0,0.0094
3173.0,0.0093
3172.0,0.0093
3171.0,0.0093
3170.0,0.0092
3169.0,0.0092
3168.0,0.0091
3167.0,0.0091
3166.0,0.0092
3165.0,0.0093
3164.0,0.0093
3163.0,0.0094
3162.0,0.0094
3161.0,0.0094
3160.0,0.0094
3159.0,0.0093
3158.0,0.0093
3157.0,0.0092
3156.0,0.0092
3155.0,0.0091
3154.0,0.0091
3153.0,0.0091
3152.0,0.009
3151.0,0.0091
3150.0,0.0091
3149.0,0.0091
3148.0,0.009
3147.0,0.0089
3146.0,0.0089
3145.0,0.0089
3144.0,0.0089
3143.0,0.009
3142.0,0.009
3141.0,0.0089
3140.0,0.0088
3139.0,0.0087
3138.0,0.0087
3137.0,0.0086
3136.0,0.0086
3135.0,0.0086
3134.0,0.0085
3133.0,0.0084
3132.0,0.0084
3131.0,0.0083
3130.0,0.0083
3129.0,0.0082
3128.0,0.0082
3127.0,0.0081
3126.0,0.0081
3125.0,0.0081
3124.0,0.0081
3123.0,0.0081
3122.0,0.0081
3121.0,0.0081
3120.0,0.0081
3119.0,0.008
3118.0,0.008
3117.0,0.0079
3116.0,0.0079
3115.0,0.0079
3114.0,0.0078
3113.0,0.0078
3112.0,0.0077
3111.0,0.0076
3110.0,0.0075
3109.0,0.0074
3108.0,0.0074
3107.0,0.0073
3106.0,0.0073
3105.0,0.0074
3104.0,0.0074
3103.0,0.0074
3102.0,0.0073
3101.0,0.0072
3100.0,0.0072
3099.0,0.0071
3098.0,0.0071
3097.0,0.007
3096.0,0.007
3095.0,0.007
3094.0,0.0069
3093.0,0.0069
3092.0,0.0069
3091.0,0.007
3090.0,0.007
3089.0,0.007
3088.0,0.007
3087.0,0.0069
3086.0,0.0067
3085.0,0.0066
3084.0,0.0066
3083.0,0.0065
3082.0,0.0065
3081.0,0.0066
3080.0,0.0066
3079.0,0.0065
3078.0,0.0064
3077.0,0.0064
3076.0,0.0063
3075.0,0.0063
3074.0,0.0062
3073.0,0.0061
3072.0,0.0061
3071.0,0.0061
3070.0,0.0061
3069.0,0.0061
3068.0,0.0061
3067.0,0.0061
3066.0,0.006
3065.0,0.006
3064.0,0.0059
3063.0,0.006
3062.0,0.006
3061.0,0.006
3060.0,0.0059
3059.0,0.0058
3058.0,0.0057
3057.0,0.0057
3056.0,0.0057
3055.0,0.0057
3054.0,0.0056
3053.0,0.0056
3052.0,0.0056
3051.0,0.0055
3050.0,0.0055
3049.0,0.0054
3048.0,0.0053
3047.0,0.0052
3046.0,0.0051
3045.0,0.005
3044.0,0.005
3043.0,0.005
3042.0,0.005
3041.0,0.0049
3040.0,0.0047
3039.0,0.0046
3038.0,0.0046
3037.0,0.0045
3036.0,0.0044
3035.0,0.0044
3034.0,0.0044
3033.0,0.0045
3032.0,0.0045
3031.0,0.0046
3030.0,0.0046
3029.0,0.0046
3028.0,0.0045
3027.0,0.0044
3026.0,0.0043
3025.0,0.0042
3024.0,0.0041
3023.0,0.0041
3022.0,0.0041
3021.0,0.004
3020.0,0.004
3019.0,0.0039
3018.0,0.0038
3017.0,0.0037
3016.0,0.0037
3015.0,0.0036
3014.0,0.0035
3013.0,0.0034
3012.0,0.0034
3011.0,0.0033
3010.0,0.0032
3009.0,0.0032
3008.0,0.0033
3007.0,0.0033
3006.0,0.0034
3005.0,0.0035
3004.0,0.0035
3003.0,0.0035
3002.0,0.0035
3001.0,0.0035
3000.0,0.0036
2999.0,0.0037
2998.0,0.0037
2997.0,0.0038
2996.0,0.0038
2995.0,0.004
2994.0,0.0042
2993.0,0.0044
2992.0,0.0046
2991.0,0.0049
2990.0,0.0052
2989.0,0.0057
2988.0,0.0061
2987.0,0.0066
2986.0,0.0073
2985.0,0.008
2984.0,0.0089
2983.0,0.01
2982.0,0.0112
2981.0,0.0126
2980.0,0.0142
2979.0,0.016
2978.0,0.0182
2977.0,0.0206
2976.0,0.0235
2975.0,0.0268
2974.0,0.0306
2973.0,0.0349
2972.0,0.0398
2971.0,0.0452
2970.0,0.0511
2969.0,0.0576
2968.0,0.0646
2967.0,0.072
2966.0,0.0797
2965.0,0.0874
2964.0,0.0947
2963.0,0.1011
2962.0,0.1062
2961.0,0.1097
2960.0,0.112
2959.0,0.1134
2958.0,0.1147
2957.0,0.1165
2956.0,0.1192
2955.0,0.123
2954.0,0.1275
2953.0,0.1322
2952.0,0.1361
2951.0,0.1383
2950.0,0.1381
2949.0,0.1351
2948.0,0.1296
2947.0,0.1222
2946.0,0.1138
2945.0,0.1052
2944.0,0.0971
2943.0,0.0901
2942.0,0.0846
2941.0,0.0805
2940.0,0.078
2939.0,0.077
2938.0,0.0773
2937.0,0.0788
2936.0,0.0814
2935.0,0.085
2934.0,0.0896
2933.0,0.0951
2932.0,0.1013
2931.0,0.1082
2930.0,0.1156
2929.0,0.1232
2928.0,0.1309
2927.0,0.1386
2926.0,0.1461
2925.0,0.1534
2924.0,0.1608
2923.0,0.1681
2922.0,0.1754
2921.0,0.1823
2920.0,0.1882
2919.0,0.1923
2918.0,0.194
2917.0,0.1931
2916.0,0.1897
2915.0,0.1845
2914.0,0.1785
2913.0,0.1723
2912.0,0.1666
2911.0,0.1616
2910.0,0.1574
2909.0,0.1536
2908.0,0.15
2907.0,0.1465
2906.0,0.1428
2905.0,0.1389
2904.0,0.1349
2903.0,0.1308
2902.0,0.1267
2901.0,0.1227
2900.0,0.1187
2899.0,0.1149
2898.0,0.1112
2897.0,0.1079
2896.0,0.1049
2895.0,0.1023
2894.0,0.1001
2893.0,0.0982
2892.0,0.0966
2891.0,0.0954
2890.0,0.0945
2889.0,0.094
2888.0,0.0936
2887.0,0.0935
2886.0,0.0935
2885.0,0.0937
2884.0,0.0941
2883.0,0.0948
2882.0,0.0957
2881.0,0.0967
2880.0,0.0975
2879.0,0.098
2878.0,0.0981
2877.0,0.0978
2876.0,0.0972
2875.0,0.0966
2874.0,0.0963
2873.0,0.0964
2872.0,0.0971
2871.0,0.0983
2870.0,0.0996
2869.0,0.1009
2868.0,0.1016
2867.0,0.1013
2866.0,0.0996
2865.0,0.0964
2864.0,0.092
2863.0,0.087
2862.0,0.082
2861.0,0.0777
2860.0,0.0744
2859.0,0.0722
2858.0,0.0712
2857.0,0.0712
2856.0,0.0722
2855.0,0.074
2854.0,0.0766
2853.0,0.0796
2852.0,0.0824
2851.0,0.0847
2850.0,0.0861
2849.0,0.0866
2848.0,0.0867
2847.0,0.0871
2846.0,0.0883
2845.0,0.0905
2844.0,0.0935
2843.0,0.097
2842.0,0.1006
2841.0,0.1037
2840.0,0.1059
2839.0,0.1067
2838.0,0.1059
2837.0,0.1031
2836.0,0.0987
2835.0,0.0931
2834.0,0.0867
2833.0,0.0802
2832.0,0.0741
2831.0,0.0687
2830.0,0.064
2829.0,0.0601
2828.0,0.0568
2827.0,0.054
2826.0,0.0517
2825.0,0.0497
2824.0,0.048
2823.0,0.0466
2822.0,0.0453
2821.0,0.0441
2820.0,0.0431
2819.0,0.0421
2818.0,0.0412
2817.0,0.0404
2816.0,0.0397
2815.0,0.039
2814.0,0.0384
2813.0,0.0379
2812.0,0.0373
2811.0,0.0368
2810.0,0.0362
2809.0,0.0357
2808.0,0.0352
2807.0,0.0346
2806.0,0.034
2805.0,0.0334
2804.0,0.0327
2803.0,0.0321
2802.0,0.0316
2801.0,0.0312
2800.0,0.0308
2799.0,0.0305
2798.0,0.0302
2797.0,0.0299
2796.0,0.0296
2795.0,0.0294
2794.0,0.0292
2793.0,0.0289
2792.0,0.0285
2791.0,0.0281
2790.0,0.0277
2789.0,0.0274
2788.0,0.027
2787.0,0.0267
2786.0,0.0263
2785.0,0.026
2784.0,0.0257
2783.0,0.0254
2782.0,0.0252
2781.0,0.0249
2780.0,0.0246
2779.0,0.0244
2778.0,0.0241
2777.0,0.0239
2776.0,0.0237
2775.0,0.0235
2774.0,0.0234
2773.0,0.0234
2772.0,0.0233
2771.0,0.0232
2770.0,0.0231
2769.0,0.0229
2768.0,0.0228
2767.0,0.0226
2766.0,0.0225
2765.0,0.0224
2764.0,0.0223
2763.0,0.0222
2762.0,0.022
2761.0,0.0219
2760.0,0.0218
2759.0,0.0217
2758.0,0.0216
2757.0,0.0216
2756.0,0.0215
2755.0,0.0214
2754.0,0.0213
2753.0,0.0212
2752.0,0.0212
2751.0,0.0212
2750.0,0.0211
2749.0,0.0211
2748.0,0.0211
2747.0,0.021
2746.0,0.021
2745.0,0.021
2744.0,0.021
2743.0,0.0211
2742.0,0.0211
2741.0,0.0211
2740.0,0.0211
2739.0,0.0211
2738.0,0.0212
2737.0,0.0214
2736.0,0.0215
2735.0,0.0216
2734.0,0.0216
2733.0,0.0216
2732.0,0.0217
2731.0,0.0218
2730.0,0.022
2729.0,0.0222
2728.0,0.0223
2727.0,0.0225
2726.0,0.0227
2725.0,0.0228
2724.0,0.023
2723.0,0.0231
2722.0,0.023
2721.0,0.0229
2720.0,0.0227
2719.0,0.0224
2718.0,0.0222
2717.0,0.0219
2716.0,0.0217
2715.0,0.0214
2714.0,0.0212
2713.0,0.021
2712.0,0.0208
2711.0,0.0207
2710.0,0.0206
2709.0,0.0205
2708.0,0.0203
2707.0,0.0202
2706.0,0.02
2705.0,0.0199
2704.0,0.0198
2703.0,0.0196
2702.0,0.0195
2701.0,0.0194
2700.0,0.0193
2699.0,0.0193
2698.0,0.0192
2697.0,0.0192
2696.0,0.0191
2695.0,0.0191
2694.0,0.0191
2693.0,0.019
2692.0,0.019
2691.0,0.0189
2690.0,0.0189
2689.0,0.0189
2688.0,0.0188
2687.0,0.0188
2686.0,0.0188
2685.0,0.0189
2684.0,0.0189
2683.0,0.0188
2682.0,0.0187
2681.0,0.0187
2680.0,0.0186
2679.0,0.0186
2678.0,0.0186
2677.0,0.0186
2676.0,0.0186
2675.0,0.0186
2674.0,0.0185
2673.0,0.0185
2672.0,0.0184
2671.0,0.0184
2670.0,0.0183
2669.0,0.0183
2668.0,0.0183
2667.0,0.0183
2666.0,0.0183
2665.0,0.0183
2664.0,0.0183
2663.0,0.0183
2662.0,0.0183
2661.0,0.0183
2660.0,0.0183
2659.0,0.0183
2658.0,0.0182
2657.0,0.0181
2656.0,0.018
2655.0,0.0179
2654.0,0.0178
2653.0,0.0177
2652.0,0.0177
2651.0,0.0177
2650.0,0.0177
2649.0,0.0177
2648.0,0.0177
2647.0,0.0176
2646.0,0.0176
2645.0,0.0175
2644.0,0.0174
2643.0,0.0174
2642.0,0.0173
2641.0,0.0173
2640.0,0.0173
2639.0,0.0173
2638.0,0.0172
2637.0,0.0172
2636.0,0.0172
2635.0,0.0171
2634.0,0.017
2633.0,0.017
2632.0,0.017
2631.0,0.0171
2630.0,0.0172
2629.0,0.0171
2628.0,0.0171
2627.0,0.017
2626.0,0.017
2625.0,0.0171
2624.0,0.0172
2623.0,0.0172
2622.0,0.0172
2621.0,0.0171
2620.0,0.0171
2619.0,0.0171
2618.0,0.0171
2617.0,0.0171
2616.0,0.0171
2615.0,0.0171
2614.0,0.0171
2613.0,0.0171
2612.0,0.017
2611.0,0.0169
2610.0,0.0168
2609.0,0.0168
2608.0,0.0168
2607.0,0.0167
2606.0,0.0166
2605.0,0.0165
2604.0,0.0164
2603.0,0.0163
2602.0,0.0162
2601.0,0.0162
2600.0,0.0163
2599.0,0.0163
2598.0,0.0162
2597.0,0.0162
2596.0,0.0162
2595.0,0.0162
2594.0,0.0162
2593.0,0.0162
2592.0,0.0163
2591.0,0.0163
2590.0,0.0164
2589.0,0.0164
2588.0,0.0164
2587.0,0.0164
2586.0,0.0165
2585.0,0.0166
2584.0,0.0167
2583.0,0.0168
2582.0,0.0168
2581.0,0.0168
2580.0,0.0168
2579.0,0.0167
2578.0,0.0167
2577.0,0.0166
2576.0,0.0165
2575.0,0.0164
2574.0,0.0163
2573.0,0.0162
2572.0,0.016
2571.0,0.0159
2570.0,0.0158
2569.0,0.0158
2568.0,0.0157
2567.0,0.0157
2566.0,0.0157
2565.0,0.0157
2564.0,0.0157
2563.0,0.0156
2562.0,0.0156
2561.0,0.0155
2560.0,0.0155
2559.0,0.0154
2558.0,0.0154
2557.0,0.0154
2556.0,0.0154
2555.0,0.0153
2554.0,0.0153
2553.0,0.0153
2552.0,0.0152
2551.0,0.0152
2550.0,0.0151
2549.0,0.0151
2548.0,0.0151
2547.0,0.015
2546.0,0.015
2545.0,0.0149
2544.0,0.0148
2543.0,0.0148
2542.0,0.0148
2541.0,0.0148
2540.0,0.0147
2539.0,0.0147
2538.0,0.0146
2537.0,0.0146
2536.0,0.0146
2535.0,0.0145
2534.0,0.0145
2533.0,0.0145
2532.0,0.0145
2531.0,0.0145
2530.0,0.0145
2529.0,0.0145
2528.0,0.0144
2527.0,0.0144
2526.0,0.0143
2525.0,0.0142
2524.0,0.0142
2523.0,0.0142
2522.0,0.0142
2521.0,0.0142
2520.0,0.0141
2519.0,0.0141
2518.0,0.0141
2517.0,0.0141
2516.0,0.0141
2515.0,0.0141
2514.0,0.014
2513.0,0.0139
2512.0,0.0139
2511.0,0.0139
2510.0,0.0139
2509.0,0.014
2508.0,0.014
2507.0,0.014
2506.0,0.0139
2505.0,0.0139
2504.0,0.0138
2503.0,0.0138
2502.0,0.0138
2501.0,0.0138
2500.0,0.0138
2499.0,0.0137
2498.0,0.0137
2497.0,0.0137
2496.0,0.0136
2495.0,0.0136
2494.0,0.0136
2493.0,0.0137
2492.0,0.0137
2491.0,0.0137
2490.0,0.0137
2489.0,0.0137
2488.0,0.0137
2487.0,0.0136
2486.0,0.0136
2485.0,0.0136
2484.0,0.0136
2483.0,0.0136
2482.0,0.0136
2481.0,0.0136
2480.0,0.0136
2479.0,0.0136
2478.0,0.0136
2477.0,0.0136
2476.0,0.0135
2475.0,0.0134
2474.0,0.0134
2473.0,0.0134
2472.0,0.0134
2471.0,0.0134
2470.0,0.0134
2469.0,0.0134
2468.0,0.0133
2467.0,0.0133
2466.0,0.0134
2465.0,0.0134
2464.0,0.0134
2463.0,0.0134
2462.0,0.0134
2461.0,0.0134
2460.0,0.0134
2459.0,0.0133
2458.0,0.0132
2457.0,0.0132
2456.0,0.0132
2455.0,0.0132
2454.0,0.0133
2453.0,0.0133
2452.0,0.0133
2451.0,0.0132
2450.0,0.0132
2449.0,0.0132
2448.0,0.0132
2447.0,0.0132
2446.0,0.0131
2445.0,0.0131
2444.0,0.0131
2443.0,0.0131
2442.0,0.0131
2441.0,0.0131
2440.0,0.0132
2439.0,0.0132
2438.0,0.0132
2437.0,0.0132
2436.0,0.0132
2435.0,0.0132
2434.0,0.0132
2433.0,0.0132
2432.0,0.0133
2431.0,0.0133
2430.0,0.0133
2429.0,0.0133
2428.0,0.0133
2427.0,0.0133
2426.0,0.0133
2425.0,0.0133
2424.0,0.0133
2423.0,0.0132
2422.0,0.0132
2421.0,0.0131
2420.0,0.0131
2419.0,0.0131
2418.0,0.0131
2417.0,0.0131
2416.0,0.0131
2415.0,0.0132
2414.0,0.0132
2413.0,0.0132
2412.0,0.0132
2411.0,0.0132
2410.0,0.0132
2409.0,0.0132
2408.0,0.0132
2407.0,0.0133
2406.0,0.0133
2405.0,0.0133
2404.0,0.0132
2403.0,0.0132
2402.0,0.0131
2401.0,0.0131
2400.0,0.0131
2399.0,0.0131
2398.0,0.013
2397.0,0.013
2396.0,0.013
2395.0,0.013
2394.0,0.0129
2393.0,0.0129
2392.0,0.0129
2391.0,0.013
2390.0,0.013
2389.0,0.013
2388.0,0.0131
2387.0,0.0131
2386.0,0.0131
2385.0,0.0131
2384.0,0.013
2383.0,0.0129
2382.0,0.0129
2381.0,0.0129
2380.0,0.0129
2379.0,0.0129
2378.0,0.0128
2377.0,0.0127
2376.0,0.0127
2375.0,0.0129
2374.0,0.0132
2373.0,0.0136
2372.0,0.0138
2371.0,0.0136
2370.0,0.0133
2369.0,0.0128
2368.0,0.0126
2367.0,0.0126
2366.0,0.0129
2365.0,0.0134
2364.0,0.0138
2363.0,0.0139
2362.0,0.0138
2361.0,0.0137
2360.0,0.0138
2359.0,0.0138
2358.0,0.0138
2357.0,0.0136
2356.0,0.0135
2355.0,0.0137
2354.0,0.0143
2353.0,0.0149
2352.0,0.0154
2351.0,0.0158
2350.0,0.0158
2349.0,0.0153
2348.0,0.0144
2347.0,0.0137
2346.0,0.0135
2345.0,0.0138
2344.0,0.0141
2343.0,0.014
2342.0,0.014
2341.0,0.0142
2340.0,0.0145
2339.0,0.0147
2338.0,0.0145
2337.0,0.0143
2336.0,0.014
2335.0,0.0138
2334.0,0.0136
2333.0,0.0134
2332.0,0.0133
2331.0,0.0135
2330.0,0.0139
2329.0,0.0143
2328.0,0.0144
2327.0,0.0141
2326.0,0.0136
2325.0,0.013
2324.0,0.0127
2323.0,0.0127
2322.0,0.013
2321.0,0.0133
2320.0,0.0136
2319.0,0.0137
2318.0,0.0136
2317.0,0.0135
2316.0,0.0134
2315.0,0.0133
2314.0,0.0132
2313.0,0.0132
2312.0,0.0132
2311.0,0.0133
2310.0,0.0132
2309.0,0.0131
2308.0,0.013
2307.0,0.013
2306.0,0.0129
2305.0,0.0129
2304.0,0.0129
2303.0,0.013
2302.0,0.013
2301.0,0.013
2300.0,0.013
2299.0,0.0129
2298.0,0.0128
2297.0,0.0128
2296.0,0.0128
2295.0,0.0127
2294.0,0.0127
2293.0,0.0126
2292.0,0.0125
2291.0,0.0124
2290.0,0.0124
2289.0,0.0124
2288.0,0.0123
2287.0,0.0123
2286.0,0.0122
2285.0,0.0121
2284.0,0.0121
2283.0,0.0121
2282.0,0.0121
2281.0,0.0121
2280.0,0.0121
2279.0,0.012
2278.0,0.012
2277.0,0.0121
2276.0,0.0121
2275.0,0.0122
2274.0,0.0122
2273.0,0.0121
2272.0,0.0121
2271.0,0.0121
2270.0,0.0121
2269.0,0.0122
2268.0,0.0122
2267.0,0.0122
2266.0,0.0122
2265.0,0.0122
2264.0,0.0122
2263.0,0.0122
2262.0,0.0121
2261.0,0.0121
2260.0,0.0122
2259.0,0.0122
2258.0,0.0122
2257.0,0.0122
2256.0,0.0122
2255.0,0.0122
2254.0,0.0121
2253.0,0.0121
2252.0,0.012
2251.0,0.012
2250.0,0.0119
2249.0,0.0119
2248.0,0.0119
2247.0,0.0119
2246.0,0.0118
2245.0,0.0118
2244.0,0.0118
2243.0,0.0118
2242.0,0.0118
2241.0,0.0119
2240.0,0.0119
2239.0,0.0119
2238.0,0.0119
2237.0,0.0118
2236.0,0.0118
2235.0,0.0118
2234.0,0.0117
2233.0,0.0117
2232.0,0.0117
2231.0,0.0117
2230.0,0.0117
2229.0,0.0117
2228.0,0.0117
2227.0,0.0117
2226.0,0.0117
2225.0,0.0117
2224.0,0.0117
2223.0,0.0117
2222.0,0.0117
2221.0,0.0117
2220.0,0.0117
2219.0,0.0118
2218.0,0.0117
2217.0,0.0117
2216.0,0.0117
2215.0,0.0117
2214.0,0.0117
2213.0,0.0117
2212.0,0.0117
2211.0,0.0117
2210.0,0.0117
2209.0,0.0117
2208.0,0.0117
2207.0,0.0117
2206.0,0.0116
2205.0,0.0116
2204.0,0.0116
2203.0,0.0115
2202.0,0.0115
2201.0,0.0115
2200.0,0.0116
2199.0,0.0116
2198.0,0.0117
2197.0,0.0117
2196.0,0.0117
2195.0,0.0117
2194.0,0.0117
2193.0,0.0117
2192.0,0.0117
2191.0,0.0117
2190.0,0.0117
2189.0,0.0117
2188.0,0.0117
2187.0,0.0118
2186.0,0.0118
2185.0,0.0118
2184.0,0.0118
2183.0,0.0118
2182.0,0.0118
2181.0,0.0118
2180.0,0.0118
2179.0,0.0117
2178.0,0.0117
2177.0,0.0117
2176.0,0.0117
2175.0,0.0117
2174.0,0.0118
2173.0,0.0118
2172.0,0.0118
2171.0,0.0119
2170.0,0.0119
2169.0,0.0119
2168.0,0.0118
2167.0,0.0118
2166.0,0.0117
2165.0,0.0116
2164.0,0.0115
2163.0,0.0115
2162.0,0.0114
2161.0,0.0114
2160.0,0.0115
2159.0,0.0115
2158.0,0.0115
2157.0,0.0115
2156.0,0.0115
2155.0,0.0116
2154.0,0.0116
2153.0,0.0116
2152.0,0.0116
2151.0,0.0115
2150.0,0.0115
2149.0,0.0115
2148.0,0.0115
2147.0,0.0115
2146.0,0.0115
2145.0,0.0115
2144.0,0.0115
2143.0,0.0114
2142.0,0.0114
2141.0,0.0114
2140.0,0.0114
2139.0,0.0114
2138.0,0.0115
2137.0,0.0115
2136.0,0.0115
2135.0,0.0115
2134.0,0.0114
2133.0,0.0114
2132.0,0.0114
2131.0,0.0114
2130.0,0.0114
2129.0,0.0114
2128.0,0.0114
2127.0,0.0114
2126.0,0.0114
2125.0,0.0114
2124.0,0.0114
2123.0,0.0114
2122.0,0.0113
2121.0,0.0113
2120.0,0.0113
2119.0,0.0113
2118.0,0.0113
2117.0,0.0113
2116.0,0.0113
2115.0,0.0112
2114.0,0.0112
2113.0,0.0113
2112.0,0.0113
2111.0,0.0113
2110.0,0.0113
2109.0,0.0112
2108.0,0.0112
2107.0,0.0112
2106.0,0.0112
2105.0,0.0112
2104.0,0.0111
2103.0,0.0111
2102.0,0.011
2101.0,0.011
2100.0,0.0111
2099.0,0.0111
2098.0,0.0111
2097.0,0.0111
2096.0,0.0111
2095.0,0.0112
2094.0,0.0112
2093.0,0.0112
2092.0,0.0112
2091.0,0.0112
2090.0,0.0112
2089.0,0.0112
2088.0,0.0112
2087.0,0.0111
2086.0,0.0111
2085.0,0.0111
2084.0,0.0111
2083.0,0.0111
2082.0,0.0111
2081.0,0.0111
2080.0,0.0112
2079.0,0.0112
2078.0,0.0112
2077.0,0.0111
2076.0,0.0111
2075.0,0.0111
2074.0,0.011
2073.0,0.011
2072.0,0.011
2071.0,0.011
2070.0,0.011
2069.0,0.0109
2068.0,0.011
2067.0,0.011
2066.0,0.011
2065.0,0.0111
2064.0,0.0111
2063.0,0.011
2062.0,0.011
2061.0,0.011
2060.0,0.011
2059.0,0.0109
2058.0,0.0109
2057.0,0.011
2056.0,0.011
2055.0,0.011
2054.0,0.0111
2053.0,0.0111
2052.0,0.0111
2051.0,0.0111
2050.0,0.0111
2049.0,0.0111
2048.0,0.0111
2047.0,0.0111
2046.0,0.0111
2045.0,0.0111
2044.0,0.0111
2043.0,0.0111
2042.0,0.0111
2041.0,0.0111
2040.0,0.0111
2039.0,0.0111
2038.0,0.0111
2037.0,0.0111
2036.0,0.0112
2035.0,0.0111
2034.0,0.0111
2033.0,0.0111
2032.0,0.0111
2031.0,0.0111
2030.0,0.0111
2029.0,0.0111
2028.0,0.0111
2027.0,0.0111
2026.0,0.0111
2025.0,0.0111
2024.0,0.0111
2023.0,0.0111
2022.0,0.0111
2021.0,0.0111
2020.0,0.0111
2019.0,0.0111
2018.0,0.0111
2017.0,0.0112
2016.0,0.0112
2015.0,0.0112
2014.0,0.0112
2013.0,0.0112
2012.0,0.0112
2011.0,0.0111
2010.0,0.0111
2009.0,0.011
2008.0,0.011
2007.0,0.011
2006.0,0.011
2005.0,0.0111
2004.0,0.0111
2003.0,0.0111
2002.0,0.0111
2001.0,0.0112
2000.0,0.0112
1999.0,0.0111
1998.0,0.0111
1997.0,0.0111
1996.0,0.011
1995.0,0.0111
1994.0,0.0111
1993.0,0.0111
1992.0,0.0112
1991.0,0.0112
1990.0,0.0111
1989.0,0.0111
1988.0,0.0111
1987.0,0.0111
1986.0,0.0112
1985.0,0.0112
1984.0,0.0112
1983.0,0.0112
1982.0,0.0112
1981.0,0.0112
1980.0,0.0111
1979.0,0.0111
1978.0,0.0111
1977.0,0.0112
1976.0,0.0112
1975.0,0.0113
1974.0,0.0113
1973.0,0.0112
1972.0,0.0112
1971.0,0.0112
1970.0,0.0112
1969.0,0.0113
1968.0,0.0113
1967.0,0.0113
1966.0,0.0112
1965.0,0.0112
1964.0,0.0112
1963.0,0.0112
1962.0,0.0112
1961.0,0.0113
1960.0,0.0112
1959.0,0.0112
1958.0,0.0112
1957.0,0.0112
1956.0,0.0112
1955.0,0.0112
1954.0,0.0112
1953.0,0.0112
1952.0,0.0113
1951.0,0.0113
1950.0,0.0113
1949.0,0.0113
1948.0,0.0113
1947.0,0.0114
1946.0,0.0114
1945.0,0.0115
1944.0,0.0115
1943.0,0.0115
1942.0,0.0114
1941.0,0.0114
1940.0,0.0114
1939.0,0.0113
1938.0,0.0113
1937.0,0.0113
1936.0,0.0113
1935.0,0.0113
1934.0,0.0113
1933.0,0.0113
1932.0,0.0113
1931.0,0.0113
1930.0,0.0113
1929.0,0.0114
1928.0,0.0114
1927.0,0.0115
1926.0,0.0115
1925.0,0.0114
1924.0,0.0114
1923.0,0.0114
1922.0,0.0114
1921.0,0.0114
1920.0,0.0115
1919.0,0.0115
1918.0,0.0115
1917.0,0.0115
1916.0,0.0115
1915.0,0.0115
1914.0,0.0115
1913.0,0.0115
1912.0,0.0115
1911.0,0.0115
1910.0,0.0115
1909.0,0.0115
1908.0,0.0115
1907.0,0.0115
1906.0,0.0115
1905.0,0.0115
1904.0,0.0115
1903.0,0.0115
1902.0,0.0115
1901.0,0.0116
1900.0,0.0116
1899.0,0.0117
1898.0,0.0117
1897.0,0.0117
1896.0,0.0117
1895.0,0.0117
1894.0,0.0117
1893.0,0.0117
1892.0,0.0117
1891.0,0.0116
1890.0,0.0116
1889.0,0.0116
1888.0,0.0117
1887.0,0.0117
1886.0,0.0117
1885.0,0.0116
1884.0,0.0116
1883.0,0.0116
1882.0,0.0116
1881.0,0.0117
1880.0,0.0117
1879.0,0.0117
1878.0,0.0116
1877.0,0.0116
1876.0,0.0116
1875.0,0.0116
1874.0,0.0116
1873.0,0.0117
1872.0,0.0117
1871.0,0.0117
1870.0,0.0117
1869.0,0.0117
1868.0,0.0117
1867.0,0.0117
1866.0,0.0117
1865.0,0.0117
1864.0,0.0117
1863.0,0.0117
1862.0,0.0117
1861.0,0.0117
1860.0,0.0117
1859.0,0.0117
1858.0,0.0117
1857.0,0.0117
1856.0,0.0116
1855.0,0.0116
1854.0,0.0117
1853.0,0.0117
1852.0,0.0118
1851.0,0.0118
1850.0,0.0118
1849.0,0.0118
1848.0,0.0118
1847.0,0.0118
1846.0,0.0118
1845.0,0.0118
1844.0,0.0118
1843.0,0.0118
1842.0,0.0117
1841.0,0.0117
1840.0,0.0118
1839.0,0.0118
1838.0,0.0118
1837.0,0.0119
1836.0,0.0119
1835.0,0.0119
1834.0,0.012
1833.0,0.012
1832.0,0.012
1831.0,0.012
1830.0,0.012
1829.0,0.012
1828.0,0.012
1827.0,0.012
1826.0,0.012
1825.0,0.012
1824.0,0.0119
1823.0,0.0118
1822.0,0.0118
1821.0,0.0118
1820.0,0.0118
1819.0,0.0118
1818.0,0.0118
1817.0,0.0118
1816.0,0.0118
1815.0,0.0118
1814.0,0.0118
1813.0,0.0119
1812.0,0.012
1811.0,0.012
1810.0,0.012
1809.0,0.012
1808.0,0.012
1807.0,0.0119
1806.0,0.0119
1805.0,0.012
1804.0,0.012
1803.0,0.012
1802.0,0.012
1801.0,0.012
1800.0,0.0121
1799.0,0.012
1798.0,0.012
1797.0,0.0121
1796.0,0.0121
1795.0,0.0121
1794.0,0.012
1793.0,0.012
1792.0,0.012
1791.0,0.0121
1790.0,0.0121
1789.0,0.0121
1788.0,0.0121
1787.0,0.0121
1786.0,0.0121
1785.0,0.0122
1784.0,0.0122
1783.0,0.0122
1782.0,0.0122
1781.0,0.0122
1780.0,0.0122
1779.0,0.0122
1778.0,0.0122
1777.0,0.0122
1776.0,0.0123
1775.0,0.0123
1774.0,0.0124
1773.0,0.0124
1772.0,0.0125
1771.0,0.0125
1770.0,0.0125
1769.0,0.0125
1768.0,0.0125
1767.0,0.0125
1766.0,0.0125
1765.0,0.0125
1764.0,0.0126
1763.0,0.0127
1762.0,0.0127
1761.0,0.0128
1760.0,0.0128
1759.0,0.0129
1758.0,0.013
1757.0,0.013
1756.0,0.0131
1755.0,0.0132
1754.0,0.0133
1753.0,0.0135
1752.0,0.0137
1751.0,0.0139
1750.0,0.0141
1749.0,0.0142
1748.0,0.0143
1747.0,0.0144
1746.0,0.0144
1745.0,0.0145
1744.0,0.0147
1743.0,0.0148
1742.0,0.0148
1741.0,0.0148
1740.0,0.0148
1739.0,0.0147
1738.0,0.0147
1737.0,0.0147
1736.0,0.0146
1735.0,0.0144
1734.0,0.0143
1733.0,0.0143
1732.0,0.0144
1731.0,0.0144
1730.0,0.0145
1729.0,0.0145
1728.0,0.0144
1727.0,0.0144
1726.0,0.0144
1725.0,0.0145
1724.0,0.0145
1723.0,0.0145
1722.0,0.0145
1721.0,0.0145
1720.0,0.0144
1719.0,0.0144
1718.0,0.0143
1717.0,0.0144
1716.0,0.0145
1715.0,0.0146
1714.0,0.0146
1713.0,0.0145
1712.0,0.0145
1711.0,0.0145
1710.0,0.0145
1709.0,0.0145
1708.0,0.0146
1707.0,0.0146
1706.0,0.0146
1705.0,0.0147
1704.0,0.0147
1703.0,0.0147
1702.0,0.0146
1701.0,0.0145
1700.0,0.0145
1699.0,0.0145
1698.0,0.0145
1697.0,0.0146
1696.0,0.0146
1695.0,0.0145
1694.0,0.0145
1693.0,0.0145
1692.0,0.0147
1691.0,0.0147
1690.0,0.0148
1689.0,0.0149
1688.0,0.0151
1687.0,0.0151
1686.0,0.0152
1685.0,0.0152
1684.0,0.0153
1683.0,0.0153
1682.0,0.0153
1681.0,0.0153
1680.0,0.0154
1679.0,0.0154
1678.0,0.0153
1677.0,0.0153
1676.0,0.0153
1675.0,0.0153
1674.0,0.0153
1673.0,0.0154
1672.0,0.0155
1671.0,0.0156
1670.0,0.0157
1669.0,0.0158
1668.0,0.0157
1667.0,0.0157
1666.0,0.0157
1665.0,0.0157
1664.0,0.0158
1663.0,0.0158
1662.0,0.0159
1661.0,0.0159
1660.0,0.016
1659.0,0.016
1658.0,0.016
1657.0,0.0161
1656.0,0.0161
1655.0,0.0161
1654.0,0.016
1653.0,0.0162
1652.0,0.0161
1651.0,0.0161
1650.0,0.0162
1649.0,0.0162
1648.0,0.0162
1647.0,0.0163
1646.0,0.0163
1645.0,0.0163
1644.0,0.0163
1643.0,0.0163
1642.0,0.0163
1641.0,0.0163
1640.0,0.0163
1639.0,0.0163
1638.0,0.0163
1637.0,0.0162
1636.0,0.0162
1635.0,0.0161
1634.0,0.016
1633.0,0.0159
1632.0,0.0158
1631.0,0.0158
1630.0,0.0157
1629.0,0.0157
1628.0,0.0157
1627.0,0.0156
1626.0,0.0156
1625.0,0.0156
1624.0,0.0156
1623.0,0.0156
1622.0,0.0156
1621.0,0.0155
1620.0,0.0155
1619.0,0.0154
1618.0,0.0153
1617.0,0.0152
1616.0,0.0152
1615.0,0.0151
1614.0,0.0151
1613.0,0.0151
1612.0,0.0151
1611.0,0.0152
1610.0,0.0152
1609.0,0.0153
1608.0,0.0153
1607.0,0.0154
1606.0,0.0154
1605.0,0.0153
1604.0,0.0153
1603.0,0.0153
1602.0,0.0153
1601.0,0.0152
1600.0,0.0152
1599.0,0.0151
1598.0,0.0151
1597.0,0.015
1596.0,0.015
1595.0,0.015
1594.0,0.015
1593.0,0.015
1592.0,0.015
1591.0,0.015
1590.0,0.015
1589.0,0.015
1588.0,0.015
1587.0,0.015
1586.0,0.0151
1585.0,0.0151
1584.0,0.0152
1583.0,0.0153
1582.0,0.0153
1581.0,0.0154
1580.0,0.0154
1579.0,0.0154
1578.0,0.0153
1577.0,0.0154
1576.0,0.0154
1575.0,0.0154
1574.0,0.0154
1573.0,0.0153
1572.0,0.0153
1571.0,0.0152
1570.0,0.0151
1569.0,0.0151
1568.0,0.0151
1567.0,0.015
1566.0,0.0149
1565.0,0.0149
1564.0,0.0149
1563.0,0.015
1562.0,0.015
1561.0,0.0149
1560.0,0.0146
1559.0,0.0147
1558.0,0.0148
1557.0,0.0148
1556.0,0.0149
1555.0,0.015
1554.0,0.015
1553.0,0.015
1552.0,0.0151
1551.0,0.0151
1550.0,0.015
1549.0,0.015
1548.0,0.0151
1547.0,0.0151
1546.0,0.0151
1545.0,0.0152
1544.0,0.0153
1543.0,0.0152
1542.0,0.015
1541.0,0.015
1540.0,0.015
1539.0,0.0149
1538.0,0.0146
1537.0,0.0145
1536.0,0.0145
1535.0,0.0144
1534.0,0.0143
1533.0,0.0142
1532.0,0.0141
1531.0,0.014
1530.0,0.0139
1529.0,0.0138
1528.0,0.0138
1527.0,0.0137
1526.0,0.0136
1525.0,0.0135
1524.0,0.0135
1523.0,0.0134
1522.0,0.0133
1521.0,0.0134
1520.0,0.0134
1519.0,0.0134
1518.0,0.0133
1517.0,0.0134
1516.0,0.0133
1515.0,0.0132
1514.0,0.013
1513.0,0.013
1512.0,0.0131
1511.0,0.0131
1510.0,0.013
1509.0,0.0129
1508.0,0.0129
1507.0,0.013
1506.0,0.0129
1505.0,0.0128
1504.0,0.0128
1503.0,0.0128
1502.0,0.0128
1501.0,0.0129
1500.0,0.013
1499.0,0.0131
1498.0,0.0132
1497.0,0.0136
1496.0,0.0141
1495.0,0.0143
1494.0,0.0145
1493.0,0.0146
1492.0,0.0147
1491.0,0.0146
1490.0,0.0144
1489.0,0.0144
1488.0,0.0145
1487.0,0.0145
1486.0,0.0146
1485.0,0.0148
1484.0,0.0151
1483.0,0.0155
1482.0,0.0159
1481.0,0.0166
1480.0,0.0174
1479.0,0.0182
1478.0,0.0193
1477.0,0.0213
1476.0,0.024
1475.0,0.0272
1474.0,0.0313
1473.0,0.0368
1472.0,0.0422
1471.0,0.0463
1470.0,0.05
1469.0,0.0542
1468.0,0.059
1467.0,0.0644
1466.0,0.0714
1465.0,0.0796
1464.0,0.0867
1463.0,0.091
1462.0,0.0934
1461.0,0.095
1460.0,0.096
1459.0,0.0966
1458.0,0.0979
1457.0,0.1001
1456.0,0.1014
1455.0,0.1016
1454.0,0.1016
1453.0,0.1012
1452.0,0.1002
1451.0,0.0984
1450.0,0.0956
1449.0,0.0913
1448.0,0.0853
1447.0,0.0788
1446.0,0.073
1445.0,0.0679
1444.0,0.0632
1443.0,0.0592
1442.0,0.056
1441.0,0.0538
1440.0,0.0523
1439.0,0.0514
1438.0,0.0512
1437.0,0.0514
1436.0,0.0509
1435.0,0.0493
1434.0,0.0468
1433.0,0.0437
1432.0,0.0403
1431.0,0.0371
1430.0,0.0345
1429.0,0.0325
1428.0,0.031
1427.0,0.03
1426.0,0.0292
1425.0,0.0284
1424.0,0.0277
1423.0,0.0272
1422.0,0.0269
1421.0,0.0265
1420.0,0.0259
1419.0,0.0256
1418.0,0.0254
1417.0,0.0251
1416.0,0.0247
1415.0,0.0244
1414.0,0.0241
1413.0,0.0238
1412.0,0.0235
1411.0,0.0232
1410.0,0.023
1409.0,0.0226
1408.0,0.0222
1407.0,0.022
1406.0,0.0219
1405.0,0.0217
1404.0,0.0214
1403.0,0.0213
1402.0,0.0212
1401.0,0.021
1400.0,0.0208
1399.0,0.0207
1398.0,0.0207
1397.0,0.0205
1396.0,0.0203
1395.0,0.0202
1394.0,0.0202
1393.0,0.0202
1392.0,0.0201
1391.0,0.0203
1390.0,0.0207
1389.0,0.0212
1388.0,0.0223
1387.0,0.0242
1386.0,0.0271
1385.0,0.0309
1384.0,0.0364
1383.0,0.0444
1382.0,0.0551
1381.0,0.0687
1380.0,0.0856
1379.0,0.1048
1378.0,0.1234
1377.0,0.1371
1376.0,0.1426
1375.0,0.1376
1374.0,0.1239
1373.0,0.1076
1372.0,0.093
1371.0,0.0805
1370.0,0.0698
1369.0,0.061
1368.0,0.0546
1367.0,0.0505
1366.0,0.0481
1365.0,0.047
1364.0,0.0469
1363.0,0.0478
1362.0,0.0493
1361.0,0.0508
1360.0,0.0519
1359.0,0.0521
1358.0,0.0513
1357.0,0.0494
1356.0,0.0468
1355.0,0.0439
1354.0,0.0411
1353.0,0.0388
1352.0,0.0369
1351.0,0.0352
1350.0,0.0339
1349.0,0.0327
1348.0,0.0317
1347.0,0.0307
1346.0,0.0299
1345.0,0.0292
1344.0,0.0286
1343.0,0.0281
1342.0,0.0277
1341.0,0.0274
1340.0,0.0271
1339.0,0.0269
1338.0,0.0267
1337.0,0.0266
1336.0,0.0266
1335.0,0.0266
1334.0,0.0267
1333.0,0.0269
1332.0,0.0271
1331.0,0.0274
1330.0,0.0275
1329.0,0.0274
1328.0,0.0272
1327.0,0.0269
1326.0,0.0265
1325.0,0.026
1324.0,0.0255
1323.0,0.025
1322.0,0.0246
1321.0,0.0243
1320.0,0.0241
1319.0,0.024
1318.0,0.0238
1317.0,0.0237
1316.0,0.0235
1315.0,0.0234
1314.0,0.0233
1313.0,0.0232
1312.0,0.0232
1311.0,0.0233
1310.0,0.0236
1309.0,0.024
1308.0,0.0247
1307.0,0.0256
1306.0,0.0265
1305.0,0.0273
1304.0,0.0276
1303.0,0.0274
1302.0,0.027
1301.0,0.0266
1300.0,0.0264
1299.0,0.0263
1298.0,0.0262
1297.0,0.0263
1296.0,0.0262
1295.0,0.0261
1294.0,0.0258
1293.0,0.0255
1292.0,0.0251
1291.0,0.0248
1290.0,0.0244
1289.0,0.0242
1288.0,0.0239
1287.0,0.0237
1286.0,0.0235
1285.0,0.0233
1284.0,0.0231
1283.0,0.023
1282.0,0.0228
1281.0,0.0227
1280.0,0.0227
1279.0,0.0226
1278.0,0.0225
1277.0,0.0225
1276.0,0.0224
1275.0,0.0224
1274.0,0.0224
1273.0,0.0223
1272.0,0.0223
1271.0,0.0223
1270.0,0.0223
1269.0,0.0223
1268.0,0.0224
1267.0,0.0225
1266.0,0.0226
1265.0,0.0227
1264.0,0.0229
1263.0,0.0231
1262.0,0.0233
1261.0,0.0236
1260.0,0.0241
1259.0,0.0247
1258.0,0.0253
1257.0,0.0259
1256.0,0.0263
1255.0,0.0263
1254.0,0.0259
1253.0,0.0253
1252.0,0.0247
1251.0,0.0242
1250.0,0.0238
1249.0,0.0234
1248.0,0.0232
1247.0,0.0229
1246.0,0.0227
1245.0,0.0226
1244.0,0.0225
1243.0,0.0224
1242.0,0.0224
1241.0,0.0223
1240.0,0.0222
1239.0,0.0221
1238.0,0.0221
1237.0,0.0221
1236.0,0.0221
1235.0,0.0221
1234.0,0.022
1233.0,0.022
1232.0,0.0219
1231.0,0.0219
1230.0,0.0219
1229.0,0.0219
1228.0,0.0219
1227.0,0.022
1226.0,0.0222
1225.0,0.0224
1224.0,0.0226
1223.0,0.0228
1222.0,0.023
1221.0,0.0231
1220.0,0.0232
1219.0,0.0231
1218.0,0.0231
1217.0,0.0229
1216.0,0.0228
1215.0,0.0226
1214.0,0.0224
1213.0,0.0221
1212.0,0.0219
1211.0,0.0218
1210.0,0.0217
1209.0,0.0216
1208.0,0.0215
1207.0,0.0214
1206.0,0.0213
1205.0,0.0213
1204.0,0.0213
1203.0,0.0213
1202.0,0.0212
1201.0,0.0212
1200.0,0.0212
1199.0,0.0213
1198.0,0.0213
1197.0,0.0213
1196.0,0.0212
1195.0,0.0212
1194.0,0.0211
1193.0,0.0211
1192.0,0.0211
1191.0,0.0211
1190.0,0.0211
1189.0,0.0211
1188.0,0.0211
1187.0,0.0212
1186.0,0.0212
1185.0,0.0213
1184.0,0.0214
1183.0,0.0215
1182.0,0.0216
1181.0,0.0218
1180.0,0.0219
1179.0,0.0222
1178.0,0.0227
1177.0,0.0233
1176.0,0.0242
1175.0,0.0253
1174.0,0.027
1173.0,0.0291
1172.0,0.0316
1171.0,0.0345
1170.0,0.0374
1169.0,0.0397
1168.0,0.0412
1167.0,0.0417
1166.0,0.0412
1165.0,0.0402
1164.0,0.0389
1163.0,0.0377
1162.0,0.0365
1161.0,0.0356
1160.0,0.0348
1159.0,0.0342
1158.0,0.0337
1157.0,0.0333
1156.0,0.0331
1155.0,0.033
1154.0,0.0328
1153.0,0.0326
1152.0,0.0323
1151.0,0.0317
1150.0,0.0311
1149.0,0.0303
1148.0,0.0296
1147.0,0.0288
1146.0,0.0281
1145.0,0.0274
1144.0,0.0268
1143.0,0.0263
1142.0,0.0258
1141.0,0.0253
1140.0,0.0248
1139.0,0.0244
1138.0,0.0241
1137.0,0.0238
1136.0,0.0236
1135.0,0.0234
1134.0,0.0233
1133.0,0.0231
1132.0,0.023
1131.0,0.0228
1130.0,0.0227
1129.0,0.0226
1128.0,0.0225
1127.0,0.0225
1126.0,0.0225
1125.0,0.0225
1124.0,0.0225
1123.0,0.0226
1122.0,0.0226
1121.0,0.0227
1120.0,0.0228
1119.0,0.0228
1118.0,0.0228
1117.0,0.0228
1116.0,0.0227
1115.0,0.0228
1114.0,0.0228
1113.0,0.023
1112.0,0.0231
1111.0,0.0233
1110.0,0.0235
1109.0,0.0238
1108.0,0.0241
1107.0,0.0246
1106.0,0.0251
1105.0,0.0257
1104.0,0.0262
1103.0,0.0264
1102.0,0.0265
1101.0,0.0263
1100.0,0.0259
1099.0,0.0255
1098.0,0.025
1097.0,0.0246
1096.0,0.0243
1095.0,0.024
1094.0,0.0237
1093.0,0.0235
1092.0,0.0233
1091.0,0.0231
1090.0,0.023
1089.0,0.023
1088.0,0.0229
1087.0,0.0229
1086.0,0.0229
1085.0,0.0229
1084.0,0.0228
1083.0,0.0227
1082.0,0.0227
1081.0,0.0226
1080.0,0.0225
1079.0,0.0224
1078.0,0.0224
1077.0,0.0223
1076.0,0.0222
1075.0,0.0222
1074.0,0.0222
1073.0,0.0223
1072.0,0.0223
1071.0,0.0222
1070.0,0.0222
1069.0,0.0221
1068.0,0.0221
1067.0,0.022
1066.0,0.022
1065.0,0.0221
1064.0,0.0221
1063.0,0.0221
1062.0,0.0222
1061.0,0.0222
1060.0,0.0222
1059.0,0.0222
1058.0,0.0222
1057.0,0.0223
1056.0,0.0224
1055.0,0.0225
1054.0,0.0226
1053.0,0.0228
1052.0,0.0229
1051.0,0.0232
1050.0,0.0235
1049.0,0.0238
1048.0,0.0241
1047.0,0.0243
1046.0,0.0245
1045.0,0.0245
1044.0,0.0244
1043.0,0.0242
1042.0,0.0239
1041.0,0.0237
1040.0,0.0235
1039.0,0.0234
1038.0,0.0232
1037.0,0.0231
1036.0,0.0231
1035.0,0.023
1034.0,0.023
1033.0,0.0229
1032.0,0.0229
1031.0,0.0229
1030.0,0.0229
1029.0,0.0229
1028.0,0.0229
1027.0,0.0228
1026.0,0.0227
1025.0,0.0226
1024.0,0.0226
1023.0,0.0225
1022.0,0.0225
1021.0,0.0225
1020.0,0.0226
1019.0,0.0227
1018.0,0.0227
1017.0,0.0227
1016.0,0.0226
1015.0,0.0226
1014.0,0.0226
1013.0,0.0226
1012.0,0.0226
1011.0,0.0227
1010.0,0.0227
1009.0,0.0228
1008.0,0.023
1007.0,0.0233
1006.0,0.0239
1005.0,0.0247
1004.0,0.026
1003.0,0.0279
1002.0,0.0306
1001.0,0.034
1000.0,0.0377
999.0,0.0409
998.0,0.0428
997.0,0.0427
996.0,0.0409
995.0,0.0379
994.0,0.0347
993.0,0.0319
992.0,0.0296
991.0,0.0278
990.0,0.0265
989.0,0.0255
988.0,0.0249
987.0,0.0244
986.0,0.0241
985.0,0.0241
984.0,0.0243
983.0,0.0248
982.0,0.0256
981.0,0.0268
980.0,0.0285
979.0,0.0309
978.0,0.0339
977.0,0.0374
976.0,0.0413
975.0,0.0451
974.0,0.0481
973.0,0.0495
972.0,0.0489
971.0,0.0464
970.0,0.0427
969.0,0.0389
968.0,0.0355
967.0,0.0328
966.0,0.0308
965.0,0.0294
964.0,0.0283
963.0,0.0275
962.0,0.0268
961.0,0.0261
960.0,0.0256
959.0,0.0252
958.0,0.0248
957.0,0.0245
956.0,0.0241
955.0,0.0238
954.0,0.0235
953.0,0.0233
952.0,0.0232
951.0,0.0232
950.0,0.0232
949.0,0.0232
948.0,0.0232
947.0,0.0233
946.0,0.0233
945.0,0.0234
944.0,0.0236
943.0,0.0239
942.0,0.0243
941.0,0.0245
940.0,0.0246
939.0,0.0243
938.0,0.0239
937.0,0.0234
936.0,0.023
935.0,0.0226
934.0,0.0222
933.0,0.022
932.0,0.0218
931.0,0.0217
930.0,0.0216
929.0,0.0216
928.0,0.0216
927.0,0.0216
926.0,0.0215
925.0,0.0214
924.0,0.0213
923.0,0.0213
922.0,0.0213
921.0,0.0213
920.0,0.0213
919.0,0.0214
918.0,0.0214
917.0,0.0214
916.0,0.0214
915.0,0.0214
914.0,0.0214
913.0,0.0215
912.0,0.0216
911.0,0.0218
910.0,0.0219
909.0,0.0221
908.0,0.0223
907.0,0.0226
906.0,0.0231
905.0,0.0239
904.0,0.0251
903.0,0.0267
902.0,0.0284
901.0,0.03
900.0,0.0312
899.0,0.0317
898.0,0.0313
897.0,0.0302
896.0,0.0288
895.0,0.0273
894.0,0.0261
893.0,0.0252
892.0,0.0245
891.0,0.0241
890.0,0.0238
889.0,0.0235
888.0,0.0234
887.0,0.0232
886.0,0.0231
885.0,0.023
884.0,0.0228
883.0,0.0228
882.0,0.0228
881.0,0.0228
880.0,0.023
879.0,0.0231
878.0,0.0233
877.0,0.0234
876.0,0.0235
875.0,0.0234
874.0,0.0233
873.0,0.0232
872.0,0.0231
871.0,0.023
870.0,0.023
869.0,0.023
868.0,0.0229
867.0,0.0228
866.0,0.0227
865.0,0.0226
864.0,0.0226
863.0,0.0227
862.0,0.0229
861.0,0.023
860.0,0.023
859.0,0.0231
858.0,0.0231
857.0,0.0232
856.0,0.0233
855.0,0.0233
854.0,0.0233
853.0,0.0234
852.0,0.0237
851.0,0.024
850.0,0.0243
849.0,0.0246
848.0,0.0252
847.0,0.026
846.0,0.0275
845.0,0.03
844.0,0.0338
843.0,0.0384
842.0,0.0425
841.0,0.0442
840.0,0.043
839.0,0.0396
838.0,0.0358
837.0,0.0327
836.0,0.0307
835.0,0.0295
834.0,0.0286
833.0,0.0279
832.0,0.0273
831.0,0.0268
830.0,0.0264
829.0,0.026
828.0,0.0258
827.0,0.0255
826.0,0.0253
825.0,0.0251
824.0,0.0248
823.0,0.0246
822.0,0.0246
821.0,0.0247
820.0,0.025
819.0,0.0252
818.0,0.0255
817.0,0.0258
816.0,0.0263
815.0,0.0271
814.0,0.0282
813.0,0.0297
812.0,0.0313
811.0,0.0329
810.0,0.0341
809.0,0.0346
808.0,0.0344
807.0,0.0336
806.0,0.0325
805.0,0.0312
804.0,0.0301
803.0,0.0292
802.0,0.0284
801.0,0.0278
800.0,0.0273
799.0,0.0269
798.0,0.0266
797.0,0.0262
796.0,0.0259
795.0,0.0257
794.0,0.0255
793.0,0.0254
792.0,0.0253
791.0,0.0252
790.0,0.0251
789.0,0.025
788.0,0.0248
787.0,0.0246
786.0,0.0244
785.0,0.0243
784.0,0.0241
783.0,0.024
782.0,0.0239
781.0,0.0238
780.0,0.0237
779.0,0.0236
778.0,0.0237
777.0,0.0237
776.0,0.0238
775.0,0.024
774.0,0.0243
773.0,0.0245
772.0,0.0246
771.0,0.0246
770.0,0.0247
769.0,0.0249
768.0,0.0252
767.0,0.0254
766.0,0.0256
765.0,0.0257
764.0,0.0257
763.0,0.0259
762.0,0.026
761.0,0.0262
760.0,0.0262
759.0,0.0263
758.0,0.0265
757.0,0.0268
756.0,0.0271
755.0,0.0273
754.0,0.0274
753.0,0.0275
752.0,0.0276
751.0,0.0275
750.0,0.0275
749.0,0.0274
748.0,0.0273
747.0,0.0272
746.0,0.0273
745.0,0.0274
744.0,0.0276
743.0,0.0278
742.0,0.0279
741.0,0.0282
740.0,0.0285
739.0,0.0286
738.0,0.0286
737.0,0.0286
736.0,0.0289
735.0,0.0295
734.0,0.0307
733.0,0.0325
732.0,0.0345
731.0,0.0359
730.0,0.0363
729.0,0.0358
728.0,0.0348
727.0,0.0339
726.0,0.0335
725.0,0.0337
724.0,0.0343
723.0,0.0356
722.0,0.0373
721.0,0.039
720.0,0.04
719.0,0.0397
718.0,0.0383
717.0,0.0365
716.0,0.035
715.0,0.034
714.0,0.0335
713.0,0.0332
712.0,0.033
711.0,0.0329
710.0,0.0329
709.0,0.033
708.0,0.0333
707.0,0.0339
706.0,0.0348
705.0,0.036
704.0,0.0374
703.0,0.039
702.0,0.0405
701.0,0.0418
700.0,0.0426
699.0,0.0427
698.0,0.0421
697.0,0.041
696.0,0.0397
695.0,0.0383
694.0,0.0368
693.0,0.0354
692.0,0.0341
691.0,0.0332
690.0,0.0327
689.0,0.0327
688.0,0.0329
687.0,0.0331
686.0,0.0332
685.0,0.0332
684.0,0.0329
683.0,0.0327
682.0,0.0326
681.0,0.0325
680.0,0.0324
679.0,0.0324
678.0,0.0325
677.0,0.0328
676.0,0.0331
675.0,0.0333
674.0,0.0335
673.0,0.0337
672.0,0.034
671.0,0.0338
670.0,0.0328
669.0,0.0309
668.0,0.0288
667.0,0.0286
666.0,0.0298
665.0,0.0311
664.0,0.0318
663.0,0.0319
662.0,0.0317
661.0,0.0312
660.0,0.0308
659.0,0.0307
658.0,0.0308
657.0,0.031
656.0,0.0312
655.0,0.0315
654.0,0.0317
653.0,0.0317
652.0,0.0314
651.0,0.031
650.0,0.0305
649.0,0.03
648.0,0.0294
647.0,0.029
646.0,0.0288
645.0,0.0289
644.0,0.0294
643.0,0.0301
642.0,0.031
641.0,0.0318
640.0,0.0325
639.0,0.033
638.0,0.0335
637.0,0.0341
636.0,0.0344
635.0,0.034
634.0,0.0328
633.0,0.0314
632.0,0.0307
631.0,0.0308
630.0,0.0313
629.0,0.0314
628.0,0.0311
627.0,0.0306
626.0,0.03
625.0,0.0299
624.0,0.03
623.0,0.0303
622.0,0.0304
621.0,0.0305
620.0,0.0307
619.0,0.031
618.0,0.0312
617.0,0.031
616.0,0.0304
615.0,0.03
614.0,0.03
613.0,0.0302
612.0,0.0303
611.0,0.0301
610.0,0.0298
609.0,0.0295
608.0,0.0296
607.0,0.0301
606.0,0.0308
605.0,0.0316
604.0,0.0325
603.0,0.0332
602.0,0.0335
601.0,0.0329
600.0,0.0315
