cm-1,A
4000.0,0.0102
3999.0,0.0102
3998.0,0.0103
3997.0,0.0103
3996.0,0.0104
3995.0,0.0104
3994.0,0.0104
3993.0,0.0104
3992.0,0.0103
3991.0,0.0102
3990.0,0.0102
3989.0,0.0102
3988.0,0.0102
3987.0,0.0103
3986.0,0.0104
3985.0,0.0104
3984.0,0.0105
3983.0,0.0105
3982.0,0.0105
3981.0,0.0105
3980.0,0.0105
3979.0,0.0105
3978.0,0.0104
3977.0,0.0104
3976.0,0.0104
3975.0,0.0104
3974.0,0.0105
3973.0,0.0105
3972.0,0.0105
3971.0,0.0105
3970.0,0.0106
3969.0,0.0106
3968.0,0.0105
3967.0,0.0105
3966.0,0.0105
3965.0,0.0104
3964.0,0.0104
3963.0,0.0103
3962.0,0.0102
3961.0,0.0102
3960.0,0.0103
3959.0,0.0104
3958.0,0.0105
3957.0,0.0106
3956.0,0.0107
3955.0,0.0107
3954.0,0.0107
3953.0,0.0107
3952.0,0.0106
3951.0,0.0106
3950.0,0.0105
3949.0,0.0105
3948.0,0.0105
3947.0,0.0105
3946.0,0.0105
3945.0,0.0104
3944.0,0.0104
3943.0,0.0104
3942.0,0.0104
3941.0,0.0104
3940.0,0.0104
3939.0,0.0104
3938.0,0.0104
3937.0,0.0104
3936.0,0.0104
3935.0,0.0104
3934.0,0.0105
3933.0,0.0106
3932.0,0.0107
3931.0,0.0107
3930.0,0.0107
3929.0,0.0107
3928.0,0.0106
3927.0,0.0107
3926.0,0.0107
3925.0,0.0108
3924.0,0.0109
3923.0,0.0109
3922.0,0.011
3921.0,0.0109
3920.0,0.0108
3919.0,0.0107
3918.0,0.0108
3917.0,0.0109
3916.0,0.0109
3915.0,0.011
3914.0,0.0109
3913.0,0.0108
3912.0,0.0108
3911.0,0.0108
3910.0,0.0109
3909.0,0.0109
3908.0,0.0109
3907.0,0.0108
3906.0,0.0107
3905.0,0.0107
3904.0,0.0109
3903.0,0.011
3902.0,0.0111
3901.0,0.011
3900.0,0.011
3899.0,0.011
3898.0,0.011
3897.0,0.0111
3896.0,0.0111
3895.0,0.011
3894.0,0.0109
3893.0,0.0109
3892.0,0.0109
3891.0,0.0109
3890.0,0.011
3889.0,0.011
3888.0,0.011
3887.0,0.0109
3886.0,0.0109
3885.0,0.011
3884.0,0.0111
3883.0,0.0112
3882.0,0.0112
3881.0,0.0111
3880.0,0.011
3879.0,0.0111
3878.0,0.0111
3877.0,0.0113
3876.0,0.0113
3875.0,0.0113
3874.0,0.0114
3873.0,0.0114
3872.0,0.0114
3871.0,0.0113
3870.0,0.0112
3869.0,0.0111
3868.0,0.0111
3867.0,0.0111
3866.0,0.011
3865.0,0.011
3864.0,0.0111
3863.0,0.0112
3862.0,0.0112
3861.0,0.0113
3860.0,0.0113
3859.0,0.0114
3858.0,0.0116
3857.0,0.0117
3856.0,0.0116
3855.0,0.0112
3854.0,0.011
3853.0,0.011
3852.0,0.0111
3851.0,0.0112
3850.0,0.0112
3849.0,0.0111
3848.0,0.0111
3847.0,0.0111
3846.0,0.0112
3845.0,0.0113
3844.0,0.0114
3843.0,0.0116
3842.0,0.0117
3841.0,0.0117
3840.0,0.0116
3839.0,0.0115
3838.0,0.0115
3837.0,0.0116
3836.0,0.0115
3835.0,0.0115
3834.0,0.0114
3833.0,0.0113
3832.0,0.0113
3831.0,0.0113
3830.0,0.0114
3829.0,0.0114
3828.0,0.0113
3827.0,0.0112
3826.0,0.0113
3825.0,0.0114
3824.0,0.0115
3823.0,0.0114
3822.0,0.0113
3821.0,0.0114
3820.0,0.0116
3819.0,0.0117
3818.0,0.0116
3817.0,0.0114
3816.0,0.0113
3815.0,0.0113
3814.0,0.0114
3813.0,0.0114
3812.0,0.0114
3811.0,0.0114
3810.0,0.0114
3809.0,0.0115
3808.0,0.0115
3807.0,0.0114
3806.0,0.0114
3805.0,0.0114
3804.0,0.0114
3803.0,0.0114
3802.0,0.0114
3801.0,0.0114
3800.0,0.0113
3799.0,0.0113
3798.0,0.0113
3797.0,0.0113
3796.0,0.0113
3795.0,0.0113
3794.0,0.0113
3793.0,0.0112
3792.0,0.0111
3791.0,0.0111
3790.0,0.0112
3789.0,0.0113
3788.0,0.0113
3787.0,0.0112
3786.0,0.0112
3785.0,0.0113
3784.0,0.0115
3783.0,0.0116
3782.0,0.0116
3781.0,0.0116
3780.0,0.0115
3779.0,0.0115
3778.0,0.0115
3777.0,0.0115
3776.0,0.0114
3775.0,0.0113
3774.0,0.0113
3773.0,0.0113
3772.0,0.0112
3771.0,0.0111
3770.0,0.0111
3769.0,0.0112
3768.0,0.0113
3767.0,0.0113
3766.0,0.0113
3765.0,0.0112
3764.0,0.0113
3763.0,0.0114
3762.0,0.0115
3761.0,0.0115
3760.0,0.0115
3759.0,0.0115
3758.0,0.0115
3757.0,0.0115
3756.0,0.0116
3755.0,0.0116
3754.0,0.0115
3753.0,0.0113
3752.0,0.0113
3751.0,0.0114
3750.0,0.0114
3749.0,0.0114
3748.0,0.0115
3747.0,0.0117
3746.0,0.0118
3745.0,0.0118
3744.0,0.0118
3743.0,0.0118
3742.0,0.0118
3741.0,0.0117
3740.0,0.0115
3739.0,0.0115
3738.0,0.0116
3737.0,0.0118
3736.0,0.0121
3735.0,0.0122
3734.0,0.0121
3733.0,0.0118
3732.0,0.0115
3731.0,0.0114
3730.0,0.0115
3729.0,0.0116
3728.0,0.0115
3727.0,0.0114
3726.0,0.0114
3725.0,0.0114
3724.0,0.0114
3723.0,0.0115
3722.0,0.0116
3721.0,0.0117
3720.0,0.0117
3719.0,0.0117
3718.0,0.0117
3717.0,0.0117
3716.0,0.0117
3715.0,0.0116
3714.0,0.0116
3713.0,0.0116
3712.0,0.0118
3711.0,0.012
3710.0,0.012
3709.0,0.012
3708.0,0.0119
3707.0,0.0119
3706.0,0.012
3705.0,0.012
3704.0,0.0119
3703.0,0.0118
3702.0,0.0117
3701.0,0.0116
3700.0,0.0116
3699.0,0.0117
3698.0,0.0117
3697.0,0.0118
3696.0,0.012
3695.0,0.0122
3694.0,0.0123
3693.0,0.0123
3692.0,0.0121
3691.0,0.0119
3690.0,0.0119
3689.0,0.0119
3688.0,0.0119
3687.0,0.0119
3686.0,0.0118
3685.0,0.0117
3684.0,0.0116
3683.0,0.0116
3682.0,0.0118
3681.0,0.012
3680.0,0.0123
3679.0,0.0124
3678.0,0.0125
3677.0,0.0125
3676.0,0.0124
3675.0,0.0124
3674.0,0.0123
3673.0,0.0123
3672.0,0.0122
3671.0,0.012
3670.0,0.012
3669.0,0.012
3668.0,0.012
3667.0,0.012
3666.0,0.0119
3665.0,0.0119
3664.0,0.0119
3663.0,0.012
3662.0,0.012
3661.0,0.0121
3660.0,0.0122
3659.0,0.0123
3658.0,0.0124
3657.0,0.0124
3656.0,0.0124
3655.0,0.0125
3654.0,0.0125
3653.0,0.0126
3652.0,0.0125
3651.0,0.0124
3650.0,0.0125
3649.0,0.0126
3648.0,0.0126
3647.0,0.0125
3646.0,0.0124
3645.0,0.0124
3644.0,0.0123
3643.0,0.0123
3642.0,0.0122
3641.0,0.0122
3640.0,0.0122
3639.0,0.0122
3638.0,0.0123
3637.0,0.0124
3636.0,0.0125
3635.0,0.0125
3634.0,0.0125
3633.0,0.0125
3632.0,0.0125
3631.0,0.0125
3630.0,0.0125
3629.0,0.0127
3628.0,0.0128
3627.0,0.0127
3626.0,0.0126
3625.0,0.0126
3624.0,0.0127
3623.0,0.0128
3622.0,0.0129
3621.0,0.0128
3620.0,0.0128
3619.0,0.0129
3618.0,0.013
3617.0,0.0132
3616.0,0.0132
3615.0,0.0132
3614.0,0.0132
3613.0,0.0132
3612.0,0.0132
3611.0,0.0133
3610.0,0.0134
3609.0,0.0135
3608.0,0.0136
3607.0,0.0136
3606.0,0.0136
3605.0,0.0135
3604.0,0.0135
3603.0,0.0135
3602.0,0.0136
3601.0,0.0136
3600.0,0.0137
3599.0,0.0137
3598.0,0.0136
3597.0,0.0136
3596.0,0.0134
3595.0,0.0133
3594.0,0.0133
3593.0,0.0134
3592.0,0.0135
3591.0,0.0136
3590.0,0.0137
3589.0,0.0137
3588.0,0.0138
3587.0,0.0138
3586.0,0.0137
3585.0,0.0136
3584.0,0.0136
3583.0,0.0136
3582.0,0.0136
3581.0,0.0136
3580.0,0.0136
3579.0,0.0135
3578.0,0.0135
3577.0,0.0135
3576.0,0.0136
3575.0,0.0136
3574.0,0.0137
3573.0,0.0138
3572.0,0.014
3571.0,0.0141
3570.0,0.0141
3569.0,0.014
3568.0,0.014
3567.0,0.014
3566.0,0.0141
3565.0,0.014
3564.0,0.0139
3563.0,0.0139
3562.0,0.014
3561.0,0.0141
3560.0,0.0142
3559.0,0.0142
3558.0,0.0141
3557.0,0.014
3556.0,0.0139
3555.0,0.0138
3554.0,0.0138
3553.0,0.0138
3552.0,0.0138
3551.0,0.0138
3550.0,0.0138
3549.0,0.0138
3548.0,0.0139
3547.0,0.0141
3546.0,0.0144
3545.0,0.0146
3544.0,0.0147
3543.0,0.0146
3542.0,0.0144
3541.0,0.0143
3540.0,0.0142
3539.0,0.0141
3538.0,0.0141
3537.0,0.0141
3536.0,0.0142
3535.0,0.0143
3534.0,0.0144
3533.0,0.0144
3532.0,0.0143
3531.0,0.0143
3530.0,0.0143
3529.0,0.0143
3528.0,0.0145
3527.0,0.0146
3526.0,0.0147
3525.0,0.0147
3524.0,0.0146
3523.0,0.0145
3522.0,0.0145
3521.0,0.0146
3520.0,0.0146
3519.0,0.0146
3518.0,0.0146
3517.0,0.0145
3516.0,0.0144
3515.0,0.0143
3514.0,0.0142
3513.0,0.0142
3512.0,0.0143
3511.0,0.0144
3510.0,0.0146
3509.0,0.0147
3508.0,0.0147
3507.0,0.0146
3506.0,0.0145
3505.0,0.0145
3504.0,0.0146
3503.0,0.0147
3502.0,0.0148
3501.0,0.0148
3500.0,0.0147
3499.0,0.0147
3498.0,0.0146
3497.0,0.0146
3496.0,0.0147
3495.0,0.0148
3494.0,0.015
3493.0,0.0151
3492.0,0.0151
3491.0,0.0151
3490.0,0.0151
3489.0,0.0151
3488.0,0.0151
3487.0,0.0151
3486.0,0.015
3485.0,0.015
3484.0,0.0149
3483.0,0.015
3482.0,0.0151
3481.0,0.0152
3480.0,0.0153
3479.0,0.0152
3478.0,0.015
3477.0,0.0149
3476.0,0.0149
3475.0,0.0149
3474.0,0.015
3473.0,0.0151
3472.0,0.0152
3471.0,0.0152
3470.0,0.0153
3469.0,0.0153
3468.0,0.0153
3467.0,0.0153
3466.0,0.0152
3465.0,0.0153
3464.0,0.0153
3463.0,0.0154
3462.0,0.0154
3461.0,0.0154
3460.0,0.0153
3459.0,0.0152
3458.0,0.0151
3457.0,0.015
3456.0,0.0151
3455.0,0.0151
3454.0,0.0152
3453.0,0.0154
3452.0,0.0155
3451.0,0.0156
3450.0,0.0157
3449.0,0.0156
3448.0,0.0156
3447.0,0.0157
3446.0,0.0158
3445.0,0.0158
3444.0,0.0158
3443.0,0.0158
3442.0,0.0159
3441.0,0.0159
3440.0,0.0158
3439.0,0.0157
3438.0,0.0155
3437.0,0.0153
3436.0,0.0152
3435.0,0.0153
3434.0,0.0154
3433.0,0.0155
3432.0,0.0156
3431.0,0.0155
3430.0,0.0154
3429.0,0.0154
3428.0,0.0153
3427.0,0.0154
3426.0,0.0155
3425.0,0.0155
3424.0,0.0156
3423.0,0.0156
3422.0,0.0155
3421.0,0.0156
3420.0,0.0156
3419.0,0.0157
3418.0,0.0158
3417.0,0.0157
3416.0,0.0156
3415.0,0.0154
3414.0,0.0153
3413.0,0.0153
3412.0,0.0154
3411.0,0.0156
3410.0,0.0158
3409.0,0.0159
3408.0,0.0158
3407.0,0.0157
3406.0,0.0156
3405.0,0.0156
3404.0,0.0156
3403.0,0.0157
3402.0,0.0157
3401.0,0.0157
3400.0,0.0157
3399.0,0.0156
3398.0,0.0156
3397.0,0.0156
3396.0,0.0156
3395.0,0.0157
3394.0,0.0157
3393.0,0.0157
3392.0,0.0157
3391.0,0.0157
3390.0,0.0157
3389.0,0.0157
3388.0,0.0157
3387.0,0.0156
3386.0,0.0154
3385.0,0.0154
3384.0,0.0154
3383.0,0.0154
3382.0,0.0154
3381.0,0.0155
3380.0,0.0155
3379.0,0.0156
3378.0,0.0156
3377.0,0.0157
3376.0,0.0157
3375.0,0.0156
3374.0,0.0154
3373.0,0.0153
3372.0,0.0153
3371.0,0.0154
3370.0,0.0156
3369.0,0.0156
3368.0,0.0155
3367.0,0.0153
3366.0,0.0152
3365.0,0.0152
3364.0,0.0153
3363.0,0.0153
3362.0,0.0154
3361.0,0.0153
3360.0,0.0153
3359.0,0.0153
3358.0,0.0153
3357.0,0.0154
3356.0,0.0156
3355.0,0.0157
3354.0,0.0157
3353.0,0.0157
3352.0,0.0156
3351.0,0.0156
3350.0,0.0155
3349.0,0.0154
3348.0,0.0153
3347.0,0.0153
3346.0,0.0153
3345.0,0.0153
3344.0,0.0154
3343.0,0.0154
3342.0,0.0153
3341.0,0.0151
3340.0,0.015
3339.0,0.015
3338.0,0.015
3337.0,0.015
3336.0,0.015
3335.0,0.0151
3334.0,0.0151
3333.0,0.0151
3332.0,0.0151
3331.0,0.015
3330.0,0.015
3329.0,0.015
3328.0,0.0149
3327.0,0.0149
3326.0,0.0149
3325.0,0.0149
3324.0,0.0149
3323.0,0.0151
3322.0,0.0152
3321.0,0.0152
3320.0,0.0152
3319.0,0.015
3318.0,0.0149
3317.0,0.0149
3316.0,0.0148
3315.0,0.0148
3314.0,0.0148
3313.0,0.0148
3312.0,0.0148
3311.0,0.0148
3310.0,0.0148
3309.0,0.0147
3308.0,0.0147
3307.0,0.0146
3306.0,0.0146
3305.0,0.0146
3304.0,0.0146
3303.0,0.0145
3302.0,0.0144
3301.0,0.0143
3300.0,0.0144
3299.0,0.0144
3298.0,0.0145
3297.0,0.0144
3296.0,0.0143
3295.0,0.0143
3294.0,0.0143
3293.0,0.0144
3292.0,0.0145
3291.0,0.0145
3290.0,0.0145
3289.0,0.0145
3288.0,0.0145
3287.0,0.0145
3286.0,0.0144
3285.0,0.0143
3284.0,0.0142
3283.0,0.0142
3282.0,0.0143
3281.0,0.0144
3280.0,0.0145
3279.0,0.0145
3278.0,0.0145
3277.0,0.0145
3276.0,0.0145
3275.0,0.0145
3274.0,0.0145
3273.0,0.0144
3272.0,0.0143
3271.0,0.0142
3270.0,0.0141
3269.0,0.0139
3268.0,0.0138
3267.0,0.0137
3266.0,0.0137
3265.0,0.0137
3264.0,0.0138
3263.0,0.0138
3262.0,0.0138
3261.0,0.0138
3260.0,0.0138
3259.0,0.0137
3258.0,0.0137
3257.0,0.0137
3256.0,0.0137
3255.0,0.0137
3254.0,0.0137
3253.0,0.0137
3252.0,0.0137
3251.0,0.0137
3250.0,0.0138
3249.0,0.0138
3248.0,0.0138
3247.0,0.0138
3246.0,0.0137
3245.0,0.0136
3244.0,0.0135
3243.0,0.0135
3242.0,0.0135
3241.0,0.0135
3240.0,0.0135
3239.0,0.0134
3238.0,0.0133
3237.0,0.0133
3236.0,0.0132
3235.0,0.0132
3234.0,0.0132
3233.0,0.0132
3232.0,0.0133
3231.0,0.0134
3230.0,0.0134
3229.0,0.0134
3228.0,0.0134
3227.0,0.0134
3226.0,0.0133
3225.0,0.0133
3224.0,0.0132
3223.0,0.0132
3222.0,0.0131
3221.0,0.0131
3220.0,0.0131
3219.0,0.013
3218.0,0.0129
3217.0,0.0129
3216.0,0.0128
3215.0,0.0127
3214.0,0.0127
3213.0,0.0126
3212.0,0.0126
3211.0,0.0127
3210.0,0.0128
3209.0,0.0127
3208.0,0.0127
3207.0,0.0126
3206.0,0.0125
3205.0,0.0125
3204.0,0.0124
3203.0,0.0123
3202.0,0.0123
3201.0,0.0123
3200.0,0.0123
3199.0,0.0123
3198.0,0.0123
3197.0,0.0122
3196.0,0.0122
3195.0,0.0123
3194.0,0.0123
3193.0,0.0124
3192.0,0.0123
3191.0,0.0122
3190.0,0.0121
3189.0,0.012
3188.0,0.012
3187.0,0.0121
3186.0,0.0121
3185.0,0.0121
3184.0,0.0121
3183.0,0.012
3182.0,0.0119
3181.0,0.0118
3180.0,0.0118
3179.0,0.0118
3178.0,0.0118
3177.0,0.0118
3176.0,0.0118
3175.0,0.0118
3174.0,0.0118
3173.0,0.0117
3172.0,0.0117
3171.0,0.0117
3170.0,0.0118
3169.0,0.0119
3168.0,0.012
3167.0,0.0119
3166.0,0.0118
3165.0,0.0116
3164.0,0.0115
3163.0,0.0114
3162.0,0.0113
3161.0,0.0113
3160.0,0.0113
3159.0,0.0113
3158.0,0.0113
3157.0,0.0113
3156.0,0.0113
3155.0,0.0113
3154.0,0.0112
3153.0,0.0112
3152.0,0.0112
3151.0,0.0112
3150.0,0.0111
3149.0,0.011
3148.0,0.0108
3147.0,0.0107
3146.0,0.0106
3145.0,0.0106
3144.0,0.0107
3143.0,0.0109
3142.0,0.0109
3141.0,0.011
3140.0,0.0109
3139.0,0.0109
3138.0,0.0108
3137.0,0.0107
3136.0,0.0107
3135.0,0.0107
3134.0,0.0107
3133.0,0.0107
3132.0,0.0106
3131.0,0.0106
3130.0,0.0105
3129.0,0.0105
3128.0,0.0104
3127.0,0.0103
3126.0,0.0102
3125.0,0.0103
3124.0,0.0103
3123.0,0.0104
3122.0,0.0103
3121.0,0.0103
3120.0,0.0102
3119.0,0.0101
3118.0,0.01
3117.0,0.0099
3116.0,0.0099
3115.0,0.0098
3114.0,0.0098
3113.0,0.0098
3112.0,0.0099
3111.0,0.01
3110.0,0.0101
3109.0,0.01
3108.0,0.0099
3107.0,0.0098
3106.0,0.0098
3105.0,0.0098
3104.0,0.0098
3103.0,0.0097
3102.0,0.0095
3101.0,0.0094
3100.0,0.0094
3099.0,0.0094
3098.0,0.0094
3097.0,0.0094
3096.0,0.0095
3095.0,0.0094
3094.0,0.0094
3093.0,0.0094
3092.0,0.0095
3091.0,0.0096
3090.0,0.0096
3089.0,0.0096
3088.0,0.0095
3087.0,0.0094
3086.0,0.0093
3085.0,0.0093
3084.0,0.0094
3083.0,0.0094
3082.0,0.0094
3081.0,0.0094
3080.0,0.0093
3079.0,0.0093
3078.0,0.0092
3077.0,0.0091
3076.0,0.009
3075.0,0.009
3074.0,0.009
3073.0,0.009
3072.0,0.009
3071.0,0.009
3070.0,0.009
3069.0,0.009
3068.0,0.009
3067.0,0.009
3066.0,0.0089
3065.0,0.0089
3064.0,0.0088
3063.0,0.0086
3062.0,0.0085
3061.0,0.0084
3060.0,0.0083
3059.0,0.0083
3058.0,0.0083
3057.0,0.0083
3056.0,0.0082
3055.0,0.0082
3054.0,0.0081
3053.0,0.0082
3052.0,0.0082
3051.0,0.0083
3050.0,0.0083
3049.0,0.0082
3048.0,0.0082
3047.0,0.0081
3046.0,0.0081
3045.0,0.008
3044.0,0.008
3043.0,0.0079
3042.0,0.0079
3041.0,0.0078
3040.0,0.0077
3039.0,0.0077
3038.0,0.0076
3037.0,0.0076
3036.0,0.0076
3035.0,0.0077
3034.0,0.0077
3033.0,0.0077
3032.0,0.0076
3031.0,0.0075
3030.0,0.0074
3029.0,0.0073
3028.0,0.0073
3027.0,0.0073
3026.0,0.0073
3025.0,0.0074
3024.0,0.0074
3023.0,0.0074
3022.0,0.0073
3021.0,0.0072
3020.0,0.007
3019.0,0.0069
3018.0,0.0069
3017.0,0.0068
3016.0,0.0068
3015.0,0.0067
3014.0,0.0065
3013.0,0.0064
3012.0,0.0063
3011.0,0.0062
3010.0,0.0061
3009.0,0.0061
3008.0,0.0061
3007.0,0.0061
3006.0,0.0061
3005.0,0.006
3004.0,0.0058
3003.0,0.0057
3002.0,0.0057
3001.0,0.0057
3000.0,0.0057
2999.0,0.0056
2998.0,0.0056
2997.0,0.0055
2996.0,0.0055
2995.0,0.0055
2994.0,0.0054
2993.0,0.0053
2992.0,0.0052
2991.0,0.0051
2990.0,0.005
2989.0,0.005
2988.0,0.0051
2987.0,0.0051
2986.0,0.0051
2985.0,0.0051
2984.0,0.0052
2983.0,0.0053
2982.0,0.0054
2981.0,0.0056
2980.0,0.0057
2979.0,0.0059
2978.0,0.0061
2977.0,0.0064
2976.0,0.0068
2975.0,0.0073
2974.0,0.0078
2973.0,0.0083
2972.0,0.0088
2971.0,0.0094
2970.0,0.01
2969.0,0.0108
2968.0,0.0116
2967.0,0.0125
2966.0,0.0135
2965.0,0.0145
2964.0,0.0153
2963.0,0.0161
2962.0,0.0168
2961.0,0.0175
2960.0,0.0182
2959.0,0.0189
2958.0,0.0194
2957.0,0.0198
2956.0,0.0201
2955.0,0.0204
2954.0,0.0206
2953.0,0.0207
2952.0,0.0208
2951.0,0.021
2950.0,0.0213
2949.0,0.022
2948.0,0.0229
2947.0,0.0242
2946.0,0.0259
2945.0,0.0278
2944.0,0.03
2943.0,0.0326
2942.0,0.0356
2941.0,0.039
2940.0,0.0427
2939.0,0.0468
2938.0,0.0512
2937.0,0.0559
2936.0,0.061
2935.0,0.0665
2934.0,0.0724
2933.0,0.0787
2932.0,0.0855
2931.0,0.0928
2930.0,0.1008
2929.0,0.1094
2928.0,0.1186
2927.0,0.1287
2926.0,0.1398
2925.0,0.152
2924.0,0.1655
2923.0,0.1803
2922.0,0.1962
2921.0,0.2131
2920.0,0.2303
2919.0,0.2466
2918.0,0.2601
2917.0,0.2688
2916.0,0.2711
2915.0,0.2665
2914.0,0.2563
2913.0,0.2426
2912.0,0.2278
2911.0,0.2134
2910.0,0.2005
2909.0,0.1892
2908.0,0.1795
2907.0,0.1712
2906.0,0.164
2905.0,0.1577
2904.0,0.1523
2903.0,0.1474
2902.0,0.1431
2901.0,0.1394
2900.0,0.1359
2899.0,0.1327
2898.0,0.1296
2897.0,0.1265
2896.0,0.1234
2895.0,0.1203
2894.0,0.1172
2893.0,0.1141
2892.0,0.1111
2891.0,0.1081
2890.0,0.105
2889.0,0.1018
2888.0,0.0986
2887.0,0.0953
2886.0,0.0921
2885.0,0.089
2884.0,0.086
2883.0,0.083
2882.0,0.08
2881.0,0.0772
2880.0,0.0745
2879.0,0.072
2878.0,0.0697
2877.0,0.0676
2876.0,0.0657
2875.0,0.064
2874.0,0.0625
2873.0,0.0612
2872.0,0.0602
2871.0,0.0593
2870.0,0.0585
2869.0,0.058
2868.0,0.0576
2867.0,0.0576
2866.0,0.0581
2865.0,0.0592
2864.0,0.0611
2863.0,0.0637
2862.0,0.0672
2861.0,0.0718
2860.0,0.0774
2859.0,0.0843
2858.0,0.0928
2857.0,0.1029
2856.0,0.1152
2855.0,0.13
2854.0,0.1476
2853.0,0.1683
2852.0,0.1911
2851.0,0.2139
2850.0,0.2326
2849.0,0.2426
2848.0,0.2414
2847.0,0.23
2846.0,0.2121
2845.0,0.192
2844.0,0.1725
2843.0,0.155
2842.0,0.14
2841.0,0.1273
2840.0,0.1166
2839.0,0.1078
2838.0,0.1003
2837.0,0.094
2836.0,0.0886
2835.0,0.084
2834.0,0.0799
2833.0,0.0764
2832.0,0.0732
2831.0,0.0705
2830.0,0.0681
2829.0,0.066
2828.0,0.064
2827.0,0.0622
2826.0,0.0605
2825.0,0.059
2824.0,0.0576
2823.0,0.0564
2822.0,0.0552
2821.0,0.054
2820.0,0.0529
2819.0,0.0518
2818.0,0.0508
2817.0,0.05
2816.0,0.0493
2815.0,0.0485
2814.0,0.0478
2813.0,0.0471
2812.0,0.0464
2811.0,0.0458
2810.0,0.0452
2809.0,0.0447
2808.0,0.0442
2807.0,0.0436
2806.0,0.0431
2805.0,0.0426
2804.0,0.0422
2803.0,0.0418
2802.0,0.0414
2801.0,0.041
2800.0,0.0406
2799.0,0.0401
2798.0,0.0396
2797.0,0.0391
2796.0,0.0386
2795.0,0.0382
2794.0,0.0378
2793.0,0.0374
2792.0,0.0371
2791.0,0.0367
2790.0,0.0364
2789.0,0.0361
2788.0,0.0359
2787.0,0.0356
2786.0,0.0353
2785.0,0.035
2784.0,0.0347
2783.0,0.0344
2782.0,0.0341
2781.0,0.0339
2780.0,0.0337
2779.0,0.0335
2778.0,0.0333
2777.0,0.033
2776.0,0.0327
2775.0,0.0324
2774.0,0.0322
2773.0,0.0319
2772.0,0.0317
2771.0,0.0315
2770.0,0.0313
2769.0,0.0312
2768.0,0.0312
2767.0,0.0311
2766.0,0.031
2765.0,0.0308
2764.0,0.0306
2763.0,0.0303
2762.0,0.0301
2761.0,0.03
2760.0,0.03
2759.0,0.0299
2758.0,0.0298
2757.0,0.0296
2756.0,0.0294
2755.0,0.0293
2754.0,0.0291
2753.0,0.029
2752.0,0.029
2751.0,0.0289
2750.0,0.0289
2749.0,0.0288
2748.0,0.0286
2747.0,0.0284
2746.0,0.0283
2745.0,0.0282
2744.0,0.0282
2743.0,0.0282
2742.0,0.0282
2741.0,0.0282
2740.0,0.0281
2739.0,0.028
2738.0,0.0279
2737.0,0.0277
2736.0,0.0276
2735.0,0.0274
2734.0,0.0274
2733.0,0.0273
2732.0,0.0273
2731.0,0.0272
2730.0,0.0272
2729.0,0.0271
2728.0,0.0269
2727.0,0.0268
2726.0,0.0268
2725.0,0.0268
2724.0,0.0268
2723.0,0.0267
2722.0,0.0266
2721.0,0.0264
2720.0,0.0263
2719.0,0.0263
2718.0,0.0263
2717.0,0.0262
2716.0,0.0261
2715.0,0.026
2714.0,0.026
2713.0,0.0259
2712.0,0.0258
2711.0,0.0257
2710.0,0.0257
2709.0,0.0256
2708.0,0.0254
2707.0,0.0253
2706.0,0.0253
2705.0,0.0252
2704.0,0.0252
2703.0,0.0251
2702.0,0.0251
2701.0,0.025
2700.0,0.025
2699.0,0.025
2698.0,0.0249
2697.0,0.0249
2696.0,0.0249
2695.0,0.0248
2694.0,0.0248
2693.0,0.0248
2692.0,0.0248
2691.0,0.0248
2690.0,0.0248
2689.0,0.0247
2688.0,0.0247
2687.0,0.0246
2686.0,0.0246
2685.0,0.0246
2684.0,0.0246
2683.0,0.0246
2682.0,0.0246
2681.0,0.0247
2680.0,0.0246
2679.0,0.0246
2678.0,0.0246
2677.0,0.0245
2676.0,0.0245
2675.0,0.0245
2674.0,0.0244
2673.0,0.0243
2672.0,0.0243
2671.0,0.0243
2670.0,0.0243
2669.0,0.0244
2668.0,0.0244
2667.0,0.0244
2666.0,0.0243
2665.0,0.0243
2664.0,0.0242
2663.0,0.0242
2662.0,0.0242
2661.0,0.0241
2660.0,0.0241
2659.0,0.0241
2658.0,0.0241
2657.0,0.0241
2656.0,0.0241
2655.0,0.0241
2654.0,0.024
2653.0,0.0239
2652.0,0.0238
2651.0,0.0237
2650.0,0.0237
2649.0,0.0237
2648.0,0.0237
2647.0,0.0237
2646.0,0.0237
2645.0,0.0238
2644.0,0.0238
2643.0,0.0238
2642.0,0.0238
2641.0,0.0238
2640.0,0.0238
2639.0,0.0238
2638.0,0.0237
2637.0,0.0237
2636.0,0.0236
2635.0,0.0235
2634.0,0.0234
2633.0,0.0234
2632.0,0.0233
2631.0,0.0232
2630.0,0.0231
2629.0,0.0231
2628.0,0.0231
2627.0,0.0232
2626.0,0.0232
2625.0,0.0231
2624.0,0.023
2623.0,0.0229
2622.0,0.0229
2621.0,0.0228
2620.0,0.0228
2619.0,0.0227
2618.0,0.0227
2617.0,0.0226
2616.0,0.0224
2615.0,0.0223
2614.0,0.0222
2613.0,0.0221
2612.0,0.0221
2611.0,0.0221
2610.0,0.022
2609.0,0.022
2608.0,0.0219
2607.0,0.0219
2606.0,0.0218
2605.0,0.0218
2604.0,0.0218
2603.0,0.0218
2602.0,0.0218
2601.0,0.0217
2600.0,0.0217
2599.0,0.0217
2598.0,0.0216
2597.0,0.0215
2596.0,0.0214
2595.0,0.0213
2594.0,0.0213
2593.0,0.0212
2592.0,0.0212
2591.0,0.0212
2590.0,0.0213
2589.0,0.0213
2588.0,0.0213
2587.0,0.0212
2586.0,0.0211
2585.0,0.0211
2584.0,0.0211
2583.0,0.0211
2582.0,0.021
2581.0,0.0209
2580.0,0.0208
2579.0,0.0207
2578.0,0.0206
2577.0,0.0206
2576.0,0.0206
2575.0,0.0207
2574.0,0.0207
2573.0,0.0207
2572.0,0.0207
2571.0,0.0206
2570.0,0.0205
2569.0,0.0204
2568.0,0.0204
2567.0,0.0204
2566.0,0.0204
2565.0,0.0203
2564.0,0.0202
2563.0,0.0202
2562.0,0.0201
2561.0,0.0201
2560.0,0.02
2559.0,0.02
2558.0,0.02
2557.0,0.02
2556.0,0.02
2555.0,0.02
2554.0,0.0201
2553.0,0.0201
2552.0,0.0201
2551.0,0.0201
2550.0,0.02
2549.0,0.0199
2548.0,0.0198
2547.0,0.0197
2546.0,0.0197
2545.0,0.0196
2544.0,0.0196
2543.0,0.0196
2542.0,0.0196
2541.0,0.0195
2540.0,0.0195
2539.0,0.0194
2538.0,0.0194
2537.0,0.0193
2536.0,0.0193
2535.0,0.0194
2534.0,0.0194
2533.0,0.0195
2532.0,0.0195
2531.0,0.0195
2530.0,0.0194
2529.0,0.0194
2528.0,0.0194
2527.0,0.0193
2526.0,0.0193
2525.0,0.0192
2524.0,0.0192
2523.0,0.0192
2522.0,0.0192
2521.0,0.0192
2520.0,0.0192
2519.0,0.0192
2518.0,0.0192
2517.0,0.0191
2516.0,0.019
2515.0,0.019
2514.0,0.019
2513.0,0.0189
2512.0,0.0189
2511.0,0.0188
2510.0,0.0188
2509.0,0.0188
2508.0,0.0189
2507.0,0.0189
2506.0,0.019
2505.0,0.019
2504.0,0.0189
2503.0,0.0188
2502.0,0.0188
2501.0,0.0188
2500.0,0.0187
2499.0,0.0186
2498.0,0.0186
2497.0,0.0185
2496.0,0.0185
2495.0,0.0185
2494.0,0.0185
2493.0,0.0184
2492.0,0.0184
2491.0,0.0184
2490.0,0.0184
2489.0,0.0184
2488.0,0.0185
2487.0,0.0185
2486.0,0.0186
2485.0,0.0186
2484.0,0.0186
2483.0,0.0186
2482.0,0.0185
2481.0,0.0185
2480.0,0.0184
2479.0,0.0184
2478.0,0.0184
2477.0,0.0184
2476.0,0.0183
2475.0,0.0184
2474.0,0.0184
2473.0,0.0184
2472.0,0.0184
2471.0,0.0184
2470.0,0.0184
2469.0,0.0183
2468.0,0.0183
2467.0,0.0182
2466.0,0.0182
2465.0,0.0181
2464.0,0.0181
2463.0,0.0181
2462.0,0.0181
2461.0,0.018
2460.0,0.018
2459.0,0.0179
2458.0,0.0178
2457.0,0.0178
2456.0,0.0178
2455.0,0.0178
2454.0,0.0178
2453.0,0.0179
2452.0,0.0179
2451.0,0.018
2450.0,0.018
2449.0,0.0179
2448.0,0.0179
2447.0,0.0179
2446.0,0.0179
2445.0,0.018
2444.0,0.0181
2443.0,0.0181
2442.0,0.0181
2441.0,0.018
2440.0,0.018
2439.0,0.0179
2438.0,0.0179
2437.0,0.0179
2436.0,0.0178
2435.0,0.0177
2434.0,0.0177
2433.0,0.0177
2432.0,0.0177
2431.0,0.0177
2430.0,0.0177
2429.0,0.0178
2428.0,0.0178
2427.0,0.0178
2426.0,0.0178
2425.0,0.0178
2424.0,0.0178
2423.0,0.0178
2422.0,0.0178
2421.0,0.0178
2420.0,0.0179
2419.0,0.0179
2418.0,0.0179
2417.0,0.0178
2416.0,0.0178
2415.0,0.0178
2414.0,0.0177
2413.0,0.0177
2412.0,0.0177
2411.0,0.0177
2410.0,0.0177
2409.0,0.0177
2408.0,0.0177
2407.0,0.0177
2406.0,0.0177
2405.0,0.0177
2404.0,0.0176
2403.0,0.0176
2402.0,0.0176
2401.0,0.0177
2400.0,0.0177
2399.0,0.0177
2398.0,0.0176
2397.0,0.0175
2396.0,0.0175
2395.0,0.0175
2394.0,0.0175
2393.0,0.0175
2392.0,0.0174
2391.0,0.0173
2390.0,0.0174
2389.0,0.0174
2388.0,0.0175
2387.0,0.0176
2386.0,0.0176
2385.0,0.0176
2384.0,0.0176
2383.0,0.0176
2382.0,0.0175
2381.0,0.0174
2380.0,0.0174
2379.0,0.0173
2378.0,0.0172
2377.0,0.0171
2376.0,0.0169
2375.0,0.0169
2374.0,0.0171
2373.0,0.0177
2372.0,0.0183
2371.0,0.0189
2370.0,0.0191
2369.0,0.0191
2368.0,0.0185
2367.0,0.0174
2366.0,0.0165
2365.0,0.0168
2364.0,0.018
2363.0,0.0193
2362.0,0.0196
2361.0,0.0188
2360.0,0.0176
2359.0,0.0168
2358.0,0.0168
2357.0,0.017
2356.0,0.0173
2355.0,0.0177
2354.0,0.0184
2353.0,0.019
2352.0,0.0193
2351.0,0.019
2350.0,0.0183
2349.0,0.0174
2348.0,0.0165
2347.0,0.016
2346.0,0.0161
2345.0,0.0166
2344.0,0.017
2343.0,0.0174
2342.0,0.0183
2341.0,0.0192
2340.0,0.0199
2339.0,0.02
2338.0,0.0197
2337.0,0.0193
2336.0,0.0192
2335.0,0.0192
2334.0,0.0191
2333.0,0.0189
2332.0,0.0189
2331.0,0.0191
2330.0,0.0194
2329.0,0.0196
2328.0,0.0195
2327.0,0.0193
2326.0,0.019
2325.0,0.0187
2324.0,0.0187
2323.0,0.0188
2322.0,0.0189
2321.0,0.019
2320.0,0.0189
2319.0,0.0188
2318.0,0.0188
2317.0,0.0188
2316.0,0.0188
2315.0,0.0187
2314.0,0.0186
2313.0,0.0186
2312.0,0.0186
2311.0,0.0186
2310.0,0.0186
2309.0,0.0185
2308.0,0.0184
2307.0,0.0184
2306.0,0.0184
2305.0,0.0185
2304.0,0.0185
2303.0,0.0184
2302.0,0.0183
2301.0,0.0182
2300.0,0.018
2299.0,0.0179
2298.0,0.0178
2297.0,0.0178
2296.0,0.0178
2295.0,0.0178
2294.0,0.0177
2293.0,0.0176
2292.0,0.0175
2291.0,0.0174
2290.0,0.0174
2289.0,0.0173
2288.0,0.0173
2287.0,0.0173
2286.0,0.0172
2285.0,0.0172
2284.0,0.0171
2283.0,0.017
2282.0,0.017
2281.0,0.0169
2280.0,0.0169
2279.0,0.0169
2278.0,0.0169
2277.0,0.0169
2276.0,0.0169
2275.0,0.0169
2274.0,0.0169
2273.0,0.0169
2272.0,0.0169
2271.0,0.0168
2270.0,0.0168
2269.0,0.0169
2268.0,0.0169
2267.0,0.0171
2266.0,0.0172
2265.0,0.0172
2264.0,0.0172
2263.0,0.0171
2262.0,0.017
2261.0,0.0169
2260.0,0.0168
2259.0,0.0169
2258.0,0.0169
2257.0,0.0168
2256.0,0.0168
2255.0,0.0167
2254.0,0.0168
2253.0,0.0169
2252.0,0.017
2251.0,0.017
2250.0,0.0169
2249.0,0.0168
2248.0,0.0167
2247.0,0.0167
2246.0,0.0167
2245.0,0.0167
2244.0,0.0167
2243.0,0.0167
2242.0,0.0167
2241.0,0.0167
2240.0,0.0167
2239.0,0.0167
2238.0,0.0167
2237.0,0.0167
2236.0,0.0168
2235.0,0.0168
2234.0,0.0167
2233.0,0.0167
2232.0,0.0167
2231.0,0.0167
2230.0,0.0167
2229.0,0.0166
2228.0,0.0165
2227.0,0.0165
2226.0,0.0164
2225.0,0.0164
2224.0,0.0165
2223.0,0.0165
2222.0,0.0166
2221.0,0.0166
2220.0,0.0166
2219.0,0.0167
2218.0,0.0167
2217.0,0.0166
2216.0,0.0165
2215.0,0.0164
2214.0,0.0164
2213.0,0.0164
2212.0,0.0165
2211.0,0.0165
2210.0,0.0166
2209.0,0.0166
2208.0,0.0165
2207.0,0.0165
2206.0,0.0165
2205.0,0.0166
2204.0,0.0166
2203.0,0.0166
2202.0,0.0165
2201.0,0.0165
2200.0,0.0165
2199.0,0.0165
2198.0,0.0165
2197.0,0.0165
2196.0,0.0165
2195.0,0.0166
2194.0,0.0167
2193.0,0.0167
2192.0,0.0167
2191.0,0.0166
2190.0,0.0165
2189.0,0.0164
2188.0,0.0164
2187.0,0.0165
2186.0,0.0165
2185.0,0.0164
2184.0,0.0165
2183.0,0.0165
2182.0,0.0165
2181.0,0.0165
2180.0,0.0165
2179.0,0.0165
2178.0,0.0164
2177.0,0.0164
2176.0,0.0165
2175.0,0.0165
2174.0,0.0166
2173.0,0.0167
2172.0,0.0167
2171.0,0.0166
2170.0,0.0166
2169.0,0.0166
2168.0,0.0166
2167.0,0.0166
2166.0,0.0166
2165.0,0.0165
2164.0,0.0165
2163.0,0.0164
2162.0,0.0164
2161.0,0.0164
2160.0,0.0165
2159.0,0.0164
2158.0,0.0164
2157.0,0.0164
2156.0,0.0163
2155.0,0.0164
2154.0,0.0165
2153.0,0.0166
2152.0,0.0167
2151.0,0.0167
2150.0,0.0167
2149.0,0.0167
2148.0,0.0167
2147.0,0.0166
2146.0,0.0166
2145.0,0.0165
2144.0,0.0164
2143.0,0.0164
2142.0,0.0164
2141.0,0.0164
2140.0,0.0164
2139.0,0.0164
2138.0,0.0165
2137.0,0.0165
2136.0,0.0165
2135.0,0.0165
2134.0,0.0166
2133.0,0.0166
2132.0,0.0166
2131.0,0.0166
2130.0,0.0166
2129.0,0.0165
2128.0,0.0165
2127.0,0.0165
2126.0,0.0165
2125.0,0.0165
2124.0,0.0164
2123.0,0.0164
2122.0,0.0163
2121.0,0.0163
2120.0,0.0162
2119.0,0.0163
2118.0,0.0163
2117.0,0.0163
2116.0,0.0163
2115.0,0.0163
2114.0,0.0162
2113.0,0.0163
2112.0,0.0163
2111.0,0.0164
2110.0,0.0164
2109.0,0.0164
2108.0,0.0164
2107.0,0.0164
2106.0,0.0164
2105.0,0.0164
2104.0,0.0165
2103.0,0.0164
2102.0,0.0164
2101.0,0.0163
2100.0,0.0162
2099.0,0.0162
2098.0,0.0162
2097.0,0.0162
2096.0,0.0162
2095.0,0.0163
2094.0,0.0163
2093.0,0.0163
2092.0,0.0163
2091.0,0.0163
2090.0,0.0163
2089.0,0.0163
2088.0,0.0164
2087.0,0.0164
2086.0,0.0165
2085.0,0.0165
2084.0,0.0165
2083.0,0.0164
2082.0,0.0164
2081.0,0.0164
2080.0,0.0164
2079.0,0.0164
2078.0,0.0164
2077.0,0.0163
2076.0,0.0163
2075.0,0.0162
2074.0,0.0163
2073.0,0.0163
2072.0,0.0163
2071.0,0.0164
2070.0,0.0164
2069.0,0.0163
2068.0,0.0163
2067.0,0.0163
2066.0,0.0163
2065.0,0.0164
2064.0,0.0164
2063.0,0.0164
2062.0,0.0164
2061.0,0.0164
2060.0,0.0164
2059.0,0.0164
2058.0,0.0164
2057.0,0.0164
2056.0,0.0164
2055.0,0.0164
2054.0,0.0164
2053.0,0.0164
2052.0,0.0165
2051.0,0.0165
2050.0,0.0164
2049.0,0.0164
2048.0,0.0163
2047.0,0.0164
2046.0,0.0164
2045.0,0.0164
2044.0,0.0164
2043.0,0.0164
2042.0,0.0164
2041.0,0.0164
2040.0,0.0164
2039.0,0.0164
2038.0,0.0164
2037.0,0.0164
2036.0,0.0164
2035.0,0.0165
2034.0,0.0165
2033.0,0.0165
2032.0,0.0165
2031.0,0.0166
2030.0,0.0166
2029.0,0.0167
2028.0,0.0167
2027.0,0.0167
2026.0,0.0167
2025.0,0.0166
2024.0,0.0166
2023.0,0.0167
2022.0,0.0167
2021.0,0.0167
2020.0,0.0167
2019.0,0.0167
2018.0,0.0167
2017.0,0.0167
2016.0,0.0167
2015.0,0.0167
2014.0,0.0167
2013.0,0.0167
2012.0,0.0167
2011.0,0.0166
2010.0,0.0166
2009.0,0.0165
2008.0,0.0165
2007.0,0.0165
2006.0,0.0164
2005.0,0.0164
2004.0,0.0164
2003.0,0.0164
2002.0,0.0164
2001.0,0.0164
2000.0,0.0163
1999.0,0.0163
1998.0,0.0163
1997.0,0.0163
1996.0,0.0163
1995.0,0.0163
1994.0,0.0163
1993.0,0.0163
1992.0,0.0163
1991.0,0.0163
1990.0,0.0163
1989.0,0.0163
1988.0,0.0163
1987.0,0.0163
1986.0,0.0163
1985.0,0.0163
1984.0,0.0163
1983.0,0.0163
1982.0,0.0163
1981.0,0.0163
1980.0,0.0163
1979.0,0.0163
1978.0,0.0162
1977.0,0.0162
1976.0,0.0162
1975.0,0.0162
1974.0,0.0162
1973.0,0.0162
1972.0,0.0163
1971.0,0.0163
1970.0,0.0163
1969.0,0.0164
1968.0,0.0164
1967.0,0.0164
1966.0,0.0164
1965.0,0.0163
1964.0,0.0162
1963.0,0.0162
1962.0,0.0162
1961.0,0.0162
1960.0,0.0162
1959.0,0.0162
1958.0,0.0163
1957.0,0.0163
1956.0,0.0163
1955.0,0.0162
1954.0,0.0162
1953.0,0.0163
1952.0,0.0163
1951.0,0.0163
1950.0,0.0162
1949.0,0.0162
1948.0,0.0162
1947.0,0.0162
1946.0,0.0162
1945.0,0.0163
1944.0,0.0163
1943.0,0.0163
1942.0,0.0163
1941.0,0.0163
1940.0,0.0162
1939.0,0.0162
1938.0,0.0162
1937.0,0.0162
1936.0,0.0162
1935.0,0.0162
1934.0,0.0162
1933.0,0.0163
1932.0,0.0163
1931.0,0.0163
1930.0,0.0163
1929.0,0.0163
1928.0,0.0164
1927.0,0.0164
1926.0,0.0164
1925.0,0.0163
1924.0,0.0163
1923.0,0.0163
1922.0,0.0163
1921.0,0.0163
1920.0,0.0163
1919.0,0.0163
1918.0,0.0163
1917.0,0.0163
1916.0,0.0163
1915.0,0.0163
1914.0,0.0163
1913.0,0.0163
1912.0,0.0164
1911.0,0.0165
1910.0,0.0165
1909.0,0.0165
1908.0,0.0165
1907.0,0.0165
1906.0,0.0165
1905.0,0.0164
1904.0,0.0164
1903.0,0.0164
1902.0,0.0165
1901.0,0.0165
1900.0,0.0165
1899.0,0.0165
1898.0,0.0165
1897.0,0.0166
1896.0,0.0166
1895.0,0.0166
1894.0,0.0166
1893.0,0.0166
1892.0,0.0165
1891.0,0.0165
1890.0,0.0164
1889.0,0.0164
1888.0,0.0164
1887.0,0.0165
1886.0,0.0164
1885.0,0.0164
1884.0,0.0163
1883.0,0.0163
1882.0,0.0163
1881.0,0.0163
1880.0,0.0163
1879.0,0.0163
1878.0,0.0162
1877.0,0.0163
1876.0,0.0163
1875.0,0.0163
1874.0,0.0163
1873.0,0.0163
1872.0,0.0162
1871.0,0.0161
1870.0,0.0161
1869.0,0.0161
1868.0,0.0162
1867.0,0.0163
1866.0,0.0163
1865.0,0.0162
1864.0,0.0162
1863.0,0.0161
1862.0,0.0161
1861.0,0.0162
1860.0,0.0162
1859.0,0.0163
1858.0,0.0163
1857.0,0.0163
1856.0,0.0162
1855.0,0.0162
1854.0,0.0161
1853.0,0.0161
1852.0,0.0161
1851.0,0.0161
1850.0,0.0161
1849.0,0.0161
1848.0,0.0161
1847.0,0.0162
1846.0,0.0162
1845.0,0.0161
1844.0,0.0161
1843.0,0.0161
1842.0,0.0161
1841.0,0.0162
1840.0,0.0161
1839.0,0.0161
1838.0,0.0162
1837.0,0.0162
1836.0,0.0163
1835.0,0.0163
1834.0,0.0163
1833.0,0.0163
1832.0,0.0163
1831.0,0.0162
1830.0,0.0163
1829.0,0.0163
1828.0,0.0163
1827.0,0.0164
1826.0,0.0163
1825.0,0.0163
1824.0,0.0163
1823.0,0.0163
1822.0,0.0163
1821.0,0.0164
1820.0,0.0164
1819.0,0.0163
1818.0,0.0162
1817.0,0.0162
1816.0,0.0162
1815.0,0.0162
1814.0,0.0162
1813.0,0.0163
1812.0,0.0163
1811.0,0.0163
1810.0,0.0163
1809.0,0.0162
1808.0,0.0162
1807.0,0.0163
1806.0,0.0163
1805.0,0.0163
1804.0,0.0162
1803.0,0.0162
1802.0,0.0161
1801.0,0.0161
1800.0,0.0162
1799.0,0.0163
1798.0,0.0163
1797.0,0.0163
1796.0,0.0163
1795.0,0.0162
1794.0,0.0162
1793.0,0.0162
1792.0,0.0162
1791.0,0.0163
1790.0,0.0163
1789.0,0.0163
1788.0,0.0163
1787.0,0.0163
1786.0,0.0163
1785.0,0.0163
1784.0,0.0163
1783.0,0.0163
1782.0,0.0164
1781.0,0.0164
1780.0,0.0164
1779.0,0.0164
1778.0,0.0164
1777.0,0.0163
1776.0,0.0162
1775.0,0.0162
1774.0,0.0162
1773.0,0.0163
1772.0,0.0164
1771.0,0.0164
1770.0,0.0164
1769.0,0.0163
1768.0,0.0162
1767.0,0.0162
1766.0,0.0163
1765.0,0.0163
1764.0,0.0163
1763.0,0.0163
1762.0,0.0163
1761.0,0.0163
1760.0,0.0164
1759.0,0.0164
1758.0,0.0165
1757.0,0.0165
1756.0,0.0165
1755.0,0.0164
1754.0,0.0164
1753.0,0.0164
1752.0,0.0165
1751.0,0.0166
1750.0,0.0168
1749.0,0.0169
1748.0,0.017
1747.0,0.017
1746.0,0.017
1745.0,0.0171
1744.0,0.0172
1743.0,0.0174
1742.0,0.0174
1741.0,0.0174
1740.0,0.0174
1739.0,0.0173
1738.0,0.0173
1737.0,0.0173
1736.0,0.0173
1735.0,0.0173
1734.0,0.0173
1733.0,0.0173
1732.0,0.0173
1731.0,0.0174
1730.0,0.0175
1729.0,0.0175
1728.0,0.0175
1727.0,0.0174
1726.0,0.0174
1725.0,0.0174
1724.0,0.0175
1723.0,0.0175
1722.0,0.0175
1721.0,0.0175
1720.0,0.0176
1719.0,0.0175
1718.0,0.0174
1717.0,0.0174
1716.0,0.0174
1715.0,0.0175
1714.0,0.0176
1713.0,0.0176
1712.0,0.0176
1711.0,0.0176
1710.0,0.0175
1709.0,0.0175
1708.0,0.0175
1707.0,0.0175
1706.0,0.0176
1705.0,0.0176
1704.0,0.0175
1703.0,0.0174
1702.0,0.0173
1701.0,0.0172
1700.0,0.0173
1699.0,0.0174
1698.0,0.0176
1697.0,0.0177
1696.0,0.0177
1695.0,0.0177
1694.0,0.0177
1693.0,0.0177
1692.0,0.0178
1691.0,0.0178
1690.0,0.0178
1689.0,0.0179
1688.0,0.0179
1687.0,0.018
1686.0,0.018
1685.0,0.0181
1684.0,0.0183
1683.0,0.0183
1682.0,0.0182
1681.0,0.0182
1680.0,0.0182
1679.0,0.0182
1678.0,0.0182
1677.0,0.0182
1676.0,0.0183
1675.0,0.0185
1674.0,0.0186
1673.0,0.0186
1672.0,0.0186
1671.0,0.0186
1670.0,0.0187
1669.0,0.0188
1668.0,0.0189
1667.0,0.019
1666.0,0.019
1665.0,0.019
1664.0,0.019
1663.0,0.0189
1662.0,0.0189
1661.0,0.0189
1660.0,0.0189
1659.0,0.019
1658.0,0.019
1657.0,0.0191
1656.0,0.0191
1655.0,0.0192
1654.0,0.0192
1653.0,0.0192
1652.0,0.019
1651.0,0.019
1650.0,0.0191
1649.0,0.0192
1648.0,0.0193
1647.0,0.0194
1646.0,0.0194
1645.0,0.0192
1644.0,0.0191
1643.0,0.0191
1642.0,0.0191
1641.0,0.0191
1640.0,0.0191
1639.0,0.019
1638.0,0.019
1637.0,0.019
1636.0,0.019
1635.0,0.0191
1634.0,0.0191
1633.0,0.0191
1632.0,0.0191
1631.0,0.0191
1630.0,0.019
1629.0,0.019
1628.0,0.0189
1627.0,0.0188
1626.0,0.0187
1625.0,0.0186
1624.0,0.0185
1623.0,0.0185
1622.0,0.0186
1621.0,0.0185
1620.0,0.0185
1619.0,0.0184
1618.0,0.0184
1617.0,0.0185
1616.0,0.0186
1615.0,0.0186
1614.0,0.0185
1613.0,0.0185
1612.0,0.0184
1611.0,0.0183
1610.0,0.0183
1609.0,0.0183
1608.0,0.0183
1607.0,0.0184
1606.0,0.0184
1605.0,0.0183
1604.0,0.0183
1603.0,0.0183
1602.0,0.0183
1601.0,0.0182
1600.0,0.0182
1599.0,0.0182
1598.0,0.0182
1597.0,0.0181
1596.0,0.0182
1595.0,0.0182
1594.0,0.0182
1593.0,0.0182
1592.0,0.0182
1591.0,0.0181
1590.0,0.0181
1589.0,0.018
1588.0,0.018
1587.0,0.018
1586.0,0.018
1585.0,0.018
1584.0,0.018
1583.0,0.018
1582.0,0.018
1581.0,0.018
1580.0,0.018
1579.0,0.0179
1578.0,0.0179
1577.0,0.0178
1576.0,0.0178
1575.0,0.0179
1574.0,0.0179
1573.0,0.0179
1572.0,0.018
1571.0,0.0179
1570.0,0.0179
1569.0,0.0179
1568.0,0.0179
1567.0,0.0178
1566.0,0.0178
1565.0,0.0178
1564.0,0.0179
1563.0,0.0179
1562.0,0.0179
1561.0,0.0179
1560.0,0.0178
1559.0,0.0178
1558.0,0.0178
1557.0,0.0176
1556.0,0.0177
1555.0,0.0177
1554.0,0.0177
1553.0,0.0177
1552.0,0.0178
1551.0,0.0178
1550.0,0.0178
1549.0,0.0178
1548.0,0.0178
1547.0,0.0177
1546.0,0.0177
1545.0,0.0177
1544.0,0.0177
1543.0,0.0177
1542.0,0.0177
1541.0,0.0178
1540.0,0.018
1539.0,0.0177
1538.0,0.0175
1537.0,0.0175
1536.0,0.0175
1535.0,0.0175
1534.0,0.0174
1533.0,0.0174
1532.0,0.0174
1531.0,0.0173
1530.0,0.0172
1529.0,0.0172
1528.0,0.0172
1527.0,0.0172
1526.0,0.0171
1525.0,0.0171
1524.0,0.0172
1523.0,0.0172
1522.0,0.0172
1521.0,0.0173
1520.0,0.0173
1519.0,0.0172
1518.0,0.0171
1517.0,0.017
1516.0,0.0169
1515.0,0.0168
1514.0,0.0166
1513.0,0.0165
1512.0,0.0165
1511.0,0.0165
1510.0,0.0165
1509.0,0.0167
1508.0,0.0168
1507.0,0.0168
1506.0,0.0165
1505.0,0.0164
1504.0,0.0163
1503.0,0.0163
1502.0,0.0162
1501.0,0.0163
1500.0,0.0163
1499.0,0.0162
1498.0,0.0161
1497.0,0.0161
1496.0,0.0161
1495.0,0.016
1494.0,0.0159
1493.0,0.0159
1492.0,0.0159
1491.0,0.0158
1490.0,0.0156
1489.0,0.0158
1488.0,0.0159
1487.0,0.0158
1486.0,0.0157
1485.0,0.0157
1484.0,0.0158
1483.0,0.0159
1482.0,0.0161
1481.0,0.0166
1480.0,0.0172
1479.0,0.0182
1478.0,0.0206
1477.0,0.0258
1476.0,0.0343
1475.0,0.0457
1474.0,0.0592
1473.0,0.0709
1472.0,0.0755
1471.0,0.0747
1470.0,0.0734
1469.0,0.0734
1468.0,0.0744
1467.0,0.0767
1466.0,0.0818
1465.0,0.0897
1464.0,0.0965
1463.0,0.0983
1462.0,0.0953
1461.0,0.089
1460.0,0.0811
1459.0,0.0729
1458.0,0.0656
1457.0,0.0604
1456.0,0.0572
1455.0,0.0549
1454.0,0.0528
1453.0,0.0505
1452.0,0.0481
1451.0,0.046
1450.0,0.0442
1449.0,0.0427
1448.0,0.0414
1447.0,0.0404
1446.0,0.0398
1445.0,0.0392
1444.0,0.0386
1443.0,0.0381
1442.0,0.0376
1441.0,0.037
1440.0,0.0364
1439.0,0.0358
1438.0,0.0351
1437.0,0.0344
1436.0,0.0337
1435.0,0.0332
1434.0,0.0327
1433.0,0.0321
1432.0,0.0313
1431.0,0.0305
1430.0,0.0296
1429.0,0.0288
1428.0,0.0281
1427.0,0.0276
1426.0,0.0271
1425.0,0.0266
1424.0,0.0261
1423.0,0.0256
1422.0,0.0253
1421.0,0.0249
1420.0,0.0246
1419.0,0.0244
1418.0,0.0244
1417.0,0.0242
1416.0,0.0241
1415.0,0.0239
1414.0,0.0237
1413.0,0.0235
1412.0,0.0234
1411.0,0.0233
1410.0,0.0232
1409.0,0.023
1408.0,0.0228
1407.0,0.0226
1406.0,0.0225
1405.0,0.0225
1404.0,0.0224
1403.0,0.0224
1402.0,0.0223
1401.0,0.0222
1400.0,0.0221
1399.0,0.0221
1398.0,0.0221
1397.0,0.022
1396.0,0.0219
1395.0,0.0218
1394.0,0.0218
1393.0,0.0218
1392.0,0.0217
1391.0,0.0217
1390.0,0.0217
1389.0,0.0216
1388.0,0.0216
1387.0,0.0218
1386.0,0.0221
1385.0,0.0224
1384.0,0.0229
1383.0,0.0236
1382.0,0.0244
1381.0,0.0254
1380.0,0.0264
1379.0,0.0272
1378.0,0.0277
1377.0,0.0277
1376.0,0.0275
1375.0,0.0272
1374.0,0.027
1373.0,0.027
1372.0,0.027
1371.0,0.0271
1370.0,0.0272
1369.0,0.0272
1368.0,0.0271
1367.0,0.027
1366.0,0.0268
1365.0,0.0265
1364.0,0.0262
1363.0,0.026
1362.0,0.0257
1361.0,0.0255
1360.0,0.0252
1359.0,0.0251
1358.0,0.0251
1357.0,0.025
1356.0,0.025
1355.0,0.025
1354.0,0.0251
1353.0,0.0251
1352.0,0.0251
1351.0,0.0251
1350.0,0.0251
1349.0,0.025
1348.0,0.0248
1347.0,0.0247
1346.0,0.0246
1345.0,0.0244
1344.0,0.0243
1343.0,0.0241
1342.0,0.024
1341.0,0.0239
1340.0,0.0238
1339.0,0.0237
1338.0,0.0235
1337.0,0.0233
1336.0,0.0231
1335.0,0.023
1334.0,0.0229
1333.0,0.0227
1332.0,0.0226
1331.0,0.0225
1330.0,0.0225
1329.0,0.0225
1328.0,0.0225
1327.0,0.0225
1326.0,0.0225
1325.0,0.0225
1324.0,0.0225
1323.0,0.0225
1322.0,0.0225
1321.0,0.0226
1320.0,0.0226
1319.0,0.0228
1318.0,0.0229
1317.0,0.023
1316.0,0.0231
1315.0,0.0232
1314.0,0.0233
1313.0,0.0234
1312.0,0.0235
1311.0,0.0237
1310.0,0.0238
1309.0,0.0238
1308.0,0.0239
1307.0,0.024
1306.0,0.024
1305.0,0.0241
1304.0,0.0241
1303.0,0.0242
1302.0,0.0241
1301.0,0.0241
1300.0,0.0241
1299.0,0.0241
1298.0,0.024
1297.0,0.024
1296.0,0.0239
1295.0,0.0239
1294.0,0.0238
1293.0,0.0237
1292.0,0.0236
1291.0,0.0235
1290.0,0.0234
1289.0,0.0233
1288.0,0.0232
1287.0,0.0232
1286.0,0.0232
1285.0,0.0232
1284.0,0.0231
1283.0,0.0231
1282.0,0.0231
1281.0,0.0231
1280.0,0.023
1279.0,0.023
1278.0,0.0229
1277.0,0.0229
1276.0,0.023
1275.0,0.023
1274.0,0.0231
1273.0,0.0231
1272.0,0.0231
1271.0,0.0232
1270.0,0.0232
1269.0,0.0232
1268.0,0.0232
1267.0,0.0232
1266.0,0.0232
1265.0,0.0232
1264.0,0.0232
1263.0,0.0232
1262.0,0.0232
1261.0,0.0232
1260.0,0.0232
1259.0,0.0231
1258.0,0.0231
1257.0,0.023
1256.0,0.0229
1255.0,0.0228
1254.0,0.0228
1253.0,0.0227
1252.0,0.0226
1251.0,0.0226
1250.0,0.0225
1249.0,0.0225
1248.0,0.0225
1247.0,0.0225
1246.0,0.0225
1245.0,0.0225
1244.0,0.0225
1243.0,0.0225
1242.0,0.0224
1241.0,0.0224
1240.0,0.0225
1239.0,0.0225
1238.0,0.0225
1237.0,0.0225
1236.0,0.0224
1235.0,0.0224
1234.0,0.0224
1233.0,0.0224
1232.0,0.0223
1231.0,0.0223
1230.0,0.0222
1229.0,0.0222
1228.0,0.0222
1227.0,0.0222
1226.0,0.0222
1225.0,0.0223
1224.0,0.0223
1223.0,0.0224
1222.0,0.0223
1221.0,0.0223
1220.0,0.0222
1219.0,0.0222
1218.0,0.0223
1217.0,0.0223
1216.0,0.0223
1215.0,0.0223
1214.0,0.0222
1213.0,0.0222
1212.0,0.0221
1211.0,0.0221
1210.0,0.0221
1209.0,0.0221
1208.0,0.0221
1207.0,0.0222
1206.0,0.0222
1205.0,0.0222
1204.0,0.0222
1203.0,0.0221
1202.0,0.022
1201.0,0.0221
1200.0,0.0221
1199.0,0.0221
1198.0,0.0222
1197.0,0.0222
1196.0,0.0222
1195.0,0.0222
1194.0,0.0223
1193.0,0.0223
1192.0,0.0223
1191.0,0.0223
1190.0,0.0223
1189.0,0.0223
1188.0,0.0223
1187.0,0.0224
1186.0,0.0224
1185.0,0.0225
1184.0,0.0225
1183.0,0.0225
1182.0,0.0225
1181.0,0.0226
1180.0,0.0227
1179.0,0.0228
1178.0,0.0229
1177.0,0.0229
1176.0,0.0229
1175.0,0.0228
1174.0,0.0228
1173.0,0.0229
1172.0,0.023
1171.0,0.023
1170.0,0.023
1169.0,0.023
1168.0,0.023
1167.0,0.023
1166.0,0.023
1165.0,0.023
1164.0,0.023
1163.0,0.023
1162.0,0.023
1161.0,0.0231
1160.0,0.0231
1159.0,0.0231
1158.0,0.0231
1157.0,0.0231
1156.0,0.0231
1155.0,0.0232
1154.0,0.0232
1153.0,0.0231
1152.0,0.0231
1151.0,0.0231
1150.0,0.0232
1149.0,0.0232
1148.0,0.0232
1147.0,0.0232
1146.0,0.0232
1145.0,0.0231
1144.0,0.0231
1143.0,0.0231
1142.0,0.0231
1141.0,0.023
1140.0,0.023
1139.0,0.023
1138.0,0.0231
1137.0,0.0232
1136.0,0.0232
1135.0,0.0233
1134.0,0.0232
1133.0,0.0232
1132.0,0.0232
1131.0,0.0232
1130.0,0.0232
1129.0,0.0232
1128.0,0.0233
1127.0,0.0233
1126.0,0.0232
1125.0,0.0232
1124.0,0.0231
1123.0,0.0231
1122.0,0.0232
1121.0,0.0232
1120.0,0.0233
1119.0,0.0233
1118.0,0.0234
1117.0,0.0235
1116.0,0.0235
1115.0,0.0235
1114.0,0.0235
1113.0,0.0234
1112.0,0.0234
1111.0,0.0234
1110.0,0.0234
1109.0,0.0235
1108.0,0.0235
1107.0,0.0236
1106.0,0.0236
1105.0,0.0237
1104.0,0.0237
1103.0,0.0237
1102.0,0.0237
1101.0,0.0237
1100.0,0.0237
1099.0,0.0238
1098.0,0.0238
1097.0,0.0239
1096.0,0.0239
1095.0,0.024
1094.0,0.0241
1093.0,0.0242
1092.0,0.0243
1091.0,0.0243
1090.0,0.0244
1089.0,0.0244
1088.0,0.0244
1087.0,0.0244
1086.0,0.0244
1085.0,0.0245
1084.0,0.0246
1083.0,0.0247
1082.0,0.0248
1081.0,0.0248
1080.0,0.0248
1079.0,0.0248
1078.0,0.0248
1077.0,0.0249
1076.0,0.0249
1075.0,0.025
1074.0,0.025
1073.0,0.0249
1072.0,0.0248
1071.0,0.0246
1070.0,0.0246
1069.0,0.0246
1068.0,0.0247
1067.0,0.0247
1066.0,0.0248
1065.0,0.0248
1064.0,0.0249
1063.0,0.0249
1062.0,0.0248
1061.0,0.0247
1060.0,0.0247
1059.0,0.0246
1058.0,0.0246
1057.0,0.0246
1056.0,0.0246
1055.0,0.0246
1054.0,0.0246
1053.0,0.0246
1052.0,0.0248
1051.0,0.0248
1050.0,0.0248
1049.0,0.0248
1048.0,0.0249
1047.0,0.0249
1046.0,0.0249
1045.0,0.0248
1044.0,0.0249
1043.0,0.0249
1042.0,0.025
1041.0,0.025
1040.0,0.025
1039.0,0.025
1038.0,0.025
1037.0,0.0251
1036.0,0.0251
1035.0,0.0252
1034.0,0.0252
1033.0,0.0251
1032.0,0.025
1031.0,0.025
1030.0,0.025
1029.0,0.025
1028.0,0.025
1027.0,0.025
1026.0,0.025
1025.0,0.0251
1024.0,0.0251
1023.0,0.0251
1022.0,0.0252
1021.0,0.0252
1020.0,0.0252
1019.0,0.0251
1018.0,0.0251
1017.0,0.025
1016.0,0.025
1015.0,0.0251
1014.0,0.0251
1013.0,0.0251
1012.0,0.0251
1011.0,0.025
1010.0,0.0249
1009.0,0.0248
1008.0,0.0247
1007.0,0.0246
1006.0,0.0245
1005.0,0.0244
1004.0,0.0244
1003.0,0.0243
1002.0,0.0242
1001.0,0.0242
1000.0,0.0242
999.0,0.0242
998.0,0.0242
997.0,0.0242
996.0,0.0242
995.0,0.0242
994.0,0.0241
993.0,0.024
992.0,0.024
991.0,0.024
990.0,0.024
989.0,0.024
988.0,0.024
987.0,0.024
986.0,0.0239
985.0,0.0238
984.0,0.0237
983.0,0.0237
982.0,0.0237
981.0,0.0237
980.0,0.0237
979.0,0.0237
978.0,0.0237
977.0,0.0237
976.0,0.0237
975.0,0.0237
974.0,0.0237
973.0,0.0237
972.0,0.0237
971.0,0.0237
970.0,0.0238
969.0,0.0238
968.0,0.0238
967.0,0.0239
966.0,0.0239
965.0,0.024
964.0,0.024
963.0,0.024
962.0,0.0239
961.0,0.0238
960.0,0.0237
959.0,0.0236
958.0,0.0235
957.0,0.0235
956.0,0.0235
955.0,0.0236
954.0,0.0237
953.0,0.0237
952.0,0.0237
951.0,0.0237
950.0,0.0237
949.0,0.0236
948.0,0.0237
947.0,0.0237
946.0,0.0237
945.0,0.0237
944.0,0.0237
943.0,0.0236
942.0,0.0236
941.0,0.0236
940.0,0.0236
939.0,0.0236
938.0,0.0235
937.0,0.0235
936.0,0.0235
935.0,0.0236
934.0,0.0236
933.0,0.0237
932.0,0.0237
931.0,0.0236
930.0,0.0236
929.0,0.0236
928.0,0.0238
927.0,0.0239
926.0,0.0239
925.0,0.0239
924.0,0.0239
923.0,0.0239
922.0,0.0238
921.0,0.0238
920.0,0.0238
919.0,0.0238
918.0,0.0238
917.0,0.0239
916.0,0.0239
915.0,0.0239
914.0,0.0238
913.0,0.0238
912.0,0.0239
911.0,0.0239
910.0,0.0239
909.0,0.024
908.0,0.0241
907.0,0.0241
906.0,0.0241
905.0,0.0241
904.0,0.0241
903.0,0.0241
902.0,0.0243
901.0,0.0244
900.0,0.0244
899.0,0.0245
898.0,0.0244
897.0,0.0244
896.0,0.0244
895.0,0.0244
894.0,0.0245
893.0,0.0245
892.0,0.0245
891.0,0.0246
890.0,0.0248
889.0,0.0249
888.0,0.025
887.0,0.025
886.0,0.025
885.0,0.0249
884.0,0.0247
883.0,0.0246
882.0,0.0246
881.0,0.0246
880.0,0.0247
879.0,0.0247
878.0,0.0246
877.0,0.0244
876.0,0.0243
875.0,0.0243
874.0,0.0243
873.0,0.0243
872.0,0.0244
871.0,0.0244
870.0,0.0244
869.0,0.0244
868.0,0.0244
867.0,0.0244
866.0,0.0245
865.0,0.0245
864.0,0.0244
863.0,0.0243
862.0,0.0242
861.0,0.0241
860.0,0.0241
859.0,0.0241
858.0,0.0242
857.0,0.0242
856.0,0.0243
855.0,0.0242
854.0,0.024
853.0,0.0239
852.0,0.0237
851.0,0.0237
850.0,0.0238
849.0,0.024
848.0,0.0241
847.0,0.0241
846.0,0.0242
845.0,0.0242
844.0,0.0243
843.0,0.0244
842.0,0.0245
841.0,0.0245
840.0,0.0244
839.0,0.0242
838.0,0.0241
837.0,0.0239
836.0,0.0237
835.0,0.0237
834.0,0.0237
833.0,0.0239
832.0,0.0241
831.0,0.0242
830.0,0.0243
829.0,0.0243
828.0,0.0242
827.0,0.024
826.0,0.0239
825.0,0.0238
824.0,0.0238
823.0,0.0239
822.0,0.0238
821.0,0.0238
820.0,0.0238
819.0,0.0239
818.0,0.024
817.0,0.0241
816.0,0.0241
815.0,0.0241
814.0,0.0242
813.0,0.0243
812.0,0.0245
811.0,0.0245
810.0,0.0245
809.0,0.0244
808.0,0.0243
807.0,0.0241
806.0,0.0239
805.0,0.0239
804.0,0.024
803.0,0.0243
802.0,0.0245
801.0,0.0247
800.0,0.0248
799.0,0.0248
798.0,0.0247
797.0,0.0246
796.0,0.0245
795.0,0.0244
794.0,0.0244
793.0,0.0243
792.0,0.0243
791.0,0.0243
790.0,0.0243
789.0,0.0244
788.0,0.0244
787.0,0.0243
786.0,0.0243
785.0,0.0243
784.0,0.0244
783.0,0.0245
782.0,0.0244
781.0,0.0244
780.0,0.0242
779.0,0.0242
778.0,0.0243
777.0,0.0245
776.0,0.0247
775.0,0.0248
774.0,0.0249
773.0,0.0249
772.0,0.0249
771.0,0.0249
770.0,0.0249
769.0,0.0249
768.0,0.0247
767.0,0.0245
766.0,0.0243
765.0,0.0243
764.0,0.0245
763.0,0.0247
762.0,0.0248
761.0,0.0247
760.0,0.0246
759.0,0.0245
758.0,0.0245
757.0,0.0246
756.0,0.0247
755.0,0.0246
754.0,0.0246
753.0,0.0245
752.0,0.0244
751.0,0.0243
750.0,0.0241
749.0,0.0241
748.0,0.0242
747.0,0.0243
746.0,0.0245
745.0,0.0247
744.0,0.0248
743.0,0.0248
742.0,0.0247
741.0,0.0246
740.0,0.0246
739.0,0.0249
738.0,0.0255
737.0,0.0264
736.0,0.0278
735.0,0.0303
734.0,0.0355
733.0,0.0444
732.0,0.0558
731.0,0.0664
730.0,0.0723
729.0,0.0722
728.0,0.0681
727.0,0.0636
726.0,0.061
725.0,0.0614
724.0,0.0647
723.0,0.0716
722.0,0.0827
721.0,0.097
720.0,0.1097
719.0,0.1146
718.0,0.1101
717.0,0.0996
716.0,0.0875
715.0,0.0766
714.0,0.0679
713.0,0.061
712.0,0.0555
711.0,0.0513
710.0,0.0483
709.0,0.0461
708.0,0.0444
707.0,0.0427
706.0,0.041
705.0,0.0394
704.0,0.038
703.0,0.0367
702.0,0.0355
701.0,0.0346
700.0,0.0346
699.0,0.0351
698.0,0.035
697.0,0.0337
696.0,0.032
695.0,0.0311
694.0,0.0316
693.0,0.0326
692.0,0.0334
691.0,0.0338
690.0,0.034
689.0,0.0338
688.0,0.0331
687.0,0.0319
686.0,0.0309
685.0,0.0304
684.0,0.0305
683.0,0.031
682.0,0.0311
681.0,0.0305
680.0,0.0296
679.0,0.0289
678.0,0.0283
677.0,0.0275
676.0,0.0266
675.0,0.0262
674.0,0.0266
673.0,0.0271
672.0,0.027
671.0,0.0262
670.0,0.0252
669.0,0.0257
668.0,0.0284
667.0,0.0302
666.0,0.0297
665.0,0.0282
664.0,0.0268
663.0,0.0266
662.0,0.0273
661.0,0.0278
660.0,0.0272
659.0,0.0263
658.0,0.0262
657.0,0.0268
656.0,0.0276
655.0,0.0282
654.0,0.0284
653.0,0.0281
652.0,0.0276
651.0,0.0273
650.0,0.0273
649.0,0.0274
648.0,0.0275
647.0,0.0278
646.0,0.0282
645.0,0.0283
644.0,0.028
643.0,0.0277
642.0,0.0273
641.0,0.0268
640.0,0.0264
639.0,0.0264
638.0,0.027
637.0,0.0278
636.0,0.0284
635.0,0.0286
634.0,0.0285
633.0,0.0282
632.0,0.0283
631.0,0.0292
630.0,0.0303
629.0,0.0309
628.0,0.0309
627.0,0.0306
626.0,0.03
625.0,0.0289
624.0,0.0276
623.0,0.0269
622.0,0.027
621.0,0.0275
620.0,0.0283
619.0,0.0297
618.0,0.0315
617.0,0.0324
616.0,0.0317
615.0,0.03
614.0,0.0285
613.0,0.0274
612.0,0.0268
611.0,0.0267
610.0,0.0274
609.0,0.0283
608.0,0.0292
607.0,0.0299
606.0,0.0304
605.0,0.03
604.0,0.0289
603.0,0.0281
602.0,0.028
601.0,0.0284
600.0,0.029
